Unnamed: 0,cycle,p_center,p_height,p_width,q_center,q_height,q_width,r_center,r_height,r_width,s_center,s_height,s_width,t_center,t_height,t_width,r_squared,pr_interval,pr_segment,qrs_duration,st_segment,qt_interval,p_duration,pp_interval,rr_interval,fwhm_p,rise_time_p,decay_time_p,rise_decay_symmetry_p,sharpness_deriv_p,sharpness_diff_p,fwhm_q,rise_time_q,decay_time_q,rise_decay_symmetry_q,sharpness_deriv_q,sharpness_diff_q,fwhm_r,rise_time_r,decay_time_r,rise_decay_symmetry_r,sharpness_deriv_r,sharpness_diff_r,fwhm_s,rise_time_s,decay_time_s,rise_decay_symmetry_s,sharpness_deriv_s,sharpness_diff_s,fwhm_t,rise_time_t,decay_time_t,rise_decay_symmetry_t,sharpness_deriv_t,sharpness_diff_t,Average_Heart_Rate,SDNN,RMSSD,NN50,p_on,p_off,q_on,q_off,r_on,r_off,s_on,s_off,t_on,t_off,sharpness_deriv_p_norm,sharpness_deriv_q_norm,sharpness_deriv_r_norm,sharpness_deriv_s_norm,sharpness_deriv_t_norm
0,0,0.0,0.0,0.0,0.0,0.0,0.0,0.0,0.0,0.0,0.0,0.0,0.0,0.0,0.0,0.0,0.0,0.0,0.0,0.0,0.0,0.0,0.0,0.0,0.0,0.0,0.0,0.0,0.0,0.0,0.0,0.0,0.0,0.0,0.0,0.0,0.0,0.0,0.0,0.0,0.0,0.0,0.0,0.0,0.0,0.0,0.0,0.0,0.0,0.0,0.0,0.0,0.0,0.0,0.0,76.45438160056207,100.30720397458188,125.52339211164234,210.0,,,,,,,,,,,,,,,
1,1,1028.6704547983131,4120.147846680792,18.4836134309604,1142.2942484601654,-3369.1646072141552,8.494362963352225,1170.934171410948,39785.13370811946,9.80637308841134,1192.6027127988482,-9149.918367167938,7.039374565358768,1391.470818743465,9804.071623365484,36.09365896503523,0.9868758445026814,118.0,86.0,71.0,229.0,300.0,32.0,,,33.0,13.0,20.0,0.3939393939393939,204.40137980133633,4650.30378024367,12.0,9.0,3.0,0.75,692.2140844179049,4355.380683964397,24.0,13.0,11.0,0.5416666666666666,2038.5065900652787,34196.80204204458,18.0,5.0,13.0,0.2777777777777778,1431.2549247135282,20891.255445907012,86.0,43.0,43.0,0.5,150.61206318239746,10658.529932325197,0.0,0.0,0.0,0.0,1016.0,1048.0,1134.0,1145.0,1158.0,1182.0,1188.0,1205.0,1350.0,1434.0,0.049610205120673746,-0.20545570345115094,0.05123789717588042,-0.15642269879141305,0.015362195317244759
2,2,1811.1468703000833,3107.47443314085,10.654967810811472,1919.027373698992,-4003.0075751928234,17.8357578060484,1953.5195526005416,42510.918522692285,9.363074712904623,1980.932391695323,-6860.207282652674,22.93168860777651,2178.943912544287,8064.056510792776,26.905179711603527,0.9661881464592248,110.0,92.0,79.0,220.0,299.0,18.0,780.0,780.0,18.0,8.0,10.0,0.4444444444444444,193.85907259396183,3510.8406190295973,19.0,8.0,11.0,0.4210526315789473,366.2962739469759,2631.112191547013,23.0,12.0,11.0,0.5217391304347826,2040.9900591401324,31580.4993065629,23.0,10.0,13.0,0.4347826086956521,841.8063916690388,15181.57405524154,69.0,36.0,33.0,0.5217391304347826,143.29400961653462,8123.511249572108,0.0,0.0,0.0,0.0,1803.0,1821.0,1913.0,1929.0,1942.0,1965.0,1971.0,1992.0,2148.0,2212.0,0.06238476832712687,-0.09150526624455152,0.0480109611851989,-0.12270859421372075,0.01776946992183806
3,3,2617.5411545342854,2744.135307821282,8.701296992311805,2724.1780518987043,-4588.628701663354,22.93168860777651,2759.867050109334,40193.29159998811,9.667039686458915,2783.602712798848,-9006.158959843653,9.36445181240606,2980.279676973541,9087.001124378265,31.337227551980245,0.9721915825035468,109.0,91.0,77.0,225.0,302.0,18.0,805.0,806.0,18.0,9.0,9.0,0.5,212.93592310862405,2537.5501559613567,62.0,48.0,14.0,0.7741935483870968,291.755072665288,2443.872235981364,23.0,12.0,11.0,0.5217391304347826,1998.3296843674584,32713.631237668335,19.0,7.0,12.0,0.3684210526315789,1234.6332605376092,19773.510345765862,81.0,40.0,41.0,0.4938271604938271,161.0854974074737,8877.883550441516,0.0,0.0,0.0,0.0,2609.0,2627.0,2718.0,2737.0,2748.0,2771.0,2777.0,2795.0,2942.0,3020.0,0.07759672874064123,-0.0635821923354854,0.049717990361556996,-0.13708766034916203,0.017727025143126657
4,4,3382.752726358105,4493.761359536454,22.82421585064422,3494.6986436005755,-3238.903603946727,6.872932572031511,3525.5147598934373,40664.192009843464,9.521515710769371,3548.602712798848,-7334.159988059208,7.574653787703012,3750.534155696112,10239.68405910953,36.92507163781229,0.98428874912818,118.0,79.0,72.0,228.0,300.0,39.0,766.0,765.0,39.0,12.0,27.0,0.3076923076923077,205.0298931298951,5505.535611754587,11.0,6.0,5.0,0.5454545454545454,580.3595084395103,2389.3023210610418,24.0,13.0,11.0,0.5416666666666666,2064.5531224417596,33784.2346069589,19.0,6.0,13.0,0.3157894736842105,1297.758431655884,18512.980974335835,86.0,47.0,39.0,0.5465116279069767,118.2162425208174,10843.005247569006,0.0,0.0,0.0,0.0,3371.0,3410.0,3489.0,3500.0,3513.0,3537.0,3544.0,3561.0,3711.0,3789.0,0.04562545198240002,-0.17918393981602915,0.05077078924725712,-0.17694711238489105,0.011544911135773637
5,5,4171.7946397156875,2803.261615488518,8.279957312188657,4276.602712798849,-4640.3556836024145,20.383723206912453,4312.057523306929,44326.61946762707,9.356657619444228,4334.178051898705,-7173.942035318968,22.9316886077765,4535.958816596257,8627.649460567214,29.693181665175363,0.9659001073866534,105.0,88.0,81.0,225.0,306.0,17.0,788.0,790.0,17.0,10.0,7.0,0.5882352941176471,186.05296807803072,3323.0856596775757,55.0,42.0,13.0,0.7636363636363637,327.04362827851907,3816.72880926108,23.0,12.0,11.0,0.5217391304347826,2095.2094121364717,34451.83531795742,24.0,6.0,18.0,0.25,1393.6202717813292,23332.558023265487,83.0,44.0,39.0,0.5301204819277109,184.2571857390826,8171.659559662252,0.0,0.0,0.0,0.0,4162.0,4179.0,4267.0,4288.0,4300.0,4323.0,4329.0,4348.0,4493.0,4573.0,0.06637017645804268,-0.07047813800872858,0.04726752090054284,-0.1942614346366636,0.021356591570071602
6,6,4967.961822099601,4049.6709348509025,18.405408988738422,5077.273982700431,-2737.7268012755785,6.7465726350710655,5107.714257057938,40950.12541581079,9.334095463288484,5131.452034599137,-6581.8044883141565,6.611259975626899,5329.364621484011,10054.0640909063,35.0514147731501,0.9863714438815632,117.0,85.0,67.0,228.0,295.0,32.0,796.0,793.0,32.0,12.0,20.0,0.375,206.97467855327596,4667.881594912782,8.0,4.0,4.0,0.5,565.9215257111416,1994.4346014505463,24.0,12.0,12.0,0.5,2052.385898790884,35467.07089561278,15.0,5.0,10.0,0.3333333333333333,1287.4355499100527,18415.61786132482,82.0,39.0,43.0,0.4756097560975609,137.18630511861252,10286.907225146557,0.0,0.0,0.0,0.0,4956.0,4988.0,5073.0,5081.0,5096.0,5119.0,5126.0,5140.0,5292.0,5368.0,0.0511090115426616,-0.20671219840031663,0.05011916026998199,-0.19560525570090467,0.013644860812325117
7,7,5745.328730098417,3747.7208306066086,19.825921460017256,5856.698643596388,-2806.565582071056,6.161449781522486,5886.634651657592,41196.77792915026,9.610360665704318,5910.602712798849,-6911.459234367521,8.49090968324017,6105.324298902991,9768.931367979052,38.498508789588776,0.986050431026452,129.0,90.0,72.0,225.0,297.0,39.0,783.0,778.0,43.0,23.0,20.0,0.5348837209302325,186.95088164316695,4217.524144916785,8.0,6.0,2.0,0.75,676.2120713597344,4257.433612978253,24.0,13.0,11.0,0.5416666666666666,2026.840548000834,33741.965378025896,20.0,6.0,14.0,0.3,1177.2039534995404,17123.12643732873,81.0,38.0,43.0,0.4691358024691358,146.5655749892548,10506.086009375726,0.0,0.0,0.0,0.0,5722.0,5761.0,5851.0,5859.0,5874.0,5898.0,5906.0,5923.0,6067.0,6148.0,0.0498838867923113,-0.240939344399975,0.04919900657004222,-0.1703263975928331,0.01500323520233468
8,8,6508.239239727576,4004.522022750365,17.947362854397518,6617.698643600575,-3535.9783446439505,7.820741527647353,6648.2395503407815,39637.504766047794,9.42614489367942,6670.602712798849,-8911.019242767294,7.68439569849815,6870.889351281131,9399.140632284145,34.89484852214619,0.9838119736792884,117.0,87.0,70.0,230.0,300.0,30.0,760.0,765.0,32.0,14.0,18.0,0.4375,180.3940686561412,4751.937424817883,12.0,7.0,5.0,0.5833333333333334,627.1065045119011,2158.3130622695644,23.0,12.0,11.0,0.5217391304347826,2073.5665567485103,34663.42673028016,18.0,6.0,12.0,0.3333333333333333,1363.8580567757365,20924.642633840103,85.0,44.0,41.0,0.5176470588235295,155.93360094147894,10063.904139703363,0.0,0.0,0.0,0.0,6495.0,6525.0,6612.0,6622.0,6636.0,6659.0,6665.0,6682.0,6833.0,6912.0,0.04504759060664221,-0.17735021071658927,0.05231324648176795,-0.15305298076678756,0.016590197661888215
9,9,7272.178051898705,3162.7431478663234,14.783138273773506,7379.79145280277,-3812.6075513950545,12.739827004320285,7413.512725118804,38845.35735623608,9.432740077602864,7436.602712798849,-8528.560020011095,7.961580505620179,7633.9152981803745,8592.546031926555,31.347312824906545,0.980735337122986,117.0,91.0,72.0,225.0,297.0,26.0,766.0,765.0,38.0,25.0,13.0,0.6578947368421053,185.3237206443027,3041.4488912095712,17.0,9.0,8.0,0.5294117647058824,381.4848821634365,1357.6334786879092,24.0,13.0,11.0,0.5416666666666666,2028.5779272076556,32208.354726514033,19.0,7.0,12.0,0.3684210526315789,1284.1540783605828,19355.466554663817,83.0,40.0,43.0,0.4819277108433735,166.21419751825016,8289.569287934839,0.0,0.0,0.0,0.0,7259.0,7285.0,7376.0,7388.0,7401.0,7425.0,7431.0,7448.0,7598.0,7673.0,0.05859588084771518,-0.10005878575775497,0.052221888670101156,-0.15057103137545982,0.01934399849598279
10,10,8052.830439279713,2630.7843493438136,13.917634237415085,8162.200722609922,-4342.521632767165,22.93168860777651,8197.09779602374,39656.82203188144,9.445826390464282,8220.60271279885,-8741.896170843665,7.850792194791244,8421.3890710763,9023.243248933775,30.818417985715847,0.9755091255674896,104.0,85.0,83.0,228.0,311.0,19.0,779.0,781.0,20.0,8.0,12.0,0.4,181.36375725182825,2236.1059591579715,38.0,25.0,13.0,0.6578947368421053,298.1102029463135,2883.8089285983215,24.0,12.0,12.0,0.5,2032.449890488756,34246.45429476876,19.0,7.0,12.0,0.3684210526315789,1284.6666699364418,19284.016266755152,75.0,36.0,39.0,0.48,148.51307953782762,9799.589187542766,0.0,0.0,0.0,0.0,8045.0,8064.0,8149.0,8174.0,8185.0,8209.0,8215.0,8232.0,8385.0,8460.0,0.06893904371031594,-0.06864910025936938,0.05125095220325022,-0.14695515078537713,0.01645894668254417
11,11,8813.826136366592,3989.6284381969426,16.88392821949463,8925.547961775826,-3601.3590290891516,15.28779240518434,8954.673200937466,40281.91029217143,9.724697620907474,8979.027373698993,-7376.10257598342,8.90508601989391,9175.484520703289,9933.898575673938,35.07420052238713,0.982372250274378,118.0,81.0,74.0,225.0,299.0,37.0,759.0,760.0,37.0,15.0,22.0,0.4054054054054054,199.96778560349327,5059.403998019423,16.0,11.0,5.0,0.6875,775.597977796255,4141.580043052862,24.0,12.0,12.0,0.5,2017.7702504954184,33536.519445591024,20.0,6.0,14.0,0.3,1213.105711268713,17892.853737460333,85.0,43.0,42.0,0.5058823529411764,161.0960826493211,10282.93080980295,0.0,0.0,0.0,0.0,8799.0,8836.0,8917.0,8929.0,8943.0,8967.0,8975.0,8991.0,9136.0,9216.0,0.05012190701494647,-0.21536258160642696,0.05009122546225324,-0.16446432228567207,0.016216803646839324
12,12,9574.94997787931,2661.399157070022,13.426139720768964,9684.626486151285,-3576.5134303646755,15.287792404787146,9715.298228717063,40283.644837921725,9.730206428945651,9738.178051898703,-8427.674481035787,8.73398387731472,9936.602092770385,9126.32621575324,30.13264267352544,0.976638845943562,112.0,96.0,74.0,223.0,297.0,16.0,759.0,761.0,18.0,12.0,6.0,0.6666666666666666,212.00408764298768,3231.6782285573463,14.0,9.0,5.0,0.6428571428571429,632.7327367301011,1799.7977987948236,24.0,12.0,12.0,0.5,2041.9041060500329,34958.13337570593,19.0,5.0,14.0,0.2631578947368421,1358.3174031335134,20657.288895561887,73.0,36.0,37.0,0.4931506849315068,130.09156675364304,9784.097490258093,0.0,0.0,0.0,0.0,9565.0,9581.0,9677.0,9690.0,9703.0,9727.0,9733.0,9751.0,9902.0,9974.0,0.07965888434277046,-0.17691328413817398,0.05068816673033146,-0.16117345374338332,0.014254538318944578
13,13,10373.048490283736,3653.135887511988,18.3327575214239,10483.698643600574,-2960.0601719822253,10.191861603456228,10514.582252390404,40532.7777899799,9.703833669172743,10536.60271279885,-8245.583608789259,6.906597867050206,10739.958816596258,9523.373392134235,32.722467877215955,0.9866638660305628,117.0,85.0,71.0,228.0,299.0,32.0,800.0,799.0,32.0,12.0,20.0,0.375,207.6933711540106,4298.994490260664,12.0,7.0,5.0,0.5833333333333334,575.4437501331034,2601.789969078428,24.0,13.0,11.0,0.5416666666666666,2089.5231790153452,34494.31909411097,18.0,5.0,13.0,0.2777777777777778,1395.363583290887,19923.159805039864,84.0,46.0,38.0,0.5476190476190477,124.86217527118848,9218.193521665566,0.0,0.0,0.0,0.0,10361.0,10393.0,10478.0,10489.0,10502.0,10526.0,10532.0,10549.0,10695.0,10777.0,0.05685344798259412,-0.19440272045137294,0.051551442880184144,-0.16922556964961458,0.013111128812225039
14,14,11227.178051898703,3765.550121755573,18.013706721093317,11340.981780877884,-3631.9738674507753,17.83575780604698,11370.11861868001,40465.04173092169,9.397437104908832,11395.027373698991,-7622.491082275258,8.195342546683886,11595.10000184763,9735.834327498342,31.57767161910372,0.983873931212164,125.0,92.0,73.0,228.0,301.0,33.0,858.0,856.0,46.0,26.0,20.0,0.5652173913043478,192.37564747585608,3589.858438010034,14.0,9.0,5.0,0.6428571428571429,700.3685580819699,2286.248269138194,23.0,11.0,12.0,0.4782608695652174,2045.5943565677,36679.76944975348,17.0,7.0,10.0,0.4117647058823529,1123.0980983016575,18031.392136985243,80.0,41.0,39.0,0.5125,120.4668876924022,10256.050882190462,0.0,0.0,0.0,0.0,11207.0,11240.0,11332.0,11346.0,11359.0,11382.0,11388.0,11405.0,11559.0,11633.0,0.05108832474819557,-0.19283414023392945,0.05055213757519846,-0.147340034403349,0.012373555633763193
15,15,12050.177441699889,4236.88342555733,21.624344924193142,12164.62295752777,-3607.1918867964537,7.324672189983566,12193.963591899055,40347.480360423106,9.497459452652969,12219.027373698991,-6074.4987685306105,7.869366682549307,12418.521134653976,9957.397679802045,36.029588864584696,0.9862474722226412,119.0,81.0,72.0,229.0,301.0,38.0,824.0,824.0,38.0,12.0,26.0,0.3157894736842105,209.54941460230427,4646.177701938948,12.0,9.0,3.0,0.75,713.934430495279,4120.141372625253,25.0,13.0,12.0,0.52,1998.8901785618175,35133.81438886192,16.0,6.0,10.0,0.375,1084.7110395492143,15975.221856125603,83.0,41.0,42.0,0.4939759036144578,150.72922392993758,10483.786313140794,0.0,0.0,0.0,0.0,12038.0,12076.0,12157.0,12168.0,12181.0,12206.0,12214.0,12229.0,12379.0,12458.0,0.04945838569413545,-0.19791972617495657,0.04954188367416696,-0.17856799069062948,0.015137411277213757
16,16,12818.57475160057,4121.329217581347,19.72787326477839,12935.54796540086,-3067.745187197182,15.287792405132487,12964.578599138647,40446.34953764593,9.788112087655332,12987.60271279885,-8472.032831693345,7.861105797429607,13185.377060223089,9724.83461183164,33.90150443016422,0.9847370089462596,128.0,90.0,73.0,226.0,299.0,38.0,765.0,770.0,39.0,21.0,18.0,0.5384615384615384,169.21705912371166,4714.924254711662,14.0,11.0,3.0,0.7857142857142857,716.6650366377813,4580.686429551124,24.0,13.0,11.0,0.5416666666666666,2033.9419664700013,33910.49501821558,19.0,6.0,13.0,0.3157894736842105,1320.4351122651383,19808.07994032238,91.0,47.0,44.0,0.5164835164835165,144.2161347894257,9925.252119693345,0.0,0.0,0.0,0.0,12798.0,12836.0,12926.0,12939.0,12952.0,12976.0,12982.0,12999.0,13145.0,13225.0,0.041058855090207715,-0.23361296095539014,0.05028740516067797,-0.15585812029970814,0.014829674801252283
17,17,13598.695191133434,3350.325055729844,13.004801500465351,13710.156444030965,-3734.159912440132,10.191861603454742,13739.507178995143,39552.36096645816,9.768336646080364,13761.60271279885,-8758.888228635182,7.579052887541995,13961.908134438563,9678.896389139743,31.593411255888093,0.980238243295128,115.0,92.0,72.0,229.0,301.0,23.0,779.0,775.0,23.0,13.0,10.0,0.5652173913043478,193.37811177938005,4150.394934044157,12.0,9.0,3.0,0.75,676.0508693143863,2963.0098085149584,24.0,13.0,11.0,0.5416666666666666,2070.1494840274513,33234.67228268055,19.0,5.0,14.0,0.2631578947368421,1341.4213546434787,20739.130142716367,81.0,40.0,41.0,0.4938271604938271,157.75702458755916,9462.703694249933,0.0,0.0,0.0,0.0,13586.0,13609.0,13701.0,13713.0,13727.0,13751.0,13757.0,13773.0,13923.0,14002.0,0.057719208901434206,-0.18104496999771302,0.05233946680914986,-0.15314972855322076,0.016299071530982732
18,18,14371.914133877544,2930.0980252089107,15.174360710331278,14480.45203459914,-3853.618895936501,15.28779240518434,14513.643798752755,40026.46494399732,9.449477940363098,14537.60271279885,-7583.951259751219,7.837125589449436,14741.23279929669,9347.016145824298,31.494071936493068,0.9771457626480808,116.0,95.0,72.0,225.0,297.0,21.0,773.0,772.0,21.0,11.0,10.0,0.5238095238095238,198.06454976657352,3574.3277380118025,18.0,8.0,10.0,0.4444444444444444,386.41969135305663,1618.763499406583,23.0,12.0,11.0,0.5217391304347826,2050.7260971011724,34159.18294029203,19.0,7.0,12.0,0.3684210526315789,1182.3799127935488,18126.53954700426,80.0,46.0,34.0,0.575,192.86060291085704,9045.254362986663,0.0,0.0,0.0,0.0,14361.0,14382.0,14477.0,14489.0,14502.0,14525.0,14532.0,14549.0,14696.0,14774.0,0.06759656095548267,-0.10027449568521733,0.051234254635537456,-0.15590552632749055,0.020633387158212613
19,19,15171.348632509806,3238.303746574697,14.61528317639505,15281.075034713604,-3341.3086274462803,12.73982700432028,15312.428298713776,39615.12389860961,9.550364916265902,15336.60271279885,-7316.196769238194,8.311311485056114,15532.997009485684,9061.13768401852,34.166590429271324,0.9812457096293792,114.0,95.0,72.0,224.0,296.0,19.0,799.0,798.0,19.0,9.0,10.0,0.4736842105263157,208.76178637245357,3774.8579186386346,11.0,5.0,6.0,0.4545454545454545,519.0729337765927,157.84471460875147,24.0,12.0,12.0,0.5,1976.592593896371,35263.27743773379,20.0,7.0,13.0,0.35,1147.5462988878985,17128.182424240935,84.0,40.0,44.0,0.4761904761904761,134.53930135660264,8998.563211219787,0.0,0.0,0.0,0.0,15162.0,15181.0,15276.0,15287.0,15300.0,15324.0,15331.0,15348.0,15494.0,15572.0,0.06446640053246103,-0.15535019109363551,0.04989489869967931,-0.15685011421684164,0.014847948022453606
20,20,15928.256974627438,4426.324531903934,21.435445492189228,16042.698643600574,-3432.533816535637,6.332836876622175,16073.142129967982,40491.97633545976,9.389555643049787,16097.027373698991,-7166.910846166853,7.625199531467803,16297.10949479597,9581.122666039151,35.49054484756021,0.9856867802996048,132.0,86.0,70.0,230.0,300.0,46.0,759.0,764.0,50.0,26.0,24.0,0.52,197.66282267612877,5138.728423117958,12.0,7.0,5.0,0.5833333333333334,619.7732616913304,2707.4171611498773,24.0,12.0,12.0,0.5,2045.494966416329,34916.93992952924,19.0,7.0,12.0,0.3684210526315789,1258.5048053406988,18285.133914263235,86.0,45.0,41.0,0.5232558139534884,140.04916156971345,9685.159814240773,0.0,0.0,0.0,0.0,15905.0,15951.0,16037.0,16047.0,16061.0,16085.0,16091.0,16107.0,16252.0,16337.0,0.04465619754074072,-0.18055853046681727,0.05051605655081453,-0.1755993387323629,0.014617197425738622
21,21,16746.027373698995,2949.169040390806,14.065712346587636,16855.45203459914,-4154.473821832801,15.28779240518434,16888.17251996864,40455.92742729301,9.511978621283694,16911.602712798853,-8429.682425339855,8.263775889424368,17111.749153150762,9559.350905209045,32.4686706758964,0.9811666236739592,114.0,92.0,75.0,228.0,303.0,22.0,819.0,814.0,23.0,13.0,10.0,0.5652173913043478,183.58963304947144,3295.089402008422,17.0,7.0,10.0,0.4117647058823529,429.0718130965389,1650.9861160998855,24.0,12.0,12.0,0.5,2075.622694696803,36152.27674897238,20.0,7.0,13.0,0.35,1225.8246447517774,19604.32479044205,81.0,41.0,40.0,0.5061728395061729,122.98546647484706,10124.982033873664,0.0,0.0,0.0,0.0,16734.0,16756.0,16848.0,16864.0,16876.0,16900.0,16905.0,16923.0,17071.0,17151.0,0.06225130893993898,-0.10327946004657894,0.05130577462170634,-0.1454176542958386,0.012865462068960172
22,22,17590.178051898707,2854.7702044974712,12.784746818463931,17700.876695499283,-3960.529633395342,12.739827004320285,17733.010822823635,40198.01011928612,9.725603065947409,17755.027373698995,-8527.798492745509,7.462144053847406,17956.365781951718,9136.124248671216,32.92203754041591,0.9820491681295384,116.0,92.0,72.0,230.0,302.0,24.0,845.0,845.0,26.0,12.0,14.0,0.4615384615384615,184.76849228075145,2442.928880326351,13.0,6.0,7.0,0.4615384615384615,484.3353726795835,231.23563736176175,23.0,12.0,11.0,0.5217391304347826,2071.239061114612,35553.251131933284,20.0,5.0,15.0,0.25,1384.7044772647737,20891.871436419904,83.0,39.0,44.0,0.4698795180722891,148.92037076078415,9003.243209647038,0.0,0.0,0.0,0.0,17579.0,17603.0,17695.0,17708.0,17721.0,17744.0,17751.0,17767.0,17918.0,17997.0,0.06472271988465582,-0.12229055644367574,0.05152591023705617,-0.1623753748922098,0.016300169164451057
23,23,18391.678427510313,4089.411140435856,17.98662679248404,18502.104506037555,-2908.3157159863613,15.28779240518434,18533.49532030094,41116.074329802395,9.519719377632285,18559.027373698995,-6348.1482746257025,8.020280807433252,18753.8433102981,9159.138475284231,37.63429315096443,0.9819944686742982,117.0,92.0,74.0,227.0,301.0,25.0,797.0,801.0,25.0,14.0,11.0,0.56,220.00531117303404,5165.939056252864,13.0,7.0,6.0,0.5384615384615384,480.0138657966358,128.25003684675403,25.0,12.0,13.0,0.48,2012.5633173669771,37264.415799660215,17.0,6.0,11.0,0.3529411764705882,1077.504764695654,15717.2140278444,92.0,45.0,47.0,0.4891304347826087,142.14101658322932,9177.186262160249,0.0,0.0,0.0,0.0,18378.0,18403.0,18495.0,18508.0,18521.0,18546.0,18554.0,18569.0,18710.0,18796.0,0.05379877532919948,-0.16504874734132435,0.04894833347229844,-0.16973528627278095,0.015519037840381415
24,24,19189.085404089863,3889.250774404793,20.738145658452513,19302.123304500717,-3383.7408192481475,7.830682364238232,19331.734110940295,40813.50635531157,9.595371232945858,19354.602712798853,-8051.878399449537,7.516260433874499,19552.957197646447,9602.349989031338,37.416869969972915,0.9854899507612134,118.0,87.0,73.0,227.0,300.0,31.0,801.0,798.0,39.0,14.0,25.0,0.358974358974359,208.81852298092,4644.4474569378435,12.0,8.0,4.0,0.6666666666666666,671.5431037998804,3486.3415001773365,24.0,13.0,11.0,0.5416666666666666,2101.7214466193013,34466.9981469433,19.0,6.0,13.0,0.3157894736842105,1317.0351577173058,19662.04537337528,91.0,45.0,46.0,0.4945054945054945,183.2826715582892,9802.200520610568,0.0,0.0,0.0,0.0,19176.0,19207.0,19294.0,19305.0,19319.0,19343.0,19350.0,19367.0,19509.0,19594.0,0.053691195321000446,-0.19846174387230237,0.051495733503567946,-0.16356868452053924,0.01908727257053232
25,25,20080.602712798853,2909.9339886441535,12.969679472219855,20189.12243766505,-3850.2995616270255,12.739827004320285,20221.89116744797,40113.983790397106,9.70832967875292,20243.602712798853,-9266.65239514606,7.417385055501875,20445.53415569611,9863.607230833351,31.38972765277489,0.9800441641426868,114.0,91.0,73.0,228.0,301.0,23.0,892.0,890.0,25.0,13.0,12.0,0.52,190.82123478812233,3025.178807873593,14.0,6.0,8.0,0.4285714285714285,442.621957653769,526.4702169514976,23.0,12.0,11.0,0.5217391304347826,2078.6182519147833,34809.81681556592,18.0,5.0,13.0,0.2777777777777778,1400.4976055748718,21629.85003298025,80.0,41.0,39.0,0.5125,168.81829302509703,9803.163201091817,0.0,0.0,0.0,0.0,20069.0,20092.0,20183.0,20196.0,20210.0,20233.0,20239.0,20256.0,20407.0,20484.0,0.06557579502929997,-0.1149577975867233,0.05181779657627483,-0.1511330678928307,0.017115269198612847
26,26,20923.14604608582,4192.009945502123,20.20734191923685,21035.69864360057,-3018.2633899644984,7.797937790906574,21066.636247336177,40539.59511630697,9.675494111751814,21090.027373698995,-7112.024616533636,7.34562544828394,21290.85245303832,9867.223277990774,37.01105217665453,0.9879505243608864,130.0,86.0,71.0,231.0,302.0,44.0,843.0,846.0,45.0,24.0,21.0,0.5333333333333333,202.10281039869807,4240.257072484846,12.0,7.0,5.0,0.5833333333333334,590.0724334900937,2717.732514218306,24.0,13.0,11.0,0.5416666666666666,2008.907497928624,34576.68327538135,18.0,6.0,12.0,0.3333333333333333,1298.5138309686015,18873.519906707967,87.0,45.0,42.0,0.5172413793103449,165.30899856891193,10382.71590900078,0.0,0.0,0.0,0.0,20900.0,20944.0,21030.0,21040.0,21054.0,21078.0,21086.0,21101.0,21248.0,21332.0,0.048211433900710844,-0.195500643002874,0.04955420724269999,-0.18258005293596558,0.01675334528383888
27,27,21685.311899108896,3841.890370385762,17.99422446562743,21795.421060204124,-3058.3921378722307,15.28779240518434,21828.71667266453,40327.2240978564,9.653280369409172,21852.602712798853,-7799.676241529637,8.261957646234222,22051.29058769243,9734.44714096929,33.39781010696154,0.9839896435646064,118.0,89.0,73.0,227.0,300.0,29.0,760.0,761.0,45.0,21.0,24.0,0.4666666666666667,206.61352900802515,4008.628288920062,15.0,6.0,9.0,0.4,405.4368424441158,652.3146385936878,24.0,13.0,11.0,0.5416666666666666,2028.930500214122,33380.560989359496,19.0,6.0,13.0,0.3157894736842105,1211.893511605486,18159.429821703605,84.0,40.0,44.0,0.4761904761904761,146.2726297382645,10176.262942033063,0.0,0.0,0.0,0.0,21673.0,21702.0,21791.0,21803.0,21816.0,21840.0,21847.0,21864.0,22012.0,22091.0,0.053779131908774175,-0.13256535596713387,0.05031168263133614,-0.15537741235369726,0.015026290411773674
28,28,22461.919513427987,3697.930515930136,16.631506459687866,22574.871687648298,-4503.869716898383,10.191861603456047,22605.612288616463,39428.95068063078,9.700026940962069,22627.602712798853,-9629.614417782146,8.072859017777665,22834.808138396547,9757.106122486535,31.782359079609016,0.9808062872039612,128.0,91.0,72.0,230.0,302.0,37.0,778.0,777.0,39.0,24.0,15.0,0.6153846153846154,185.6620807341938,3089.6945639406476,13.0,8.0,5.0,0.6153846153846154,612.2167293293892,608.3768354214842,24.0,13.0,11.0,0.5416666666666666,2094.455768446066,32888.63468815747,21.0,6.0,15.0,0.2857142857142857,1384.1676542695343,22144.386605902895,80.0,46.0,34.0,0.575,141.76159009346915,9084.0002006331,0.0,0.0,0.0,0.0,22439.0,22476.0,22567.0,22580.0,22593.0,22617.0,22623.0,22639.0,22790.0,22869.0,0.05020702253176178,-0.1359312697328634,0.053119744053319526,-0.14374071424017934,0.014529061005779255
29,29,23243.234682661605,4286.131351008488,17.02231880485204,23353.70625846119,-3902.6597278357863,12.739827004320114,23384.524364181092,39796.065879183065,9.699427388682777,23406.602712798853,-8694.46873900849,7.754529771479406,23607.258414535063,9855.729427312526,33.74106539139076,0.9848327436223407,115.0,86.0,72.0,230.0,302.0,29.0,780.0,779.0,31.0,13.0,18.0,0.4193548387096774,212.6020238494766,4950.866509205155,13.0,8.0,5.0,0.6153846153846154,600.2898263680909,667.8308858818505,24.0,13.0,11.0,0.5416666666666666,2084.322744240279,33444.39659249861,20.0,6.0,14.0,0.3,1353.3506309006484,20805.0053717414,86.0,44.0,42.0,0.5116279069767442,137.37971714540254,9769.57296246061,0.0,0.0,0.0,0.0,23231.0,23260.0,23346.0,23359.0,23372.0,23396.0,23402.0,23418.0,23569.0,23648.0,0.04960231183756262,-0.15381556892765044,0.05237509533148522,-0.155656506628027,0.013939071497305038
30,30,24018.090079084486,4024.528932130433,17.032946573490644,24129.69864360057,-3605.822722073406,9.22785899064251,24160.32396199644,39297.99925460792,9.652818284364342,24183.602712798853,-7610.727748296854,8.437051728864203,24383.33120713308,9394.084919113042,34.60849362736899,0.9837153975930706,123.0,85.0,72.0,228.0,300.0,38.0,773.0,777.0,38.0,17.0,21.0,0.4473684210526316,185.35063913121067,4621.517625237523,12.0,7.0,5.0,0.5833333333333334,616.0485292339938,1900.6732887995136,24.0,12.0,12.0,0.5,2004.1452579717145,33976.59749078419,20.0,6.0,14.0,0.3,1243.0207303226634,18221.86057756359,84.0,42.0,42.0,0.5,133.0995704275738,10077.05246290475,0.0,0.0,0.0,0.0,24001.0,24039.0,24124.0,24134.0,24148.0,24172.0,24179.0,24196.0,24342.0,24424.0,0.046055238328996946,-0.17084825758703856,0.05099865886268285,-0.1633248187863282,0.01416844445985066
31,31,24761.480045823413,3645.8391884568096,16.50907264779795,24871.456883338167,-3396.185462581275,12.739827004318649,24903.563461487003,39969.08600450608,9.592450001657584,24927.602712798853,-7518.440992016494,7.964294751473871,25125.62180221884,9986.425914606982,33.68401519666966,0.98346956986934,117.0,88.0,73.0,227.0,300.0,29.0,745.0,742.0,29.0,12.0,17.0,0.4137931034482758,206.50711921426463,4636.285537096397,13.0,6.0,7.0,0.4615384615384615,471.5684617403776,833.6352112611758,24.0,13.0,11.0,0.5416666666666666,2026.1830759958127,33196.26723291482,19.0,7.0,12.0,0.3684210526315789,1171.4263129388237,17594.411080312595,83.0,42.0,41.0,0.5060240963855421,148.45801924067527,10176.538802120902,0.0,0.0,0.0,0.0,24749.0,24778.0,24866.0,24877.0,24891.0,24915.0,24922.0,24939.0,25087.0,25166.0,0.05664186173325813,-0.13885238805008057,0.05069375556317156,-0.15580707678396497,0.014865981133803653
32,32,25525.178051898707,3589.262246987827,15.511097314879494,25639.43465153697,-3440.3619633027397,15.28779240518434,25669.287896978305,39944.84050661704,9.636917758833642,25691.602712798853,-9204.924723045306,7.649976695778782,25892.392634031818,9447.829286786013,30.86374567302452,0.9829273352307836,118.0,94.0,71.0,228.0,299.0,24.0,766.0,765.0,32.0,19.0,13.0,0.59375,186.84570318519383,3696.221329207003,13.0,8.0,5.0,0.6153846153846154,598.8821404728344,1143.2801221742088,23.0,11.0,12.0,0.4782608695652174,2053.7278368244015,35689.85281103017,18.0,6.0,12.0,0.3333333333333333,1338.8110327737295,21168.327174730566,78.0,39.0,39.0,0.5,161.8455750116123,9772.727348441367,0.0,0.0,0.0,0.0,25514.0,25538.0,25632.0,25644.0,25658.0,25681.0,25686.0,25703.0,25853.0,25931.0,0.05205685467591511,-0.1740753289511168,0.051414095306856776,-0.14544508217670735,0.017130450826199184
33,33,26310.178051898707,3490.460304194481,14.494019449978907,26421.452034600883,-4078.750937646478,15.28779240518434,26454.846231097206,39843.64768086898,9.63957261220897,26477.178051898707,-9040.136812645922,8.473186415396547,26676.656560737378,9509.277201133433,32.067238271357944,0.9793673059089528,118.0,93.0,74.0,226.0,300.0,25.0,785.0,785.0,36.0,23.0,13.0,0.6388888888888888,209.151061619906,3068.652322793483,16.0,6.0,10.0,0.375,408.7424137917631,1832.9781687958568,23.0,12.0,11.0,0.5217391304347826,2067.87074010592,33697.467194426106,19.0,5.0,14.0,0.2631578947368421,1373.4682752120216,21972.030293301796,80.0,41.0,39.0,0.5125,143.02682229442797,9542.892116503846,0.0,0.0,0.0,0.0,26298.0,26323.0,26416.0,26430.0,26443.0,26466.0,26472.0,26490.0,26637.0,26716.0,0.059920767862212745,-0.10021264353729227,0.051899634206905534,-0.15193003199804744,0.015040766955177231
34,34,27078.428902815645,4359.255708225386,20.605539572013026,27191.69864360057,-3335.9441133185796,6.361428226861299,27221.81468721116,40291.93507141851,9.554177869305226,27245.602712798853,-7005.985209703332,7.734625156166809,27442.5413686749,9975.29701828038,36.46149533702422,0.9881694527686232,121.0,91.0,71.0,227.0,298.0,30.0,765.0,765.0,30.0,13.0,17.0,0.4333333333333333,217.14577767741233,5610.15788197924,11.0,7.0,4.0,0.6363636363636364,666.9300905529046,3417.9742177381154,25.0,13.0,12.0,0.52,2011.3864003180784,33757.09224841332,18.0,6.0,12.0,0.3333333333333333,1202.5345453310838,17068.164441427085,91.0,46.0,45.0,0.5054945054945055,131.53238923064376,10509.436941206432,0.0,0.0,0.0,0.0,27065.0,27095.0,27186.0,27196.0,27209.0,27234.0,27241.0,27257.0,27403.0,27484.0,0.04981258091093042,-0.19992244111351318,0.049920322683754036,-0.1716438886661602,0.013185811809874142
35,35,27830.7903599412,4218.542870946386,18.711683733433265,27944.69864360057,-3038.330392307852,6.402227647306082,27974.86475368853,40776.81993650586,9.35987411217215,27998.027373698995,-7126.198645819852,6.963926658061871,28195.119700223888,10156.470542373898,36.02602409937766,0.9877799709758404,124.0,91.0,69.0,229.0,298.0,33.0,753.0,757.0,33.0,16.0,17.0,0.4848484848484848,183.48520494937827,5190.3087697927385,11.0,7.0,4.0,0.6363636363636364,628.2056100079991,3427.724693618978,23.0,12.0,11.0,0.5217391304347826,2068.106708122916,35062.382453774684,18.0,6.0,12.0,0.3333333333333333,1341.2096989781128,18923.82610941136,85.0,41.0,44.0,0.4823529411764706,117.47855310488175,10253.980132285318,0.0,0.0,0.0,0.0,27815.0,27848.0,27939.0,27949.0,27963.0,27986.0,27993.0,28008.0,28155.0,28237.0,0.043494924802842005,-0.20676013760663708,0.05071770460136894,-0.18820829528304706,0.011566867901083204
36,36,28614.83392311304,3292.0890785702277,17.27075123562507,28728.046865062755,-3492.0123455636053,12.739827004320285,28760.78037369143,39393.670323882274,9.565104599375156,28782.602712798853,-9019.633448512595,7.092811874413241,28985.3834774964,9401.770065137063,31.707710700901025,0.984271925357738,134.0,95.0,71.0,226.0,297.0,39.0,784.0,783.0,43.0,25.0,18.0,0.5813953488372093,167.10441899746226,3052.797606242776,11.0,4.0,7.0,0.3636363636363636,418.17020879343687,786.8524788386621,23.0,12.0,11.0,0.5217391304347826,2060.1921831970776,33578.92155447556,18.0,6.0,12.0,0.3333333333333333,1392.7128860718387,20668.772122477232,81.0,43.0,38.0,0.5308641975308642,150.7291099631441,9253.454467889336,0.0,0.0,0.0,0.0,28590.0,28629.0,28724.0,28735.0,28749.0,28772.0,28778.0,28795.0,28946.0,29021.0,0.050759385608738335,-0.11975049553438645,0.05229754339361706,-0.15440903380630255,0.01603199279698048
37,37,29400.602712798853,3860.281635939829,15.776563701448945,29509.876695511142,-3263.8940643519154,12.739827004320285,29543.856556205235,39043.90346799002,9.226995606487469,29568.45203459914,-6920.108050547221,7.638621309625594,29764.85523094667,9717.311590433404,33.358824817125935,0.9823702457876952,126.0,95.0,70.0,228.0,298.0,31.0,788.0,785.0,39.0,21.0,18.0,0.5384615384615384,188.70876500602165,3818.149352538878,16.0,6.0,10.0,0.375,365.4097522027316,1167.3571631846075,23.0,12.0,11.0,0.5217391304347826,2015.8758854880168,34057.15328877451,17.0,7.0,10.0,0.4117647058823529,1173.695153095112,17723.30953687631,84.0,43.0,41.0,0.5119047619047619,158.3351214971118,9604.248350957536,0.0,0.0,0.0,0.0,29381.0,29412.0,29507.0,29518.0,29532.0,29555.0,29561.0,29577.0,29723.0,29805.0,0.04888471432993732,-0.11195515081010696,0.05163100270291171,-0.1696064778934051,0.01629412827031204
38,38,30133.86810944302,4098.499070649153,17.320539414509884,30249.226757450215,-3904.981715233994,7.643896202592147,30279.610246850392,39098.187423525655,9.65813072359104,30302.602712798853,-7799.137279938785,8.904066784931782,30501.684833895823,9024.16720837266,34.55213793006643,0.9854288329842376,131.0,93.0,71.0,229.0,300.0,38.0,730.0,737.0,38.0,22.0,16.0,0.5789473684210527,167.9862790677083,4407.675177619083,10.0,6.0,4.0,0.6,567.3666467211011,1678.5667463000125,24.0,13.0,11.0,0.5416666666666666,1980.975856925237,31876.52323403202,20.0,6.0,14.0,0.3,1244.4670714088286,18828.024827510388,85.0,43.0,42.0,0.5058823529411764,169.95341691740293,9113.279370126456,0.0,0.0,0.0,0.0,30112.0,30150.0,30243.0,30253.0,30267.0,30291.0,30298.0,30314.0,30460.0,30543.0,0.04098726781975366,-0.14529303543412456,0.05066669294580316,-0.1595647091133901,0.018833141385026578
39,39,30853.46492400878,4022.095000788397,19.590360429591072,30967.69864360057,-3185.886638262607,7.393792381772202,30998.450574189297,40335.77702323109,9.436421495254242,31022.027373698995,-6971.586731905681,7.231210048289113,31220.684833895823,9421.45409021518,34.27479497892484,0.987380300779758,122.0,92.0,70.0,230.0,300.0,30.0,721.0,719.0,38.0,21.0,17.0,0.5526315789473685,174.24774025201455,4963.700787587036,11.0,7.0,4.0,0.6363636363636364,565.1076800800262,2307.8031281716067,24.0,12.0,12.0,0.5,2002.6007476694756,36257.56592891674,17.0,6.0,11.0,0.3529411764705882,1278.232837235944,18158.28311616377,83.0,41.0,42.0,0.4939759036144578,128.8680926283663,9793.574048746115,0.0,0.0,0.0,0.0,30840.0,30870.0,30962.0,30972.0,30986.0,31010.0,31017.0,31032.0,31180.0,31262.0,0.043322631667789824,-0.17737846453576336,0.0496482501506316,-0.18334891128673367,0.013678153222887809
40,40,31620.050205584463,4447.268104908094,20.170911634577624,31736.862829316055,-3272.390752788355,7.7870181081553245,31765.946405074923,40412.53781156947,9.657298134732272,31787.602712798853,-9033.444268960491,6.743763288667802,31988.109494795972,9781.11738206021,35.03842453656375,0.988984956320838,130.0,91.0,71.0,229.0,300.0,39.0,766.0,766.0,44.0,22.0,22.0,0.5,222.71526673118117,4996.895991788493,12.0,9.0,3.0,0.75,719.1270774925401,4340.5689874510235,23.0,12.0,11.0,0.5217391304347826,2089.106047876123,35597.95720737466,17.0,5.0,12.0,0.2941176470588235,1404.3466963778965,21515.66581673351,85.0,44.0,41.0,0.5176470588235295,136.8612783760421,10007.758951357717,0.0,0.0,0.0,0.0,31598.0,31637.0,31728.0,31740.0,31754.0,31777.0,31783.0,31799.0,31945.0,32028.0,0.05007911856840566,-0.2197558701936139,0.0516945027708219,-0.15546082474912964,0.01399239708819595
41,41,32429.30135639943,3003.5033705396677,10.191861603456228,32538.876695499283,-4683.889925390342,12.739827004320285,32571.10064927792,39331.757557301025,9.683712610201283,32593.178051898707,-9398.378218509682,8.83800808582751,32796.4968333586,8707.484327620548,32.41552323460145,0.977208648574801,114.0,96.0,75.0,229.0,304.0,18.0,810.0,805.0,19.0,12.0,7.0,0.631578947368421,189.12817141916943,2767.091606327898,15.0,8.0,7.0,0.5333333333333333,478.5494372594208,957.6293744266152,23.0,12.0,11.0,0.5217391304347826,2078.266044558653,34255.386554496625,22.0,6.0,16.0,0.2727272727272727,1369.756942560483,22107.582048588534,84.0,40.0,44.0,0.4761904761904761,156.57791469634245,8853.867619135555,0.0,0.0,0.0,0.0,32417.0,32435.0,32531.0,32546.0,32559.0,32582.0,32588.0,32606.0,32757.0,32835.0,0.0629691890058332,-0.10216923217288029,0.05283938917631387,-0.14574396887569477,0.017981992135164684
42,42,33191.934366457244,4188.461127778256,19.03707829537168,33307.51561710752,-3728.4016657574616,7.469300710600705,33337.0618767699,39965.52826032297,9.588787939321652,33361.027373699,-6675.66247099987,7.81181533735916,33558.58705986783,9212.045012826551,36.33755585512184,0.9846806825863718,131.0,92.0,72.0,228.0,300.0,39.0,762.0,768.0,45.0,23.0,22.0,0.5111111111111111,191.26136476516655,4747.615870273294,11.0,8.0,3.0,0.7272727272727273,732.2226355665475,3901.464339694121,25.0,13.0,12.0,0.52,2028.1335563051416,34384.656138644954,19.0,6.0,13.0,0.3157894736842105,1189.5466872718923,17613.554041015672,84.0,42.0,42.0,0.5,166.62519260205502,9629.7212713567,0.0,0.0,0.0,0.0,33169.0,33208.0,33300.0,33311.0,33324.0,33349.0,33357.0,33372.0,33521.0,33600.0,0.045663874852915246,-0.19639049147828047,0.0507470724043609,-0.17819155663418734,0.01808775275957201
43,43,33950.219233138625,4097.289596707365,18.162932802702347,34063.54796540086,-3308.2334768522087,15.287792405184334,34092.93318375426,40322.67118496869,9.812732812686551,34115.178051898714,-9617.53859897853,7.771873298920318,34316.786038099264,9171.663824856218,31.851838609075696,0.9853023641017652,119.0,90.0,73.0,225.0,298.0,29.0,757.0,754.0,29.0,14.0,15.0,0.4827586206896552,206.9091215097492,5307.2155097634895,15.0,11.0,4.0,0.7333333333333333,715.1531227139545,3905.268332326316,23.0,12.0,11.0,0.5217391304347826,2050.590015643944,34162.02973631192,18.0,5.0,13.0,0.2777777777777778,1428.9395620058874,22308.065989742732,73.0,37.0,36.0,0.5068493150684932,153.850516549543,9928.90377873258,0.0,0.0,0.0,0.0,33936.0,33965.0,34055.0,34068.0,34081.0,34104.0,34110.0,34128.0,34280.0,34353.0,0.05049902298241845,-0.21617371558503914,0.05085451819988438,-0.1485764312043056,0.016774548161326102
44,44,34697.57347608475,4427.885793328432,20.242737604073852,34810.98173333247,-3686.362349546898,12.739827004320285,34841.87224511112,39033.74644914664,9.811368263123068,34863.60271279886,-9785.062861137509,7.778614133654341,35064.28484588001,9360.866479440569,34.299042923294174,0.9845387165559408,118.0,86.0,72.0,228.0,300.0,32.0,753.0,750.0,33.0,12.0,21.0,0.3636363636363636,217.86359022555004,4763.927299108284,12.0,7.0,5.0,0.5833333333333334,534.8821623121803,574.5558956941197,23.0,12.0,11.0,0.5217391304347826,2035.554203186728,33314.4617835386,18.0,5.0,13.0,0.2777777777777778,1374.0981430063432,21582.435768511023,84.0,43.0,41.0,0.5119047619047619,129.67388970963748,9584.140076486288,0.0,0.0,0.0,0.0,34686.0,34718.0,34804.0,34816.0,34830.0,34853.0,34859.0,34876.0,35025.0,35104.0,0.049202621836771106,-0.1450975546063518,0.05214857369221933,-0.14042813648788405,0.013852765659508387
45,45,36152.378443364505,4182.04265630169,19.274799349700427,36265.91246848228,-3754.9936654701382,8.412655926519857,36295.38432307862,38906.803501325194,9.690983739618453,36319.60271279886,-7323.9143155187985,8.567493875558702,36515.80528746985,8730.48092612722,35.68646774282943,0.984783933609794,119.0,86.0,73.0,226.0,299.0,33.0,1452.0,1453.0,52.0,27.0,25.0,0.5192307692307693,179.37249085891648,4377.029636912707,13.0,9.0,4.0,0.6923076923076923,713.7912791334214,3515.088006969894,24.0,12.0,12.0,0.5,1934.7354515614345,34323.040511672254,19.0,6.0,13.0,0.3157894736842105,1150.6696888104243,16564.22394755958,86.0,44.0,42.0,0.5116279069767442,138.50531110032168,8972.107853294528,0.0,0.0,0.0,0.0,36139.0,36172.0,36258.0,36269.0,36283.0,36307.0,36315.0,36331.0,36472.0,36557.0,0.04289111938842373,-0.19009120726280967,0.049727432671140305,-0.15711129858144923,0.015864568317860313
46,46,36855.65530533552,3432.1145161450045,15.719822153525094,36966.50560884431,-3601.342263475428,15.28779240518434,36998.31877357943,40136.65205677731,9.794923944745287,37021.178051898714,-8614.390723773264,9.924418152622962,37223.808138396555,8458.617102158003,29.84811132996667,0.9777368806445396,115.0,92.0,74.0,224.0,298.0,23.0,700.0,704.0,25.0,12.0,13.0,0.48,204.29032259212315,4077.7838776215463,13.0,7.0,6.0,0.5384615384615384,521.995786882567,68.8505141693231,25.0,13.0,12.0,0.52,2037.124132582456,33879.84760605823,24.0,6.0,18.0,0.25,1351.2012737782695,21069.934097866233,77.0,42.0,35.0,0.5454545454545454,141.74155895677887,8186.94406998848,0.0,0.0,0.0,0.0,36845.0,36868.0,36960.0,36973.0,36986.0,37010.0,37016.0,37034.0,37183.0,37258.0,0.05952316615052364,-0.14494478688588233,0.050754709926994906,-0.15685395718693593,0.01675706055078638
47,47,37572.13381056075,4108.022658956792,19.681348753106818,37689.30629563247,-3726.711946826192,10.191861603360705,37718.79111689486,39835.43893821135,9.855175817369528,37740.60271279886,-9434.908355086474,7.457326992006971,37940.75898887393,9187.523333228466,34.726374355763234,0.9855745063976032,118.0,93.0,72.0,228.0,300.0,25.0,719.0,719.0,26.0,10.0,16.0,0.3846153846153846,215.6022901633105,4290.9386454268315,12.0,8.0,4.0,0.6666666666666666,642.0255439091131,2303.6067458256302,24.0,13.0,11.0,0.5416666666666666,2074.150430539855,34110.07141225842,18.0,5.0,13.0,0.2777777777777778,1374.1923509265996,21739.507880505204,85.0,44.0,41.0,0.5176470588235295,128.48453050433682,8940.806808169904,0.0,0.0,0.0,0.0,37563.0,37588.0,37681.0,37693.0,37706.0,37730.0,37736.0,37753.0,37898.0,37981.0,0.05248322807889804,-0.17227667527561025,0.0520679697732731,-0.1456497826166754,0.013984675286717096
48,48,38314.178051898714,3832.879215770654,17.652388396722888,38429.34355079819,-4227.388432014653,10.191861603455605,38458.66505427078,39481.637952897545,9.833446572652196,38480.178051898714,-9639.297943733212,8.316003935082923,38680.289597183175,9012.80753662189,33.602388650979734,0.9840399837246248,119.0,94.0,72.0,228.0,300.0,25.0,744.0,740.0,26.0,12.0,14.0,0.4615384615384615,241.7489172757436,3885.19973335576,11.0,8.0,3.0,0.7272727272727273,685.7939738795884,1846.550383930568,24.0,13.0,11.0,0.5416666666666666,2079.7262023749745,32776.33371767301,20.0,5.0,15.0,0.25,1387.7010479528822,22228.714843881145,87.0,45.0,42.0,0.5172413793103449,165.5233864611424,9081.924810462086,0.0,0.0,0.0,0.0,38302.0,38327.0,38421.0,38432.0,38446.0,38470.0,38475.0,38493.0,38641.0,38721.0,0.06307240684262903,-0.16222639222976692,0.05267578323007098,-0.1439628753103401,0.01836535239308822
49,49,39082.37925406533,3305.859892845885,13.58840389493785,39194.027373699,-3975.780680245494,17.8357578060484,39228.98581115196,39509.68698500864,9.573378374127046,39251.178051898714,-9272.608510837252,9.227656737061777,39451.72386797872,9273.92270355247,31.1844715904452,0.9777079732303744,113.0,93.0,77.0,228.0,305.0,20.0,766.0,771.0,26.0,13.0,13.0,0.5,203.56184632945536,3338.744603572398,60.0,49.0,11.0,0.8166666666666667,308.32046845195623,2311.5864695335695,23.0,12.0,11.0,0.5217391304347826,2042.41256388885,32723.076659303435,20.0,6.0,14.0,0.3,1393.9705343141004,21649.527261351344,82.0,41.0,41.0,0.5,150.2217853118884,9559.72638482037,0.0,0.0,0.0,0.0,39074.0,39094.0,39187.0,39204.0,39217.0,39240.0,39246.0,39264.0,39414.0,39492.0,0.06157606581270356,-0.07754966715943654,0.051693969751362825,-0.1503320810627251,0.016198300343213387
50,50,39861.91121982736,4075.920056801452,16.58503204543101,39972.82394603568,-3065.923549363888,15.28779240515594,40004.89419808482,39921.28018608842,9.591556805162655,40029.60271279886,-6754.094193351284,8.182349624055577,40226.79062722471,9381.662335551086,35.70534873426235,0.9845347974365138,117.0,92.0,75.0,226.0,301.0,25.0,780.0,773.0,27.0,13.0,14.0,0.4814814814814814,213.61476554125056,4859.936850349548,13.0,7.0,6.0,0.5384615384615384,470.3701841320866,347.6472093652403,24.0,12.0,12.0,0.5,1987.2185003667687,34119.80961204243,19.0,7.0,12.0,0.3684210526315789,1099.4356636560003,16003.473796734272,87.0,46.0,41.0,0.5287356321839081,157.46690075273958,9747.802072714298,0.0,0.0,0.0,0.0,39849.0,39874.0,39966.0,39979.0,39993.0,40017.0,40024.0,40041.0,40182.0,40267.0,0.05240896842046582,-0.15341875834760396,0.04977842622039123,-0.1627806234532948,0.016784541493891855
51,51,40621.74362846192,4119.747640283262,18.4188378021396,40739.210445179466,-4043.5515840256153,7.274002121181399,40768.60428982912,39785.489846801225,9.486280609910787,40792.027373699,-8135.992421701892,7.484085417120619,40989.85211283627,9199.04099227726,35.30079516593151,0.9844044948868538,132.0,98.0,70.0,229.0,299.0,34.0,760.0,767.0,38.0,22.0,16.0,0.5789473684210527,193.46706825049017,4793.8940144229255,11.0,7.0,4.0,0.6363636363636364,692.2643479272523,2173.5704586152724,24.0,13.0,11.0,0.5416666666666666,2044.7385953657524,33154.067748702844,17.0,6.0,11.0,0.3529411764705882,1311.285281600393,19774.61844231071,83.0,42.0,41.0,0.5060240963855421,165.72267503207027,10171.484665029457,0.0,0.0,0.0,0.0,40600.0,40634.0,40732.0,40743.0,40756.0,40780.0,40786.0,40802.0,40948.0,41031.0,0.04696090274043775,-0.17120205679138603,0.05139407867640344,-0.1611709074485713,0.018015212147787694
52,52,41446.027373699,2969.7535255723183,15.188019363730549,41556.731639207355,-4235.829547518794,10.191861603456228,41588.203678426325,39672.39870348297,9.7393072326064,41609.60271279886,-9696.903580944014,8.16928274853732,41811.47825930039,8534.459367775453,31.316473176429596,0.9812372700190906,116.0,94.0,73.0,227.0,300.0,22.0,825.0,819.0,24.0,13.0,11.0,0.5416666666666666,218.52281018046105,3249.3552260259708,12.0,7.0,5.0,0.5833333333333334,572.0916746912342,156.0948706789777,23.0,12.0,11.0,0.5217391304347826,2068.1427040060107,34482.608806940436,20.0,5.0,15.0,0.25,1398.9641108137996,21949.84299810201,79.0,39.0,40.0,0.4936708860759494,145.55865854272892,8712.203344248876,0.0,0.0,0.0,0.0,41434.0,41456.0,41550.0,41562.0,41576.0,41599.0,41605.0,41623.0,41774.0,41850.0,0.0735828102563994,-0.13506012654034819,0.05213051823419091,-0.1442691575858288,0.017055404715186955
53,53,42229.16285644959,3598.9787024377865,13.280640768552598,42337.46730473988,-3182.305931791016,15.28779240518434,42371.70494166261,40124.74812434145,9.582843975851018,42395.60271279886,-7920.769628345416,8.554008345825235,42594.54053215648,8839.24319341516,33.68375716517267,0.9824573202443552,116.0,91.0,73.0,229.0,302.0,25.0,780.0,784.0,25.0,11.0,14.0,0.44,195.6024347153276,4536.005841388596,15.0,5.0,10.0,0.3333333333333333,347.4071498894554,1705.877280897861,24.0,13.0,11.0,0.5416666666666666,2061.151671321387,33230.51228547013,19.0,7.0,12.0,0.3684210526315789,1211.299209629518,18597.123511658847,84.0,43.0,41.0,0.5119047619047619,147.1566760270834,8839.804013808822,0.0,0.0,0.0,0.0,42218.0,42243.0,42334.0,42346.0,42359.0,42383.0,42390.0,42407.0,42553.0,42636.0,0.054349428237192764,-0.10916836952063032,0.051368588406689605,-0.1529269586751696,0.016648108079740192
54,54,42978.50555597518,3967.174184499504,19.08844490816885,43093.69864360057,-3339.7318839946493,6.520810017747085,43124.5858738798,40622.784251376266,9.3095867176939,43148.027373699,-7204.43875143428,7.105459596949974,43347.44645698359,9352.29178206546,34.96309408305131,0.9878413168061456,131.0,92.0,70.0,231.0,301.0,39.0,753.0,752.0,47.0,23.0,24.0,0.4893617021276595,174.19978379587508,4350.0841960045855,10.0,6.0,4.0,0.6,571.2281150723022,2053.444414879169,24.0,13.0,11.0,0.5416666666666666,2059.804200825965,33968.62023825233,17.0,6.0,11.0,0.3529411764705882,1287.906230165127,18731.514236944375,84.0,42.0,42.0,0.5,162.52214447471226,9732.884236265512,0.0,0.0,0.0,0.0,42957.0,42996.0,43088.0,43098.0,43112.0,43136.0,43142.0,43158.0,43306.0,43389.0,0.04391029374926526,-0.17104011187540508,0.05070563819751425,-0.17876565747869355,0.017377788061143998
55,55,43763.60271279886,3383.429412106203,15.548207660837596,43872.87669549929,-3937.0089785513983,12.739827004320285,43905.71866451622,39534.669240545,9.664129059862756,43927.60271279886,-9296.150466044295,7.546980666299605,44129.13656161197,9288.692337974511,32.31032117520946,0.9826213986136813,117.0,93.0,71.0,229.0,300.0,24.0,785.0,782.0,31.0,14.0,17.0,0.4516129032258064,210.67652795746508,3568.000457704829,12.0,5.0,7.0,0.4166666666666667,453.7832416159983,741.8225682750704,23.0,12.0,11.0,0.5217391304347826,2083.053760374755,33489.32464287826,19.0,6.0,13.0,0.3157894736842105,1389.5078628114911,21248.647991922724,78.0,38.0,40.0,0.4871794871794871,126.0823917352092,9302.411299551768,0.0,0.0,0.0,0.0,43751.0,43775.0,43868.0,43880.0,43894.0,43917.0,43923.0,43939.0,44095.0,44168.0,0.06226715627748764,-0.1152609110337781,0.052689292724332884,-0.14947131803501837,0.013573750442756367
56,56,44546.35850038115,3446.374178127912,15.43629938085922,44656.02737369958,-3976.4667884861537,17.8357578060484,44690.05625526084,40072.27094304794,9.694269652187447,44712.178051898714,-9045.90059933402,8.8741919290686,44913.78346885254,9056.946968643444,32.08510551951479,0.98250333089176,112.0,90.0,77.0,229.0,306.0,22.0,780.0,783.0,23.0,10.0,13.0,0.4347826086956521,192.09882920249868,3583.7967140495934,19.0,9.0,10.0,0.4736842105263157,360.7359842804848,1802.7101235166017,23.0,12.0,11.0,0.5217391304347826,2054.0188384289886,34092.9253419987,20.0,5.0,15.0,0.25,1408.135699859719,21521.770139595657,79.0,39.0,40.0,0.4936708860759494,156.58478504826255,9144.526997185249,0.0,0.0,0.0,0.0,44536.0,44558.0,44648.0,44666.0,44678.0,44701.0,44707.0,44725.0,44876.0,44954.0,0.05573940009811928,-0.09071771586902086,0.05125785961440093,-0.15566561719276345,0.017288914861750142
57,57,45307.216104472136,3987.471259871503,17.97486357633687,45422.31710038104,-3427.9971047489016,8.056725609211142,45452.17724212881,40124.58594604287,9.666672328102829,45476.027373699,-7430.821563217933,8.333648866755048,45674.03366551447,9350.269251595188,34.72258371664907,0.9868117096489828,121.0,94.0,73.0,226.0,299.0,27.0,764.0,763.0,38.0,23.0,15.0,0.6052631578947368,206.40037507246015,4063.901931115815,11.0,8.0,3.0,0.7272727272727273,634.4314947899215,2481.4302420143363,25.0,13.0,12.0,0.52,1992.8618915637212,34668.75171712515,20.0,6.0,14.0,0.3,1242.2785078920444,18257.101162654657,88.0,44.0,44.0,0.5,136.85904562031843,9472.73500510701,0.0,0.0,0.0,0.0,45294.0,45321.0,45415.0,45425.0,45439.0,45464.0,45472.0,45488.0,45634.0,45714.0,0.051762222627056986,-0.18507352118560008,0.04966685249396971,-0.16717916011349804,0.01463690958385715
58,58,46072.86803849968,4120.588296814495,19.01418413317335,46186.12330450071,-3367.058086696591,6.662022127352323,46215.834300535935,41094.401542943975,9.471160993831754,46239.027373699,-7261.401811785891,7.071088486599819,46436.33164241449,9802.692071667592,35.60106570283211,0.9870878090167612,125.0,86.0,70.0,230.0,300.0,39.0,765.0,764.0,45.0,25.0,20.0,0.5555555555555556,202.54158147695136,4401.310064652767,11.0,7.0,4.0,0.6363636363636364,642.13315462343,2893.8384507794026,24.0,13.0,11.0,0.5416666666666666,2082.4618906111796,35824.83830057703,18.0,6.0,12.0,0.3333333333333333,1345.311669862048,19360.59290473442,85.0,42.0,43.0,0.4941176470588235,152.57048920681376,10707.572469543156,0.0,0.0,0.0,0.0,46054.0,46093.0,46179.0,46190.0,46203.0,46227.0,46234.0,46249.0,46394.0,46479.0,0.04915355936761027,-0.19071044754485497,0.05067507525167365,-0.1852688647085318,0.015564141777724853
59,59,46853.89106326336,3950.473469161819,18.110941491578917,46967.37688856763,-3684.183011656299,10.191861603456143,46997.46924245735,39537.026951357446,9.755583652952676,47019.027373699,-9188.134352753694,7.420466711603687,47218.81749629966,9235.091343964012,33.040936604733496,0.986340835962096,117.0,87.0,72.0,228.0,300.0,30.0,780.0,781.0,45.0,26.0,19.0,0.5777777777777777,210.43927006660363,4121.618547269554,12.0,8.0,4.0,0.6666666666666666,591.131398879206,1505.207058270969,24.0,12.0,12.0,0.5,2041.1092030669304,35905.523440166144,20.0,5.0,15.0,0.25,1386.021846971713,21888.031745488726,84.0,43.0,41.0,0.5119047619047619,139.59516563565913,9025.66892529119,0.0,0.0,0.0,0.0,46842.0,46872.0,46959.0,46971.0,46985.0,47009.0,47015.0,47031.0,47181.0,47259.0,0.05326937940713547,-0.16045114941601418,0.051625257649699226,-0.15084910535252685,0.0151157319875236
60,60,47625.379155652285,4488.128874279429,18.47590335619868,47738.1264898091,-3057.0217463056065,7.05434525968145,47767.9012186722,39655.331193069265,9.688655640112223,47790.60271279886,-7413.851228985048,7.64692403016392,47988.52369764251,9549.156112997143,35.199092876122144,0.9876235715126712,119.0,91.0,72.0,228.0,300.0,28.0,772.0,771.0,38.0,23.0,15.0,0.6052631578947368,216.350300986702,4686.8595933791985,10.0,7.0,3.0,0.7,604.5629812658703,3200.7648817393565,24.0,13.0,11.0,0.5416666666666666,2008.1047853722575,33869.11594832375,18.0,5.0,13.0,0.2777777777777778,1276.9750928661335,19023.646807826663,88.0,46.0,42.0,0.5227272727272727,137.85313006875137,10250.819462528156,0.0,0.0,0.0,0.0,47612.0,47640.0,47731.0,47741.0,47755.0,47779.0,47786.0,47803.0,47948.0,48031.0,0.04820501082902553,-0.19776208069062032,0.05063896139450785,-0.17224180165278968,0.014436158382741544
61,61,48359.83757406201,4130.868656647067,19.626733291611803,48473.273982700426,-3403.6681986508997,6.520160189738942,48504.54766805272,40280.015650048874,9.388703246020505,48528.60271279886,-6738.385485721628,7.9563943748119215,48725.8778236029,9885.852614467683,36.73541811862902,0.9856452596370844,122.0,90.0,71.0,229.0,300.0,32.0,735.0,737.0,51.0,27.0,24.0,0.5294117647058824,198.79449359820464,4409.604879193511,9.0,4.0,5.0,0.4444444444444444,530.3057277781496,336.7104961863763,24.0,13.0,11.0,0.5416666666666666,2015.4054896921157,33093.68734843952,19.0,7.0,12.0,0.3684210526315789,1161.9901065295176,16820.612779883995,89.0,45.0,44.0,0.5056179775280899,164.60035733440472,10581.5077051851,0.0,0.0,0.0,0.0,48347.0,48379.0,48469.0,48478.0,48492.0,48516.0,48523.0,48540.0,48682.0,48769.0,0.048124138074039285,-0.15580417855898676,0.050034873551238805,-0.17244340042458664,0.016650092182591964
62,62,49120.30135639943,2663.282046494739,10.191861603456228,49228.87669549929,-5525.440647419013,12.739827004320285,49261.341118726625,39264.78699796098,9.689049273268266,49283.178051898714,-9792.935003641644,9.975439720287092,49483.51305484926,8627.904473844572,29.411658273404452,0.9682146235235416,111.0,96.0,74.0,227.0,301.0,15.0,759.0,756.0,20.0,13.0,7.0,0.65,201.030970638146,2786.74260200391,22.0,14.0,8.0,0.6363636363636364,491.8404536649704,2217.4929916831425,23.0,12.0,11.0,0.5217391304347826,2060.9382871458615,33419.05307822981,22.0,6.0,16.0,0.2727272727272727,1400.815229557414,22618.48424953904,79.0,40.0,39.0,0.5063291139240507,132.00062488427503,8513.761242916486,0.0,0.0,0.0,0.0,49111.0,49126.0,49222.0,49236.0,49249.0,49272.0,49278.0,49296.0,49446.0,49523.0,0.0754824187332061,-0.08901379727872272,0.05248820749372424,-0.1430434521455009,0.015299268238821367
63,63,49883.753390998565,4145.049366745465,18.68148413678035,49997.83113844548,-3105.81304293011,10.1918602712342,50027.51089458087,39907.231351272254,9.569113198088896,50050.60271279886,-8444.783635652502,8.166557749958315,50250.44952295413,9364.543001233213,32.94082217635241,0.9872823914263236,119.0,92.0,72.0,228.0,300.0,27.0,766.0,766.0,49.0,24.0,25.0,0.4897959183673469,211.7691914932443,4220.87267627147,12.0,9.0,3.0,0.75,650.6277467247601,2967.8594156784434,24.0,13.0,11.0,0.5416666666666666,2081.41833633724,33411.931524210566,18.0,6.0,12.0,0.3333333333333333,1253.6014550637294,20221.64446623902,87.0,44.0,43.0,0.5057471264367817,131.77163837945372,9032.136594491014,0.0,0.0,0.0,0.0,49871.0,49898.0,49990.0,50001.0,50015.0,50039.0,50045.0,50062.0,50211.0,50290.0,0.05108966691499682,-0.20948709330904858,0.05215642042456257,-0.14844684116846146,0.014071336781955166
64,64,50648.60571180057,3900.806863651698,16.331215019902647,50762.77341449634,-3544.607262693783,7.629977302336472,50792.414374415246,39631.47487323347,9.749631153985495,50816.027373699,-7125.910828085089,8.591175451860316,51014.68483389583,8642.842244711717,34.8029294670416,0.986037134774882,118.0,92.0,72.0,229.0,301.0,26.0,763.0,766.0,28.0,13.0,15.0,0.4642857142857143,205.53350930933829,4267.870145377854,11.0,8.0,3.0,0.7272727272727273,687.3297595429559,3611.5781523688233,25.0,13.0,12.0,0.52,1966.7021163033075,34934.1914923086,21.0,6.0,15.0,0.2857142857142857,1241.5017791530968,18399.79708475642,87.0,45.0,42.0,0.5172413793103449,158.1766689914025,8779.320906451867,0.0,0.0,0.0,0.0,50637.0,50663.0,50755.0,50766.0,50780.0,50804.0,50812.0,50827.0,50971.0,51056.0,0.05268999888831469,-0.19390857959835253,0.04962475210912703,-0.17422359177720997,0.01830146432305713
65,65,51366.836688555304,4825.520837261658,21.53380473162175,51483.53066595147,-3121.9152403191097,6.522253671717432,51514.021535598265,40764.66450828961,9.468077074620314,51539.027373699,-6216.914097896404,7.954213658529266,51735.01505041366,8891.96485535571,37.25198687627543,0.987335269467003,134.0,83.0,72.0,229.0,301.0,51.0,721.0,721.0,56.0,28.0,28.0,0.5,192.8728732496772,4759.094243052414,10.0,7.0,3.0,0.7,629.9539856807455,3237.239716267999,25.0,13.0,12.0,0.52,2015.4617953797976,35051.24530235428,17.0,6.0,11.0,0.3529411764705882,1107.411111722887,16014.940528119008,91.0,45.0,46.0,0.4945054945054945,139.68381698058545,9300.19668433127,0.0,0.0,0.0,0.0,51343.0,51394.0,51477.0,51487.0,51501.0,51526.0,51534.0,51549.0,51690.0,51778.0,0.039969337974950475,-0.2017844615205998,0.049441392924255465,-0.17812874591553354,0.01570899337242124
66,66,52143.027373699,3283.014248589283,12.516626704424224,52255.15798021978,-4085.524020479989,15.28779240518434,52289.53894674457,40446.39099325097,9.710394477829304,52311.178051898714,-9969.811275199963,7.971660699366711,52510.92154056684,8726.430277961157,31.6744464408336,0.9776771669780951,120.0,98.0,73.0,228.0,301.0,22.0,774.0,775.0,24.0,13.0,11.0,0.5416666666666666,210.43467647002143,3451.412415496742,19.0,9.0,10.0,0.4736842105263157,374.5026137382041,2181.717671680726,24.0,13.0,11.0,0.5416666666666666,2126.6176339189087,33110.84444295195,19.0,5.0,14.0,0.2631578947368421,1472.8108458242866,22406.68053776685,82.0,41.0,41.0,0.5,166.451181262239,9173.601837815,0.0,0.0,0.0,0.0,52131.0,52153.0,52251.0,52264.0,52277.0,52301.0,52306.0,52324.0,52473.0,52552.0,0.06409800888328328,-0.09166574761545658,0.0525786746776434,-0.14772705371945435,0.019074372447874372
67,67,52974.178051898714,3727.9839959937626,18.258336248893112,53087.48608889769,-3348.6623253260823,15.28779240518434,53120.65607837619,40752.41821304256,9.564415545702388,53143.60271279886,-8622.706026289528,7.507280151967681,53342.37374707948,9595.17010474448,34.273452995553356,0.9838679815291118,120.0,95.0,73.0,231.0,304.0,25.0,832.0,831.0,51.0,25.0,26.0,0.4901960784313725,226.0639269195745,3768.526037097527,15.0,6.0,9.0,0.4,374.76121873453496,1307.6996617439177,23.0,12.0,11.0,0.5217391304347826,2103.3734359624314,34533.9560483786,19.0,6.0,13.0,0.3157894736842105,1353.3797753176405,20117.53442057258,89.0,45.0,44.0,0.5056179775280899,168.20726694630315,9820.594560942827,0.0,0.0,0.0,0.0,52962.0,52987.0,53082.0,53096.0,53109.0,53132.0,53138.0,53155.0,53303.0,53386.0,0.060639725696921346,-0.1119137083187514,0.05161346315613878,-0.156955342231471,0.0175304101032175
68,68,53828.30135639943,2077.391997672082,7.205987014318312,53936.60271279886,-4348.469941429332,20.383723206912453,53970.51196306876,44489.28372363484,9.431888158405782,53992.178051898714,-7018.876415808788,22.93168860777651,54195.55116021285,8401.444443033104,28.973272703062456,0.9579188048812408,112.0,98.0,76.0,224.0,300.0,14.0,852.0,850.0,17.0,11.0,6.0,0.6470588235294118,202.08103182993096,1907.2191995736412,70.0,59.0,11.0,0.8428571428571429,403.83434847132304,2701.931587276703,23.0,12.0,11.0,0.5217391304347826,2091.2087352620088,32572.07547321079,22.0,5.0,17.0,0.2272727272727272,1393.0520319187076,23588.37329204472,75.0,39.0,36.0,0.52,136.71821020018575,8476.01711624099,0.0,0.0,0.0,0.0,53820.0,53834.0,53932.0,53948.0,53959.0,53982.0,53987.0,54008.0,54160.0,54232.0,0.09727631186429052,-0.09286814762679114,0.04700477418904945,-0.19847222680557564,0.01627317910952316
69,69,54619.549833379715,3134.176348607889,13.68426203355231,54728.87959721694,-3547.151324946925,12.739827004320285,54761.74783319205,39320.28648837114,9.592070767292428,54785.60271279886,-7601.734170051086,8.382341952511599,54985.10949479597,9527.302138159475,36.23168624999389,0.9730450168416104,117.0,94.0,73.0,228.0,301.0,23.0,788.0,792.0,24.0,13.0,11.0,0.5416666666666666,174.50523811560615,3886.385683438687,12.0,5.0,7.0,0.4166666666666667,421.6193693177731,609.6773825054884,24.0,13.0,11.0,0.5416666666666666,2024.5785409739208,33073.38023705577,19.0,7.0,12.0,0.3684210526315789,1153.585005998289,18155.66541435478,86.0,44.0,42.0,0.5116279069767442,147.37722785056582,9771.189706454115,0.0,0.0,0.0,0.0,54607.0,54630.0,54724.0,54736.0,54749.0,54773.0,54780.0,54797.0,54946.0,55025.0,0.05567818102932094,-0.11886139910427465,0.05148941479794874,-0.15175287377755498,0.015468936086353274
70,70,55372.36049873754,3752.3774877618985,16.208380429534564,55485.53686429067,-3310.6137002585983,10.191861602176951,55516.106118136486,39632.30940200882,9.76943732672762,55538.178051898714,-8687.133063313824,7.992828996374871,55738.09486947489,9031.035662485703,32.79245393412304,0.9767800422862144,118.0,93.0,74.0,226.0,300.0,25.0,758.0,754.0,26.0,13.0,13.0,0.5,221.29560923210963,4018.736890285074,11.0,8.0,3.0,0.7272727272727273,632.1498184471737,2516.0077623980833,23.0,12.0,11.0,0.5217391304347826,2035.4754408617227,33696.30440234264,21.0,5.0,16.0,0.238095238095238,1372.4290474059133,21717.393004694997,83.0,43.0,40.0,0.5180722891566265,134.58181694981988,9063.91709083713,0.0,0.0,0.0,0.0,55360.0,55385.0,55478.0,55489.0,55504.0,55527.0,55533.0,55552.0,55699.0,55778.0,0.058974772648500554,-0.19094641528179362,0.051358991478769385,-0.15798411713085717,0.014902146551016671
71,71,56143.105175094424,4052.0289572377937,18.34735481655427,56257.99758632785,-3715.8557712434567,12.739827004320285,56288.73282482085,39980.84391705357,9.799159417339178,56310.60271279886,-9336.221078765631,7.673220030348072,56510.87638732669,9488.874491340226,33.92899839983922,0.9835512841126418,130.0,86.0,73.0,228.0,301.0,44.0,772.0,772.0,45.0,24.0,21.0,0.5333333333333333,208.0860033439242,3857.8943434816138,13.0,8.0,5.0,0.6153846153846154,578.4910002520058,564.3060674840121,23.0,12.0,11.0,0.5217391304347826,2098.640655523146,33682.639313256324,19.0,5.0,14.0,0.2631578947368421,1390.171437235252,21610.344430228903,87.0,46.0,41.0,0.5287356321839081,175.17710258601716,9822.030601599174,0.0,0.0,0.0,0.0,56120.0,56164.0,56250.0,56263.0,56277.0,56300.0,56306.0,56323.0,56466.0,56551.0,0.051353533141029986,-0.15568176911732565,0.05249115451082273,-0.1489008695817056,0.01846131516924246
72,72,56918.51370077691,3456.665651974,14.961859932998811,57028.60271279886,-4244.539708696045,20.383723206912453,57064.1250852278,39946.40003222163,9.63472288376831,57087.178051898714,-8742.646712486283,9.059050633007692,57287.00522749844,8992.215424684917,32.45962598947518,0.9778748971858812,124.0,89.0,78.0,227.0,305.0,35.0,773.0,776.0,43.0,25.0,18.0,0.5813953488372093,184.92106487295905,3086.2656288504754,73.0,61.0,12.0,0.8356164383561644,312.89563294297085,2458.138352468871,24.0,12.0,12.0,0.5,2025.7432061681009,33730.23201259903,20.0,6.0,14.0,0.3,1339.193678377926,20615.36633579232,83.0,42.0,41.0,0.5060240963855421,167.66398379240042,9587.47791705574,0.0,0.0,0.0,0.0,56898.0,56933.0,57022.0,57040.0,57052.0,57076.0,57081.0,57100.0,57247.0,57327.0,0.05349694864684297,-0.07371721185737118,0.05071153356833388,-0.15317943437715312,0.018645458974674785
73,73,57672.094542381645,4039.713292405768,18.2695545407146,57784.82884593306,-3302.2006860731117,7.334028878486373,57814.79620375292,39910.79907119052,9.58772076228322,57838.60271279886,-7276.727643328979,7.925735032793019,58036.53193652705,9301.55382925708,36.3376795155015,0.9833809205154154,118.0,94.0,73.0,227.0,300.0,24.0,753.0,750.0,38.0,14.0,24.0,0.3684210526315789,215.47130508161405,5088.414326225183,13.0,9.0,4.0,0.6923076923076923,664.84313278618,3721.8720023095534,25.0,13.0,12.0,0.52,1999.9233073779933,33535.1776143748,19.0,6.0,13.0,0.3157894736842105,1206.525735894615,17267.8483313794,88.0,45.0,43.0,0.5113636363636364,142.42363978355343,9817.762423617609,0.0,0.0,0.0,0.0,57659.0,57683.0,57777.0,57788.0,57802.0,57827.0,57834.0,57850.0,57992.0,58077.0,0.0533382667246899,-0.20133335190381588,0.05010982876616047,-0.16580608688861825,0.015311811595991041
74,74,58416.17860128694,3549.8465949467527,16.16298966745234,58527.48348038185,-3417.0804785202845,12.739827004320285,58559.977893421164,40289.7540442653,9.506102828408132,58584.027373699,-7947.3634184685425,8.34469254853721,58781.20832934067,8908.34820042349,33.23313565889798,0.9813104669384596,117.0,92.0,73.0,227.0,300.0,25.0,745.0,745.0,26.0,12.0,14.0,0.4615384615384615,194.3466626460507,4133.0277293431445,13.0,6.0,7.0,0.4615384615384615,425.2367873131796,1019.8380342198956,23.0,12.0,11.0,0.5217391304347826,2051.8741919519166,34797.61264076902,20.0,7.0,13.0,0.35,1231.4618180997902,18909.35120636165,81.0,40.0,41.0,0.4938271604938271,119.42866552171812,9068.516069037913,0.0,0.0,0.0,0.0,58404.0,58429.0,58521.0,58534.0,58548.0,58571.0,58578.0,58594.0,58742.0,58821.0,0.054747904577821874,-0.1244444753309767,0.050927940381506824,-0.15495224683422026,0.013406376000888768
75,75,59189.60271279886,3654.8167328384534,16.399514798606216,59302.70020145867,-3705.0405352650105,10.19186160345568,59334.14775906723,40052.295376739974,9.41502422663008,59357.60271279886,-8132.9145910315265,7.762822930025589,59555.638266216745,9358.235706762438,33.10063840974637,0.9835392422810392,121.0,97.0,71.0,227.0,298.0,24.0,774.0,774.0,33.0,21.0,12.0,0.6363636363636364,203.9734326912672,3789.430268165831,12.0,6.0,6.0,0.5,552.6277821855268,411.6397854491804,24.0,12.0,12.0,0.5,2067.2022230384077,35461.25013929428,19.0,7.0,12.0,0.3684210526315789,1260.5232618133805,18926.63256255094,87.0,45.0,42.0,0.5172413793103449,143.51025662513527,9508.955054115637,0.0,0.0,0.0,0.0,59177.0,59201.0,59298.0,59309.0,59322.0,59346.0,59352.0,59369.0,59515.0,59596.0,0.05580948310172986,-0.14915566427021534,0.051612578095559476,-0.15499034788873933,0.01533518294708393
76,76,59982.60271279886,2550.455948033291,10.945525653594398,60091.60271279886,-4908.27565551165,20.383723206912453,60127.42266561236,40748.948018791,9.685629408384008,60149.753390998565,-9041.861061346586,10.807586359205793,60349.71944321169,8508.287340212504,29.67989257188471,0.9677436505285932,114.0,91.0,79.0,223.0,302.0,23.0,793.0,792.0,23.0,12.0,11.0,0.5217391304347826,152.4829705357198,2721.198064071475,78.0,66.0,12.0,0.8461538461538461,338.1062948414786,2426.0245301986306,24.0,12.0,12.0,0.5,2030.692666502296,34161.57525570519,21.0,6.0,15.0,0.2857142857142857,1330.3014865421044,21675.351429431124,78.0,40.0,38.0,0.5128205128205128,141.44937807087572,8479.339901898125,0.0,0.0,0.0,0.0,59971.0,59994.0,60085.0,60103.0,60115.0,60139.0,60144.0,60164.0,60314.0,60387.0,0.05978655332326071,-0.06888494423939065,0.04983423536641635,-0.1471269551164708,0.016624894342995106
77,77,60753.500249822435,4722.437915238537,27.90665370898581,60869.020699554094,-2683.6621195492453,4.4494754632447755,60898.798141815794,41905.00056025911,9.407448767253827,60924.30135639943,-4729.431236982638,6.998978565631542,61116.56171891194,9787.327869088493,43.75329994050431,0.9816982822014736,135.0,85.0,67.0,234.0,301.0,50.0,771.0,775.0,52.0,26.0,26.0,0.5,207.6547643768378,5633.012685883767,7.0,5.0,2.0,0.7142857142857143,662.8633944563645,3784.5772652255696,25.0,13.0,12.0,0.52,2016.5708785071972,35696.210747667836,15.0,6.0,9.0,0.4,1124.5340366525654,14804.770427650625,96.0,48.0,48.0,0.5,127.61258807766548,10710.970846788776,0.0,0.0,0.0,0.0,60729.0,60779.0,60864.0,60871.0,60886.0,60911.0,60922.0,60931.0,61070.0,61165.0,0.043971941633529944,-0.24699957182676213,0.048122440079851135,-0.2377736307611514,0.013038552481797078
78,78,61532.178051898714,3371.138187916047,14.27036598959788,61643.87669550328,-3849.7592823843374,12.739827004320231,61676.31729058376,40269.36712242935,9.51552672873341,61699.60271279886,-8781.611628249364,8.319731605908306,61898.53415569612,9159.899674762224,31.32969456515565,0.9777576446607202,117.0,93.0,73.0,226.0,299.0,24.0,779.0,776.0,26.0,12.0,14.0,0.4615384615384615,235.7574914900717,3389.5058475820515,14.0,7.0,7.0,0.5,449.8291541632537,1017.5426883328266,24.0,12.0,12.0,0.5,2071.575574250561,35973.633772122266,19.0,7.0,12.0,0.3684210526315789,1245.9286974773063,20279.02390642024,83.0,44.0,39.0,0.5301204819277109,132.5444181307241,8784.497767661454,0.0,0.0,0.0,0.0,61521.0,61545.0,61638.0,61651.0,61664.0,61688.0,61693.0,61711.0,61860.0,61937.0,0.06993409298234998,-0.11684604702989462,0.05144296328155425,-0.14187927572079218,0.01447007312710166
79,79,62346.85866971581,4001.217614934599,17.91432010727825,62459.36952157761,-2823.4422214677425,12.739827004308022,62490.519558346554,41030.29287297866,9.40286026744954,62514.45203459914,-6999.644446862825,7.0369527391768845,62712.63891659749,9868.189765021929,37.70824984050043,0.9863850511339182,127.0,95.0,69.0,234.0,303.0,32.0,814.0,813.0,39.0,21.0,18.0,0.5384615384615384,183.63657529162063,4159.751429043059,10.0,5.0,5.0,0.5,511.8162381147029,147.59012335247917,23.0,12.0,11.0,0.5217391304347826,2084.278352370344,35006.65422096232,17.0,6.0,11.0,0.3529411764705882,1292.92952362393,19083.271760517226,91.0,46.0,45.0,0.5054945054945055,152.5418453707965,10321.781458709776,0.0,0.0,0.0,0.0,62327.0,62359.0,62454.0,62464.0,62479.0,62502.0,62509.0,62523.0,62668.0,62757.0,0.04589517316083849,-0.18127384871670565,0.05079852485632605,-0.1847135998748349,0.015457935954118483
80,80,63180.23448263491,3286.3708151773676,14.680415249234615,63290.86975400083,-3561.5130839333365,15.28779240518434,63323.846904686536,38956.61156236529,9.619772396395426,63347.60271279886,-7909.481994067236,8.292821729037115,63550.383477496405,9109.198766700962,33.360863261545525,0.9805201539115088,114.0,93.0,74.0,227.0,301.0,21.0,831.0,834.0,23.0,11.0,12.0,0.4782608695652174,168.7618756141459,3759.687196928535,15.0,7.0,8.0,0.4666666666666667,425.6671548901997,1335.8563768798158,24.0,12.0,12.0,0.5,1963.894747649146,33172.87961978951,19.0,7.0,12.0,0.3684210526315789,1192.961536719038,18142.86722945038,85.0,45.0,40.0,0.5294117647058824,142.99249874188996,8867.550246420844,0.0,0.0,0.0,0.0,63171.0,63192.0,63285.0,63299.0,63312.0,63336.0,63342.0,63359.0,63506.0,63586.0,0.05135204914635834,-0.1195186272964896,0.050412360543862104,-0.15082675927625316,0.015697593433201252
81,81,63949.88009106351,3524.228393716792,16.15175047813128,64062.32808621643,-3754.745184965237,10.191861603456228,64094.01215593768,39725.6165729267,9.449937332614084,64119.027373699,-6995.661764242854,8.508270490901218,64316.25703376997,9133.871945056328,34.176292372265515,0.9832272871147616,118.0,93.0,73.0,228.0,301.0,25.0,772.0,771.0,26.0,13.0,13.0,0.5,208.9444042102578,3707.5626762537577,12.0,6.0,6.0,0.5,474.78269691871816,730.5155862690422,24.0,12.0,12.0,0.5,1995.390143465532,34474.98819781699,19.0,7.0,12.0,0.3684210526315789,1092.1778927458931,16362.614933984994,90.0,45.0,45.0,0.5,123.8876628963536,9112.078484450749,0.0,0.0,0.0,0.0,63938.0,63963.0,64056.0,64068.0,64082.0,64106.0,64113.0,64129.0,64276.0,64357.0,0.05928798615401219,-0.12644871316962988,0.05022930581335281,-0.15612216964639092,0.01356354278246777
82,82,64731.96417698664,3435.321350241374,12.86800373109557,64842.266539675365,-4095.7298087585455,12.739827004320285,64874.33238847424,40162.832531225395,9.656785015121148,64896.60271279886,-8927.159534793514,7.751510189494304,65096.86015667482,9043.011229598118,30.80761297425699,0.9811178497819586,115.0,92.0,73.0,227.0,300.0,23.0,781.0,779.0,23.0,12.0,11.0,0.5217391304347826,180.3519916046167,3895.3325414846754,15.0,8.0,7.0,0.5333333333333333,479.0072199198906,1112.1282882083892,24.0,12.0,12.0,0.5,2067.1264460339353,35992.02860897463,19.0,6.0,13.0,0.3157894736842105,1361.1381142281082,21068.267461591466,79.0,40.0,39.0,0.5063291139240507,139.27683804356806,9058.91550078062,0.0,0.0,0.0,0.0,64720.0,64743.0,64835.0,64849.0,64862.0,64886.0,64892.0,64908.0,65059.0,65135.0,0.052499307405970835,-0.11695283680470178,0.051468641919785084,-0.15247157944507278,0.015401599589715171
83,83,65509.178051898714,3992.3771483134296,18.215487018660983,65622.79267838682,-3187.5984335347644,8.638882650809027,65653.19160930369,40506.12451816757,9.39957040769021,65677.45203459915,-6876.730649643747,7.210662900969762,65873.38461426958,9655.008255901685,37.18034017313651,0.9858100512010012,132.0,95.0,69.0,234.0,303.0,37.0,779.0,779.0,45.0,25.0,20.0,0.5555555555555556,186.8688909423334,3724.046057471942,10.0,6.0,4.0,0.6,603.7757173073987,2124.1039989051624,24.0,12.0,12.0,0.5,2010.4871579720225,36886.86106711851,16.0,6.0,10.0,0.375,1246.423685136623,18242.926872107742,91.0,44.0,47.0,0.4835164835164835,137.64793490819406,10182.79086602537,0.0,0.0,0.0,0.0,65485.0,65522.0,65617.0,65627.0,65641.0,65665.0,65671.0,65686.0,65830.0,65920.0,0.0468064223394515,-0.18941398356689018,0.049634152412440506,-0.18125236375241696,0.014256635650627838
84,84,66300.17805189872,3559.049352518537,15.178310003277474,66409.33790772139,-3259.625948206595,15.28779240518434,66441.25246010232,39614.66000385606,9.53858327671365,66464.60271279886,-8304.230935636278,7.913200560783311,66665.52581522253,9334.27815894269,31.84568845110695,0.9828187036903292,121.0,90.0,73.0,230.0,303.0,31.0,791.0,786.0,32.0,18.0,14.0,0.5625,189.5269523227482,3427.924678962125,13.0,6.0,7.0,0.4615384615384615,425.3816547555029,566.1981759783719,24.0,12.0,12.0,0.5,1993.7433709711197,35241.29450757687,19.0,7.0,12.0,0.3684210526315789,1269.824151050736,19164.382883028306,82.0,42.0,40.0,0.5121951219512195,143.06102636211872,9674.202301427817,0.0,0.0,0.0,0.0,66282.0,66313.0,66403.0,66416.0,66429.0,66453.0,66459.0,66476.0,66624.0,66706.0,0.053252128180979214,-0.13050014373260913,0.05032842313368461,-0.15291291401850216,0.015326415597017466
85,85,67053.49149138984,4150.184957796573,17.831393801663495,67165.12330450071,-3690.597544639292,8.433996432676318,67195.4675195,39141.24738804908,9.750247118519708,67218.60271279886,-7581.061962873187,8.162367504212598,67416.25757626946,9253.245856754476,36.63399633345291,0.986926446154446,117.0,90.0,73.0,229.0,302.0,27.0,752.0,757.0,39.0,19.0,20.0,0.4871794871794871,216.8509952149076,4417.015806173991,12.0,7.0,5.0,0.5833333333333334,626.5449640222008,2014.47520793537,24.0,12.0,12.0,0.5,1963.0771137809968,34612.89610168028,21.0,6.0,15.0,0.2857142857142857,1237.128889096229,18524.714199086033,87.0,42.0,45.0,0.4827586206896552,133.26753974700787,10127.562784814982,0.0,0.0,0.0,0.0,67041.0,67068.0,67158.0,67169.0,67183.0,67207.0,67214.0,67231.0,67374.0,67460.0,0.052250923132360516,-0.16976789163377537,0.05015366767233839,-0.16318675340669064,0.014402247796077766
86,86,67782.83434277274,4471.612382046803,23.310058342321646,67896.69864360057,-3022.7025208099426,6.251314840859572,67927.29085473668,40583.143782723106,9.500685552114732,67951.027373699,-6904.195008105816,7.2963157854045235,68148.08530835842,10056.350473416896,37.73118470259849,0.9885157203604144,129.0,84.0,70.0,231.0,301.0,45.0,728.0,733.0,52.0,23.0,29.0,0.4423076923076923,191.49644468354023,5155.739174367418,10.0,6.0,4.0,0.6,581.5466782044728,2931.3448005702376,24.0,12.0,12.0,0.5,2028.724710450294,35979.62242260347,18.0,6.0,12.0,0.3333333333333333,1270.2239918578969,18199.67151625867,90.0,46.0,44.0,0.5111111111111111,173.6859775996966,10717.09762669585,0.0,0.0,0.0,0.0,67762.0,67807.0,67891.0,67901.0,67915.0,67939.0,67946.0,67961.0,68103.0,68192.0,0.04282492048111873,-0.19239295769292095,0.04998934339123216,-0.18397857974269272,0.017271273317176112
87,87,68535.027373699,2856.845610619275,10.03766310363237,68644.027373699,-4393.225812402757,17.8357578060484,68677.98221644248,43879.23754790271,9.353586658426742,68700.75339099858,-6852.213745933016,25.479654008640548,68901.83547434346,8730.688349917966,29.211618030886015,0.963934979546423,109.0,91.0,79.0,223.0,302.0,18.0,754.0,750.0,22.0,12.0,10.0,0.5454545454545454,169.88115799767468,3035.2312678677504,71.0,60.0,11.0,0.8450704225352113,369.1191659651467,2859.7054162408845,22.0,11.0,11.0,0.5,2049.385025019074,33535.078121192826,20.0,6.0,14.0,0.3,1331.5014814589074,22596.30727424629,72.0,35.0,37.0,0.4861111111111111,122.20094422829516,9219.209358377588,0.0,0.0,0.0,0.0,68527.0,68545.0,68636.0,68654.0,68667.0,68689.0,68695.0,68715.0,68867.0,68938.0,0.05946459177429954,-0.08402007584564994,0.046705119312562625,-0.19431698000506645,0.013996713584381164
88,88,69285.60271279886,3303.8350200406894,13.869513233093912,69396.87669549929,-4377.688178928858,12.739827004320285,69429.25835808725,38670.64949369533,9.68500553613906,69451.60271279886,-9085.846612838095,7.823314893076883,69652.34713901141,9080.230439067058,31.379125298933776,0.9810989308985504,115.0,93.0,73.0,228.0,301.0,22.0,751.0,750.0,23.0,11.0,12.0,0.4782608695652174,171.26285023351508,3412.7940786121253,14.0,7.0,7.0,0.5,464.40838446108904,1168.889640054622,23.0,12.0,11.0,0.5217391304347826,2005.110584166997,34787.75462087315,18.0,6.0,12.0,0.3333333333333333,1299.5361985774505,21128.666256534932,82.0,40.0,42.0,0.4878048780487805,124.19345950567562,9034.987848520215,0.0,0.0,0.0,0.0,69275.0,69297.0,69390.0,69404.0,69417.0,69440.0,69446.0,69463.0,69613.0,69691.0,0.05183759152459309,-0.10608530472691671,0.05185096734653759,-0.14302863056715434,0.01367734666417076
89,89,70018.72777874138,4539.842751868334,23.005580454751403,70132.27398270041,-3083.638483771297,4.994675568153415,70163.03206552246,40326.45682657938,9.421332851888018,70188.45203459915,-5720.115572261369,7.51986496190005,70383.12440516055,9975.65048698299,39.016248675729024,0.9868663424701544,129.0,84.0,69.0,231.0,300.0,45.0,733.0,735.0,53.0,27.0,26.0,0.5094339622641509,201.4101848893266,5096.15670891308,8.0,4.0,4.0,0.5,568.5306510296032,1538.3199039556375,25.0,13.0,12.0,0.52,1956.4102942719876,35103.12994796259,17.0,6.0,11.0,0.3529411764705882,1137.009617658309,15563.363021211931,90.0,44.0,46.0,0.4888888888888889,148.66565805592825,10436.320336530138,0.0,0.0,0.0,0.0,69999.0,70044.0,70128.0,70136.0,70150.0,70175.0,70183.0,70197.0,70340.0,70428.0,0.04436501348123521,-0.1843700725690415,0.04851431165116662,-0.19877388897036005,0.014902853528190351
90,90,70758.14292635638,3388.3831377949823,14.491638504495713,70867.91398892847,-3757.085248809613,15.28779240518434,70901.49605119332,39846.53048068921,9.701606527956118,70924.17805189872,-9022.68761307534,8.422709378507902,71122.12163099834,8835.014583557238,31.899318622246913,0.97904412424041,118.0,96.0,73.0,225.0,298.0,22.0,739.0,738.0,23.0,12.0,11.0,0.5217391304347826,202.79377549468504,3947.5552812238616,14.0,5.0,9.0,0.3571428571428571,441.85067642821065,1599.424473830365,24.0,12.0,12.0,0.5,2044.2277348505124,35731.14751893563,21.0,6.0,15.0,0.2857142857142857,1347.6545734150243,21814.564535493715,84.0,43.0,41.0,0.5119047619047619,148.8560320454176,8857.707179450124,0.0,0.0,0.0,0.0,70746.0,70768.0,70864.0,70876.0,70889.0,70913.0,70919.0,70937.0,71083.0,71162.0,0.0598497180654295,-0.11760464486883966,0.05130252772800896,-0.1493628762523102,0.016848419506001966
91,91,71518.53950640939,2796.579697867027,11.65516921005174,71627.027373699,-3837.4079751109753,17.8357578060484,71661.3278890883,40238.356085263615,9.597498504202258,71684.17805189872,-8725.07567824179,7.782441016148624,71884.27918737242,9004.176428710422,30.69469079658664,0.9780701579020924,113.0,94.0,75.0,226.0,301.0,19.0,760.0,759.0,19.0,10.0,9.0,0.5263157894736842,185.1928838277524,3278.7045715666263,72.0,61.0,11.0,0.8472222222222222,370.3296494827292,1597.0180553833711,24.0,12.0,12.0,0.5,2051.2144446961297,36009.85163682148,20.0,6.0,14.0,0.3,1357.1475742606372,21251.37000170076,78.0,39.0,39.0,0.5,124.54780969294276,9278.569966011226,0.0,0.0,0.0,0.0,71509.0,71528.0,71622.0,71637.0,71649.0,71673.0,71679.0,71697.0,71845.0,71923.0,0.06622120727294147,-0.09650515449090855,0.050976596567456206,-0.15554565075521717,0.013832226709353862
92,92,72302.45203459915,2228.37476335787,7.734891651110272,72412.87669549929,-5262.075023320015,12.739827004320285,72445.04170097706,39283.59737132259,9.80898485140706,72466.60271279886,-9397.733337791384,10.150968669442822,72669.39642975737,8411.325066455975,29.237682548201583,0.9696057016635148,104.0,89.0,80.0,227.0,307.0,15.0,784.0,784.0,21.0,11.0,10.0,0.5238095238095238,188.66609524732883,2134.880226421903,40.0,33.0,7.0,0.825,489.07694346170774,1082.649590119596,23.0,12.0,11.0,0.5217391304347826,2038.6973856359543,32768.67671217377,22.0,6.0,16.0,0.2727272727272727,1341.204233959986,21866.068245664675,77.0,39.0,38.0,0.5064935064935064,117.7427027205076,8325.56709296939,0.0,0.0,0.0,0.0,72296.0,72311.0,72400.0,72420.0,72433.0,72456.0,72462.0,72480.0,72630.0,72707.0,0.08466533473168295,-0.09294374202082986,0.05189691174068043,-0.14271571513596384,0.013998115848602825
93,93,73049.78109926559,4322.669254235573,21.875997948981144,73167.01012549606,-2708.159598962061,6.009028652812774,73196.30669323874,40731.59180063086,9.663875914471358,73220.027373699,-6438.360230018076,7.441727366515384,73414.50166683551,9469.083609880428,39.45957479972638,0.9868224341710458,131.0,93.0,70.0,231.0,301.0,38.0,748.0,753.0,39.0,22.0,17.0,0.5641025641025641,183.2232134308845,4983.941394198106,9.0,7.0,2.0,0.7777777777777778,690.2794203983439,4490.963361858546,25.0,13.0,12.0,0.52,1996.2688321800276,35936.14100464944,18.0,6.0,12.0,0.3333333333333333,1243.6425774842623,17818.620575689172,92.0,46.0,46.0,0.5,133.01800460262493,10114.36734220073,0.0,0.0,0.0,0.0,73029.0,73067.0,73160.0,73169.0,73183.0,73208.0,73216.0,73230.0,73369.0,73461.0,0.04238659093599469,-0.2548887520007694,0.0490103318807469,-0.19316138473984867,0.014047611161002794
94,94,73817.40102985803,2957.295526854177,13.257780353701015,73930.87669549929,-4352.9669896221585,12.739827004320285,73963.01630094607,43845.029691042815,9.452709897341215,73985.17805189872,-6767.737351574384,22.931688602822224,74186.53415569612,9119.764116315991,30.19314922456042,0.971885519687794,116.0,93.0,76.0,225.0,301.0,23.0,765.0,766.0,24.0,9.0,15.0,0.375,180.3823956370624,2949.876944202093,15.0,8.0,7.0,0.5333333333333333,472.35600280831983,1273.4607540168272,23.0,12.0,11.0,0.5217391304347826,2056.69248252059,34239.2652762877,23.0,5.0,18.0,0.217391304347826,1390.292598649706,22856.245949239423,79.0,40.0,39.0,0.5063291139240507,131.71920634711856,8802.523998953817,0.0,0.0,0.0,0.0,73808.0,73831.0,73924.0,73938.0,73951.0,73974.0,73980.0,74000.0,74148.0,74225.0,0.06099572869842473,-0.10851357337063582,0.04690822419355679,-0.20542945543332605,0.014443268999848614
95,95,74602.63066779892,4115.7061261362005,20.80413269481045,74715.69864360057,-3609.5986489789498,7.460282028104263,74746.43890010692,40524.879975010976,9.48078942525853,74769.60271279886,-7686.890870393826,7.376430208891075,74970.23072870036,8825.681064843146,33.147076882959155,0.988707286101834,131.0,86.0,71.0,229.0,300.0,45.0,785.0,783.0,45.0,24.0,21.0,0.5333333333333333,170.24193179667694,5057.089582025181,12.0,7.0,5.0,0.5833333333333334,614.6886118615585,1954.002947070946,24.0,12.0,12.0,0.5,2034.6053946493937,36719.42802831553,18.0,6.0,12.0,0.3333333333333333,1267.7143188432,18981.5176284089,83.0,42.0,41.0,0.5060240963855421,155.96727557813654,9103.400901720268,0.0,0.0,0.0,0.0,74579.0,74624.0,74710.0,74721.0,74734.0,74758.0,74764.0,74781.0,74933.0,75010.0,0.04136396685749257,-0.17029278643913387,0.05020632746855761,-0.1649189952371798,0.01767198184845222
96,96,75380.63112036441,3669.145940492195,16.473220163303072,75493.76068120611,-3587.3286206675452,7.827918470792638,75523.38024025688,39046.45703356655,9.434510391189114,75548.027373699,-7072.637931880217,8.285684081884844,75745.26920132953,8959.76671517175,35.331426221642566,0.9849354737892132,120.0,94.0,71.0,230.0,301.0,26.0,779.0,776.0,28.0,15.0,13.0,0.5357142857142857,189.5008116779668,4303.782133607532,11.0,7.0,4.0,0.6363636363636364,685.7006630885893,3275.627421595461,24.0,12.0,12.0,0.5,1940.5147595662056,34695.53625334338,19.0,7.0,12.0,0.3684210526315789,1138.664690045635,16607.254854160234,89.0,45.0,44.0,0.5056179775280899,142.5399294090941,8957.451928127528,0.0,0.0,0.0,0.0,75367.0,75393.0,75487.0,75497.0,75511.0,75535.0,75542.0,75558.0,75704.0,75788.0,0.05164711754489284,-0.1911452045787183,0.04969758864160272,-0.16099575589937318,0.015908888472255467
97,97,76122.74710345015,4031.19648415699,18.370410283199263,76236.12330450071,-3529.9808586018053,7.724965465110612,76266.43462280523,40373.104115089336,9.462746705206651,76290.027373699,-7104.554521658023,7.559867486417218,76488.02403337414,8817.481323054193,34.62638435475611,0.9882299051356048,129.0,86.0,71.0,230.0,301.0,43.0,740.0,744.0,43.0,23.0,20.0,0.5348837209302325,170.14981777285337,4398.5728293618195,12.0,7.0,5.0,0.5833333333333334,573.649253202673,1851.6622042958452,24.0,12.0,12.0,0.5,2037.828613912425,36532.81761813673,18.0,6.0,12.0,0.3333333333333333,1263.2985422822617,18807.16491539179,85.0,43.0,42.0,0.5058823529411764,141.17682193947164,9127.621216775247,0.0,0.0,0.0,0.0,76100.0,76143.0,76229.0,76241.0,76254.0,76278.0,76284.0,76300.0,76445.0,76530.0,0.042208267059558956,-0.16250775179270815,0.05047490547428064,-0.17781530684733768,0.01601101457060653
98,98,76876.9031815463,3221.99519296129,15.55459329673884,76987.45203460031,-3928.8215674405583,15.28779240518434,77020.94875007078,39952.48906965569,9.66806897231698,77043.17805189872,-8956.881224545594,8.435441817477857,77242.29882397427,8944.409721247142,32.4998089202673,0.9790956822954118,116.0,92.0,75.0,226.0,301.0,24.0,758.0,754.0,27.0,13.0,14.0,0.4814814814814814,200.29794616624883,3365.1602466239356,31.0,21.0,10.0,0.6774193548387096,376.9780464394247,1391.9834870864051,23.0,12.0,11.0,0.5217391304347826,2073.4584970551073,34282.839853899204,20.0,5.0,15.0,0.25,1356.562817506947,21970.25940175344,89.0,44.0,45.0,0.4943820224719101,127.91648941202848,8566.70807867908,0.0,0.0,0.0,0.0,76866.0,76890.0,76982.0,76996.0,77009.0,77032.0,77038.0,77057.0,77204.0,77283.0,0.0621658116076076,-0.09595193876035661,0.05189810560839173,-0.15145481820049134,0.014301277937678459
99,99,77630.60271279886,3899.8480032047305,18.39466012694139,77743.9010009787,-3233.423326246704,7.960647417681042,77774.67492863386,39781.07953056844,9.411525046355688,77798.60271279886,-7235.8321117241885,7.55455022281173,77996.64365895523,9606.24375852992,38.623349873079135,0.9811357341176696,127.0,96.0,72.0,231.0,303.0,31.0,754.0,753.0,44.0,27.0,17.0,0.6136363636363636,199.6665828435598,4039.262625913466,11.0,7.0,4.0,0.6363636363636364,572.1368515394097,1783.2062192460853,23.0,12.0,11.0,0.5217391304347826,2027.992844594107,33762.03820567172,19.0,7.0,12.0,0.3684210526315789,1180.9944687591892,17401.559427680182,90.0,46.0,44.0,0.5111111111111111,150.6374634277087,10302.801589923913,0.0,0.0,0.0,0.0,77611.0,77642.0,77738.0,77748.0,77763.0,77786.0,77793.0,77810.0,77952.0,78041.0,0.05119855509227084,-0.1769446168385057,0.05097882884338933,-0.16321474165295086,0.015681203518695775
100,100,78369.25022605853,3821.9831763818897,16.868692637701056,78482.69864360057,-2986.9056569007707,5.779477960952173,78512.79482826975,40831.14700218665,9.338311538543898,78538.87669549929,-5493.075462722337,8.118684417546243,78732.36297481264,8906.268009792431,35.48802982929406,0.971471238296818,122.0,96.0,69.0,229.0,298.0,26.0,737.0,739.0,31.0,19.0,12.0,0.6129032258064516,184.87750833739057,4264.925593871279,10.0,7.0,3.0,0.7,646.5319120192323,3556.8277998562057,25.0,13.0,12.0,0.52,1998.0469543005452,34934.45972165474,17.0,7.0,10.0,0.4117647058823529,968.225467088216,14150.524110801109,86.0,43.0,43.0,0.5,150.2247219037926,9678.303017136104,0.0,0.0,0.0,0.0,78355.0,78381.0,78477.0,78486.0,78500.0,78525.0,78533.0,78546.0,78690.0,78775.0,0.04837214079848627,-0.21645541784204772,0.04893438223015246,-0.1762629102146667,0.0168673030879624
101,101,79115.65249852662,3184.318825693113,14.94734422375757,79227.02737372534,-3921.631250556088,17.835757806046143,79261.39647898143,40591.70800482005,9.513324112812814,79284.60271279886,-8494.693208256263,8.337683133929318,79486.80813839656,8900.855974391086,30.908446319820357,0.9789212150747304,121.0,95.0,73.0,225.0,298.0,26.0,747.0,749.0,35.0,22.0,13.0,0.6285714285714286,150.02260827850947,3330.566304688644,34.0,23.0,11.0,0.6764705882352942,352.2569793060332,2182.5990124504383,24.0,12.0,12.0,0.5,2069.6593316669814,36001.426454921086,19.0,7.0,12.0,0.3684210526315789,1281.9873716324769,19994.81869032069,84.0,46.0,38.0,0.5476190476190477,134.7087193109086,8388.606786220022,0.0,0.0,0.0,0.0,79102.0,79128.0,79223.0,79237.0,79250.0,79273.0,79279.0,79296.0,79443.0,79521.0,0.047112935761341325,-0.08982409533177886,0.050987244277112466,-0.15091626503785593,0.015134355583157733
102,102,79860.60271279886,3980.904531155174,16.490596627310477,79971.4520346018,-3743.932088807372,15.28779240518434,80004.88743211691,39669.1932018506,9.6585892210909,80027.17805189872,-9069.53248761538,8.28537015822611,80226.51975794723,8838.12464439447,31.60016901012108,0.9824214392494022,126.0,94.0,75.0,225.0,300.0,32.0,746.0,743.0,38.0,26.0,12.0,0.6842105263157895,209.9930595512334,3818.6789265933494,17.0,7.0,10.0,0.4117647058823529,405.3597923037377,1272.1789461529513,23.0,12.0,11.0,0.5217391304347826,2063.803848410732,33433.810446323514,19.0,5.0,14.0,0.2631578947368421,1366.8298101395724,21928.79046464097,78.0,39.0,39.0,0.5,158.30290300033863,9172.000550611208,0.0,0.0,0.0,0.0,79840.0,79872.0,79966.0,79980.0,79993.0,80016.0,80022.0,80041.0,80188.0,80266.0,0.05275008679755951,-0.10827113918961732,0.052025354735837026,-0.15070565235925937,0.017911368007322837
103,103,80598.53422166468,4753.654793364445,22.68488020889055,80713.74151077538,-3085.7354673794234,5.131678386643314,80743.57623159065,40501.162756419086,9.28836596249702,80769.87669549929,-5439.352404339081,7.612342666400256,80962.83551209555,9609.587477390707,38.77441387220721,0.984670559096804,132.0,83.0,70.0,230.0,300.0,49.0,738.0,740.0,53.0,27.0,26.0,0.5094339622641509,215.130150948183,4977.99416843564,10.0,7.0,3.0,0.7,665.494954535325,3557.3253930028113,25.0,13.0,12.0,0.52,1987.898730703499,33897.50730496417,15.0,7.0,8.0,0.4666666666666667,946.0494497429406,13700.53215068732,92.0,44.0,48.0,0.4782608695652174,170.10803346771294,10029.607200725051,0.0,0.0,0.0,0.0,80575.0,80624.0,80707.0,80717.0,80731.0,80756.0,80763.0,80777.0,80919.0,81007.0,0.04525573696442576,-0.21566818075319333,0.049082510116044364,-0.1739268536799083,0.017701908002600585
104,104,81331.00461588321,3750.332762456029,17.75911765095283,81447.69864360057,-3609.7025971379226,8.381553892986423,81478.65706618309,40600.454786836126,9.599947496326212,81502.60271279886,-6803.073991881672,9.161985728867318,81699.56221015996,8076.214573654548,33.886559847480335,0.9862493139656864,123.0,97.0,72.0,227.0,299.0,26.0,733.0,735.0,50.0,24.0,26.0,0.48,207.64191455508583,3444.8022373187987,11.0,6.0,5.0,0.5454545454545454,617.1821498333262,1936.56435575798,24.0,13.0,11.0,0.5416666666666666,2057.1378810811825,33451.296501671175,22.0,6.0,16.0,0.2727272727272727,1138.2262464394646,17333.14398309342,84.0,42.0,42.0,0.5,121.88700418075238,8663.74034902211,0.0,0.0,0.0,0.0,81319.0,81345.0,81442.0,81452.0,81466.0,81490.0,81498.0,81514.0,81659.0,81741.0,0.05536626419760808,-0.17097867018814247,0.050667853152920043,-0.1673105786880676,0.01509209581656739
105,105,82066.52920973349,3317.337016351115,16.18949708527959,82180.46351052406,-3323.1511312806074,15.28779240518434,82213.20697560326,41229.5912241545,9.793593565613154,82235.60271279886,-8704.397164588714,7.991550601327489,82434.94376323327,8416.991045309263,32.43351681299943,0.9835833830005556,118.0,98.0,73.0,227.0,300.0,20.0,733.0,734.0,31.0,14.0,17.0,0.4516129032258064,186.88065829219832,4080.309118595873,12.0,5.0,7.0,0.4166666666666667,457.4710612883922,634.5214082474731,24.0,12.0,12.0,0.5,2085.544538181079,35797.85122593846,18.0,5.0,13.0,0.2777777777777778,1361.1303112003409,21210.858939325328,78.0,38.0,40.0,0.4871794871794871,129.96756128107302,8699.038248482513,0.0,0.0,0.0,0.0,82057.0,82077.0,82175.0,82187.0,82201.0,82224.0,82231.0,82248.0,82397.0,82475.0,0.05633454104031811,-0.13766182855249845,0.05058368216270977,-0.15637272581468367,0.015441095348854282
106,106,82858.60271279886,3306.774573440885,15.538035933579357,82974.30135648393,-3893.132122429296,10.191861603456228,83006.45013269037,40558.56897371101,9.484474958068589,83028.60271279886,-9220.573141498437,7.798391887248887,83229.21037935517,8306.666365410132,30.30130518257821,0.981281536056459,122.0,98.0,72.0,228.0,300.0,24.0,794.0,793.0,34.0,22.0,12.0,0.6470588235294118,153.36403591433609,3551.2748864480927,13.0,6.0,7.0,0.4615384615384615,460.24861245842527,431.0846424458195,23.0,12.0,11.0,0.5217391304347826,2123.6870101225873,36315.67929745877,18.0,6.0,12.0,0.3333333333333333,1391.1746159979475,22064.501238704965,79.0,39.0,40.0,0.4936708860759494,137.7921599516194,8030.6917477541665,0.0,0.0,0.0,0.0,82846.0,82870.0,82968.0,82980.0,82994.0,83017.0,83023.0,83040.0,83195.0,83268.0,0.04637873931477348,-0.11822065061877024,0.05236099457796711,-0.1508772388276796,0.016588141847781564
107,107,83676.7317807718,3297.908266458972,15.50748056447813,83792.62849749337,-3590.2441869809254,10.191861603456228,83824.36127731632,40198.866373534416,9.520431295627173,83847.027373699,-8502.661150524447,7.165760004709361,84047.12718946622,9037.65726786565,32.66770989687565,0.9831554194892242,122.0,98.0,70.0,231.0,301.0,24.0,818.0,818.0,26.0,13.0,13.0,0.5,173.9554123930538,3519.081793796201,12.0,6.0,6.0,0.5,529.3068259724171,648.4025485875381,24.0,12.0,12.0,0.5,2061.58486517183,36353.566291415016,18.0,6.0,12.0,0.3333333333333333,1376.8524629746198,20920.28563617101,84.0,42.0,42.0,0.5,132.9953983522127,8988.800816462921,0.0,0.0,0.0,0.0,83665.0,83689.0,83787.0,83798.0,83812.0,83836.0,83842.0,83857.0,84010.0,84088.0,0.05274719559735756,-0.14742919935412996,0.05128465181120402,-0.16193194561089796,0.01471569394704665
108,108,84527.92409482188,3187.9008659731044,15.824813415787736,84641.27302312103,-3808.2208625660874,12.739827004308856,84671.8204552388,39623.04358316893,9.698160118560828,84694.60271279886,-8485.440531693517,7.579465862503449,84896.6748410071,9039.280719016411,31.94930689738028,0.9822139810364632,118.0,93.0,72.0,228.0,300.0,25.0,851.0,847.0,26.0,13.0,13.0,0.5,180.71887026730377,3289.090403738658,12.0,7.0,5.0,0.5833333333333334,588.7791589521166,108.67705158210627,23.0,12.0,11.0,0.5217391304347826,2035.4343411593757,34179.990326124294,18.0,6.0,12.0,0.3333333333333333,1289.1269809192377,20126.336728808365,81.0,41.0,40.0,0.5061728395061729,140.8139887191534,9765.304082706743,0.0,0.0,0.0,0.0,84516.0,84541.0,84634.0,84646.0,84660.0,84683.0,84689.0,84706.0,84862.0,84934.0,0.05668898684907489,-0.15460740860375952,0.05136996447249163,-0.15192222208196357,0.015578008150904706
109,109,85295.27610247058,4709.632396397788,19.64178171509247,85408.69864360057,-2985.4467998706123,6.171984323069443,85438.76292365312,40430.77714753987,9.6021970346672,85462.60271279886,-6803.377509154133,7.665383223608282,85659.63317019043,9419.693821109347,36.54319838694225,0.9887594593879236,122.0,90.0,71.0,227.0,298.0,32.0,766.0,768.0,39.0,21.0,18.0,0.5384615384615384,207.50391782691176,5779.078213778929,10.0,7.0,3.0,0.7,670.4573052479614,4028.3538131337623,25.0,13.0,12.0,0.52,1983.754002016219,33767.08728416503,18.0,6.0,12.0,0.3333333333333333,1192.2307181077742,17026.589096786265,91.0,46.0,45.0,0.5054945054945055,148.34746730619196,9801.72591805473,0.0,0.0,0.0,0.0,85281.0,85313.0,85403.0,85411.0,85426.0,85451.0,85458.0,85474.0,85616.0,85701.0,0.04405947223940945,-0.22457519768130474,0.04906544325816716,-0.17524100588326824,0.01574865065929725
110,110,86067.91568135774,3135.1123188391375,15.121380377724044,86180.17517987044,-3574.2500720604453,15.2877924051842,86211.24573514887,40133.730887966994,9.685800143705327,86234.60271279886,-8467.113004647686,7.87107700180032,86434.2664214513,8796.559806807936,32.038535552598795,0.982079069437778,120.0,93.0,74.0,226.0,300.0,27.0,773.0,770.0,34.0,22.0,12.0,0.6470588235294118,170.09333173357243,3260.1355662995047,14.0,8.0,6.0,0.5714285714285714,534.9498254289114,126.607951351589,24.0,12.0,12.0,0.5,2007.11859085149,35637.387110721465,19.0,6.0,13.0,0.3157894736842105,1279.6848443319204,19162.734023910336,83.0,41.0,42.0,0.4939759036144578,128.12103193548992,9475.284569524212,0.0,0.0,0.0,0.0,86052.0,86079.0,86172.0,86186.0,86199.0,86223.0,86229.0,86246.0,86400.0,86472.0,0.054254302377451734,-0.14966771060888004,0.05001076517043347,-0.1511359118071872,0.014564902046858478
111,111,86841.91836255668,3397.3243559367443,16.183172561340466,86958.27312054869,-4030.681440600205,10.191861603447364,86987.44308445757,40008.090563951526,9.743304518447044,87009.60271279886,-8836.088680448132,7.812317860248994,87210.10949479598,9088.949252994846,32.48901390099403,0.9844853221027562,118.0,94.0,72.0,228.0,300.0,24.0,773.0,778.0,24.0,10.0,14.0,0.4166666666666667,201.64005780939223,3375.4094413523253,12.0,8.0,4.0,0.6666666666666666,669.3220698947258,2625.346398313158,24.0,12.0,12.0,0.5,2050.324486512614,36574.96098598819,19.0,6.0,13.0,0.3157894736842105,1336.637807113996,21244.445997434555,80.0,39.0,41.0,0.4875,128.8935168792242,8915.269991892867,0.0,0.0,0.0,0.0,86832.0,86856.0,86950.0,86962.0,86975.0,86999.0,87005.0,87022.0,87172.0,87250.0,0.059352607135386114,-0.16605680199699874,0.05124774658353771,-0.15127030244406814,0.014181344101657653
112,112,87592.05745643414,4114.781789633528,20.02227889557327,87706.62739054377,-3284.3849461760014,8.37919703928283,87737.20080397703,39455.25912969967,9.532999333121657,87762.027373699,-6662.512571584689,7.984652923318565,87960.2601729957,9518.915814715048,38.19905623318001,0.9834017436040858,129.0,90.0,72.0,231.0,303.0,39.0,752.0,751.0,51.0,26.0,25.0,0.5098039215686274,174.0223767228384,4309.909916311656,14.0,9.0,5.0,0.6428571428571429,600.1540647828671,2723.8450362875883,24.0,12.0,12.0,0.5,1950.985578802519,34396.15342480983,19.0,7.0,12.0,0.3684210526315789,1128.6139286415491,16517.00503825169,92.0,49.0,43.0,0.532608695652174,138.70087855349567,10060.002954081116,0.0,0.0,0.0,0.0,87571.0,87610.0,87700.0,87711.0,87725.0,87749.0,87756.0,87772.0,87911.0,88003.0,0.04229200614264827,-0.1827295139327759,0.049448048798491566,-0.16939764338382426,0.014571079443635959
113,113,88316.72381914903,4262.0605643759345,19.97042244831176,88430.69864360057,-3249.716372581375,6.7381657423733365,88460.98384625673,40631.90850328519,9.371018538001833,88485.45203459915,-6649.3080533531265,7.383708863020347,88681.09269526755,9348.4853156831,35.75722298351915,0.9872506260580304,120.0,90.0,69.0,229.0,298.0,30.0,726.0,722.0,46.0,26.0,20.0,0.5652173913043478,211.25339634115016,4724.031385323753,10.0,6.0,4.0,0.6,647.4982358411484,2971.710334404589,24.0,12.0,12.0,0.5,2039.7496152526512,35536.72984506875,18.0,6.0,12.0,0.3333333333333333,1236.3496593117657,17665.015030331444,86.0,43.0,43.0,0.5,141.33883437043536,9789.275554057293,0.0,0.0,0.0,0.0,88305.0,88335.0,88425.0,88434.0,88449.0,88473.0,88480.0,88494.0,88638.0,88723.0,0.04956602402764838,-0.19924761474701116,0.050200684397774045,-0.18593658909941715,0.015118902110625785
114,114,89065.22100856286,3645.2314196420743,17.107595275529043,89178.41446080693,-3411.1075579127323,12.739827004319633,89208.49808700466,40137.569595116984,9.595487361256689,89232.027373699,-7969.444948231283,7.527901704723994,89429.93993976066,9365.561943294684,33.905835969214515,0.984298535819549,120.0,91.0,70.0,230.0,300.0,29.0,745.0,749.0,29.0,13.0,16.0,0.4482758620689655,165.10206219535957,4447.755535026885,11.0,6.0,5.0,0.5454545454545454,591.290659312391,1103.6711111430286,24.0,12.0,12.0,0.5,2027.0856676518856,36706.39679483157,18.0,6.0,12.0,0.3333333333333333,1299.2978274265977,19552.47992234046,84.0,41.0,43.0,0.4880952380952381,166.5586962486286,10159.419644720603,0.0,0.0,0.0,0.0,89052.0,89081.0,89172.0,89183.0,89196.0,89220.0,89226.0,89242.0,89390.0,89472.0,0.045292614703614884,-0.1733427191238155,0.050503448218212364,-0.16303492098467415,0.017784164715057706
115,115,89867.886148762,3384.5816360185618,16.387141744617132,89982.98252552577,-3034.415363100724,15.287792405171304,90012.8078552209,40804.71867626557,9.517696944202392,90036.60271279886,-7654.715331803986,7.22820735601211,90234.30069812293,9451.059916083474,33.91089062238409,0.9853486675792168,120.0,95.0,72.0,226.0,298.0,25.0,805.0,803.0,38.0,20.0,18.0,0.5263157894736842,202.55116851563477,3208.1612248651254,13.0,8.0,5.0,0.6153846153846154,618.7219168462109,2309.4020080941145,24.0,12.0,12.0,0.5,2054.2174266843235,35807.02326469452,17.0,6.0,11.0,0.3529411764705882,1213.6964685978685,18377.80553938251,83.0,42.0,41.0,0.5060240963855421,116.59086774826685,9289.337376670264,0.0,0.0,0.0,0.0,89856.0,89881.0,89976.0,89988.0,90001.0,90025.0,90031.0,90048.0,90194.0,90274.0,0.05984526015271565,-0.20390152395417896,0.05034264402070679,-0.15855540225711265,0.012336274320921053
116,116,90686.87669549928,2617.324133146013,12.068848508511008,90793.45203459916,-4435.457204775036,15.28779240518434,90828.41143599647,39239.65184135122,9.59460603730478,90850.60271279886,-8726.140447323372,7.942998271439814,91051.32615436651,8621.3953287885,32.65570543235952,0.9787743969610512,115.0,96.0,72.0,229.0,301.0,19.0,818.0,816.0,20.0,13.0,7.0,0.65,183.62341097857487,2673.4183862326777,49.0,36.0,13.0,0.7346938775510204,321.32979264403497,2693.548488513422,24.0,12.0,12.0,0.5,2020.5930747662171,35528.651742576796,19.0,6.0,13.0,0.3157894736842105,1323.5704299323766,20786.53339008652,80.0,39.0,41.0,0.4875,148.1181269398909,8997.229267604636,0.0,0.0,0.0,0.0,90675.0,90694.0,90790.0,90804.0,90816.0,90840.0,90846.0,90862.0,91013.0,91091.0,0.0701569242621319,-0.07244569788613993,0.05149365450375612,-0.15167879063170067,0.017180296377930376
117,117,91494.47895125482,3799.772021806444,16.363864849452444,91610.2920087747,-3708.733791748623,7.459574333387517,91640.0841618108,39882.44381481411,9.633330293193117,91663.60271279886,-7139.498742690852,8.180008490383686,91864.10949479598,9440.834664555628,34.443367711042605,0.9829657559032032,129.0,98.0,72.0,229.0,301.0,31.0,808.0,813.0,39.0,21.0,18.0,0.5384615384615384,181.05096430893184,3753.054192808266,12.0,7.0,5.0,0.5833333333333334,613.1351868846863,2330.558006347651,25.0,13.0,12.0,0.52,2010.8367632880377,34624.996349231675,18.0,6.0,12.0,0.3333333333333333,1187.8853928595695,18191.35774756588,87.0,46.0,41.0,0.5287356321839081,136.30483457191184,9370.23142096698,0.0,0.0,0.0,0.0,91474.0,91505.0,91603.0,91614.0,91627.0,91652.0,91659.0,91675.0,91824.0,91904.0,0.04764784920513696,-0.16532197275760807,0.050419095996848705,-0.16638218391391713,0.014437794900026203
118,118,92261.86014041868,3857.08132509098,17.172166305479607,92377.1224578827,-3873.630101634462,8.531083400944848,92407.04520475144,40131.40682905776,9.61900990684762,92429.60271279886,-8230.763974432986,7.594332405587388,92628.59004887565,8975.766875996742,35.12300861418102,0.9858482141121816,125.0,92.0,72.0,229.0,301.0,33.0,764.0,766.0,38.0,23.0,15.0,0.6052631578947368,188.7851811002284,4149.303124800109,12.0,8.0,4.0,0.6666666666666666,641.967317576574,2088.66104326588,23.0,12.0,11.0,0.5217391304347826,2070.991106363274,35066.15902542228,18.0,6.0,12.0,0.3333333333333333,1330.8281968267615,20122.37709412952,85.0,44.0,41.0,0.5176470588235295,127.4579588480278,9359.68694711255,0.0,0.0,0.0,0.0,92244.0,92277.0,92369.0,92381.0,92395.0,92418.0,92425.0,92441.0,92587.0,92670.0,0.04894508702011239,-0.16572757355063372,0.05160524561685041,-0.1616895103493041,0.014200230532822728
119,119,93047.3487004011,3760.70140789351,17.996904837080486,93161.063345909,-3891.440543085773,7.643896202543702,93191.09188590452,40662.58582321956,9.503283455441744,93213.60271279886,-8017.971783439892,7.026163222943179,93412.95338553912,9451.27696216322,34.38281215130121,0.9871925904892164,131.0,91.0,71.0,230.0,301.0,40.0,786.0,784.0,40.0,24.0,16.0,0.6,177.40459412312762,4015.432509127592,11.0,7.0,4.0,0.6363636363636364,608.1242718856954,2020.2781124732544,23.0,12.0,11.0,0.5217391304347826,2063.854269652593,36045.375908655864,18.0,6.0,12.0,0.3333333333333333,1334.143669319517,19964.213962372694,83.0,41.0,42.0,0.4939759036144578,159.16081616714888,10445.017357327535,0.0,0.0,0.0,0.0,93023.0,93063.0,93154.0,93165.0,93179.0,93202.0,93209.0,93225.0,93372.0,93455.0,0.0471732729832698,-0.156272276333811,0.050755608082210794,-0.16639415869173077,0.01684013883037451
120,120,93842.45203459916,2912.959461804873,12.569472798570246,93952.027373699,-4106.527970920273,17.8357578060484,93985.08283486003,43371.9757731441,9.527580625498738,94007.17805189872,-7077.864396335141,22.931688607776405,94205.69015018392,9454.16202438208,33.190852837170134,0.9716969029491176,108.0,88.0,84.0,223.0,307.0,20.0,798.0,794.0,32.0,20.0,12.0,0.625,197.70687798328885,2301.7040194106803,36.0,26.0,10.0,0.7222222222222222,407.1178780058865,1921.0994524955352,23.0,12.0,11.0,0.5217391304347826,2008.125221906954,33760.40973546765,30.0,5.0,25.0,0.1666666666666666,1364.197378076093,22622.74279641379,85.0,44.0,41.0,0.5176470588235295,139.05756333899225,9374.892736476482,0.0,0.0,0.0,0.0,93831.0,93851.0,93939.0,93962.0,93973.0,93996.0,94002.0,94023.0,94163.0,94246.0,0.06787148279117809,-0.09913919517627232,0.0463000632576758,-0.1927413837968502,0.01470860801627535
121,121,94614.87669549928,2808.402323094381,11.482137360168569,94724.87669549928,-4613.726013357476,12.739827004320285,94757.06641378943,39060.78199622759,9.628332570569802,94781.17805189872,-8208.610187672928,10.132609487535664,94974.7995204426,9437.811375299698,32.68789294816656,0.9620998814458462,116.0,96.0,76.0,225.0,301.0,20.0,772.0,772.0,21.0,13.0,8.0,0.6190476190476191,171.1129720760506,3383.95351376245,19.0,12.0,7.0,0.631578947368421,468.4979612567526,1163.2730362905438,23.0,12.0,11.0,0.5217391304347826,1992.4874922744873,32720.086487417248,22.0,7.0,15.0,0.3181818181818182,1191.460850298345,19453.21233884053,88.0,44.0,44.0,0.5,133.5447435366656,9637.041885109442,0.0,0.0,0.0,0.0,94602.0,94622.0,94718.0,94732.0,94745.0,94768.0,94775.0,94794.0,94933.0,95019.0,0.06092893837500934,-0.10154438297817771,0.0510099232643862,-0.14514769529287563,0.01414996954550015
122,122,95375.22736506208,4901.116826402781,31.329874901532676,95491.12330450072,-3036.665654398893,5.755393380534544,95520.48200508782,41150.41121349797,9.50179688946485,95544.027373699,-7142.681309435796,7.092280986174606,95740.4238676373,10116.967400974365,37.860066553995594,0.9888089138727184,135.0,85.0,70.0,231.0,301.0,50.0,760.0,763.0,59.0,27.0,32.0,0.4576271186440678,159.4567733909389,6048.513051898026,11.0,7.0,4.0,0.6363636363636364,672.3522680393593,4116.78646496718,24.0,12.0,12.0,0.5,2036.1765397095244,37204.08780691673,18.0,6.0,12.0,0.3333333333333333,1315.5837304180025,18756.94736111048,90.0,45.0,45.0,0.5,142.07663131059405,10479.804017372451,0.0,0.0,0.0,0.0,95349.0,95399.0,95484.0,95494.0,95508.0,95532.0,95539.0,95554.0,95699.0,95785.0,0.0325347832012349,-0.22141135856211053,0.04948131694590763,-0.1841862563124661,0.014043401118096975
123,123,96159.74500865945,4135.732685162673,19.25941406324246,96274.69864360055,-3306.8496156140827,8.159043974883948,96305.5196095096,40666.49315173556,9.427380527850463,96328.60271279886,-7495.72384205115,7.300289554803197,96527.2601729957,9943.54277567784,36.72568716906395,0.9858829175437434,131.0,92.0,71.0,230.0,301.0,39.0,785.0,785.0,42.0,25.0,17.0,0.5952380952380952,195.9818248099781,4280.539621501344,12.0,7.0,5.0,0.5833333333333334,573.6549374142443,2159.870626992468,24.0,13.0,11.0,0.5416666666666666,2074.7979491402816,34395.4962930007,18.0,6.0,12.0,0.3333333333333333,1277.0734606252067,18808.26794206192,92.0,48.0,44.0,0.5217391304347826,148.79886027354945,10462.771758430754,0.0,0.0,0.0,0.0,96138.0,96177.0,96269.0,96280.0,96293.0,96317.0,96323.0,96340.0,96486.0,96570.0,0.0473874497529981,-0.17347475818240873,0.05101983938961144,-0.17037360067360016,0.014964370710760682
124,124,96953.83265919678,3955.4673431513665,18.37127617663445,97067.69864360055,-3287.752999977811,7.769306003621483,97098.06480491336,40024.37509506704,9.41883910225784,97122.45203459916,-6735.629451345753,7.033088021669759,97318.92299852794,9729.27113795971,38.66692584268099,0.9826045932173648,130.0,91.0,69.0,232.0,301.0,39.0,793.0,793.0,39.0,22.0,17.0,0.5641025641025641,190.82573221045593,4439.663839310075,10.0,6.0,4.0,0.6,602.1919631223665,2597.6496398729178,24.0,12.0,12.0,0.5,1986.780524763906,35636.93321894735,17.0,6.0,11.0,0.3529411764705882,1253.433075118185,18038.95771895507,92.0,47.0,45.0,0.5108695652173914,143.1962004914433,10216.781631293234,0.0,0.0,0.0,0.0,96932.0,96971.0,97062.0,97072.0,97086.0,97110.0,97116.0,97131.0,97272.0,97363.0,0.04824353626401649,-0.18316216672190114,0.049639264074575765,-0.18608996889930662,0.014718080980675853
125,125,97717.41836556504,4033.326839642352,18.89955687536465,97830.38056286608,-3031.72658738323,6.209844206319799,97860.18639671236,41082.59495405738,9.502554609086944,97885.027373699,-5694.560895647526,7.875540048927842,98078.46285787408,9377.883675403466,37.59204981548676,0.9819006133901904,119.0,94.0,73.0,226.0,299.0,25.0,764.0,762.0,26.0,13.0,13.0,0.5,208.15729094943865,4684.0434134855,10.0,7.0,3.0,0.7,624.5944053853901,3180.1561075633717,24.0,12.0,12.0,0.5,2008.9547237152549,36173.46906541048,18.0,6.0,12.0,0.3333333333333333,1106.6947552283732,15637.834600464475,87.0,42.0,45.0,0.4827586206896552,134.1659810028263,10288.973631446775,0.0,0.0,0.0,0.0,97704.0,97729.0,97823.0,97833.0,97848.0,97872.0,97881.0,97896.0,98037.0,98122.0,0.05160932878127393,-0.2060193712667525,0.04890038533256886,-0.1943424217439212,0.014306637365818473
126,126,98495.45203459916,3400.092122227925,13.699168931796503,98605.92478726456,-3864.3545381633458,12.739827004320285,98638.91210168888,40133.24309248282,9.686576510596046,98660.60271279886,-9882.93915603321,8.487494818263778,98862.79799513095,8939.356885345496,32.52553818801817,0.9792966445531264,116.0,96.0,74.0,227.0,301.0,20.0,779.0,778.0,25.0,12.0,13.0,0.48,210.30514861818853,3335.14968536019,14.0,6.0,8.0,0.4285714285714285,442.7867753182784,1107.0601204518157,23.0,12.0,11.0,0.5217391304347826,2125.1929299644707,33675.28595341976,21.0,6.0,15.0,0.2857142857142857,1402.525049566638,22377.361216174308,91.0,47.0,44.0,0.5164835164835165,127.28493453246828,8911.006165308296,0.0,0.0,0.0,0.0,98484.0,98504.0,98600.0,98613.0,98627.0,98650.0,98656.0,98674.0,98823.0,98901.0,0.06185277958892042,-0.11458233734649165,0.05295343127559335,-0.14191375940126502,0.014238712713341779
127,127,99313.45203459916,3145.463841124052,13.342570120627306,99421.98602334062,-3735.2268407120314,15.28779240518434,99455.5133690843,39853.58792838983,9.74604911368944,99477.60271279886,-9297.345688056124,8.062234362191413,99678.6405851861,8890.841801322207,31.351840515118138,0.9811079179794092,116.0,95.0,73.0,228.0,301.0,21.0,818.0,817.0,25.0,12.0,13.0,0.48,195.53725394994515,3171.3781595653277,18.0,10.0,8.0,0.5555555555555556,390.1632023944345,1341.2527418625964,24.0,13.0,11.0,0.5416666666666666,2062.8381655458484,33022.02269563325,19.0,6.0,13.0,0.3157894736842105,1364.9295474760022,21431.32191812231,78.0,38.0,40.0,0.4871794871794871,145.26561502344012,8877.138228721928,0.0,0.0,0.0,0.0,99301.0,99322.0,99417.0,99430.0,99443.0,99467.0,99473.0,99490.0,99642.0,99718.0,0.062164839218138535,-0.1044550221533692,0.05176041287054055,-0.14680851861079716,0.016338792014254134
128,128,100096.36328408026,4432.0568872080985,19.00192032681884,100211.21579079182,-3680.434981006348,7.812314483690483,100240.61131228098,39945.018144778725,9.692832205202494,100263.60271279886,-7728.122613071525,8.035063297659002,100461.2601729957,9343.667650210691,36.73764889853776,0.9866992676982542,123.0,85.0,72.0,228.0,300.0,38.0,780.0,786.0,38.0,15.0,23.0,0.3947368421052631,174.45453822199386,5276.003338604094,11.0,7.0,4.0,0.6363636363636364,663.6363973901941,2908.7889305706626,24.0,13.0,11.0,0.5416666666666666,2025.597650468399,33013.47438350284,20.0,6.0,14.0,0.3,1261.1865498830125,19058.679930013874,92.0,48.0,44.0,0.5217391304347826,168.13717025766755,9808.046169122215,0.0,0.0,0.0,0.0,100081.0,100119.0,100204.0,100215.0,100228.0,100252.0,100259.0,100276.0,100419.0,100504.0,0.03936198082779768,-0.18031466411308122,0.05070964401935484,-0.16319442806844348,0.017994772133603898
129,129,100868.76000442276,3322.3809802027354,15.977637911307324,100979.08732152698,-3388.631791258871,12.739827004320285,101013.31382198456,39916.9374099626,9.686094562887776,101035.60271279886,-8364.85086805404,7.612025239890846,101235.10949479598,9629.796823331391,32.78892845029759,0.9784347443378282,123.0,98.0,71.0,228.0,299.0,25.0,773.0,772.0,25.0,16.0,9.0,0.64,175.01040924104544,3865.666886389858,13.0,4.0,9.0,0.3076923076923077,382.2895529909486,1001.3472854729608,24.0,12.0,12.0,0.5,2057.5371329237487,35650.24800798937,18.0,6.0,12.0,0.3333333333333333,1339.360553487206,20363.225949934094,83.0,43.0,40.0,0.5180722891566265,182.1694151753648,10107.366365799877,0.0,0.0,0.0,0.0,100853.0,100878.0,100976.0,100987.0,101001.0,101025.0,101031.0,101047.0,101199.0,101275.0,0.05267620127971179,-0.11281531206107485,0.051545465820487066,-0.16011768465619863,0.018917264664816053
130,130,101692.00466463593,4056.860091139508,20.44704234047905,101806.69864360055,-3491.9316786311415,8.255063946902945,101837.7664080181,40540.25715637979,9.588939393675924,101859.60271279886,-8454.441714433628,6.674819953656799,102058.2082227146,9884.765417057606,35.49863631071966,0.9870612708570776,132.0,92.0,70.0,231.0,301.0,40.0,826.0,824.0,52.0,28.0,24.0,0.5384615384615384,179.68337774771953,4542.758205785965,11.0,7.0,4.0,0.6363636363636364,572.2651002941377,1636.9802677216926,24.0,13.0,11.0,0.5416666666666666,2077.289758506468,34975.41292804704,17.0,5.0,12.0,0.2941176470588235,1384.091008623006,20421.33397663606,90.0,46.0,44.0,0.5111111111111111,140.27874185785944,10390.748531413676,0.0,0.0,0.0,0.0,101669.0,101709.0,101801.0,101811.0,101825.0,101849.0,101855.0,101871.0,102013.0,102102.0,0.04429124340278871,-0.1638821010720545,0.05124017221927184,-0.1637116979894784,0.014191408287321416
131,131,102520.32873009844,3862.3675700147633,18.099253015781148,102634.46171898131,-3290.8219867715297,7.747161744253726,102665.06245697844,40375.76311944823,9.43192211609973,102689.027373699,-6690.240218755417,7.870055846708347,102886.50758984697,8961.885524120971,36.972154132135614,0.9829045468659704,129.0,91.0,72.0,233.0,305.0,38.0,830.0,827.0,38.0,22.0,16.0,0.5789473684210527,194.40829573199036,3926.652152484182,12.0,7.0,5.0,0.5833333333333334,519.9946981907792,1008.1878553826992,24.0,12.0,12.0,0.5,2023.1306600872667,35553.57430578025,19.0,6.0,13.0,0.3157894736842105,1189.8054899181418,17732.94368468445,91.0,45.0,46.0,0.4945054945054945,130.9329179936992,9061.496453560443,0.0,0.0,0.0,0.0,102498.0,102536.0,102627.0,102639.0,102653.0,102677.0,102683.0,102699.0,102844.0,102932.0,0.05033397060426521,-0.15801362099835778,0.05010755224865988,-0.17784196845169198,0.014609974390020094
132,132,103284.7437885157,4070.065086461509,19.936453081282316,103401.49933623386,-3142.917856533798,5.155466390918371,103430.73818188957,41181.04002141783,9.437507863329062,103455.45203459916,-5865.170707243347,7.0578216907836335,103650.41367657889,10154.493757837416,37.20413641148047,0.9829984946674906,132.0,89.0,69.0,229.0,298.0,43.0,760.0,766.0,43.0,22.0,21.0,0.5116279069767442,196.50429771751848,4812.1619434672575,9.0,6.0,3.0,0.6666666666666666,664.2252540349788,3436.464419426292,25.0,13.0,12.0,0.52,2033.3856137752507,35458.36536146605,16.0,6.0,10.0,0.375,1209.6952969625877,16920.59127573578,86.0,42.0,44.0,0.4883720930232558,143.59854482464823,10874.320932425717,0.0,0.0,0.0,0.0,103263.0,103306.0,103395.0,103404.0,103418.0,103443.0,103450.0,103464.0,103608.0,103693.0,0.04828038214208465,-0.211340316341429,0.04937674261547809,-0.20625065447262134,0.01414137900412971
133,133,104071.546295014,4107.760350876334,22.12288580819416,104184.4977788646,-2982.850099532689,6.288134691037006,104214.67704084842,40517.26421605947,9.556226838175094,104238.027373699,-7859.421861728437,6.9738453771169615,104435.68483389584,9976.414277052689,34.99498456740555,0.986655989556854,131.0,85.0,70.0,229.0,299.0,46.0,791.0,785.0,47.0,26.0,21.0,0.5531914893617021,175.69435887629606,4663.181670613135,10.0,6.0,4.0,0.6,569.8687012393275,2079.5463069571306,24.0,13.0,11.0,0.5416666666666666,2028.949127102343,34848.41680702154,16.0,6.0,10.0,0.375,1326.4702974367513,19856.68201729524,84.0,43.0,41.0,0.5119047619047619,139.55055049322246,10654.123696801951,0.0,0.0,0.0,0.0,104047.0,104093.0,104178.0,104188.0,104202.0,104226.0,104232.0,104248.0,104394.0,104477.0,0.04277132643310462,-0.191048387355639,0.050076162997652406,-0.16877453848049773,0.013988046869125165
134,134,104871.60271279886,3700.7567279218274,13.987075466513105,104981.99302475982,-4068.913383072029,12.739827004320285,105014.59550273226,39977.01891017554,9.688787117932604,105036.60271279886,-8642.26659536472,7.269726850025648,105237.66892047584,9429.096712039804,33.06362158644464,0.9814855304988396,117.0,93.0,72.0,230.0,302.0,24.0,799.0,799.0,26.0,14.0,12.0,0.5384615384615384,224.8005856988798,3575.135820326521,14.0,6.0,8.0,0.4285714285714285,464.5463104547028,928.1721342474688,23.0,12.0,11.0,0.5217391304347826,2088.7653133087856,34009.22472086003,18.0,5.0,13.0,0.2777777777777778,1356.9962031183677,20727.636595614964,79.0,39.0,40.0,0.4936708860759494,136.47148274141867,9910.034460408417,0.0,0.0,0.0,0.0,104859.0,104883.0,104976.0,104989.0,105003.0,105026.0,105032.0,105048.0,105200.0,105278.0,0.06074449152595808,-0.11416962385765272,0.05224915139375543,-0.1570185538879572,0.014473441826846602
135,135,105638.78892836269,4002.619109652152,17.182219940096537,105752.69864360055,-3202.0130588785673,6.123721120562216,105783.53061536388,41064.21604931406,9.48730308729144,105808.45203459916,-6212.259981619613,7.824500951937055,106000.9462527548,9980.706296975888,41.14418109634765,0.9798103289549516,122.0,97.0,71.0,232.0,303.0,25.0,766.0,770.0,32.0,20.0,12.0,0.625,194.3615544046106,4659.287003778612,11.0,7.0,4.0,0.6363636363636364,592.625170216072,2582.3001930065875,24.0,13.0,11.0,0.5416666666666666,2059.00719690767,34170.370441796156,18.0,6.0,12.0,0.3333333333333333,1189.8607054268768,16982.181331652035,100.0,50.0,50.0,0.5,123.26199211698736,10219.327954413326,0.0,0.0,0.0,0.0,105625.0,105650.0,105747.0,105757.0,105771.0,105795.0,105805.0,105818.0,105952.0,106050.0,0.04855859353089972,-0.18507893606893208,0.05014115439181904,-0.1915342739916473,0.012350026987001434
