Unnamed: 0,cycle,p_center,p_height,p_width,q_center,q_height,q_width,r_center,r_height,r_width,s_center,s_height,s_width,t_center,t_height,t_width,r_squared,pr_interval,pr_segment,qrs_duration,st_segment,qt_interval,p_duration,pp_interval,rr_interval,fwhm_p,rise_time_p,decay_time_p,rise_decay_symmetry_p,sharpness_deriv_p,sharpness_diff_p,fwhm_q,rise_time_q,decay_time_q,rise_decay_symmetry_q,sharpness_deriv_q,sharpness_diff_q,fwhm_r,rise_time_r,decay_time_r,rise_decay_symmetry_r,sharpness_deriv_r,sharpness_diff_r,fwhm_s,rise_time_s,decay_time_s,rise_decay_symmetry_s,sharpness_deriv_s,sharpness_diff_s,fwhm_t,rise_time_t,decay_time_t,rise_decay_symmetry_t,sharpness_deriv_t,sharpness_diff_t,Average_Heart_Rate,SDNN,RMSSD,NN50,p_on,p_off,q_on,q_off,r_on,r_off,s_on,s_off,t_on,t_off,sharpness_deriv_p_norm,sharpness_deriv_q_norm,sharpness_deriv_r_norm,sharpness_deriv_s_norm,sharpness_deriv_t_norm
0,0,0.0,0.0,0.0,0.0,0.0,0.0,0.0,0.0,0.0,0.0,0.0,0.0,0.0,0.0,0.0,0.0,0.0,0.0,0.0,0.0,0.0,0.0,0.0,0.0,0.0,0.0,0.0,0.0,0.0,0.0,0.0,0.0,0.0,0.0,0.0,0.0,0.0,0.0,0.0,0.0,0.0,0.0,0.0,0.0,0.0,0.0,0.0,0.0,0.0,0.0,0.0,0.0,0.0,0.0,78.55492163617197,314.37453561449996,452.5585060797975,739.0,,,,,,,,,,,,,,,
1,1,1231.2992087573182,1647.699958573353,18.127291869004537,1329.400099830592,-3393.9913194382084,5.088927774782072,1358.4535621504458,28772.212365430903,8.410308895051067,1382.7260172995682,-1555.5166922128817,7.643896202590706,1593.562637226117,5282.961523451391,31.42860303712557,0.988710048851121,98.0,73.0,64.0,244.0,308.0,25.0,,,38.0,14.0,24.0,0.3684210526315789,136.51770930671154,1958.7550775964144,14.0,7.0,7.0,0.5,469.49935581363087,509.3137326878284,22.0,11.0,11.0,0.5,1601.2078111706046,26637.24283736283,8.0,4.0,4.0,0.5,627.3754838450003,8873.94759328889,73.0,36.0,37.0,0.4931506849315068,139.83211379834495,5787.255785542845,0.0,0.0,0.0,0.0,1225.0,1250.0,1323.0,1336.0,1348.0,1369.0,1379.0,1387.0,1558.0,1631.0,0.08285350047888224,-0.13833251520847875,0.05565118840476848,-0.4033228874918047,0.026468508842553858
2,2,1983.12330450072,1143.0307390586222,10.194095230645567,2081.032941247307,-3708.4346578077175,5.378727003208602,2110.127809425232,28575.165013562622,8.48439751040649,2132.3013563994245,-2102.5524306102557,10.191861603446972,2346.3977921961023,4816.70066948524,27.93656975699189,0.9853671490221384,98.0,80.0,64.0,243.0,307.0,18.0,747.0,751.0,20.0,8.0,12.0,0.4,143.09494206070272,1109.5783012695033,14.0,8.0,6.0,0.5714285714285714,489.8730797898358,610.806961528732,21.0,11.0,10.0,0.5238095238095238,1604.3571817329455,26133.380274161416,10.0,2.0,8.0,0.2,804.6063805424039,11648.954323295187,65.0,30.0,35.0,0.4615384615384615,152.15581445155323,5551.149216394484,0.0,0.0,0.0,0.0,1976.0,1994.0,2074.0,2087.0,2100.0,2120.0,2130.0,2138.0,2316.0,2381.0,0.1251890585012201,-0.1320969964398482,0.05614515895083965,-0.3826807687781992,0.03158921944547866
3,3,2758.876009841449,1178.1500085587152,12.998725132784774,2857.3506864114875,-3838.165797352153,5.315100767147335,2886.871960819763,28904.445480776903,8.238684789499215,2949.270779438714,-1286.9887766811237,20.383723206912453,3123.1053963070344,4885.798264932967,29.68657083361518,0.9872834995887254,102.0,82.0,106.0,203.0,309.0,20.0,778.0,777.0,20.0,10.0,10.0,0.5,139.47121799766094,1384.6926499379983,13.0,6.0,7.0,0.4615384615384615,466.99747181249705,442.1648560253732,21.0,11.0,10.0,0.5238095238095238,1579.5337167930322,26413.718239438887,18.0,10.0,8.0,0.5555555555555556,145.47228903914146,1399.5892722935127,76.0,39.0,37.0,0.5131578947368421,133.802474299954,5126.27643281306,0.0,0.0,0.0,0.0,2749.0,2769.0,2851.0,2864.0,2876.0,2897.0,2939.0,2957.0,3089.0,3160.0,0.1183815447816212,-0.12167204244659416,0.0546467399917259,-0.11303306732346512,0.027386000617401624
4,4,3540.12330450072,918.4866926524396,9.461272185865166,3635.595092931476,-3361.985937489507,5.861296216643598,3665.315163356625,27596.79123312125,8.644220557856475,3686.726017299568,-2734.7595482266165,7.64389620259217,3900.753084009659,4775.55769398042,30.28840912539121,0.988002657504908,94.0,81.0,70.0,241.0,311.0,13.0,779.0,778.0,24.0,12.0,12.0,0.5,153.3181230878407,900.5178524619232,16.0,9.0,7.0,0.5625,454.3523665362034,1149.8386658256177,21.0,11.0,10.0,0.5238095238095238,1521.8294912980084,25453.23786503957,13.0,2.0,11.0,0.1538461538461538,797.8882726546656,11889.405699676425,79.0,41.0,38.0,0.5189873417721519,151.3678333667058,4836.909151970123,0.0,0.0,0.0,0.0,3533.0,3546.0,3627.0,3643.0,3655.0,3675.0,3685.0,3697.0,3862.0,3938.0,0.16692470812514765,-0.13514404134464691,0.05514516084288567,-0.2917581083763158,0.03169636785196934
5,5,4270.110795523559,1141.52320700854,9.822720882096062,4363.405268723127,-3643.6462252833585,6.276990151385435,4393.379121734484,27353.342522817915,8.59116503653121,4416.301356399425,-2791.6906303064807,10.191861603456228,4628.606149671669,4560.09646288889,26.966386056527945,0.982050521474668,96.0,78.0,66.0,240.0,306.0,18.0,731.0,728.0,24.0,10.0,14.0,0.4166666666666667,135.3231555158429,961.645075765712,15.0,7.0,8.0,0.4666666666666667,438.62790859933943,132.0148645044285,21.0,11.0,10.0,0.5238095238095238,1526.2858193689854,25491.302234226932,16.0,3.0,13.0,0.1875,741.6351730253197,11316.998063182538,66.0,31.0,35.0,0.4696969696969697,140.0052371005023,4558.95242140377,0.0,0.0,0.0,0.0,4261.0,4279.0,4357.0,4371.0,4383.0,4403.0,4414.0,4423.0,4598.0,4663.0,0.11854612738927041,-0.120381585225176,0.05579887789200794,-0.2656580800802776,0.030702253393079956
6,6,4976.497212345184,1672.3571627766762,15.413158228238,5069.171444859393,-3216.968649106408,4.6652766982279825,5098.633406960273,29180.710772381775,8.625760274212327,5121.301356399425,-2040.649696315029,7.48587510133311,5333.262784961947,5051.402912031088,32.199507318415534,0.9899790469180494,99.0,66.0,64.0,242.0,306.0,33.0,704.0,706.0,37.0,16.0,21.0,0.4324324324324324,148.1529464330916,1668.5524823195988,12.0,6.0,6.0,0.5,484.9812129749809,929.63044977023,21.0,11.0,10.0,0.5238095238095238,1625.858342565076,26939.378318131392,10.0,3.0,7.0,0.3,791.198761785395,10869.376280492044,72.0,36.0,36.0,0.5,159.47367366551086,5666.148736197423,0.0,0.0,0.0,0.0,4964.0,4997.0,5063.0,5075.0,5088.0,5109.0,5119.0,5127.0,5298.0,5369.0,0.08858929762773152,-0.15075720837680415,0.055716886241985494,-0.38771905007220425,0.031570174947970854
7,7,5703.821948101295,1388.7619514678156,11.622264750439667,5796.8296265612635,-3678.773169462584,5.146707311189792,5826.5513071071555,29111.692645640695,8.741557032995402,5848.726017299569,-1929.90702000667,7.522907743582699,6062.708790940326,5237.757151727889,31.692904250158236,0.9894520892059506,100.0,75.0,63.0,247.0,310.0,25.0,727.0,728.0,27.0,14.0,13.0,0.5185185185185185,161.8996494489816,1141.5484255593176,12.0,6.0,6.0,0.5,524.5996705592316,777.5653604304737,21.0,11.0,10.0,0.5238095238095238,1571.2720514979676,26703.054418502674,7.0,2.0,5.0,0.2857142857142857,792.0108114250415,11385.398052992654,78.0,39.0,39.0,0.5,127.4064660164732,5614.276469210343,0.0,0.0,0.0,0.0,5691.0,5716.0,5791.0,5803.0,5816.0,5837.0,5847.0,5854.0,6029.0,6101.0,0.11657840227971827,-0.142601798587073,0.05397391593213514,-0.410388066997292,0.024324622605773723
8,8,6497.726017299569,990.6201068609917,7.64389620259217,6586.267919580328,-4001.354994188047,6.098828290953388,6616.483671251764,28727.00175053992,8.6159319781605,6638.301356399425,-2806.081324774405,10.19186160345599,6856.049395110353,4712.389762072503,26.99206149762859,0.9807830934082128,83.0,72.0,70.0,242.0,312.0,11.0,799.0,790.0,26.0,17.0,9.0,0.6538461538461539,140.52495094268247,647.575245309713,14.0,7.0,7.0,0.5,472.96213579454235,301.9924667923292,22.0,11.0,11.0,0.5,1617.3055395764618,25871.20989076417,15.0,3.0,12.0,0.2,834.5681986914773,12434.11233202131,69.0,33.0,36.0,0.4782608695652174,139.78734647144952,4789.144674134298,0.0,0.0,0.0,0.0,6496.0,6507.0,6579.0,6593.0,6606.0,6626.0,6636.0,6649.0,6823.0,6891.0,0.14185554075615142,-0.11820049370313758,0.05629914160972489,-0.2974141167339733,0.029663791309565028
9,9,7264.109228165076,1370.1467777874814,12.429006641551428,7359.847017022212,-3562.876221078385,5.259916499551478,7389.215346087838,28319.00565124788,8.478869701163024,7412.726017299569,-2219.411970886613,7.64389620259217,7624.972827620972,5016.598436332834,29.18656927609437,0.986164060235568,97.0,79.0,64.0,243.0,307.0,18.0,765.0,773.0,18.0,8.0,10.0,0.4444444444444444,153.37424949037262,1740.982737530246,14.0,7.0,7.0,0.5,478.18606457300183,829.5243822961643,21.0,11.0,10.0,0.5238095238095238,1588.5367922397463,26426.702240202976,7.0,3.0,4.0,0.4285714285714285,682.5293328438146,10209.097946224658,67.0,31.0,36.0,0.4626865671641791,154.98229238040915,4929.025675465956,0.0,0.0,0.0,0.0,7256.0,7274.0,7353.0,7367.0,7379.0,7399.0,7410.0,7417.0,7594.0,7660.0,0.11194001400203414,-0.134213493509541,0.056094370395725644,-0.3075271025825625,0.030893900388348047
10,10,8629.265815769277,1775.4959153474906,14.974453244626703,8721.763645190405,-3223.233211984379,4.566168066903624,8750.656646708294,29868.947040688756,8.703577609011292,8772.150678199714,-1888.0802668946917,5.095930801726885,8984.1876170928,5194.37033060687,33.20391979143477,0.991015038901874,97.0,73.0,62.0,245.0,307.0,24.0,1366.0,1361.0,24.0,10.0,14.0,0.4166666666666667,157.809628685311,1991.7566728355996,11.0,6.0,5.0,0.5454545454545454,543.3344805078689,2072.786766356957,21.0,11.0,10.0,0.5238095238095238,1604.9817753939033,27293.851068680746,7.0,1.0,6.0,0.1428571428571428,882.5018664752316,11865.38192262823,79.0,40.0,39.0,0.5063291139240507,141.4745833535279,5070.018901865773,0.0,0.0,0.0,0.0,8619.0,8643.0,8716.0,8727.0,8740.0,8761.0,8771.0,8778.0,8945.0,9023.0,0.08888200041531796,-0.16856815649816595,0.05373412638910667,-0.467406964602556,0.027236137269596467
11,11,9310.60271279885,1689.4046138133208,12.7623928312223,9404.356488794589,-3220.2362421546504,4.881782163120881,9433.406661958135,29096.10534162718,8.584171415152355,9456.72601729957,-1948.37571847881,7.64389620259217,9668.191885154123,4969.438055544786,31.533992583763062,0.9897871149852914,99.0,76.0,63.0,241.0,304.0,23.0,684.0,683.0,31.0,18.0,13.0,0.5806451612903226,139.37231324153578,1560.657055858726,12.0,6.0,6.0,0.5,496.57444434394966,941.5623895326682,22.0,11.0,11.0,0.5,1597.3849021477524,26970.82742826231,7.0,3.0,4.0,0.4285714285714285,698.9261078285915,10049.546082001989,71.0,36.0,35.0,0.5070422535211268,161.60945434588157,5410.191388902993,0.0,0.0,0.0,0.0,9299.0,9322.0,9398.0,9410.0,9423.0,9443.0,9454.0,9461.0,9636.0,9702.0,0.08249788836964572,-0.15420435241474495,0.05490029965840163,-0.35872244824231153,0.03252066985029855
12,12,10062.716389738438,1744.8068515871416,16.32633403943343,10158.12820829215,-3353.145155530765,4.6954845062661485,10187.027373698991,28619.174939540568,8.630767783706563,10209.150678199714,-2097.292346399777,5.095930801728113,10423.627048506174,5164.053906917848,29.547056641095025,0.9909400434035026,103.0,76.0,60.0,244.0,304.0,27.0,745.0,754.0,34.0,14.0,20.0,0.4117647058823529,137.75551182747907,1704.8765655191378,11.0,5.0,6.0,0.4545454545454545,525.7175626861069,1518.7654431240423,21.0,11.0,10.0,0.5238095238095238,1550.0214030749682,26257.93626841912,5.0,1.0,4.0,0.2,834.3994291884194,11658.396172981576,70.0,34.0,36.0,0.4857142857142857,142.51840929447297,5775.9611999179715,0.0,0.0,0.0,0.0,10050.0,10077.0,10153.0,10164.0,10176.0,10197.0,10208.0,10213.0,10390.0,10457.0,0.0789517256320787,-0.15678341923819633,0.05416024069000821,-0.3978460278180835,0.027598164516360504
13,13,10778.849321800286,1080.07655985341,5.095930801706315,10879.108794017113,-3947.894643820559,5.879329479317949,10909.052387783657,27384.022818129557,8.562852079440555,10931.876695499284,-2574.2462023192247,12.739827004066075,11147.258087917866,4214.728197097446,29.111463041379263,0.9813769759535133,97.0,85.0,70.0,237.0,307.0,12.0,719.0,721.0,12.0,3.0,9.0,0.25,134.97960525638143,1308.1050083283317,14.0,7.0,7.0,0.5,480.0843319556188,104.93158533533187,21.0,11.0,10.0,0.5238095238095238,1516.3949442968844,24683.091981987945,15.0,4.0,11.0,0.2666666666666666,706.0537715393416,10393.780222195564,70.0,31.0,39.0,0.4428571428571428,159.9121012861887,4482.545932268138,0.0,0.0,0.0,0.0,10776.0,10788.0,10873.0,10886.0,10898.0,10919.0,10929.0,10943.0,11116.0,11180.0,0.12497225685066356,-0.1216051529407125,0.05537517092970567,-0.2742759301356778,0.03794126069536708
14,14,11509.975864364327,1471.4725272688506,16.745973573429875,11608.736760779311,-3383.4721003812574,4.453880974901183,11637.525402028374,29885.108968328263,8.29856729536546,11719.849321800286,-1247.3557932832937,5.095930801728113,11874.828255205131,4984.786480146897,29.373138740712875,0.98824699616726,103.0,77.0,126.0,178.0,304.0,26.0,733.0,729.0,27.0,10.0,17.0,0.3703703703703703,152.98061654428207,2055.837512283926,12.0,6.0,6.0,0.5,538.5928666893134,1668.8432428029778,21.0,11.0,10.0,0.5238095238095238,1606.6822496258349,27228.471261121616,12.0,3.0,9.0,0.25,146.68998076893791,1387.5506841016593,77.0,40.0,37.0,0.5194805194805194,150.46166285140637,5468.451151434641,0.0,0.0,0.0,0.0,11500.0,11526.0,11603.0,11615.0,11627.0,11648.0,11717.0,11729.0,11840.0,11907.0,0.10396430358657399,-0.15918348096578763,0.053761967250264,-0.11760075317630113,0.03018417407659403
15,15,12271.698643600574,1583.695915352761,10.191861603456228,12369.175243337935,-3300.055481294072,4.37606222192053,12398.027373698991,28853.350240645203,8.29247054766486,12467.698643600574,-1082.792123872243,10.191861603456228,12635.119793965012,5120.615266660213,30.46996448845877,0.9869671986138536,97.0,77.0,107.0,202.0,309.0,20.0,759.0,761.0,32.0,12.0,20.0,0.375,157.13827184533966,1433.401816396593,12.0,6.0,6.0,0.5,515.2367560225904,1292.7418276590452,21.0,11.0,10.0,0.5238095238095238,1565.4930693961912,25825.997751110644,33.0,12.0,21.0,0.3636363636363636,135.94237316133388,1105.4825820839903,73.0,36.0,37.0,0.4931506849315068,118.33781598670907,5453.421253995997,0.0,0.0,0.0,0.0,12266.0,12286.0,12363.0,12375.0,12387.0,12408.0,12456.0,12470.0,12599.0,12672.0,0.09922250245264909,-0.15612972537678285,0.054256890667445226,-0.12554798854204954,0.023110077563763508
16,16,13042.972626301009,1595.696113681988,9.342187786486855,13137.911283999769,-3274.0643135623177,5.067827145481651,13167.122865857284,27155.179787684316,8.563180068198715,13190.301356399426,-2361.800746175509,10.191861603456228,13401.716633125166,4565.31804749522,28.61299249843363,0.9871217592621994,98.0,75.0,68.0,237.0,305.0,23.0,770.0,768.0,23.0,10.0,13.0,0.4347826086956521,157.46314763289507,1423.441375806517,13.0,7.0,6.0,0.5384615384615384,484.60556513458505,749.8351406809479,21.0,11.0,10.0,0.5238095238095238,1515.292628910112,24991.310756101902,11.0,2.0,9.0,0.1818181818181818,727.7600889942416,10970.160087376902,70.0,36.0,34.0,0.5142857142857142,147.68583023130017,4702.519309566784,0.0,0.0,0.0,0.0,13033.0,13056.0,13131.0,13144.0,13157.0,13177.0,13188.0,13199.0,13367.0,13436.0,0.09867990921501765,-0.1480134532260651,0.05580123721358466,-0.30813780128264917,0.03234951622096266
17,17,13756.794029370109,1314.0900784511914,10.874696103568215,13853.072604636183,-3274.110292201491,5.301079584367533,13882.437404655288,27843.78464665798,8.704055587360363,13903.72601729957,-2587.5221614767397,7.168446041393638,14115.082492322288,4474.562012870229,31.06960418195616,0.9900145394544758,100.0,84.0,66.0,238.0,304.0,16.0,714.0,716.0,24.0,11.0,13.0,0.4583333333333333,164.8829242314874,1093.2245715674007,12.0,6.0,6.0,0.5,485.6283031104782,1443.395813639857,22.0,11.0,11.0,0.5,1533.5607039969238,25945.458440354032,11.0,2.0,9.0,0.1818181818181818,837.6083653456188,11797.151964969373,79.0,39.0,40.0,0.4936708860759494,146.48734702963003,4179.876468340146,0.0,0.0,0.0,0.0,13747.0,13763.0,13847.0,13859.0,13872.0,13892.0,13902.0,13913.0,14077.0,14151.0,0.12547307595977072,-0.1483237459248646,0.05507730804048556,-0.3237106053876588,0.03273780687546333
18,18,14457.738866574598,1800.5678782735097,16.194102670922256,14554.346398997552,-3371.0318967581634,4.465556281715553,14583.190647536614,28642.60760234731,8.660280734820585,14606.301356399426,-2127.506398362237,8.136965575227126,14818.312573024035,4786.58359054629,30.74576684039788,0.9887965296021703,98.0,74.0,64.0,242.0,306.0,24.0,704.0,701.0,24.0,8.0,16.0,0.3333333333333333,162.72637666165562,2846.8234501508264,11.0,6.0,5.0,0.5454545454545454,516.5868071913043,1017.3300770290932,22.0,11.0,11.0,0.5,1582.665256436832,26251.144396779717,10.0,3.0,7.0,0.3,751.4920838746987,10517.3707852297,70.0,34.0,36.0,0.4857142857142857,152.47563995767828,5110.768854436636,0.0,0.0,0.0,0.0,14450.0,14474.0,14548.0,14559.0,14572.0,14593.0,14604.0,14612.0,14784.0,14854.0,0.09037503035858178,-0.15324293065517797,0.05525562750463857,-0.3532267091902521,0.03185479519438964
19,19,15205.908726909563,1429.753994541292,13.53952586876346,15299.301356399426,-3538.4010507386056,5.043976625631921,15328.840063630309,29474.586639293942,8.511500664539746,15352.150678199714,-2060.7107512996768,5.095930801728113,15564.624649550718,4568.165815271494,31.06312935610761,0.9870962109635604,97.0,71.0,65.0,244.0,309.0,26.0,747.0,745.0,26.0,11.0,15.0,0.4230769230769231,139.8515100446493,1472.2097598670975,13.0,7.0,6.0,0.5384615384615384,482.229027796162,903.5564761897404,21.0,11.0,10.0,0.5238095238095238,1634.9774551197625,26965.878351094656,10.0,3.0,7.0,0.3,749.0122084715265,10601.809201759304,68.0,32.0,36.0,0.4705882352941176,152.32414993901403,5081.272802170549,0.0,0.0,0.0,0.0,15195.0,15221.0,15292.0,15305.0,15318.0,15339.0,15351.0,15357.0,15533.0,15601.0,0.09781508607676095,-0.1362844462459962,0.05547075096008634,-0.36347275230118026,0.033344706847065524
20,20,15972.363256087334,1891.639125655058,21.450012759005393,16069.12751509215,-2841.3846648938543,4.266053525170473,16098.027373698991,29384.72744283573,8.521381848418471,16119.575339099858,-1963.294850958433,2.5479654008640567,16334.462607920656,5430.004307974459,35.69349167937328,0.989894437043708,107.0,78.0,59.0,250.0,309.0,29.0,765.0,770.0,46.0,18.0,28.0,0.391304347826087,141.63237032571743,1835.449551336749,11.0,5.0,6.0,0.4545454545454545,506.99443323576634,2185.8294246670625,21.0,11.0,10.0,0.5238095238095238,1580.511832937199,27017.984187185342,4.0,1.0,3.0,0.25,827.4746016072916,11060.746783846726,85.0,41.0,44.0,0.4823529411764706,137.3163498502768,6149.660267656904,0.0,0.0,0.0,0.0,15957.0,15986.0,16064.0,16075.0,16087.0,16108.0,16119.0,16123.0,16293.0,16373.0,0.07487282769998288,-0.17843217058916103,0.0537868467901186,-0.4214724045159791,0.025288442156227234
21,21,16754.82684136679,1506.4591167700091,17.638477235499565,16853.488925711787,-3150.946400394418,4.582241152309367,16882.581286253877,29251.584482489015,8.61123585463152,16904.72601729957,-1886.8174060235383,6.580721743472981,17122.23672024079,5306.397442243933,30.354861810069824,0.9892276203325948,108.0,77.0,61.0,249.0,310.0,31.0,785.0,784.0,31.0,15.0,16.0,0.4838709677419355,149.07843895292365,1954.86059801021,13.0,7.0,6.0,0.5384615384615384,485.6158392012643,1275.7120327603077,21.0,11.0,10.0,0.5238095238095238,1604.992251734256,26817.99348097495,6.0,2.0,4.0,0.3333333333333333,793.6884979079459,11106.341193347162,69.0,32.0,37.0,0.463768115942029,145.20668788174177,5782.759312346139,0.0,0.0,0.0,0.0,16740.0,16771.0,16848.0,16859.0,16872.0,16893.0,16903.0,16909.0,17091.0,17158.0,0.09895949866370216,-0.15411745472423066,0.05486855772531086,-0.4206493407227157,0.027364457612194564
22,22,17529.28758344978,1187.1061383590877,11.152270883824505,17626.07706135929,-3500.4975633684817,5.162043553162863,17654.798155871405,28327.775553915453,8.50302280685537,17676.72601729957,-2292.190997130537,7.090370155340288,17893.58324293661,4894.685507560885,28.931317473802956,0.9877010229141776,101.0,84.0,61.0,247.0,308.0,17.0,773.0,772.0,24.0,10.0,14.0,0.4166666666666667,138.51164649748506,1170.5978892486826,11.0,5.0,6.0,0.4545454545454545,516.0159384791426,1195.774126954069,21.0,11.0,10.0,0.5238095238095238,1574.899297960755,26059.860131553694,7.0,2.0,5.0,0.2857142857142857,821.6036818428973,11700.71038474255,70.0,35.0,35.0,0.5,176.36580018964136,5052.382151074258,0.0,0.0,0.0,0.0,17520.0,17537.0,17621.0,17632.0,17644.0,17665.0,17675.0,17682.0,17860.0,17929.0,0.11668008615383528,-0.14741216902393367,0.055595586563558216,-0.3584359605597509,0.03603210051334387
23,23,18224.668939539304,2034.228793362417,15.548389773759435,18319.067325702163,-2930.3378622429505,4.597586015872475,18348.07020587761,27528.275401622184,8.709078702576344,18370.876695499283,-2137.258143140016,7.34963865776027,18581.119508263702,4890.080917052347,33.19442020182096,0.9904023648716148,102.0,76.0,66.0,238.0,304.0,26.0,698.0,694.0,27.0,14.0,13.0,0.5185185185185185,148.03894232267857,2551.66238184144,12.0,6.0,6.0,0.5,493.1559964402138,1770.773172264628,21.0,11.0,10.0,0.5238095238095238,1496.3170243530965,25384.37344389563,11.0,3.0,8.0,0.2727272727272727,703.2484823762287,9968.189476529347,73.0,33.0,40.0,0.4520547945205479,152.87210862626094,4941.417670547344,0.0,0.0,0.0,0.0,18211.0,18237.0,18313.0,18325.0,18337.0,18358.0,18368.0,18379.0,18548.0,18617.0,0.07277398825821459,-0.16829322065365543,0.05435563988381639,-0.3290423689030986,0.03126167260201688
24,24,18884.740194680307,1626.9406343958042,9.240936409222462,18978.387789084343,-3791.986225345607,5.397323225406655,19007.969698343015,28607.69768755207,8.565633331697821,19031.602712798856,-2369.0068776529592,20.383723206912453,19242.309796616115,4530.8020168789335,28.309473336166462,0.9851818988630336,96.0,77.0,73.0,230.0,303.0,19.0,660.0,659.0,19.0,9.0,10.0,0.4736842105263157,144.57061062830016,1916.7043779104067,13.0,6.0,7.0,0.4615384615384615,480.5813386366528,235.80367977286596,21.0,11.0,10.0,0.5238095238095238,1535.3575378737728,24804.537552887818,18.0,5.0,13.0,0.2777777777777778,615.7339377385227,9912.912212746549,67.0,34.0,33.0,0.5074626865671642,127.7273418771736,4764.481965558472,0.0,0.0,0.0,0.0,18876.0,18895.0,18972.0,18985.0,18997.0,19018.0,19027.0,19045.0,19209.0,19275.0,0.0888604092687065,-0.12673604545935604,0.053669384885238265,-0.2599122626222797,0.028190890134095783
25,25,19537.150678199716,709.9811679197716,5.095930801728113,19622.86406368016,-4247.001868472988,7.209001927180211,19653.22840730151,27934.87511759204,8.532786229568892,19674.72601729957,-3482.9831351228445,7.64389620259217,19888.274998728844,3689.492122711906,23.97888966969623,0.9695534976233714,80.0,75.0,69.0,230.0,299.0,5.0,652.0,646.0,14.0,10.0,4.0,0.7142857142857143,155.31117710035997,596.0331557627424,16.0,8.0,8.0,0.5,501.6929589487189,342.0789354979547,21.0,11.0,10.0,0.5238095238095238,1579.4155331268985,25438.76256571331,11.0,2.0,9.0,0.1818181818181818,811.7367234974573,12914.544841174724,65.0,33.0,32.0,0.5076923076923077,144.78227505901455,3973.892060212585,0.0,0.0,0.0,0.0,19535.0,19540.0,19615.0,19631.0,19643.0,19663.0,19673.0,19684.0,19856.0,19914.0,0.21875393900294304,-0.1181287351609061,0.05653920149914179,-0.23305789663802878,0.039241789992654735
26,26,0.0,0.0,0.0,0.0,0.0,0.0,0.0,0.0,0.0,0.0,0.0,0.0,0.0,0.0,0.0,0.0,0.0,0.0,0.0,0.0,0.0,0.0,0.0,0.0,0.0,0.0,0.0,0.0,0.0,0.0,0.0,0.0,0.0,0.0,0.0,0.0,0.0,0.0,0.0,0.0,0.0,0.0,0.0,0.0,0.0,0.0,0.0,0.0,0.0,0.0,0.0,0.0,0.0,0.0,0.0,0.0,0.0,0.0,,19914.0,20237.0,20256.0,20268.0,20287.0,20297.0,20417.0,20494.0,20538.0,,,,,
27,27,20801.532757401557,873.4031006636571,6.7583823171892545,20899.523734768605,-4171.376608346346,7.455900190441593,20929.762296498742,27709.93771137539,8.546269765588804,20950.72601729957,-3988.076877425481,7.64389620259217,21165.80043378831,4150.9744882080195,24.053982445428183,0.9694460561129056,98.0,81.0,70.0,235.0,305.0,17.0,1265.0,1276.0,17.0,8.0,9.0,0.4705882352941176,136.48437409005692,778.5948082805828,15.0,8.0,7.0,0.5333333333333333,496.1215839252945,278.14102534871745,20.0,11.0,9.0,0.55,1595.638227750866,25202.40033027924,93.0,2.0,91.0,0.021505376344086,883.6311792289392,13785.901812619852,65.0,33.0,32.0,0.5076923076923077,140.89591067441515,4105.939785461586,0.0,0.0,0.0,0.0,20794.0,20811.0,20892.0,20907.0,20919.0,20939.0,20949.0,20962.0,21134.0,21197.0,0.1562673340481033,-0.11893473797897414,0.057583609330735884,-0.22156824113164308,0.033942851509848736
28,28,21634.858917441197,1417.692901337061,13.425443754963982,21732.622540822533,-3289.4364670489244,4.694395368520233,21761.277499670217,28827.322048177033,8.502687643554912,21783.150678199716,-2207.9296848464337,5.095930801728113,22003.90877191933,4716.904444678956,29.741623965786232,0.9866309339255076,102.0,77.0,62.0,249.0,311.0,25.0,832.0,832.0,25.0,10.0,15.0,0.4,144.4283828189709,1762.7153273732715,11.0,6.0,5.0,0.5454545454545454,533.9670673034179,1790.736795244285,20.0,10.0,10.0,0.5,1565.676779150857,26931.616331896235,9.0,1.0,8.0,0.1111111111111111,845.2545586570701,12143.328833108666,77.0,39.0,38.0,0.5064935064935064,129.66844780628864,4343.282460615468,0.0,0.0,0.0,0.0,21625.0,21650.0,21727.0,21738.0,21751.0,21771.0,21782.0,21789.0,21971.0,22038.0,0.10187564788026868,-0.16232782504003174,0.05431225198560775,-0.382826755968843,0.027490157862444083
29,29,22440.06102307206,1694.97447186265,11.670186733918888,22535.99702065099,-3381.699120625505,4.9939581814133,22565.01601964617,28192.910684506136,8.536439280276944,22587.72601729957,-1795.9041585480472,7.643896202589875,22802.743447755693,4532.249169631426,30.975783056143776,0.9873061438117976,99.0,74.0,64.0,248.0,312.0,25.0,805.0,803.0,25.0,10.0,15.0,0.4,128.573311024638,1738.3876592086222,13.0,7.0,6.0,0.5384615384615384,486.0287375951871,1026.9010487161472,21.0,11.0,10.0,0.5238095238095238,1561.60157876256,26286.240404709584,7.0,2.0,5.0,0.2857142857142857,733.5214225320225,10519.613404296775,71.0,33.0,38.0,0.4647887323943662,129.28090873171877,4508.752096492071,0.0,0.0,0.0,0.0,22430.0,22455.0,22529.0,22542.0,22555.0,22575.0,22586.0,22593.0,22771.0,22841.0,0.07585560323120712,-0.14372323505388837,0.0553898671988048,-0.40844129629114506,0.028524669296201163
30,30,23228.734055227793,1428.207420558193,12.781080624190324,23324.866471044865,-3533.457364223743,4.897414847699908,23353.8618961823,28102.265251579345,8.48278348043508,23375.72601729957,-2041.6835475665473,7.643896202445887,23592.634297093504,4762.075112467124,31.726977620775973,0.9868875762817908,99.0,78.0,64.0,245.0,309.0,21.0,787.0,789.0,32.0,13.0,19.0,0.40625,133.21525075081098,1382.8993816815132,12.0,6.0,6.0,0.5,491.89663248065625,932.3645947193158,21.0,11.0,10.0,0.5238095238095238,1558.671528236494,25712.52236903983,9.0,2.0,7.0,0.2222222222222222,770.5838956252617,11209.503510625704,70.0,33.0,37.0,0.4714285714285714,132.31098274381395,4799.851076572928,0.0,0.0,0.0,0.0,23220.0,23241.0,23319.0,23331.0,23343.0,23364.0,23374.0,23383.0,23561.0,23628.0,0.09327444237668632,-0.13921114132042736,0.05546426646687839,-0.377425726207036,0.027784312430818966
31,31,23985.447409727814,1773.3047491379302,8.992865395915219,24080.741561872383,-3533.61920839308,5.038844044665918,24109.87380673707,26848.04279942481,8.537240746019883,24133.30135639943,-2269.7121858494897,10.191861603404904,24344.881659924136,4500.194527658876,31.517629399944457,0.9868907095204996,98.0,79.0,67.0,239.0,306.0,19.0,758.0,756.0,19.0,9.0,10.0,0.4736842105263157,168.3066537098073,1921.4123487098443,13.0,7.0,6.0,0.5384615384615384,501.70872155536273,637.002266450294,21.0,11.0,10.0,0.5238095238095238,1488.269155523422,24927.46351054076,12.0,3.0,9.0,0.25,693.0124223907349,10475.370619805031,76.0,36.0,40.0,0.4736842105263157,141.919194458765,4586.746702872596,0.0,0.0,0.0,0.0,23976.0,23995.0,24074.0,24087.0,24099.0,24119.0,24131.0,24141.0,24314.0,24380.0,0.0949112969959774,-0.14198154695438045,0.05543305955826718,-0.3053305290033325,0.03153623550860039
32,32,24699.397287201147,1600.638062316204,14.553129905334789,24793.280417120663,-3509.2176920811116,5.056589648314382,24823.034911729585,27522.7232159592,8.726885225831877,24845.30135639943,-2637.350718338014,10.191861603444908,25060.929449198768,4583.905555524888,30.57840506864577,0.986118911413216,98.0,72.0,69.0,242.0,311.0,26.0,711.0,713.0,30.0,11.0,19.0,0.3666666666666666,150.65372944888173,1615.7367968713238,14.0,7.0,7.0,0.5,468.7358386857697,495.93779819834344,21.0,11.0,10.0,0.5238095238095238,1515.3943329592744,25193.705558121223,13.0,2.0,11.0,0.1538461538461538,803.0737760439077,11906.110806793178,70.0,34.0,36.0,0.4857142857142857,137.5865563698518,5252.382503616393,0.0,0.0,0.0,0.0,24688.0,24714.0,24786.0,24800.0,24812.0,24833.0,24843.0,24855.0,25027.0,25097.0,0.09412104647247872,-0.1335727446443455,0.05505975266577418,-0.30450018287669484,0.030015137681888213
33,33,25405.123304500717,1143.5670028609393,12.590395215738898,25500.698642373784,-3432.3726512418975,4.572812195130833,25529.866471580495,30301.61609459078,8.435561177928989,25598.684833895823,-1443.8802629591503,51.811363513678806,25772.35610379741,4438.990210823917,27.083355576953963,0.9871942666342016,97.0,76.0,145.0,158.0,303.0,21.0,707.0,707.0,27.0,7.0,20.0,0.2592592592592592,145.75400402061663,1255.463299135421,13.0,7.0,6.0,0.5384615384615384,523.2838406042976,1548.9960260755624,21.0,11.0,10.0,0.5238095238095238,1625.5409792781732,26853.05375676948,93.0,30.0,63.0,0.3225806451612903,131.01012349884306,1306.6589877997944,70.0,39.0,31.0,0.5571428571428572,132.68162690633,4071.7813375435258,0.0,0.0,0.0,0.0,25398.0,25419.0,25495.0,25507.0,25519.0,25540.0,25569.0,25640.0,25738.0,25798.0,0.12745558734728613,-0.15245542770973994,0.05364535588477582,-0.09073475610113631,0.02989004719650037
34,34,26102.79918479746,1953.6163188208056,14.773390933521634,26195.550247320414,-3205.9308112154804,4.724166103486525,26225.221819039903,29055.39561707383,8.550040051237996,26248.72601729957,-1870.501604879009,7.59642533792059,26460.22728200996,4958.699488557677,34.23880142742099,0.988470893042388,98.0,73.0,64.0,247.0,311.0,25.0,697.0,696.0,30.0,17.0,13.0,0.5666666666666667,147.2117215009201,1880.3102413919553,12.0,7.0,5.0,0.5833333333333334,495.27425620378233,1030.0407162980914,22.0,11.0,11.0,0.5,1611.677198682946,26676.41338198066,8.0,4.0,4.0,0.5,703.9885310915324,10083.669093256784,76.0,36.0,40.0,0.4736842105263157,142.19127580502854,5550.838458936043,0.0,0.0,0.0,0.0,26091.0,26116.0,26189.0,26201.0,26215.0,26235.0,26246.0,26253.0,26425.0,26500.0,0.0753534458545967,-0.1544868823965688,0.05546911905532188,-0.3763635001730293,0.02867511454024154
35,35,26823.54796540086,1349.6465449922107,10.756738660116616,26918.34281164583,-3475.86606407285,5.667019801191604,26948.303532771944,28336.04144930721,8.60555620460871,26969.72601729957,-2636.357382844427,7.643896202591416,27185.407087769716,4989.488086351457,30.59436576962197,0.9870511092334228,97.0,77.0,66.0,244.0,310.0,20.0,721.0,722.0,20.0,9.0,11.0,0.45,148.14118305666136,1385.992152059386,15.0,8.0,7.0,0.5333333333333333,442.64363829530936,684.4620427008385,21.0,11.0,10.0,0.5238095238095238,1573.6902965885224,25974.691235695347,10.0,2.0,8.0,0.2,821.8653233826445,12230.738690737671,72.0,35.0,37.0,0.4861111111111111,140.97067601468513,5283.635889596497,0.0,0.0,0.0,0.0,26815.0,26835.0,26912.0,26925.0,26938.0,26958.0,26968.0,26978.0,27151.0,27222.0,0.10976294764457485,-0.12734772575691286,0.05553670223851955,-0.3117427586755765,0.028253534946862526
36,36,27576.701321276,1075.572643634076,12.327488344312966,27675.52700886233,-3738.639594424608,5.726087293683215,27705.47882576002,28172.784252428715,8.490356747655118,27727.72601729957,-2603.0517297797055,7.64389620259217,27944.159004801917,4339.916307701408,28.1953906636032,0.984424603826333,99.0,80.0,67.0,244.0,311.0,19.0,758.0,758.0,19.0,7.0,12.0,0.3684210526315789,126.63410624884855,1415.3588720554526,15.0,8.0,7.0,0.5333333333333333,497.6219751987246,679.9086027770554,20.0,10.0,10.0,0.5,1583.143726912042,26250.106112667858,10.0,2.0,8.0,0.2,778.6064829109728,11651.687652770604,72.0,35.0,37.0,0.4861111111111111,146.53648111928862,4381.461207136633,0.0,0.0,0.0,0.0,27570.0,27589.0,27669.0,27683.0,27695.0,27715.0,27726.0,27736.0,27914.0,27980.0,0.11773645136695308,-0.13310241937757863,0.05619408123553009,-0.29911295038952823,0.03376481727522072
37,37,28345.69864360057,1350.6493718616318,9.27284166212234,28441.93300212216,-3425.8599448552523,5.886690741245905,28471.5083688074,27331.840003272508,8.573675191170182,28492.72601729957,-2904.4077255332877,7.64389620259217,28715.08212109698,4430.819886514621,28.055254145826243,0.9834482668604764,96.0,84.0,67.0,242.0,309.0,12.0,765.0,766.0,25.0,11.0,14.0,0.44,164.67740793103195,1296.9091216957484,13.0,6.0,7.0,0.4615384615384615,468.9544694486849,569.2534269759988,20.0,11.0,9.0,0.55,1523.724608283109,24859.07189830216,12.0,2.0,10.0,0.1666666666666666,816.9888267052753,12427.781447097988,72.0,41.0,31.0,0.5694444444444444,129.7161080117851,4574.621528436969,0.0,0.0,0.0,0.0,28340.0,28352.0,28436.0,28449.0,28461.0,28481.0,28491.0,28503.0,28674.0,28745.0,0.12192461741869631,-0.1368866436448846,0.05574906805032774,-0.2812927467183573,0.0292758702303791
38,38,29050.92806393799,1790.2251827618545,17.820649127385373,29146.5093012349,-3261.3400603261443,4.7778489182039765,29175.391399490567,28891.734550027053,8.555529344265452,29198.150678199716,-2249.4106305257283,5.095930801728113,29408.753467786464,5024.738778366179,33.54891603376796,0.9911248251063411,99.0,69.0,63.0,247.0,310.0,30.0,705.0,703.0,31.0,11.0,20.0,0.3548387096774194,141.4429883191396,1836.161400796269,13.0,7.0,6.0,0.5384615384615384,529.3644729010838,1918.7681797939151,22.0,11.0,11.0,0.5,1590.483773355549,27264.94750480425,7.0,2.0,5.0,0.2857142857142857,799.6137448750637,11300.21387160464,78.0,37.0,41.0,0.4743589743589743,124.94638528356316,5395.102562324284,0.0,0.0,0.0,0.0,29041.0,29071.0,29140.0,29153.0,29165.0,29185.0,29197.0,29203.0,29372.0,29450.0,0.07900848992690944,-0.1623150187068029,0.055049784934219526,-0.3554770009636611,0.024866244952178422
39,39,29801.35949378651,1044.0642354456304,9.440201678349782,29896.30135639943,-4071.833621706317,5.458915848253034,29925.026567132332,28453.10994398703,8.512608224031,29947.30135639943,-2361.997292861741,10.19186160338829,30163.099742618448,4423.6693060183625,28.195406249844005,0.98410155395841,96.0,77.0,66.0,243.0,309.0,19.0,753.0,750.0,23.0,9.0,14.0,0.391304347826087,136.89917795161656,1244.380226607889,14.0,8.0,6.0,0.5714285714285714,510.2525734088096,377.63677946425446,21.0,11.0,10.0,0.5238095238095238,1605.571349835329,26071.454138144392,11.0,3.0,8.0,0.2727272727272727,794.1517605766016,11748.91355324059,67.0,33.0,34.0,0.4925373134328358,127.80837703195331,4466.040739523538,0.0,0.0,0.0,0.0,29792.0,29811.0,29888.0,29902.0,29914.0,29935.0,29945.0,29954.0,30131.0,30197.0,0.13112141313142947,-0.12531272660275997,0.05642867697049872,-0.3362204363978868,0.028891937482322914
40,40,30563.43179703756,1631.529544744954,16.408039691689872,30659.32842567148,-3110.5813358548844,4.441217791197425,30687.803970615503,28455.097881949525,8.630647644427398,30709.150678199716,-2199.1788649750656,5.095930801728078,30929.808138396547,4562.594131320857,31.45950731373612,0.9903678049733168,103.0,77.0,61.0,249.0,310.0,26.0,759.0,763.0,34.0,13.0,21.0,0.3823529411764705,155.4969363536472,1799.3140680275983,11.0,5.0,6.0,0.4545454545454545,510.50033991240446,1599.9213681467952,21.0,11.0,10.0,0.5238095238095238,1542.4357748660009,26128.476667103867,10.0,1.0,9.0,0.1,882.9082015392538,12349.14057678549,80.0,42.0,38.0,0.525,142.5118385747728,4302.275133533044,0.0,0.0,0.0,0.0,30551.0,30577.0,30654.0,30665.0,30677.0,30698.0,30708.0,30715.0,30890.0,30964.0,0.09530745971134405,-0.16411734167758166,0.05420595568727402,-0.4014717563908856,0.031234827046410125
41,41,31301.69864360057,1006.021975115888,8.068750690140536,31397.55347828551,-3720.4211307258406,5.562773296540057,31427.11158390803,27663.869521373963,8.521514469712006,31449.45203459925,-2450.207659385442,15.28779240518434,31663.98153768619,4228.231693589236,27.450694305529737,0.98122856249679,95.0,87.0,68.0,236.0,304.0,8.0,739.0,740.0,23.0,10.0,13.0,0.4347826086956521,146.95672563234947,1091.759376285706,13.0,7.0,6.0,0.5384615384615384,499.4408027555669,788.7155786726087,21.0,11.0,10.0,0.5238095238095238,1481.621833343593,24546.23229606229,13.0,3.0,10.0,0.2307692307692307,746.3751256624311,11875.018108858072,72.0,35.0,37.0,0.4861111111111111,143.76794189553434,4428.950905035059,0.0,0.0,0.0,0.0,31296.0,31304.0,31391.0,31404.0,31416.0,31437.0,31446.0,31459.0,31629.0,31695.0,0.1460770532526597,-0.13424308302918594,0.05355801118852321,-0.3046170894142237,0.034001907254399645
42,42,32016.61418389814,1717.764869089474,10.747207584987995,32110.64687867029,-3271.3902387726794,5.035521398721295,32140.465787306483,28391.710017148765,8.514744673708131,32164.72601729957,-1992.5662048485176,7.64389620259217,32375.88712605742,4498.334029883986,31.468394052774205,0.9886545678301648,97.0,78.0,64.0,244.0,308.0,19.0,718.0,713.0,21.0,10.0,11.0,0.4761904761904761,140.92454976304785,2050.241585393225,12.0,6.0,6.0,0.5,461.74815652134606,1132.5552083584917,22.0,11.0,11.0,0.5,1577.6717625065664,26055.522159145243,9.0,4.0,5.0,0.4444444444444444,630.3760654346479,8742.138637722805,72.0,34.0,38.0,0.4722222222222222,147.30179848808237,4917.552489471776,0.0,0.0,0.0,0.0,32008.0,32027.0,32105.0,32117.0,32130.0,32150.0,32161.0,32169.0,32346.0,32413.0,0.08203948764987082,-0.1411473785819509,0.0555680429799277,-0.316363925023295,0.03274585602347573
43,43,32753.246740590737,1239.7935507624036,11.217206558093032,32849.1312129888,-3574.635127750902,4.9511227755875185,32878.42472392895,29003.60900014137,8.538503518202669,32900.150678199716,-2432.0308672317656,5.095930801728113,33115.458820519176,4781.512410566738,28.77383123107028,0.9886097878715142,98.0,78.0,65.0,243.0,308.0,20.0,733.0,738.0,25.0,12.0,13.0,0.48,147.2497607337787,1094.7666294843211,12.0,6.0,6.0,0.5,494.6591454274008,918.9895370883714,22.0,11.0,11.0,0.5,1595.0323864411648,26600.52203791602,10.0,2.0,8.0,0.2,856.8826856268548,12157.857294536916,70.0,34.0,36.0,0.4857142857142857,142.44905237393226,5369.811913855216,0.0,0.0,0.0,0.0,32745.0,32765.0,32843.0,32855.0,32868.0,32888.0,32899.0,32908.0,33084.0,33151.0,0.11876958114778734,-0.13838031792034441,0.054994272831129065,-0.35233215876169893,0.029791630794292596
44,44,33554.87549274967,1433.2813679862277,15.336883040482398,33651.79412331172,-3190.73384859596,4.638184068567937,33680.993896036416,29437.079763736572,8.459568566251832,33747.26447328809,-1245.0886442742262,47.54355404971988,33925.65746019684,4852.5637509590615,29.218788052593435,0.9892112082496912,100.0,74.0,149.0,163.0,312.0,26.0,805.0,802.0,26.0,10.0,16.0,0.3846153846153846,135.02853165491817,1929.7409914912257,13.0,7.0,6.0,0.5384615384615384,510.2260530622572,1080.925195479911,21.0,11.0,10.0,0.5238095238095238,1558.648073321124,26831.74257371057,73.0,25.0,48.0,0.3424657534246575,118.24637285114316,997.6207488374084,73.0,41.0,32.0,0.5616438356164384,134.8451029438224,4738.174439678081,0.0,0.0,0.0,0.0,33545.0,33571.0,33645.0,33658.0,33671.0,33691.0,33722.0,33794.0,33886.0,33957.0,0.09420936786796746,-0.1599086847330671,0.05294846111879673,-0.0949702444038192,0.0277884248130015
45,45,34357.12330450071,1505.7588459887638,12.739827004310486,34454.935989312864,-3539.5540289793403,4.839927549050434,34483.884325311235,28815.764627453256,8.28921314356101,34558.32873009842,-1222.22933328421,28.027619409504627,34722.62145840591,5044.636285840333,31.405429738827333,0.987851195228016,98.0,78.0,126.0,187.0,313.0,20.0,799.0,803.0,26.0,12.0,14.0,0.4615384615384615,127.91487399820062,1778.84767663126,13.0,7.0,6.0,0.5384615384615384,503.2756069901637,721.3833097631386,21.0,11.0,10.0,0.5238095238095238,1585.156254109713,26211.2219842832,40.0,18.0,22.0,0.45,124.37707570860468,960.4054748466252,78.0,40.0,38.0,0.5128205128205128,122.6237717638441,5023.625087324981,0.0,0.0,0.0,0.0,34350.0,34370.0,34448.0,34461.0,34473.0,34494.0,34540.0,34574.0,34690.0,34761.0,0.08495043833808906,-0.142186163248167,0.0550100361591484,-0.10176246987494185,0.02430775279241316
46,46,35169.12330450071,1315.3649642573532,10.988451710936342,35264.668070884356,-3535.369110463629,5.944990107297268,35294.6921155655,27829.12577415631,8.50089654988979,35317.87669549929,-2287.643149817985,12.739827004320285,35533.534299781095,4614.649699900421,29.40982443835272,0.9861350792290304,96.0,77.0,69.0,241.0,310.0,19.0,812.0,811.0,31.0,12.0,19.0,0.3870967741935484,143.5685070787245,1288.743101100621,14.0,7.0,7.0,0.5,441.6829627573003,649.6746198397411,21.0,11.0,10.0,0.5238095238095238,1540.874664655897,25200.967930180617,18.0,4.0,14.0,0.2222222222222222,668.1626285889836,9940.198796118531,71.0,37.0,34.0,0.5211267605633803,142.26796066736077,4550.377494271983,0.0,0.0,0.0,0.0,35162.0,35181.0,35258.0,35272.0,35284.0,35304.0,35315.0,35327.0,35500.0,35568.0,0.10914727925704056,-0.12493263049961363,0.05536913653560903,-0.2920746746021754,0.030829633865909853
47,47,35926.60582742291,1679.9252894718445,16.501151346631804,36020.9842148325,-3178.282609453351,4.576409584034044,36050.14793766322,28711.666549204867,8.660293305909121,36072.726017299574,-1947.761352909595,7.089756678864369,36285.80107063377,4913.237397805943,31.26566432569912,0.9900676581957218,102.0,75.0,62.0,247.0,309.0,27.0,758.0,755.0,39.0,19.0,20.0,0.4871794871794871,145.81583935909686,1545.8370976283968,11.0,6.0,5.0,0.5454545454545454,511.5301655361987,1195.1932127931186,21.0,11.0,10.0,0.5238095238095238,1575.6914947052542,26933.093406314347,6.0,2.0,4.0,0.3333333333333333,765.4820904539552,10870.835764143469,77.0,37.0,40.0,0.4805194805194805,152.95484022231284,4924.711325362173,0.0,0.0,0.0,0.0,35913.0,35940.0,36015.0,36026.0,36040.0,36060.0,36071.0,36077.0,36253.0,36324.0,0.08679900247524712,-0.16094546281527158,0.05487983402164758,-0.39300609867346764,0.031131172348931563
48,48,36707.0713313957,1225.6407653041863,7.982413482682225,36800.13531520439,-3795.849718791445,5.9679202213263345,36830.13277997919,28677.64214657448,8.61220232606042,36852.30135639943,-2409.454900592764,10.191861602817744,37069.061135831944,4897.428733439922,28.277614043917104,0.9826378863510828,94.0,75.0,68.0,244.0,312.0,19.0,785.0,780.0,20.0,9.0,11.0,0.45,141.00615824985744,1064.6544554964653,14.0,7.0,7.0,0.5,473.09388545767814,188.83039282594655,21.0,11.0,10.0,0.5238095238095238,1577.806215726606,26277.21300168915,11.0,2.0,9.0,0.1818181818181818,827.9614037573793,12294.568357684144,71.0,35.0,36.0,0.4929577464788732,134.2322434222777,5197.590123830689,0.0,0.0,0.0,0.0,36699.0,36718.0,36793.0,36807.0,36819.0,36840.0,36850.0,36861.0,37034.0,37105.0,0.11504688995462854,-0.12463451414201557,0.05501868695000345,-0.3436301727638429,0.027408718069899064
49,49,37476.69864360057,1341.8698478087422,8.05828547476217,37587.32571221088,-3800.29949377208,5.272919955607117,37616.50119897903,28573.609430189324,8.566853784481145,37637.726017299574,-2989.775335480131,7.643896202592161,37850.33830026716,4873.550529440769,29.85662488409218,0.9844963106868028,110.0,96.0,66.0,237.0,303.0,14.0,765.0,787.0,25.0,10.0,15.0,0.4,184.17342617594548,1460.4071547251042,13.0,6.0,7.0,0.4615384615384615,511.477865078904,448.0281057264506,20.0,11.0,9.0,0.55,1588.828114312922,25899.90597784724,11.0,2.0,9.0,0.1818181818181818,862.2658349435751,12832.045172775534,78.0,38.0,40.0,0.4871794871794871,137.23507689793158,4852.835152374556,0.0,0.0,0.0,0.0,37471.0,37485.0,37581.0,37594.0,37606.0,37626.0,37636.0,37647.0,37817.0,37884.0,0.13725133363470277,-0.1345888306742962,0.05560473968802319,-0.28840489273924086,0.028159157490807638
50,50,38228.753390998565,2041.6840908443048,22.49886483276661,38317.764197705954,-2975.753497174169,4.343047201299067,38346.579771492885,28796.70992301624,8.538063888441542,38368.726017299574,-1888.3936761474783,6.455323985610346,38583.644061590145,5354.396609001525,33.767620876240585,0.9908615481433612,108.0,70.0,60.0,250.0,310.0,38.0,758.0,730.0,38.0,24.0,14.0,0.631578947368421,145.09695655499274,1669.9627227105195,13.0,7.0,6.0,0.5384615384615384,513.4970679605606,1984.1169746889911,21.0,11.0,10.0,0.5238095238095238,1582.3860696178735,26844.967280954363,6.0,2.0,4.0,0.3333333333333333,798.3839022035355,11271.587909362686,79.0,40.0,39.0,0.5063291139240507,131.87686493817395,5448.919688141229,0.0,0.0,0.0,0.0,38205.0,38243.0,38313.0,38323.0,38336.0,38356.0,38367.0,38373.0,38545.0,38623.0,0.07106729057921507,-0.172560350999566,0.05495023819902168,-0.42278467264957303,0.024629640754752765
51,51,38914.3412860954,1487.9131804479591,10.955261043626267,39008.95198508546,-3678.7403485640993,5.771501739533985,39038.64789050871,27628.22912239613,8.578361054276368,39060.726017299574,-2931.730057741893,7.64389620259217,39275.49289459466,4567.43583621403,27.567944195137596,0.9847931570641936,96.0,79.0,70.0,238.0,308.0,17.0,679.0,692.0,24.0,10.0,14.0,0.4166666666666667,142.52660462661686,1372.5395404390467,15.0,8.0,7.0,0.5333333333333333,472.2312063262496,432.59964099018543,20.0,11.0,9.0,0.55,1558.068776007544,25438.93458209381,12.0,2.0,10.0,0.1666666666666666,785.6227096752924,11814.707336589405,77.0,39.0,38.0,0.5064935064935064,136.2812758586729,4560.959039108057,0.0,0.0,0.0,0.0,38905.0,38922.0,39001.0,39016.0,39028.0,39048.0,39059.0,39071.0,39243.0,39309.0,0.09578959747080608,-0.12836763717520122,0.05639408769578123,-0.26797238975009957,0.029837589567900117
52,52,39654.39728719358,1546.818911756296,13.073297363644931,39746.90443946166,-3477.5204652023513,5.505286809214487,39776.866923321584,29242.395640402938,8.600042452565134,39799.726017299574,-1740.6510575762168,7.64389620259217,40015.177321906136,4867.353106971471,29.508152803353084,0.9880639987025016,96.0,72.0,65.0,248.0,313.0,24.0,739.0,738.0,31.0,12.0,19.0,0.3870967741935484,144.83767704413677,1270.334679188777,15.0,8.0,7.0,0.5333333333333333,468.5012950831715,587.1684450220143,21.0,11.0,10.0,0.5238095238095238,1612.8876764151037,26935.921437038705,6.0,2.0,4.0,0.3333333333333333,744.232209030016,10727.869349230708,71.0,34.0,37.0,0.4788732394366197,141.55178021457522,5414.297775012512,0.0,0.0,0.0,0.0,39643.0,39667.0,39739.0,39754.0,39766.0,39787.0,39798.0,39804.0,39981.0,40052.0,0.09363583283300081,-0.13472280027427824,0.055155798322714965,-0.4275596799201834,0.029081880254759353
53,53,40391.23212769007,1256.57825859382,9.999526131570452,40488.954408716105,-3786.437899150541,5.957433458740327,40518.66277071667,28348.36505985775,8.630120153422821,40539.726017299574,-2719.9023675166804,7.643896202591929,40755.420808620715,4831.5925550160655,28.451482895156367,0.986727208058646,100.0,83.0,67.0,242.0,309.0,17.0,739.0,742.0,19.0,10.0,9.0,0.5263157894736842,156.78556244958494,1156.281093264931,15.0,8.0,7.0,0.5333333333333333,497.4961160156624,627.1904878836349,21.0,11.0,10.0,0.5238095238095238,1566.8393219579862,25813.4628052154,11.0,2.0,9.0,0.1818181818181818,862.8693562317134,12628.445928473908,71.0,35.0,36.0,0.4929577464788732,140.68306607880265,5025.5932766727765,0.0,0.0,0.0,0.0,40382.0,40399.0,40482.0,40496.0,40508.0,40528.0,40538.0,40549.0,40721.0,40791.0,0.12477182489615615,-0.13138895428002978,0.05527088841453802,-0.31724276817315633,0.029117328184626874
54,54,41195.208030967646,1459.747825968915,12.825439332055916,41290.55259960444,-3127.301540599832,5.127347388146158,41320.09602696594,28503.01884851553,8.48437857092441,41342.30135639943,-2075.653402183452,6.828230080419848,41559.125196005414,5116.846659786737,31.314995474260648,0.9887256467553855,98.0,78.0,64.0,249.0,313.0,20.0,804.0,801.0,22.0,11.0,11.0,0.5,153.02044413933976,1549.6531867379567,12.0,7.0,5.0,0.5833333333333334,471.2933865453382,899.3383748921549,21.0,11.0,10.0,0.5238095238095238,1603.922616318403,26323.35107462277,8.0,2.0,6.0,0.25,813.9671867622045,11515.89385942005,79.0,40.0,39.0,0.5063291139240507,135.2949401009619,5118.724117938236,0.0,0.0,0.0,0.0,41186.0,41206.0,41284.0,41296.0,41310.0,41330.0,41340.0,41348.0,41520.0,41597.0,0.10482662924178131,-0.15070289207063217,0.056272025950750724,-0.39214985792231216,0.026441077698154198
55,55,42028.753390998565,1604.0457814439417,12.116832932592716,42117.93234526137,-3497.3711616703986,7.116057697596788,42148.821179674065,29278.78984210546,8.239274427867446,42213.39728720114,-1265.987444063005,20.383723206912453,42389.808138396555,5214.191079423831,31.29711530175708,0.9872334366427638,97.0,66.0,111.0,204.0,315.0,31.0,839.0,829.0,34.0,18.0,16.0,0.5294117647058824,169.68367600161233,977.4465752315602,17.0,9.0,8.0,0.5294117647058824,437.97743732323784,66.86134446988262,21.0,11.0,10.0,0.5238095238095238,1607.0703031902913,26776.324816485,25.0,12.0,13.0,0.48,143.83953018486687,1389.5516583237782,78.0,40.0,38.0,0.5128205128205128,148.72325175904678,5131.28263712519,0.0,0.0,0.0,0.0,42012.0,42043.0,42109.0,42126.0,42139.0,42159.0,42202.0,42220.0,42351.0,42424.0,0.10578480861616384,-0.1252304708528714,0.054888549419456666,-0.11361844926615904,0.028522785124990225
56,56,42772.65356290118,1381.2904731152323,12.021517590081377,42866.88138497957,-3159.3785076853205,5.081549968072381,42896.027373699,26558.509283666684,8.533514274097383,42919.30135639943,-1663.0862114479953,10.19186160330847,43130.75852061109,5065.231972207894,32.75361636976177,0.984144097958314,97.0,73.0,65.0,243.0,308.0,24.0,738.0,748.0,26.0,12.0,14.0,0.4615384615384615,162.18090214410944,1382.5302042523788,13.0,7.0,6.0,0.5384615384615384,461.64679602976906,911.3169332296604,21.0,11.0,10.0,0.5238095238095238,1453.614210949264,24583.864205498143,9.0,3.0,6.0,0.3333333333333333,669.1652556466619,9377.769133099984,72.0,35.0,37.0,0.4861111111111111,136.75891145581045,5565.858899649238,0.0,0.0,0.0,0.0,42763.0,42787.0,42860.0,42873.0,42885.0,42906.0,42916.0,42925.0,43096.0,43168.0,0.11741259735060788,-0.14611949625750567,0.054732522651157516,-0.40236354017032067,0.026999535698697397
57,57,43508.479728507016,1955.260521800406,12.635939321136275,43600.732645921904,-3424.414377469289,5.508635582922249,43630.6431200606,29902.92168369433,8.226546641543758,43701.32873009842,-1421.331753756387,28.027619409504627,43870.32201687325,5139.386784984163,30.08240922863236,0.9779564124826374,97.0,72.0,124.0,183.0,307.0,25.0,734.0,734.0,31.0,13.0,18.0,0.4193548387096774,184.01530146606075,1628.9902988764725,15.0,8.0,7.0,0.5333333333333333,488.0207223862766,472.0853672857051,21.0,11.0,10.0,0.5238095238095238,1648.8875294103457,27398.167770863452,38.0,22.0,16.0,0.5789473684210527,164.377821711439,1557.334391764696,72.0,36.0,36.0,0.5,202.0655549045328,5819.756116167834,0.0,0.0,0.0,0.0,43496.0,43521.0,43593.0,43608.0,43620.0,43641.0,43692.0,43717.0,43839.0,43900.0,0.09411293247849103,-0.14251216955435567,0.05514135196727156,-0.11565056594071774,0.03931705539168823
58,58,44196.776683078715,2116.3968903048612,24.569903038814896,44295.35538456363,-2841.9103743379906,4.16938726164865,44323.56502703038,27184.43185777699,8.62362360684533,44345.726017299574,-1652.2001744018407,5.993944807017849,44557.642611384086,5334.2216246031885,35.70017756360339,0.9897743465088296,116.0,69.0,60.0,248.0,308.0,47.0,692.0,693.0,47.0,23.0,24.0,0.4893617021276595,140.62337882796328,2825.273202281922,10.0,5.0,5.0,0.5,495.55039323724674,1570.8971382014624,21.0,11.0,10.0,0.5238095238095238,1452.3378497263236,25061.915926519006,6.0,2.0,4.0,0.3333333333333333,759.6746361748768,10564.749082937127,83.0,42.0,41.0,0.5060240963855421,136.8483294328915,5555.862915387336,0.0,0.0,0.0,0.0,44174.0,44221.0,44290.0,44300.0,44313.0,44333.0,44344.0,44350.0,44516.0,44598.0,0.06644471057019313,-0.17437228060110194,0.05342535232388295,-0.45979576079509127,0.02565478884523693
59,59,44864.273982700426,886.2811237603227,5.345414689483343,44956.94509239914,-3996.236133015283,7.129783994110681,44987.72959711819,27477.99510599759,8.50162609849165,45009.87669549929,-3309.3513065922057,12.739827004320285,45229.205425597705,4186.651560252812,24.281287777006973,0.9692155907053548,90.0,78.0,71.0,231.0,302.0,12.0,666.0,664.0,18.0,9.0,9.0,0.5,132.20118779913264,610.2205870600299,16.0,8.0,8.0,0.5,437.8616790017181,688.6388824810736,20.0,11.0,9.0,0.55,1552.2704600137308,24677.969346527945,14.0,3.0,11.0,0.2142857142857142,777.4170989286617,12131.484122865751,60.0,37.0,23.0,0.6166666666666667,148.13344030947158,4154.559337813102,0.0,0.0,0.0,0.0,44860.0,44872.0,44950.0,44965.0,44977.0,44997.0,45007.0,45021.0,45193.0,45252.0,0.14916394387170076,-0.10956852008425688,0.05649140172075067,-0.2349152528412599,0.03538231882390674
60,60,45547.25537343938,580.4984867963489,2.01667340920038,45640.45203459914,-4119.067352128507,15.28779240518434,45671.45203459914,27624.31664965134,9.054417329895292,45691.30135639943,-5727.490511613119,10.191861603456228,45908.58487308872,4026.2214900215295,22.836121243651196,0.947055667305098,85.0,79.0,151.0,158.0,309.0,6.0,684.0,684.0,6.0,2.0,4.0,0.3333333333333333,159.37004609861347,723.3957307470496,20.0,11.0,9.0,0.55,445.71592291839335,1593.4229726843043,21.0,11.0,10.0,0.5238095238095238,1585.6196920244847,23694.292481488003,125.0,2.0,123.0,0.016,982.796049597408,15851.593309072314,60.0,30.0,30.0,0.5,133.42891509105291,3968.235906196475,0.0,0.0,0.0,0.0,45545.0,45551.0,45630.0,45649.0,45661.0,45680.0,45689.0,45781.0,45879.0,45939.0,0.27453998541519686,-0.10820797156620221,0.057399417771461785,-0.1715927852878465,0.0331399838339096
61,61,46285.22078665413,1913.300317966261,19.008086605226556,46385.1780447432,-3109.460123598151,4.2361498939049005,46413.68469386851,29198.221271977687,8.390256448752925,46403.62843720323,891.7380039901306,214.1619087544302,46650.03228435412,5491.23617927685,35.040847427891784,0.9904173619126372,117.0,69.0,369.0,-60.0,309.0,48.0,739.0,742.0,48.0,22.0,26.0,0.4583333333333333,137.29445422595077,3323.264960325868,10.0,5.0,5.0,0.5,508.8598811298162,2873.484650865098,21.0,11.0,10.0,0.5238095238095238,1581.0988579986022,27757.196302510667,29.0,6.0,23.0,0.2068965517241379,1176.9169359950315,30320.82580686159,86.0,46.0,40.0,0.5348837209302325,138.4774511995479,6408.122026266956,0.0,0.0,0.0,0.0,46263.0,46311.0,46380.0,46390.0,46403.0,46424.0,46056.0,46749.0,46604.0,46689.0,0.07175792160630991,-0.16364894898249494,0.05415051976183306,1.319801254100254,0.025217901157146044
62,62,47129.552854343616,1470.4476206220895,14.990959582850488,47226.58777845407,-3519.587510235981,4.976029251377293,47255.80999651355,28489.476237781615,8.622204971899066,47278.30135639943,-2138.639419379365,8.856298648225795,47494.804265711435,5149.835761736923,30.227858788142207,0.9872434804354188,103.0,79.0,64.0,249.0,313.0,24.0,841.0,842.0,32.0,20.0,12.0,0.625,144.96535681228266,1439.4390808831183,13.0,8.0,5.0,0.6153846153846154,506.0258496881401,1033.425057114978,21.0,11.0,10.0,0.5238095238095238,1586.7798095718729,26058.4345943516,11.0,3.0,8.0,0.2727272727272727,783.3787812373794,11329.852610532023,78.0,39.0,39.0,0.5,140.95078174791087,5323.554670999758,0.0,0.0,0.0,0.0,47117.0,47141.0,47220.0,47232.0,47245.0,47266.0,47276.0,47284.0,47460.0,47533.0,0.09858586921372516,-0.1437741917814148,0.055697050950608507,-0.3662977377760654,0.027369956687778207
63,63,47998.780101457734,1501.3139148708874,17.73660973832236,48095.29237276569,-2995.3556180805926,4.791269262664991,48124.40457034879,28420.634285774868,8.50524812939011,48146.726017299574,-1866.2078290312072,6.801845191629321,48362.8142971038,5272.342025805555,34.641157668144075,0.9919036090658442,101.0,77.0,61.0,252.0,313.0,24.0,870.0,868.0,27.0,11.0,16.0,0.4074074074074074,141.63168568296402,1703.50343747411,11.0,5.0,6.0,0.4545454545454545,456.71229126164434,1115.2502036223896,22.0,11.0,11.0,0.5,1564.928656735726,26515.154615837033,6.0,2.0,4.0,0.3333333333333333,770.1780529739516,10813.21203017793,84.0,42.0,42.0,0.5,142.78527525246244,5567.633517469585,0.0,0.0,0.0,0.0,47989.0,48013.0,48090.0,48101.0,48114.0,48134.0,48145.0,48151.0,48327.0,48403.0,0.09433848862657368,-0.15247347877655443,0.0550631150944793,-0.4126968288273495,0.02708194471329778
64,64,48814.246609001435,1667.1350432162476,20.040423214742003,48909.38169478077,-3197.467751753366,4.619543059505512,48938.615876759686,29251.487227086094,8.327106178212972,49000.273982700426,-1002.1766030807956,7.64389620259217,49178.808138396555,5240.3501524910735,32.13588566088372,0.9884576176736556,103.0,69.0,106.0,204.0,310.0,34.0,813.0,815.0,38.0,14.0,24.0,0.3684210526315789,143.40800053082137,2161.1536967959164,12.0,6.0,6.0,0.5,477.0591779989242,1113.6988226624358,21.0,11.0,10.0,0.5238095238095238,1602.110978266732,26351.207231480526,13.0,4.0,9.0,0.3076923076923077,143.17086153057758,783.6999371192461,79.0,41.0,38.0,0.5189873417721519,142.50928221579676,4962.268544156012,0.0,0.0,0.0,0.0,48800.0,48834.0,48903.0,48915.0,48928.0,48949.0,48996.0,49009.0,49140.0,49213.0,0.08602062629201156,-0.1491990584540919,0.054770240084860373,-0.14285991220554878,0.027194610678458762
65,65,49686.548484963474,1511.2666687910323,18.08680327223299,49783.493789830005,-3117.047802417577,4.909418795289082,49812.78029755475,29141.44454877173,8.555326675956449,49835.15067819971,-1778.414388306889,5.095930801728113,50059.08212109698,5301.943018730788,29.533215677064355,0.9895265089463724,100.0,72.0,64.0,249.0,313.0,28.0,878.0,874.0,33.0,15.0,18.0,0.4545454545454545,145.65013610094817,1914.302255427162,13.0,7.0,6.0,0.5384615384615384,458.4715648842311,942.8355981678674,21.0,11.0,10.0,0.5238095238095238,1603.7806664635668,27055.195315234716,8.0,1.0,7.0,0.125,811.8819276782854,11043.611034146626,72.0,41.0,31.0,0.5694444444444444,143.9691963949992,5312.738521252175,0.0,0.0,0.0,0.0,49676.0,49704.0,49776.0,49789.0,49802.0,49823.0,49834.0,49840.0,50018.0,50089.0,0.09637619826384702,-0.14708518891774497,0.05503435712596354,-0.456520107471254,0.02715404444868278
66,66,50562.881732813585,1848.3275083230972,16.572322775206523,50658.50614723472,-2951.2563675565166,4.382672867501605,50687.27798185211,28950.35125302993,8.572195937384052,50709.726017299574,-2007.780161894409,6.752772110277237,50928.24490895872,5228.074460759904,31.04503449850498,0.990434671481494,102.0,70.0,63.0,252.0,315.0,32.0,873.0,875.0,34.0,14.0,20.0,0.4117647058823529,152.4510149723731,1963.439747223751,11.0,6.0,5.0,0.5454545454545454,514.8640781813045,2249.725651481888,21.0,11.0,10.0,0.5238095238095238,1579.450403618053,27035.925619162837,8.0,2.0,6.0,0.25,764.1157746282458,10965.265526249856,77.0,37.0,40.0,0.4805194805194805,131.5347149666749,5209.30263492808,0.0,0.0,0.0,0.0,50551.0,50583.0,50653.0,50664.0,50677.0,50697.0,50708.0,50716.0,50895.0,50968.0,0.08248052051699696,-0.17445589744125978,0.054557210370729047,-0.38057741038106313,0.02515930405236735
67,67,51315.19700353574,1095.4564443941567,11.063416563461368,51406.75325508873,-3414.010763091933,5.24394939829232,51436.19430428671,28129.89421097563,8.488825490303329,51460.726017299574,-2247.2858577550023,7.64389620259217,51675.020114357074,4896.483505824174,29.06842394864173,0.98695116654004,96.0,78.0,65.0,244.0,309.0,18.0,751.0,748.0,31.0,12.0,19.0,0.3870967741935484,134.97759737713764,775.6410693385214,13.0,7.0,6.0,0.5384615384615384,482.92900007240894,678.9582563366807,22.0,11.0,11.0,0.5,1558.8366651091712,26218.536316699498,8.0,4.0,4.0,0.5,607.2846255993481,9165.2414948576,77.0,39.0,38.0,0.5064935064935064,136.02494192066163,4696.720730392403,0.0,0.0,0.0,0.0,51304.0,51322.0,51400.0,51413.0,51426.0,51446.0,51457.0,51465.0,51642.0,51709.0,0.12321585040451986,-0.14145503151110148,0.055415660415137624,-0.2702302528642326,0.027780128690082447
68,68,52066.54402007781,1215.047022280552,9.524378620570904,52159.53252371884,-3555.13928373473,5.216599556102102,52189.35454336008,28763.247027847017,8.663191808240928,52211.726017299574,-2297.596484453039,7.643896202524051,52427.886810638985,4916.549703840846,30.027457417264923,0.9889488121305774,95.0,79.0,66.0,247.0,313.0,16.0,753.0,753.0,25.0,12.0,13.0,0.48,147.43475430474302,1244.2699887157496,13.0,8.0,5.0,0.6153846153846154,513.7633997384022,696.5793047646166,22.0,11.0,11.0,0.5,1597.3551451619928,26708.765802611502,8.0,2.0,6.0,0.25,771.9141982830733,11647.369618901765,73.0,35.0,38.0,0.4794520547945205,140.3998834945847,5064.596776470009,0.0,0.0,0.0,0.0,52057.0,52073.0,52152.0,52165.0,52179.0,52199.0,52210.0,52218.0,52394.0,52465.0,0.12134078072799113,-0.14451287523078019,0.05553459050070112,-0.33596595551321695,0.02855658784144972
69,69,52815.799300508355,1717.961778622851,15.193313364742364,52910.74725194466,-3371.8489521927054,4.777941723131785,52940.042171872374,28710.295686007343,8.546338586521097,52963.30135639943,-1698.0063496718517,8.627696792684239,53179.2327992967,5288.090329915547,28.61435639418886,0.9897264020313103,99.0,73.0,65.0,243.0,308.0,26.0,750.0,752.0,26.0,11.0,15.0,0.4230769230769231,152.19704756502674,1883.6018333237091,12.0,7.0,5.0,0.5833333333333334,501.8844644766612,771.1303484279886,21.0,11.0,10.0,0.5238095238095238,1582.8087502546498,26371.32703957949,9.0,3.0,6.0,0.3333333333333333,728.0928364775955,10396.153038107806,74.0,38.0,36.0,0.5135135135135135,138.9430026821514,5269.896904147941,0.0,0.0,0.0,0.0,52805.0,52831.0,52904.0,52916.0,52929.0,52950.0,52960.0,52969.0,53142.0,53212.0,0.08859163775286702,-0.1488454766487351,0.05513035349984465,-0.42879276430167834,0.026274702967180662
70,70,53515.07615204796,1468.140185430438,12.105589185986634,53610.33415775631,-3192.8476980203022,4.971707422748647,53639.49897446208,28545.00145587231,8.563893593488313,53662.726017299574,-1675.2080602161382,6.643404517116195,53874.22655689469,4980.005752183002,32.91563808413616,0.9902667976184398,98.0,75.0,63.0,248.0,311.0,23.0,699.0,699.0,23.0,9.0,14.0,0.391304347826087,147.09438576158567,1507.26498860324,12.0,6.0,6.0,0.5,470.61125696956526,822.3128075944855,22.0,11.0,11.0,0.5,1576.6055050241848,26501.123345227737,7.0,3.0,4.0,0.4285714285714285,706.6175207182876,9884.172842112555,77.0,36.0,41.0,0.4675324675324675,143.92272850498964,5378.644226781156,0.0,0.0,0.0,0.0,53506.0,53529.0,53604.0,53616.0,53629.0,53649.0,53660.0,53667.0,53838.0,53915.0,0.10019096760740166,-0.14739546056686753,0.05523227972019752,-0.4218088113945193,0.028900112904869765
71,71,54197.60271279886,1690.5087054038677,12.394267018666993,54292.69864360057,-3127.1091050793384,4.719642218667482,54321.64691040631,28787.86448832572,8.55167340909973,54343.726017299574,-2194.424529044,6.701024259409188,54557.66686243031,5252.468372738722,31.995184477689307,0.9902827247339028,98.0,78.0,64.0,245.0,309.0,20.0,687.0,682.0,24.0,13.0,11.0,0.5416666666666666,159.71934181952471,1632.9810403168135,12.0,6.0,6.0,0.5,494.14471689726463,1873.8813776600048,21.0,11.0,10.0,0.5238095238095238,1589.0265651210204,26440.36479853389,9.0,2.0,7.0,0.2222222222222222,786.1079716005438,11429.591810985788,77.0,39.0,38.0,0.5064935064935064,127.13783835226778,5368.161174666795,0.0,0.0,0.0,0.0,54189.0,54209.0,54287.0,54299.0,54311.0,54332.0,54342.0,54351.0,54519.0,54596.0,0.09448004692845831,-0.15801965978565613,0.05519779231159765,-0.3582296685058526,0.024205350576147505
72,72,54946.310140322355,1339.8357665288045,10.485211614192822,55044.19617556056,-3719.750654072662,6.126082215085735,55074.28146609356,27926.018090765338,8.447266352407311,55095.726017299574,-2265.8902944969236,7.200829106887928,55315.65746019684,4922.843726096743,28.20630965258282,0.9837539336876224,98.0,80.0,67.0,244.0,311.0,18.0,745.0,753.0,18.0,8.0,10.0,0.4444444444444444,143.12230716202367,1635.060572375198,15.0,8.0,7.0,0.5333333333333333,457.355929359374,104.07443672290856,20.0,10.0,10.0,0.5,1562.5268687799912,25853.217553236216,9.0,2.0,7.0,0.2222222222222222,826.4357741837032,11933.03458716839,75.0,39.0,36.0,0.52,142.28326347961809,4760.690773722674,0.0,0.0,0.0,0.0,54938.0,54956.0,55036.0,55051.0,55064.0,55084.0,55094.0,55103.0,55281.0,55347.0,0.10682078411208525,-0.12295338367872223,0.055952368995159124,-0.36472894393467964,0.028902656959300346
73,73,55725.84932180029,616.8243492925614,5.056417265887024,55825.35016841418,-3882.4761476120098,6.582511842038002,55855.53566236799,27258.087084359948,8.425564798469132,55877.87669549929,-2921.9163515520795,12.739827004320285,56094.70287599644,4297.300733066664,25.08751243966502,0.976692382646647,96.0,85.0,70.0,237.0,307.0,11.0,779.0,781.0,11.0,3.0,8.0,0.2727272727272727,136.6262309253056,656.4888739572668,15.0,7.0,8.0,0.4666666666666667,441.11158619580857,477.66157067389395,20.0,11.0,9.0,0.55,1530.508805846477,24213.51938630322,16.0,4.0,12.0,0.25,729.8149706170087,11203.99132922352,69.0,33.0,36.0,0.4782608695652174,143.329403947975,4176.100338328105,0.0,0.0,0.0,0.0,55723.0,55734.0,55819.0,55833.0,55845.0,55865.0,55875.0,55889.0,56066.0,56126.0,0.22149941240484888,-0.11361604538565487,0.05614879727655749,-0.24977271174424334,0.03335335664201734
74,74,56459.56027471339,1576.4055094969467,15.967755791810896,56559.47948445703,-3209.8332792804667,5.12189421524788,56588.98070133839,28447.896921756394,8.515618897066933,56611.726017299574,-1975.3195208700993,7.32367973836322,56824.19187965289,5010.343017865249,31.11672926989597,0.9889889845579838,105.0,78.0,65.0,243.0,308.0,27.0,733.0,733.0,33.0,14.0,19.0,0.4242424242424242,127.58394717253267,1686.233425456467,14.0,7.0,7.0,0.5,447.2267008834793,515.802763642713,21.0,11.0,10.0,0.5238095238095238,1588.6801769873675,26509.208817551247,7.0,2.0,5.0,0.2857142857142857,747.1384654152436,10628.977670592038,74.0,37.0,37.0,0.5,125.54339682324996,5221.780580123521,0.0,0.0,0.0,0.0,56447.0,56474.0,56552.0,56566.0,56579.0,56599.0,56610.0,56617.0,56787.0,56860.0,0.08093345678121013,-0.13933019629721455,0.055845259189348934,-0.37823676499999354,0.025056846682074092
75,75,57257.69864360057,1103.854294816732,8.850097786995605,57354.398900390486,-3676.2188635892767,6.027682249585694,57384.20205325491,28133.80846524896,8.593379882859935,57404.726017299574,-2730.7646525002483,7.040265445173075,57624.920384755074,4894.358329036521,28.736177494148095,0.984769721026326,96.0,84.0,66.0,248.0,314.0,12.0,798.0,796.0,18.0,12.0,6.0,0.6666666666666666,144.72509439472398,1061.8712686793183,13.0,6.0,7.0,0.4615384615384615,457.9655507177015,74.83642383080405,21.0,11.0,10.0,0.5238095238095238,1585.3926685814845,25465.719541519986,11.0,2.0,9.0,0.1818181818181818,907.2970003693345,13260.005279619403,77.0,39.0,38.0,0.5064935064935064,133.705331119346,4658.804279677872,0.0,0.0,0.0,0.0,57252.0,57264.0,57348.0,57361.0,57374.0,57394.0,57403.0,57414.0,57592.0,57662.0,0.13110887467150006,-0.1245751593447205,0.05635186827051057,-0.3322501628027983,0.02731825545467705
76,76,58093.80234130843,1444.2899676841328,13.25336823307144,58189.39415110923,-3160.3860995714554,5.095845035309701,58218.65416699373,28473.223901494977,8.506944211413835,58240.726017299574,-2149.70911138516,6.775511965239704,58459.46343647473,4869.766022777659,30.602158821500954,0.9884228330847242,98.0,78.0,64.0,250.0,314.0,20.0,838.0,834.0,20.0,10.0,10.0,0.5,132.9370864396152,1853.1638209685084,13.0,7.0,6.0,0.5384615384615384,443.1741184482027,771.2367421364615,21.0,11.0,10.0,0.5238095238095238,1601.0626721984363,26465.10301153629,9.0,3.0,6.0,0.3333333333333333,797.2139953288616,11163.771275254996,72.0,34.0,38.0,0.4722222222222222,127.59498283186092,5384.701280837699,0.0,0.0,0.0,0.0,58084.0,58104.0,58182.0,58195.0,58208.0,58229.0,58239.0,58246.0,58426.0,58496.0,0.09204321113770184,-0.1402278406769023,0.05623046683218661,-0.37084738167908615,0.0262014606523297
77,77,58922.11676590279,1318.7380969082149,11.15502323133792,59015.429191135074,-3404.432184503381,5.523604934502627,59044.6992406089,27183.350608340446,8.486390134682303,59067.30135639943,-2549.655793117302,10.191861603456228,59284.903598302626,4783.356317515754,30.06301323696237,0.9850329174974444,97.0,73.0,65.0,248.0,313.0,24.0,825.0,826.0,31.0,12.0,19.0,0.3870967741935484,129.7037330231233,952.1167833254572,14.0,7.0,7.0,0.5,438.9074527942467,265.134051432201,20.0,11.0,9.0,0.55,1528.5319711515187,25174.707305465417,13.0,2.0,11.0,0.1538461538461538,775.8047818888169,11318.4647519045,72.0,35.0,37.0,0.4861111111111111,149.17554649666903,4794.987819207596,0.0,0.0,0.0,0.0,58911.0,58935.0,59008.0,59022.0,59034.0,59054.0,59065.0,59073.0,59251.0,59321.0,0.09835442938003693,-0.12892236620018677,0.056230447569716874,-0.3042782417858411,0.031186375547733323
78,78,59685.36709315314,1279.0751390620158,9.422974076101845,59779.63371070587,-3637.660478867072,5.559255771648721,59809.51641897408,27767.342927474692,8.556917577184088,59831.87669549929,-2478.58121280618,12.739826990165728,60047.27212110538,4406.859647455334,29.78176530953641,0.9838474992705653,97.0,77.0,69.0,244.0,313.0,20.0,765.0,765.0,20.0,9.0,11.0,0.45,165.26532207020452,1455.4687947089546,13.0,7.0,6.0,0.5384615384615384,492.0672681680355,301.67360466642776,20.0,11.0,9.0,0.55,1530.1914350611178,24936.35685576829,14.0,3.0,11.0,0.2142857142857142,746.663436873431,10936.921714048489,76.0,37.0,39.0,0.4868421052631579,132.92993692035864,4457.58904675978,0.0,0.0,0.0,0.0,59676.0,59696.0,59773.0,59786.0,59799.0,59819.0,59829.0,59842.0,60010.0,60086.0,0.12920689099734872,-0.13527025708602883,0.05510759308363832,-0.3012463069661049,0.030164322795511938
79,79,60429.86576575659,975.8169226059445,8.418471115175038,60524.87669549929,-4321.8692882150435,6.333444589466402,60554.9736154455,28148.66887884276,8.524365904374049,60577.30135639943,-2802.7133585308625,10.191861603456228,60794.65746019684,4264.781354307515,25.822741276409516,0.9794368047355176,96.0,78.0,71.0,238.0,309.0,18.0,747.0,745.0,18.0,9.0,9.0,0.5,148.90187105339862,1286.3924656087954,15.0,8.0,7.0,0.5333333333333333,487.344401206223,257.7551430790604,21.0,11.0,10.0,0.5238095238095238,1602.422993806319,25626.262105059897,77.0,3.0,74.0,0.0389610389610389,787.4242755884858,11847.377815782984,67.0,35.0,32.0,0.5223880597014925,128.25422114980958,4472.971924533254,0.0,0.0,0.0,0.0,60421.0,60439.0,60517.0,60532.0,60545.0,60565.0,60575.0,60588.0,60761.0,60826.0,0.1525920155757827,-0.11276241105558724,0.05692713217464929,-0.28095069843362114,0.03007287138419657
80,80,61231.69864360057,1372.6913202824026,10.191861603456228,61327.63971265753,-3434.4498542427573,5.0694603175427595,61357.31515983293,28762.66267178514,8.35685144147786,61419.27893019096,-1398.3075845209862,17.8357578060484,61598.808138396555,4996.948682341611,30.20627811371254,0.9857492993578372,95.0,75.0,108.0,204.0,312.0,20.0,799.0,803.0,32.0,12.0,20.0,0.375,147.66028957272556,1412.3234917784705,13.0,7.0,6.0,0.5384615384615384,493.58588017191414,1072.7474923881168,22.0,11.0,11.0,0.5,1563.7162895548245,25925.612077070895,33.0,23.0,10.0,0.696969696969697,128.1515762979254,1349.8496616853686,77.0,39.0,38.0,0.5064935064935064,142.19821294450796,4896.75967808496,0.0,0.0,0.0,0.0,61226.0,61246.0,61321.0,61334.0,61347.0,61368.0,61410.0,61429.0,61566.0,61633.0,0.10756991567656124,-0.14371614119279147,0.05436618672612528,-0.09164763011839479,0.0284570088636317
81,81,62076.42465021968,1396.9347481056832,13.814244886683438,62172.40201846665,-3280.078099856588,5.254067616489558,62201.73438248392,28573.153145197324,8.60985014533192,62223.726017299574,-2132.14172500632,7.159431292624032,62443.052181768326,5214.083092567394,29.47580542638869,0.9875933743427596,99.0,75.0,63.0,249.0,312.0,24.0,845.0,844.0,27.0,11.0,16.0,0.4074074074074074,136.34937487333335,1396.35228432534,14.0,7.0,7.0,0.5,466.9857984999637,906.7407047499356,21.0,11.0,10.0,0.5238095238095238,1571.646030631479,26480.035927430083,6.0,2.0,4.0,0.3333333333333333,820.8866516943109,11792.031253213288,75.0,37.0,38.0,0.4933333333333333,141.60029491094028,5045.837350777703,0.0,0.0,0.0,0.0,62066.0,62090.0,62165.0,62179.0,62191.0,62212.0,62222.0,62228.0,62407.0,62477.0,0.09760611586062287,-0.1423703290846585,0.05500429100859129,-0.3850056692136062,0.027157276245326743
82,82,62924.43661827147,1723.4356573371372,15.621039274886042,63019.9613168446,-2787.759584415874,4.754390326418202,63049.027373699,28640.70840355357,8.63014863731035,63070.15067819971,-2178.07117095447,5.095930801728113,63289.07862469352,5505.816836376623,33.5502059382594,0.9913570167043954,102.0,70.0,64.0,252.0,316.0,32.0,846.0,848.0,32.0,13.0,19.0,0.40625,125.67679199601264,1889.7925432559955,13.0,7.0,6.0,0.5384615384615384,453.8667368343997,1686.6138546197,21.0,11.0,10.0,0.5238095238095238,1568.715669299002,26345.985256232903,9.0,1.0,8.0,0.1111111111111111,871.8735147885521,12114.525677760765,79.0,38.0,41.0,0.4810126582278481,139.8891077521739,5682.164175850521,0.0,0.0,0.0,0.0,62911.0,62943.0,63013.0,63026.0,63038.0,63059.0,63069.0,63077.0,63251.0,63329.0,0.07292224195372315,-0.1628069864315432,0.05477223702694327,-0.40029615488022896,0.025407512074854078
83,83,63727.273982700426,1045.6339641028358,7.64389620259217,63824.63620621816,-3487.4244519105273,5.728316305216895,63854.32428469488,26878.40915761683,8.505995738809016,63879.30135639943,-2174.804958107631,10.191861603456225,64094.968569816614,4793.797242361653,29.30873610178828,0.9831037020591664,95.0,84.0,67.0,248.0,315.0,11.0,805.0,805.0,12.0,5.0,7.0,0.4166666666666667,143.3495087441035,1104.8029813785183,14.0,7.0,7.0,0.5,473.4999163103268,930.6749600535612,21.0,11.0,10.0,0.5238095238095238,1491.628753705757,24730.526857777757,12.0,5.0,7.0,0.4166666666666667,555.1234439236325,8647.512648881138,78.0,40.0,38.0,0.5128205128205128,129.83916946566413,4761.267915273689,0.0,0.0,0.0,0.0,63723.0,63734.0,63818.0,63831.0,63844.0,63864.0,63874.0,63885.0,64056.0,64133.0,0.1370933937356356,-0.13577352652067567,0.05549542552755797,-0.25525205920381183,0.027084827100801446
84,84,64459.11969293451,1455.5900721778278,13.91691173795841,64551.79822829277,-3135.6637737233973,4.409462087461917,64580.6050301123,28109.79416889548,8.707240102566985,64604.30135639943,-2019.174976221932,8.008768102324671,64817.24060349603,5026.014994674631,32.79198849109209,0.9906309032327012,98.0,74.0,64.0,248.0,312.0,24.0,730.0,726.0,30.0,16.0,14.0,0.5333333333333333,146.5793871131353,1452.9493194584586,11.0,6.0,5.0,0.5454545454545454,514.6964699477359,1738.4834920207184,22.0,12.0,10.0,0.5454545454545454,1517.3763375619396,25641.46497009138,9.0,3.0,6.0,0.3333333333333333,708.129877161473,9798.421406777888,77.0,36.0,41.0,0.4675324675324675,146.35724671966082,5495.956910620614,0.0,0.0,0.0,0.0,64448.0,64472.0,64546.0,64557.0,64570.0,64591.0,64601.0,64610.0,64781.0,64858.0,0.10070100773209167,-0.16414274842247106,0.05398034323712595,-0.35070258174774493,0.02911993833578595
85,85,65157.81255099787,1750.4332292708598,11.760579475010752,65249.30337500278,-3430.691902971141,5.290616583699609,65279.405142918426,28454.25064724113,8.624137298354544,65303.30135639943,-2229.6219099749705,8.984759884973583,65519.65746019684,4836.35397580207,29.03811398519731,0.9877083851590128,96.0,73.0,65.0,242.0,307.0,23.0,699.0,699.0,23.0,10.0,13.0,0.4347826086956521,142.4150019152538,1950.6038018910665,13.0,6.0,7.0,0.4615384615384615,468.4983516321776,852.1421558276907,22.0,11.0,11.0,0.5,1555.874007675959,25964.768131661294,11.0,4.0,7.0,0.3636363636363636,699.4132334629911,9871.534581325544,76.0,40.0,36.0,0.5263157894736842,132.70483898364606,4654.197795602402,0.0,0.0,0.0,0.0,65148.0,65171.0,65244.0,65255.0,65269.0,65289.0,65299.0,65309.0,65482.0,65551.0,0.08135985968146672,-0.13656089351143305,0.05467984474322516,-0.31369140675104085,0.027439025275571984
86,86,65878.05948641259,1720.589545224631,22.145726609830323,65975.28671818326,-3112.0641585442927,4.4378194628474015,66004.26564007897,29344.32825769687,8.4385626021148,66071.69864360057,-917.7849635613576,10.191861603456228,66242.52525065422,5405.569292541971,32.27460437245566,0.9895213129319166,109.0,71.0,105.0,205.0,310.0,38.0,721.0,725.0,40.0,19.0,21.0,0.475,139.51187211146117,1857.0888368462895,12.0,6.0,6.0,0.5,484.7484536425072,1525.5842753955703,22.0,11.0,11.0,0.5,1580.992277556795,26657.240226200156,14.0,10.0,4.0,0.7142857142857143,122.9655327561492,1061.341687840495,79.0,39.0,40.0,0.4936708860759494,149.3887260308762,5264.419483687215,0.0,0.0,0.0,0.0,65860.0,65898.0,65969.0,65981.0,65994.0,66015.0,66062.0,66074.0,66206.0,66279.0,0.08108376137624808,-0.15576428664287384,0.05387726935415905,-0.13398076634312658,0.027636076414187655
87,87,66656.69864360057,1181.90043178018,10.191861603456228,66755.30135639943,-3495.4104092515836,5.1356854062960755,66784.52045287548,28646.99575814633,8.557988461895953,66807.30135639943,-2001.929429251212,9.137590942210554,67024.61695148256,4744.169671080044,28.109707129121137,0.9856340510308302,97.0,79.0,65.0,249.0,314.0,18.0,779.0,780.0,21.0,7.0,14.0,0.3333333333333333,139.0075718950556,1146.4527143747075,13.0,7.0,6.0,0.5384615384615384,476.3028900910102,834.0210784046028,21.0,11.0,10.0,0.5238095238095238,1604.859354080847,26086.87094423634,11.0,3.0,8.0,0.2727272727272727,763.2380366719427,10865.79703293003,73.0,36.0,37.0,0.4931506849315068,132.84283567528152,4803.213362233134,0.0,0.0,0.0,0.0,66651.0,66669.0,66748.0,66761.0,66774.0,66794.0,66805.0,66813.0,66990.0,67062.0,0.1176136061526623,-0.1362652262035786,0.05602190776407938,-0.3812512197082886,0.028001282602744454
88,88,67503.08537183273,1563.4000689681673,14.75982490135327,67600.48250740216,-3244.4993148404988,4.846506704886976,67629.82695636424,28848.484903342094,8.385658947509562,67692.82194810128,-1161.8578968062925,22.93168860777651,67871.70143837381,5145.174459579518,30.784244185550527,0.9889263683660584,104.0,78.0,106.0,207.0,313.0,26.0,845.0,845.0,32.0,13.0,19.0,0.40625,143.38533435256122,1825.7200943043424,13.0,6.0,7.0,0.4615384615384615,448.1116913598231,783.894071818866,21.0,11.0,10.0,0.5238095238095238,1570.6254691913243,26607.5780615479,26.0,13.0,13.0,0.5,132.96331668488986,1040.3791051945782,72.0,36.0,36.0,0.5,153.0702982016979,5247.513253725911,0.0,0.0,0.0,0.0,67490.0,67516.0,67594.0,67606.0,67619.0,67640.0,67680.0,67700.0,67836.0,67907.0,0.09171378279853505,-0.13811428139625065,0.054443949983985725,-0.11444025732439274,0.029750263942305146
89,89,68371.86024312637,1657.643298238204,27.348894879315427,68468.84748646944,-2728.9328047773215,4.076075520924316,68497.30820463691,29357.337788032673,8.641090782941445,68520.15067819973,-1125.4948947243788,5.095930801728113,68736.63239912842,5543.971403518335,34.0745131477753,0.9907013451649348,107.0,78.0,59.0,251.0,310.0,29.0,870.0,867.0,29.0,15.0,14.0,0.5172413793103449,158.2194174979558,2305.8380456092455,12.0,7.0,5.0,0.5833333333333334,523.4256402276386,2444.321024372962,22.0,11.0,11.0,0.5,1582.827870008007,27573.78334487223,4.0,1.0,3.0,0.25,780.756991238813,10462.643982710968,83.0,41.0,42.0,0.4939759036144578,144.20808296201022,6083.3602530356475,0.0,0.0,0.0,0.0,68357.0,68386.0,68464.0,68474.0,68487.0,68507.0,68519.0,68523.0,68700.0,68774.0,0.09544841020146881,-0.19180598339076718,0.05391591980977364,-0.6937010508874958,0.026011693146629936
90,90,69215.30135639943,1198.2364883669234,10.191861603456228,69311.3197769288,-3136.713581724024,5.348797319581705,69340.85766883199,27422.658235144016,8.551635996495055,69363.30135639943,-2501.6987821009825,8.081988965545445,69588.08212109699,4609.103032036283,28.17386321247099,0.9837394580857256,98.0,83.0,66.0,248.0,314.0,15.0,847.0,844.0,27.0,10.0,17.0,0.3703703703703703,125.8737664935198,1236.6115552784736,13.0,7.0,6.0,0.5384615384615384,430.8549721858402,791.4599124827869,21.0,11.0,10.0,0.5238095238095238,1544.0814560266192,25364.336743124422,14.0,3.0,11.0,0.2142857142857142,783.6654480231941,11146.283997462331,72.0,41.0,31.0,0.5694444444444444,115.31692111549046,4649.2277999772405,0.0,0.0,0.0,0.0,69206.0,69221.0,69304.0,69317.0,69330.0,69351.0,69361.0,69370.0,69547.0,69618.0,0.1050491849610365,-0.13735872305849184,0.05630677532376394,-0.3132533195563434,0.025019384534032407
91,91,69977.69864360057,1357.0781574448547,10.191861603456228,70075.54388160186,-3265.5999631729273,4.896485249765884,70105.0967234815,28158.130560173224,8.486330731508613,70129.30135639943,-1895.48151308868,9.565079532451218,70343.3064335419,5116.815675968131,29.45143935116325,0.9865140848060774,97.0,85.0,66.0,248.0,314.0,12.0,759.0,764.0,27.0,6.0,21.0,0.2222222222222222,140.91373114169627,1550.4448316067594,13.0,7.0,6.0,0.5384615384615384,479.5207055359164,1330.770202109476,21.0,11.0,10.0,0.5238095238095238,1565.1617999133216,25530.094999064662,10.0,4.0,6.0,0.4,653.643267797303,9603.161667696137,78.0,38.0,40.0,0.4871794871794871,134.46742321744452,4924.676570236319,0.0,0.0,0.0,0.0,69972.0,69984.0,70069.0,70082.0,70094.0,70115.0,70125.0,70135.0,70306.0,70383.0,0.10383612054224839,-0.1468400021262873,0.05558471989355294,-0.3448428609214942,0.026279512832363756
92,92,70802.41617963172,1502.9027980182325,15.634913948476475,70898.19947584646,-3469.8714497537776,5.117290786193917,70927.61946760368,28755.49404322068,8.602166349326245,70949.72601729959,-1992.15574129836,7.100863089530206,71169.71338598483,5204.724355948564,29.75513155162676,0.988390914373924,99.0,73.0,63.0,253.0,316.0,26.0,825.0,822.0,31.0,11.0,20.0,0.3548387096774194,133.6674849910017,1656.7438597746088,14.0,7.0,7.0,0.5,487.56335489567016,663.7940437959469,21.0,11.0,10.0,0.5238095238095238,1582.9002021878002,26595.90172605275,6.0,2.0,4.0,0.3333333333333333,806.4908593428024,11509.071772922223,78.0,39.0,39.0,0.5,139.30478664176297,4983.462925130632,0.0,0.0,0.0,0.0,70792.0,70818.0,70891.0,70905.0,70917.0,70938.0,70948.0,70954.0,71132.0,71207.0,0.08893954097847125,-0.140513376923594,0.05504687903496413,-0.40483323799633414,0.026765065182087745
93,93,71668.30502787868,1529.1140765096238,13.814981053607548,71764.33028015729,-3200.144394271388,5.041294968292885,71793.74270159488,28803.183268936697,8.625812738363138,71815.72601729959,-1816.5875634253223,6.904008185304049,72036.96634979184,5530.010662287124,30.98303406687863,0.986426923988048,102.0,78.0,61.0,254.0,315.0,24.0,866.0,867.0,24.0,11.0,13.0,0.4583333333333333,130.35176690769012,1725.6078513156122,14.0,7.0,7.0,0.5,468.2408167618533,1296.2250686281532,21.0,11.0,10.0,0.5238095238095238,1576.9974929282405,26593.54280546951,10.0,2.0,8.0,0.2,787.535400036025,11082.451122799826,75.0,36.0,39.0,0.48,130.36393510501756,5724.114827796218,0.0,0.0,0.0,0.0,71657.0,71681.0,71759.0,71771.0,71783.0,71804.0,71814.0,71820.0,72002.0,72074.0,0.08524659403125293,-0.14631865287080673,0.05475080577739411,-0.4335246017819606,0.0235739030295289
94,94,72549.82194810128,1476.7568631064037,17.01127923466647,72642.79877527466,-2992.1988196920015,4.508945342008944,72671.66921700556,28701.8840591954,8.588323033669012,72694.15067819973,-1698.607982347099,5.095930801728113,72913.31448200111,5418.479537555355,32.987995167589375,0.9901961203641942,100.0,70.0,61.0,255.0,316.0,30.0,879.0,878.0,32.0,14.0,18.0,0.4375,137.75463601295306,1560.7273992855394,13.0,7.0,6.0,0.5384615384615384,502.07198853314515,2151.8995586747824,21.0,11.0,10.0,0.5238095238095238,1560.570929890064,26834.25676335939,5.0,1.0,4.0,0.2,792.8241427702764,10991.74714456985,79.0,37.0,42.0,0.4683544303797468,129.91978951666914,5434.174222815627,0.0,0.0,0.0,0.0,72537.0,72567.0,72637.0,72649.0,72661.0,72682.0,72693.0,72698.0,72876.0,72953.0,0.09328186613142392,-0.16779365904061994,0.054371724402185864,-0.4667493329889863,0.023977167140006365
95,95,73338.69864360057,1289.5001264067769,10.19186160086864,73436.7071599573,-3771.89915162016,5.810468211280254,73466.46747007822,27336.634483835423,8.531807936821764,73489.87669549929,-2603.1857300389793,12.739827004320285,73706.9195895476,4836.118033882932,28.92203584995502,0.9832400868394656,97.0,83.0,67.0,248.0,315.0,14.0,791.0,795.0,22.0,7.0,15.0,0.3181818181818182,165.57219214886376,1358.8832629490728,14.0,7.0,7.0,0.5,485.3171655417949,561.2990093863145,21.0,11.0,10.0,0.5238095238095238,1493.0427493034742,24555.941898003275,15.0,4.0,11.0,0.2666666666666666,658.8068281066256,10056.432255935522,76.0,38.0,38.0,0.5,126.17749369281748,4688.334039890092,0.0,0.0,0.0,0.0,73333.0,73347.0,73430.0,73443.0,73456.0,73476.0,73486.0,73497.0,73673.0,73745.0,0.12840029152244806,-0.12866652739995305,0.054616918925639274,-0.2530771510094137,0.02609065635056662
96,96,74086.12330450071,1408.1660824003616,12.739827004320285,74183.34202892748,-3290.137288824817,4.921067215715097,74212.78570897842,28593.94413124421,8.594451197284782,74235.72601729959,-1955.8797502683735,7.64389620258564,74451.84531201964,5066.791087546433,30.707919902641592,0.9898748574721244,97.0,71.0,65.0,249.0,314.0,26.0,747.0,746.0,28.0,8.0,20.0,0.2857142857142857,132.43718846516975,1783.6256952518029,13.0,7.0,6.0,0.5384615384615384,466.5622950622675,854.0175141130096,21.0,11.0,10.0,0.5238095238095238,1592.800033418816,26408.728916359792,9.0,3.0,6.0,0.3333333333333333,729.2694456707118,10231.06769733081,74.0,35.0,39.0,0.4729729729729729,145.7282933608663,5206.32082754677,0.0,0.0,0.0,0.0,74079.0,74105.0,74176.0,74189.0,74202.0,74223.0,74234.0,74241.0,74418.0,74490.0,0.09404940945560708,-0.14180633028505502,0.05570410385177976,-0.37286006236868396,0.02876145687534839
97,97,74851.82194810128,1722.184119302963,15.283948235843123,74945.48612148818,-3018.915171490945,4.65768441646128,74974.66021580207,29004.85845195465,8.757531592986426,74996.72601729959,-1840.6683790072464,6.5732111433855,75216.53415569612,5348.683796171009,32.32360523011663,0.9908578696931336,101.0,70.0,62.0,253.0,315.0,31.0,764.0,762.0,34.0,14.0,20.0,0.4117647058823529,137.7657276617987,1822.221601591527,11.0,5.0,6.0,0.4545454545454545,484.71898959565976,1300.116761671644,21.0,11.0,10.0,0.5238095238095238,1552.9688335335568,26825.03965219049,7.0,2.0,5.0,0.2857142857142857,807.4705805827988,11332.271965915825,77.0,39.0,38.0,0.5064935064935064,132.23039358284484,5119.045510353066,0.0,0.0,0.0,0.0,74839.0,74870.0,74940.0,74951.0,74964.0,74985.0,74995.0,75002.0,75179.0,75255.0,0.07999477298487576,-0.1605606524400196,0.05354167944332449,-0.4386833553463353,0.02472204351984788
98,98,75642.31318837822,1206.686641737579,10.598779802685382,75738.05250944938,-3589.700190446845,5.371660092959647,75767.70406312752,28383.597694041702,8.698782224039643,75789.72601729959,-2333.504775411407,7.643896202587873,76009.75018997796,5100.859156511245,28.136271295118465,0.987584270714395,96.0,76.0,67.0,245.0,312.0,20.0,793.0,793.0,20.0,7.0,13.0,0.35,142.3778359640373,1275.998497076664,15.0,8.0,7.0,0.5333333333333333,486.5599110713996,1029.451992194185,21.0,11.0,10.0,0.5238095238095238,1551.5280703719768,26045.24970253669,10.0,2.0,8.0,0.2,782.5285876153418,11454.62067808919,72.0,35.0,37.0,0.4861111111111111,130.17057385261006,5143.232906816221,0.0,0.0,0.0,0.0,75635.0,75655.0,75731.0,75745.0,75757.0,75778.0,75788.0,75798.0,75976.0,76043.0,0.1179907285283436,-0.13554332820503115,0.054662840387484576,-0.33534475517727563,0.025519342890784856
99,99,76467.12463010097,1306.9705436299853,13.045063386235272,76563.09994011091,-3479.668462090098,5.252929257662589,76592.39189066231,28685.181634228087,8.559458821897902,76614.15067819973,-2198.531430721107,5.095930801728113,76834.68436112214,5182.362168027099,30.958558149098476,0.9890077921820364,101.0,76.0,62.0,254.0,316.0,25.0,825.0,825.0,27.0,12.0,15.0,0.4444444444444444,141.45238061169275,1287.283642689588,12.0,6.0,6.0,0.5,493.8822088356235,848.7697371655604,21.0,10.0,11.0,0.4761904761904761,1557.7700937169575,26895.331154436873,7.0,1.0,6.0,0.1428571428571428,864.9933846746741,12240.384293284436,78.0,40.0,38.0,0.5128205128205128,122.6174296783774,4986.298526364414,0.0,0.0,0.0,0.0,76456.0,76481.0,76557.0,76569.0,76582.0,76602.0,76613.0,76619.0,76802.0,76873.0,0.10822920325260149,-0.14193369690713814,0.05430574272042175,-0.39344144577044354,0.023660528867486944
100,100,77314.39728720114,1330.335184828862,12.155369186086268,77409.8616222011,-3391.670498436117,5.014681701517245,77439.22641567311,28615.85705510208,8.33460517537444,77503.12330450071,-1202.8256706713755,12.739827004320285,77681.13208560085,5428.299061591608,30.874876510756213,0.9857216460938012,101.0,75.0,106.0,209.0,315.0,26.0,845.0,847.0,29.0,11.0,18.0,0.3793103448275862,135.920904149256,1342.2716426208187,12.0,6.0,6.0,0.5,488.6670184683574,1341.8925305458638,22.0,11.0,11.0,0.5,1548.3795673663033,26219.481702579316,20.0,12.0,8.0,0.6,127.7639051712856,1024.8465498203943,78.0,39.0,39.0,0.5,135.5661291588198,5422.251539692564,0.0,0.0,0.0,0.0,77303.0,77329.0,77404.0,77416.0,77429.0,77449.0,77496.0,77510.0,77643.0,77719.0,0.10217041968016596,-0.1440785650297337,0.05410914530306665,-0.10621980249222003,0.024973961018107768
101,101,78145.39105599631,1633.1442598410365,15.29316502922626,78241.40581955487,-3008.847665173339,4.593396053082724,78271.027373699,27833.953949822742,8.677455214412948,78293.87669549929,-1865.213696711447,7.805472890631736,78513.2327992967,5396.4331446344595,31.59949927179339,0.989202522776768,102.0,77.0,66.0,244.0,310.0,25.0,833.0,832.0,27.0,12.0,15.0,0.4444444444444444,147.40690125910248,1764.5915472567235,11.0,5.0,6.0,0.4545454545454545,458.0745432518359,867.3708368230509,21.0,11.0,10.0,0.5238095238095238,1505.0483920090894,25584.06959616688,11.0,3.0,8.0,0.2727272727272727,677.9638099546858,9772.065233801575,78.0,40.0,38.0,0.5128205128205128,150.3845997728696,5423.064166686672,0.0,0.0,0.0,0.0,78134.0,78159.0,78236.0,78247.0,78260.0,78281.0,78291.0,78302.0,78479.0,78546.0,0.09025957160297061,-0.15224251747735004,0.05407238923806131,-0.36347782087918495,0.02786740718216685
102,102,78903.27398270041,847.0820470928065,6.827877811153357,78997.01840655018,-4021.9981875127105,6.39926470964046,79027.35609075696,27149.94885361353,8.531096705385085,79049.72601729959,-3136.395565786307,7.64389620259217,79266.73404646225,4712.394876704583,27.057576100214757,0.9786005696818456,91.0,84.0,72.0,242.0,314.0,7.0,758.0,755.0,11.0,8.0,3.0,0.7272727272727273,144.9301436780709,1015.5954698154196,16.0,8.0,8.0,0.5,471.36001410946096,489.48159120153014,21.0,11.0,10.0,0.5238095238095238,1534.337269593761,25275.85665569976,13.0,2.0,11.0,0.1538461538461538,751.3228633377614,11855.455257030098,71.0,35.0,36.0,0.4929577464788732,126.60716544045248,5008.681764885719,0.0,0.0,0.0,0.0,78898.0,78905.0,78989.0,79004.0,79017.0,79037.0,79048.0,79061.0,79232.0,79303.0,0.17109339546915495,-0.11719548148303867,0.05651344972569066,-0.2395497785845778,0.02686684133079058
103,103,79633.07085316739,1161.278421286024,11.97701023986896,79728.3892797715,-3548.669448495569,5.0818986989658015,79758.24901247805,28353.475941988836,8.691349621239175,79781.30135639943,-2367.8972832443405,10.191861603456228,79997.19722880395,5084.949250040674,29.975482336134455,0.9865048566883614,97.0,79.0,65.0,247.0,312.0,18.0,731.0,732.0,18.0,8.0,10.0,0.4444444444444444,144.11828320134595,1686.1118690302153,13.0,6.0,7.0,0.4615384615384615,474.76679055945255,498.9263200019432,21.0,11.0,10.0,0.5238095238095238,1565.4673510543084,25831.09794469011,14.0,3.0,11.0,0.2142857142857142,747.1322115625827,10890.491293134572,77.0,38.0,39.0,0.4935064935064935,132.44714861462248,4922.357671015552,0.0,0.0,0.0,0.0,79625.0,79643.0,79722.0,79734.0,79748.0,79768.0,79778.0,79787.0,79963.0,80034.0,0.12410312682960761,-0.13378726800286406,0.05521253740660412,-0.31552560022321163,0.026046896852227785
104,104,80382.14097645514,1344.203549346161,11.669343375136489,80476.87307540503,-3377.5255304087723,4.77569459285523,80506.46047349778,28797.096735993426,8.36763278498477,80570.54796537974,-1031.110775746641,15.28779240518434,80749.65746019685,5207.654441689834,29.37323608642055,0.9867697783704392,100.0,76.0,103.0,207.0,310.0,24.0,747.0,748.0,26.0,12.0,14.0,0.4615384615384615,155.60131927044165,1194.4998792214828,12.0,6.0,6.0,0.5,494.8899119065458,858.3871240378403,21.0,10.0,11.0,0.4761904761904761,1542.311526177387,26697.5161180208,33.0,25.0,8.0,0.7575757575757576,133.07893069856578,634.4829147016394,72.0,40.0,32.0,0.5555555555555556,124.10005742727284,5136.581844426408,0.0,0.0,0.0,0.0,80371.0,80395.0,80471.0,80483.0,80496.0,80517.0,80560.0,80574.0,80710.0,80781.0,0.1157572596398278,-0.14652440298405403,0.05355788259896545,-0.1290636601117873,0.02383031724105787
105,105,81204.92693192333,1125.0455183230197,9.834666314339565,81300.06034448436,-3899.015528053743,5.70977191527751,81329.66457534074,28487.396475570797,8.308374136291867,81378.82194810128,-1774.2516675647923,22.93168860777651,81572.81584619894,5295.437211593924,28.39942670657712,0.9833716859463384,96.0,78.0,106.0,208.0,314.0,18.0,825.0,823.0,18.0,8.0,10.0,0.4444444444444444,111.74490710842323,1221.373284777702,14.0,7.0,7.0,0.5,481.0282872452728,7.971544492013436,21.0,11.0,10.0,0.5238095238095238,1572.4457099309086,26051.949152874942,94.0,14.0,80.0,0.1489361702127659,138.04976177335277,1635.4681498576902,75.0,38.0,37.0,0.5066666666666667,124.70129560714868,4944.161990801486,0.0,0.0,0.0,0.0,81197.0,81215.0,81293.0,81307.0,81319.0,81340.0,81366.0,81399.0,81536.0,81607.0,0.09932478756503021,-0.12337172903883917,0.055197943809268436,-0.07780731690833338,0.02354881960154781
106,106,82045.16873310978,1510.9357847332465,16.336749315049357,82141.8872517342,-3141.1437383383063,4.670361461835632,82170.88444781916,29061.595055021586,8.639413298706007,82193.15067819973,-2069.8915101775106,5.095930801728113,82412.7124176785,5451.868598867977,30.91021091950245,0.9900665830700236,101.0,77.0,61.0,254.0,315.0,24.0,839.0,841.0,31.0,11.0,20.0,0.3548387096774194,134.7345098602779,1597.269347681744,12.0,6.0,6.0,0.5,518.0296400318106,1860.6009322017,21.0,11.0,10.0,0.5238095238095238,1578.9177002445567,26963.022614318237,6.0,1.0,5.0,0.1666666666666666,837.5573841672635,11754.27800042744,77.0,38.0,39.0,0.4935064935064935,141.56108415995732,5338.124549716851,0.0,0.0,0.0,0.0,82035.0,82059.0,82136.0,82148.0,82160.0,82181.0,82192.0,82197.0,82379.0,82451.0,0.08917288955735805,-0.164917521509491,0.054330042699144064,-0.4046383011133931,0.0259656082300573
107,107,82902.13078645674,1875.9159291154808,19.27578893946511,82999.87522035399,-3060.2680144771107,4.393120717156021,83028.78415582972,28759.098380027604,8.698973167689065,83051.15067819973,-1778.4185179181325,5.095930801728113,83270.53415569612,5404.648941830433,33.399699667551324,0.9913776862511936,102.0,76.0,61.0,254.0,315.0,26.0,858.0,858.0,26.0,10.0,16.0,0.3846153846153846,127.84816283024148,2661.1946173934325,11.0,6.0,5.0,0.5454545454545454,507.70716564849135,1603.5440189377412,21.0,11.0,10.0,0.5238095238095238,1567.1497794611664,26675.06057241182,6.0,1.0,5.0,0.1666666666666666,828.7536038801493,11151.267242977816,78.0,38.0,40.0,0.4871794871794871,129.7617697551327,5186.76144530526,0.0,0.0,0.0,0.0,82892.0,82918.0,82994.0,83005.0,83018.0,83039.0,83050.0,83055.0,83234.0,83309.0,0.0681523947027432,-0.16590284355706675,0.054492312615388123,-0.4660059460302471,0.024009287402705068
108,108,83771.34143379146,1771.1819677079184,18.468430226821106,83866.6565058314,-3092.486100340511,4.443969580251245,83895.30361923277,28970.054252592112,8.560874289852771,83918.15067819973,-1400.8158730315924,5.095930801728113,84136.53740774487,5692.003482077237,33.54723688682363,0.9909776922745512,104.0,71.0,60.0,255.0,315.0,33.0,867.0,867.0,39.0,19.0,20.0,0.4871794871794871,148.94891177890332,1855.8175239597945,11.0,6.0,5.0,0.5454545454545454,515.8954991173274,2057.4313586592934,22.0,11.0,11.0,0.5,1565.8560251979168,27137.179385982,5.0,2.0,3.0,0.4,743.2285316111396,10419.64682083366,81.0,41.0,40.0,0.5061728395061729,133.1248549204166,5871.979434366098,0.0,0.0,0.0,0.0,83757.0,83790.0,83861.0,83872.0,83885.0,83905.0,83916.0,83921.0,84098.0,84176.0,0.08409577022267097,-0.1668222531575882,0.05405084890573896,-0.5305683251594463,0.023388048749371823
109,109,84581.60156504792,1522.56187837192,13.35068722408132,84675.87838492738,-3229.7970580865235,4.979078405455746,84705.1154028235,27691.878202752345,8.658628606240475,84728.72601729959,-2123.1975586342637,7.64389620259217,84945.88251134117,5317.7175131508075,30.16080706976976,0.9906707417856816,98.0,79.0,64.0,248.0,312.0,19.0,811.0,809.0,33.0,18.0,15.0,0.5454545454545454,145.82576158624013,1266.1086659029436,13.0,7.0,6.0,0.5384615384615384,484.8137211173581,1195.5138641976337,21.0,11.0,10.0,0.5238095238095238,1527.6370296909126,26120.656309562233,7.0,3.0,4.0,0.4285714285714285,675.8799762755333,9844.677027161208,72.0,36.0,36.0,0.5,147.28294435950278,5410.056117998456,0.0,0.0,0.0,0.0,84571.0,84590.0,84669.0,84682.0,84694.0,84715.0,84726.0,84733.0,84911.0,84981.0,0.0957765747702629,-0.15010655852308674,0.05516552609779564,-0.31833117626147317,0.02769664691576217
110,110,85338.72433517534,1610.272580149681,13.56518546136667,85432.46874349272,-3301.3160245386416,4.706563542197162,85461.71572381096,28312.91643353196,8.573489369100614,85486.72601729959,-1640.239485883752,7.643896202591921,85702.5517388996,5153.49521750843,31.696968149429036,0.9899293921256944,97.0,71.0,65.0,249.0,314.0,26.0,758.0,757.0,27.0,10.0,17.0,0.3703703703703703,136.7956743393123,1844.9156962173115,12.0,6.0,6.0,0.5,475.87436274506183,1000.8323001336088,21.0,11.0,10.0,0.5238095238095238,1547.3117335896163,26091.304788000183,8.0,4.0,4.0,0.5,570.2748450110971,8025.736083525815,72.0,35.0,37.0,0.4861111111111111,128.76232881130167,5523.558210940784,0.0,0.0,0.0,0.0,85329.0,85355.0,85426.0,85438.0,85451.0,85472.0,85483.0,85491.0,85668.0,85740.0,0.08495187462398238,-0.14414686725169404,0.05465038323487869,-0.3476777933460346,0.024985436752487107
111,111,86079.00004545868,1298.4541072016675,11.924018004370184,86173.1698217683,-3490.917967850034,5.31128406120231,86202.69463791422,28432.01666092801,8.733594996425547,86225.30135639943,-2379.201796500689,10.191861603456228,86443.58695412744,4816.957071047797,27.47777863141608,0.9857286850965892,98.0,73.0,65.0,247.0,312.0,25.0,739.0,741.0,27.0,12.0,15.0,0.4444444444444444,129.9832153397469,1093.11063544455,14.0,7.0,7.0,0.5,482.4341672604833,672.5523334347511,21.0,11.0,10.0,0.5238095238095238,1566.6007085861331,26021.81865153064,13.0,2.0,11.0,0.1538461538461538,802.0141790285018,11604.290501111254,69.0,35.0,34.0,0.5072463768115942,138.99397534160474,4847.827798052146,0.0,0.0,0.0,0.0,86068.0,86093.0,86166.0,86180.0,86192.0,86213.0,86223.0,86231.0,86409.0,86478.0,0.10010612975754463,-0.13819693607913738,0.055099880084798734,-0.3370938018826725,0.02885514097209307
112,112,86823.43591013904,1381.5994361052392,13.434577585787252,86920.3021690603,-3432.537056615344,4.955525214130356,86949.69860286314,28920.860472164833,8.615926326971287,86973.15067819973,-1737.2336939172037,5.095930801728113,87191.63471087089,5160.028983593478,28.908421010456404,0.9898808975054988,99.0,75.0,63.0,250.0,313.0,24.0,747.0,747.0,24.0,9.0,15.0,0.375,153.9161282431325,1547.58480263126,14.0,7.0,7.0,0.5,494.6378927809459,997.7326673836652,21.0,11.0,10.0,0.5238095238095238,1565.6052858422431,26702.87985379826,9.0,2.0,7.0,0.2222222222222222,719.4299516980209,10084.83326695935,73.0,35.0,38.0,0.4794520547945205,121.04380760197822,5262.932126969585,0.0,0.0,0.0,0.0,86814.0,86838.0,86913.0,86927.0,86939.0,86960.0,86971.0,86976.0,87158.0,87226.0,0.11140430737075692,-0.14410271021769652,0.054134118428083265,-0.41412387649229465,0.023457970485600357
113,113,87522.9821174256,1806.808692034552,15.9220808254941,87616.64980884692,-3127.4748768764753,4.49785613850512,87645.49839287791,28949.18566164876,8.696098995911372,87668.30135639943,-1853.3382976297617,6.740313635472309,87883.8797777347,5382.597969416919,31.23377714105101,0.99121322016308,97.0,73.0,64.0,247.0,311.0,24.0,699.0,696.0,24.0,10.0,14.0,0.4166666666666667,145.73062559539713,2078.8249747555387,12.0,7.0,5.0,0.5833333333333334,525.194450316972,1713.9005564209403,22.0,11.0,11.0,0.5,1589.6758519725236,26609.08334668602,8.0,2.0,6.0,0.25,779.8469894599992,10744.60142597377,77.0,38.0,39.0,0.4935064935064935,144.88404858652268,5395.355964559884,0.0,0.0,0.0,0.0,87513.0,87537.0,87610.0,87622.0,87635.0,87656.0,87666.0,87674.0,87852.0,87921.0,0.08065636734971512,-0.167929230766996,0.05491262761420232,-0.4207796226179253,0.02691712243970871
114,114,88215.88221712483,1770.4395659720196,10.950267409998414,88309.36219412475,-3605.610678778716,5.373863897467396,88339.15427430076,28131.270512901763,8.594377634458517,88361.72601729959,-1786.789643940576,6.9874232759988955,88577.47930467883,5132.850917208142,30.70071290827125,0.9890015668863886,96.0,73.0,64.0,248.0,312.0,23.0,691.0,693.0,25.0,11.0,14.0,0.44,146.80701183418816,1578.371127967343,14.0,7.0,7.0,0.5,460.1432069302992,68.88987370306631,21.0,11.0,10.0,0.5238095238095238,1560.2306082899383,26559.48838258773,7.0,2.0,5.0,0.2857142857142857,754.1911219784313,10472.923689071404,72.0,34.0,38.0,0.4722222222222222,147.57449992887226,5367.310500582507,0.0,0.0,0.0,0.0,88206.0,88229.0,88302.0,88316.0,88329.0,88349.0,88360.0,88366.0,88544.0,88614.0,0.08292122174392726,-0.12761866100478653,0.05546250062095042,-0.4220928437413272,0.028750981142686472
115,115,88959.69864360057,1209.4997335462765,10.191861603453669,89057.76980771242,-3614.015240985938,5.857084750069149,89087.46345900137,27868.875269207023,8.600780505988899,89108.72601729959,-2411.055687860891,7.643896202583431,89328.58984477572,5010.557012065925,29.02004291383809,0.9855654007517596,96.0,76.0,67.0,245.0,312.0,20.0,744.0,749.0,20.0,6.0,14.0,0.3,145.17401209687964,1437.3789371172031,15.0,8.0,7.0,0.5333333333333333,467.52077865974286,968.3521633077552,22.0,11.0,11.0,0.5,1541.473601175306,25652.131402431645,10.0,2.0,8.0,0.2,813.7187113961269,12005.28096409333,77.0,39.0,38.0,0.5064935064935064,130.45890971370346,4963.512383734036,0.0,0.0,0.0,0.0,88954.0,88974.0,89050.0,89065.0,89077.0,89097.0,89107.0,89117.0,89295.0,89362.0,0.12002814723342405,-0.12936325595909737,0.055311654535212494,-0.3374947810177147,0.026036807763996157
116,116,89745.54040332379,1570.825315199632,12.27295078362352,89840.67930463338,-3225.4380443325463,5.384507118842984,89870.25493180261,28250.977213922444,8.604626487767115,89892.72601729959,-2078.800131547261,6.914811520754921,90113.80813839656,5093.904044388822,30.508407061475985,0.9884028739878477,98.0,73.0,65.0,250.0,315.0,25.0,787.0,782.0,26.0,12.0,14.0,0.4615384615384615,135.39075573969515,1352.8633620926705,14.0,8.0,6.0,0.5714285714285714,489.2662744857217,1022.195502743441,22.0,11.0,11.0,0.5,1527.8905624169024,26305.051718164937,7.0,2.0,5.0,0.2857142857142857,765.816953238792,11161.686234674546,78.0,40.0,38.0,0.5128205128205128,133.43747127742674,4919.185062482683,0.0,0.0,0.0,0.0,89735.0,89760.0,89833.0,89847.0,89860.0,89880.0,89891.0,89898.0,90075.0,90148.0,0.08619084148289824,-0.15168986902272608,0.05408275086724924,-0.3683937390694654,0.026195521178773377
117,117,90509.03254931157,1314.540335911335,11.469189937787892,90607.8959159919,-3548.15023433994,5.221026923382346,90636.77227421146,27410.0929805802,8.526456115885546,90658.7260172996,-2402.813057079662,7.643896202589423,90879.65746019685,4697.851494284132,27.382386763038777,0.9861290633398668,100.0,82.0,66.0,244.0,310.0,18.0,765.0,767.0,18.0,8.0,10.0,0.4444444444444444,128.96757493515142,1907.8154357950136,14.0,8.0,6.0,0.5714285714285714,517.5334031759998,1140.2254417786794,21.0,11.0,10.0,0.5238095238095238,1529.9889743875792,25207.455845725053,11.0,2.0,9.0,0.1818181818181818,785.6615386524342,11559.662568368703,75.0,40.0,35.0,0.5333333333333333,136.13186082990893,4528.606840163546,0.0,0.0,0.0,0.0,90501.0,90519.0,90601.0,90614.0,90626.0,90647.0,90657.0,90667.0,90842.0,90911.0,0.0981084957318877,-0.1458600591844094,0.05581845254853978,-0.3269757238656401,0.028977472147755274
118,118,91222.57859561572,1398.890000383004,9.837595293729764,91316.33078327468,-3420.758891183743,5.903279637042508,91346.8349358,26702.892449470804,8.598783173793539,91369.7260172996,-2697.281671563747,7.64389620259217,91582.7508010234,4768.484186747487,31.800673384468706,0.984936574930452,96.0,83.0,67.0,247.0,314.0,13.0,712.0,710.0,24.0,10.0,14.0,0.4166666666666667,154.3299528749134,1549.3641822561526,14.0,7.0,7.0,0.5,438.0169053866465,108.56679612157336,21.0,11.0,10.0,0.5238095238095238,1495.1340480149595,25120.47156100547,8.0,2.0,6.0,0.25,715.2486975931218,10841.995720111294,77.0,37.0,40.0,0.4805194805194805,135.0001809391065,4791.259884717959,0.0,0.0,0.0,0.0,91213.0,91226.0,91309.0,91323.0,91336.0,91357.0,91368.0,91376.0,91546.0,91623.0,0.11032315109312325,-0.1280467052254221,0.055991464252202756,-0.2651738990160627,0.02831092138552066
119,119,91901.58550405582,1644.1833631973095,14.01324352272044,91996.16094136106,-3217.824926677308,4.832382132376196,92025.82137196072,28527.642656722277,8.69240816919152,92048.7260172996,-2303.7534989038254,7.643896202587302,92263.03880629023,4774.095870129363,31.595554496228043,0.9886993106798444,98.0,73.0,65.0,248.0,313.0,25.0,679.0,679.0,26.0,11.0,15.0,0.4230769230769231,158.17172658904371,1771.2621842594262,13.0,7.0,6.0,0.5384615384615384,489.4151825773749,829.2296034174951,21.0,11.0,10.0,0.5238095238095238,1562.1208809479967,26454.92622572689,7.0,2.0,5.0,0.2857142857142857,743.2662264659814,10912.046449015745,73.0,34.0,39.0,0.4657534246575342,127.77998246292042,5076.931308721174,0.0,0.0,0.0,0.0,91891.0,91916.0,91989.0,92001.0,92015.0,92036.0,92047.0,92054.0,92230.0,92302.0,0.09620078278949377,-0.152095031187026,0.05475814807922439,-0.32263270650251563,0.026765273664154127
120,120,92598.1325965014,1373.5261395319176,10.81537378822593,92693.19453118004,-3649.5889387821576,5.68648570901144,92723.15996825194,28509.31028749399,8.495709184996217,92746.7260172996,-1934.1807306476303,7.64389620259217,92962.64421346856,4901.1111670137725,29.38631669966099,0.9873489186247436,96.0,78.0,65.0,245.0,310.0,18.0,699.0,698.0,18.0,8.0,10.0,0.4444444444444444,137.74741495329695,1558.4154210857605,14.0,7.0,7.0,0.5,450.5858267267982,538.3831995240557,21.0,11.0,10.0,0.5238095238095238,1608.3777596892328,26087.814162580333,8.0,4.0,4.0,0.5,672.4774873628289,9844.165467589684,73.0,35.0,38.0,0.4794520547945205,135.5728347948925,5008.282600033455,0.0,0.0,0.0,0.0,92590.0,92608.0,92686.0,92700.0,92713.0,92733.0,92743.0,92751.0,92929.0,92996.0,0.10028743610240992,-0.12346207594468311,0.056415877601738065,-0.3476807915140693,0.027661652669163282
121,121,93363.10720844269,1274.8993132387334,12.976423808350326,93462.39213844262,-3700.0938485070146,5.604273310439189,93491.9567016544,28413.15263592585,8.653174971461095,93513.7260172996,-2212.4469529286534,7.4750481495470895,93732.71857264292,4939.312252327823,29.31639736760228,0.986524966774783,100.0,81.0,66.0,250.0,316.0,19.0,765.0,768.0,26.0,14.0,12.0,0.5384615384615384,132.49572213442033,1509.6151382760656,15.0,8.0,7.0,0.5333333333333333,483.0538306970565,506.6423107444398,21.0,11.0,10.0,0.5238095238095238,1567.163001301927,26035.687167622775,9.0,2.0,7.0,0.2222222222222222,818.1952507309176,11834.751094401185,77.0,37.0,40.0,0.4805194805194805,128.06653189941545,4689.572341907255,0.0,0.0,0.0,0.0,93355.0,93374.0,93455.0,93469.0,93481.0,93502.0,93512.0,93521.0,93697.0,93771.0,0.103926420509107,-0.13055177800205484,0.05515625180292002,-0.36981462974642565,0.025928008871894993
122,122,94178.69864360055,1030.7661565605013,9.138147062202224,94274.2751753899,-3637.58442769009,6.10805319493647,94304.3469755624,27462.73362955768,8.56617606426321,94325.7260172996,-2748.142348957319,7.64389620259217,94545.57027670824,4926.486092751211,29.82216525303328,0.9854274643529832,94.0,75.0,69.0,245.0,314.0,19.0,812.0,813.0,26.0,12.0,14.0,0.4615384615384615,135.6182540650682,816.5784552331354,15.0,7.0,8.0,0.4666666666666667,445.0344049961933,37.71677358745069,20.0,10.0,10.0,0.5,1530.9643628770546,25390.530843891505,12.0,2.0,10.0,0.1666666666666666,807.6111917985017,12193.321373899116,77.0,39.0,38.0,0.5064935064935064,146.06466831858123,4853.10795989964,0.0,0.0,0.0,0.0,94173.0,94192.0,94267.0,94282.0,94294.0,94314.0,94324.0,94336.0,94513.0,94581.0,0.13157034037439122,-0.12234338854336793,0.055746976376354,-0.2938753125742995,0.029648854288556608
123,123,94911.69864360055,853.8690614455012,10.19186160342698,95009.11736641734,-3786.120293659018,6.076016055341183,95039.3068402676,27289.761221439458,8.562112947260662,95061.87669549928,-3080.8143779067955,12.739827004320285,95279.02047954671,4150.82556932367,27.52689586720887,0.9792389048212936,96.0,84.0,72.0,238.0,310.0,12.0,733.0,735.0,19.0,7.0,12.0,0.3684210526315789,136.837503175538,927.7877295060052,14.0,7.0,7.0,0.5,443.6211795464694,15.465016101743458,21.0,11.0,10.0,0.5238095238095238,1523.8204671167398,24603.123575208545,17.0,4.0,13.0,0.2352941176470588,732.1781211352848,11215.438474964616,73.0,35.0,38.0,0.4794520547945205,120.1360547341718,4276.513742790256,0.0,0.0,0.0,0.0,94906.0,94918.0,95002.0,95016.0,95029.0,95049.0,95059.0,95074.0,95245.0,95312.0,0.1602558393951972,-0.11717038687055051,0.055838541596310916,-0.23765733060255,0.028942689286205445
124,124,95628.90580736657,1518.3296014799912,13.269217409588094,95722.52696658424,-3447.1809065295843,4.827517917686634,95751.70398136978,28758.566285400793,8.520239208016605,95774.30135639945,-1990.8713701125184,7.086468226158171,95989.8243177554,4965.484816116547,30.039243571903263,0.9888057067241012,97.0,73.0,64.0,247.0,311.0,24.0,716.0,712.0,25.0,11.0,14.0,0.44,137.00251961071208,1700.1143734322468,12.0,7.0,5.0,0.5833333333333334,520.1721518963751,1166.5384027274797,21.0,11.0,10.0,0.5238095238095238,1604.524886477894,26441.98112487016,8.0,2.0,6.0,0.25,786.782674958873,10918.34522111963,77.0,38.0,39.0,0.4935064935064935,128.2042791602521,4867.564040929819,0.0,0.0,0.0,0.0,95619.0,95643.0,95716.0,95728.0,95741.0,95762.0,95772.0,95780.0,95956.0,96027.0,0.09023239715353566,-0.15089783971333648,0.055792937330552066,-0.3951951325285301,0.025819085931778018
125,125,96391.30135639945,1137.8170896505706,9.854002979178889,96489.6879183449,-3999.3731894866046,5.687591131404839,96519.33799343056,28340.51388761248,8.582543700363335,96540.7260172996,-2779.8413280008754,7.643896202592157,96759.81026610282,4591.681474353583,27.270307927705513,0.9832111557783908,99.0,85.0,69.0,244.0,313.0,14.0,767.0,768.0,15.0,9.0,6.0,0.6,129.5079025564416,1321.313531280788,14.0,8.0,6.0,0.5714285714285714,529.0295402156212,249.70884343678517,20.0,10.0,10.0,0.5,1564.408637157559,26511.50559033033,12.0,2.0,10.0,0.1666666666666666,825.9551450527684,12671.69585498692,71.0,36.0,35.0,0.5070422535211268,129.72409946994216,4439.489111658526,0.0,0.0,0.0,0.0,96383.0,96397.0,96482.0,96496.0,96509.0,96529.0,96539.0,96551.0,96725.0,96795.0,0.11382137228771466,-0.13227811338194528,0.055200432968908,-0.2971231259615651,0.02825198136989777
126,126,97184.6188986326,1527.4247361449873,14.510052087643482,97282.73498349616,-3486.6268676403447,4.856566467369571,97312.14067471554,28788.50910699023,8.516858189166165,97335.15067819972,-1466.079809530008,5.095930801728113,97551.26932793112,5199.707804994025,32.2804137190804,0.9905879272900756,105.0,76.0,62.0,250.0,312.0,29.0,791.0,793.0,30.0,15.0,15.0,0.5,150.62048661822442,1802.8209797920344,14.0,8.0,6.0,0.5714285714285714,502.3560477786685,1263.9360240603887,21.0,11.0,10.0,0.5238095238095238,1563.31340464719,27082.52542929539,5.0,2.0,3.0,0.4,742.1084797810418,10188.2960828547,72.0,35.0,37.0,0.4861111111111111,138.0227259141946,5714.469433526044,0.0,0.0,0.0,0.0,97171.0,97200.0,97276.0,97289.0,97302.0,97322.0,97333.0,97338.0,97516.0,97588.0,0.09861074202475605,-0.14408081703295356,0.05430338190967996,-0.5061855943701625,0.026544323467874793
127,127,97988.26544141714,1543.1532683722655,15.134067689781611,98085.63564360696,-3299.6334926596633,5.263658825598961,98115.01432733728,27736.358297715768,8.525376452792948,98137.7260172996,-2136.245189259165,7.64389620247417,98360.2327992967,5150.555423914988,31.416612426495288,0.987325374261784,98.0,72.0,65.0,250.0,315.0,26.0,807.0,802.0,32.0,13.0,19.0,0.40625,142.44359737928548,1719.176339697219,14.0,8.0,6.0,0.5714285714285714,493.0485859067047,926.7454196324232,21.0,11.0,10.0,0.5238095238095238,1551.198568622832,25805.02433398093,8.0,2.0,6.0,0.25,726.1117515953649,10642.24485522912,79.0,41.0,38.0,0.5189873417721519,135.9808086720059,4625.375693412784,0.0,0.0,0.0,0.0,97980.0,98006.0,98078.0,98092.0,98104.0,98125.0,98136.0,98143.0,98320.0,98393.0,0.09230683710992395,-0.14942525798805728,0.055926540606831616,-0.3399009417299966,0.02640119316853124
128,128,98725.54796540084,1138.576420708907,7.903358981072992,98818.22362596908,-3841.235575568995,5.579250146080931,98848.32962546677,27672.28176101732,8.593550186551743,98870.87669549928,-2839.794470043271,12.73982700431917,99086.883943554,4423.8069659086805,25.081267643601503,0.97752840471296,94.0,74.0,70.0,236.0,306.0,20.0,732.0,733.0,23.0,12.0,11.0,0.5217391304347826,138.94714693266403,1023.4688528441924,14.0,7.0,7.0,0.5,468.3976938044706,221.4732755667403,21.0,11.0,10.0,0.5238095238095238,1532.5220469918556,25090.312137839486,15.0,3.0,12.0,0.2,716.9647208197878,11494.439741061484,64.0,34.0,30.0,0.53125,140.09818008780374,4573.174799897201,0.0,0.0,0.0,0.0,98717.0,98737.0,98811.0,98825.0,98838.0,98858.0,98868.0,98881.0,99057.0,99117.0,0.12203585495486718,-0.12193933035077853,0.05538112325636841,-0.2524706377109267,0.031669144057922656
129,129,99430.17976123304,1850.113494547003,16.552685862692826,99525.0470016303,-3424.504552400239,5.124816409737024,99554.575526405,28434.79702739535,8.624154975734047,99576.7260172996,-2772.3495190912504,7.64389620259217,99793.80098801176,4897.634694044336,30.55076547619558,0.9852672765032844,99.0,74.0,69.0,244.0,313.0,25.0,706.0,707.0,31.0,11.0,20.0,0.3548387096774194,151.67390486288852,2030.7907702061304,13.0,7.0,6.0,0.5384615384615384,496.860300816917,791.9668219602322,20.0,11.0,9.0,0.55,1567.6071818920966,25994.90286173844,12.0,2.0,10.0,0.1666666666666666,779.829052893588,11990.052864079,73.0,36.0,37.0,0.4931506849315068,131.04725929224026,5182.561056732625,0.0,0.0,0.0,0.0,99419.0,99444.0,99518.0,99531.0,99544.0,99564.0,99575.0,99587.0,99758.0,99831.0,0.0819808651252639,-0.14508968909638828,0.05512988822750498,-0.2812881447751972,0.026757254772716607
130,130,100168.69864360055,1276.33334193603,10.191861603456228,100265.07012385906,-3737.698922455684,5.070929736602926,100294.6099837036,28581.478011271935,8.268948139661656,100359.82194810128,-1493.881137758973,22.93168860777651,100536.65746019685,4838.01493594522,27.117077022333287,0.9844262716046142,96.0,76.0,128.0,181.0,309.0,20.0,738.0,740.0,23.0,9.0,14.0,0.391304347826087,139.89728370504878,1295.4052619288996,13.0,6.0,7.0,0.4615384615384615,490.7057487686917,401.1358851414684,21.0,11.0,10.0,0.5238095238095238,1562.739709392784,25529.693210041667,93.0,27.0,66.0,0.2903225806451613,127.64947705027453,1333.1965571826886,66.0,34.0,32.0,0.5151515151515151,142.76741822836144,4834.495083646525,0.0,0.0,0.0,0.0,100163.0,100183.0,100259.0,100272.0,100284.0,100305.0,100347.0,100387.0,100503.0,100568.0,0.10960873551484833,-0.13128552057004525,0.05467665838612238,-0.08544821527217773,0.029509503405546735
131,131,100963.53296583936,1634.023777559447,15.118779451430424,101061.92020320386,-3614.091749461721,4.9851169391501475,101091.44090902954,28993.383555841017,8.59320960056322,101113.15067819972,-1810.2527106627804,5.095930801728113,101334.80813839656,5264.386740122908,31.391431830589035,0.9905237100150444,100.0,75.0,62.0,252.0,314.0,25.0,799.0,797.0,31.0,14.0,17.0,0.4516129032258064,143.79451945679466,1921.5714063202083,13.0,7.0,6.0,0.5384615384615384,516.4674364989988,624.2227390906125,21.0,10.0,11.0,0.4761904761904761,1566.31461142714,27279.273044939306,5.0,1.0,4.0,0.2,850.1238042276138,12043.284358140309,78.0,40.0,38.0,0.5128205128205128,151.35776443010954,5231.5383587345095,0.0,0.0,0.0,0.0,100955.0,100980.0,101055.0,101068.0,101081.0,101101.0,101112.0,101117.0,101296.0,101369.0,0.08800026133742311,-0.14290379777323609,0.05402317423250829,-0.4696160923942832,0.028751262379058378
132,132,101768.46913622128,1355.9814625955598,13.543673753403002,101864.30135639945,-3367.444475492815,4.912293893326119,101893.28970279018,28903.520973704377,8.301803332566632,101961.69864360055,-911.1954031714132,10.191861603456228,102133.1012440413,5278.181846231291,31.277076201522984,0.9894036642691388,98.0,78.0,106.0,207.0,313.0,20.0,804.0,802.0,32.0,14.0,18.0,0.4375,123.02745472971512,1580.9270566533444,13.0,7.0,6.0,0.5384615384615384,481.6804273317056,1110.63852930037,22.0,11.0,11.0,0.5,1584.061139068271,26246.13471671073,33.0,12.0,21.0,0.3636363636363636,123.1244544438423,1049.573675046478,77.0,39.0,38.0,0.5064935064935064,134.98137656872368,4996.5821827538,0.0,0.0,0.0,0.0,101760.0,101780.0,101858.0,101870.0,101883.0,101903.0,101951.0,101964.0,102096.0,102171.0,0.09072945178337571,-0.14304034731299115,0.054805127046957565,-0.1351240952437951,0.025573460805467057
133,133,102519.60271279886,1230.7374279138417,11.06268739573988,102613.53650343826,-3467.018755674195,5.543357115558354,102643.1957603948,27225.537201436782,8.632392305831466,102665.30135639945,-2374.124861426419,10.191861603455902,102881.24437158514,4749.770719618802,28.760555619749223,0.9859935102096852,95.0,75.0,68.0,244.0,312.0,20.0,753.0,749.0,24.0,13.0,11.0,0.5416666666666666,145.59281168788164,1211.052059434319,14.0,8.0,6.0,0.5714285714285714,482.76932650235386,1394.726180316425,21.0,11.0,10.0,0.5238095238095238,1495.3360121355263,25381.6570899075,14.0,2.0,12.0,0.1428571428571428,766.1120390274724,11360.248346571823,72.0,35.0,37.0,0.4861111111111111,134.1690391450196,5046.014849472931,0.0,0.0,0.0,0.0,102511.0,102531.0,102606.0,102620.0,102632.0,102653.0,102663.0,102674.0,102847.0,102918.0,0.1182972162751793,-0.1392462402207209,0.05492402229097659,-0.32269239561695917,0.028247476997329143
134,134,103223.69864360055,1337.6316728622196,8.572373349888897,103319.301906026,-3422.0049437620783,5.558161901124518,103349.44440367566,28272.871166722776,8.576656392235643,103371.87669549928,-2126.848923152651,12.739827004320285,103586.53201817408,4726.140194965632,30.658723290007273,0.9876134899154412,95.0,76.0,67.0,243.0,310.0,19.0,699.0,707.0,19.0,6.0,13.0,0.3157894736842105,136.41418223141198,1663.9355218967648,13.0,6.0,7.0,0.4615384615384615,445.21484274853185,488.3936063261781,21.0,11.0,10.0,0.5238095238095238,1543.2374737774342,25582.79047055737,11.0,3.0,8.0,0.2727272727272727,710.4034292114462,10662.31096300202,71.0,35.0,36.0,0.4929577464788732,143.37277814028252,5083.721689803154,0.0,0.0,0.0,0.0,103218.0,103237.0,103313.0,103326.0,103339.0,103359.0,103369.0,103380.0,103553.0,103623.0,0.10198187213937411,-0.13010350658905603,0.05458368429145702,-0.3340168742020508,0.03033612466532536
135,135,103925.96652718168,1338.1181187175328,12.310895409157856,104020.30135639945,-3549.4447879681693,5.356199506374041,104049.82573417955,28996.654176563876,8.582967412472811,104074.30135639945,-1916.2865311092105,10.191861601333898,104289.80813839656,4698.811435304572,29.56343937194804,0.9876498721693152,95.0,77.0,67.0,244.0,311.0,18.0,704.0,700.0,18.0,8.0,10.0,0.4444444444444444,127.65386905649632,1977.4685237596875,14.0,8.0,6.0,0.5714285714285714,485.2328324374951,1122.792440133207,21.0,11.0,10.0,0.5238095238095238,1611.256110651107,26417.24605869579,10.0,4.0,6.0,0.4,645.1666851721242,9450.172149008627,77.0,40.0,37.0,0.5194805194805194,117.21428153243318,4956.094311068429,0.0,0.0,0.0,0.0,103918.0,103936.0,104013.0,104026.0,104039.0,104060.0,104070.0,104080.0,104251.0,104324.0,0.09539805736943552,-0.13670668553074183,0.055566966479649274,-0.3366754786919471,0.02494551721138294
136,136,104655.90617889423,1614.6001075635816,11.783714117837208,104751.78266914464,-3416.493063393807,4.688947436627649,104780.63791019254,29201.744445444816,8.558081416278231,104802.15067819972,-2136.6909565317414,5.095930801728113,105019.38347809728,5109.996854662825,31.535925379335104,0.9897801961566688,98.0,78.0,64.0,246.0,310.0,20.0,733.0,731.0,20.0,9.0,11.0,0.45,142.77076587679085,1764.7297763992433,13.0,7.0,6.0,0.5384615384615384,509.00232787368026,1610.3884897871612,21.0,11.0,10.0,0.5238095238095238,1607.8564814076856,26703.710817271553,9.0,1.0,8.0,0.1111111111111111,863.5374056491023,12131.559449663016,76.0,36.0,40.0,0.4736842105263157,140.9129540213133,5395.223778853249,0.0,0.0,0.0,0.0,104647.0,104667.0,104745.0,104758.0,104770.0,104791.0,104801.0,104809.0,104983.0,105055.0,0.08842484600860753,-0.14898386106133574,0.055060288758142846,-0.4041470775215845,0.027575937525818932
