Unnamed: 0,cycle,p_center,p_height,p_width,q_center,q_height,q_width,r_center,r_height,r_width,s_center,s_height,s_width,t_center,t_height,t_width,r_squared,pr_interval,pr_segment,qrs_duration,st_segment,qt_interval,p_duration,pp_interval,rr_interval,fwhm_p,rise_time_p,decay_time_p,rise_decay_symmetry_p,sharpness_deriv_p,sharpness_diff_p,fwhm_q,rise_time_q,decay_time_q,rise_decay_symmetry_q,sharpness_deriv_q,sharpness_diff_q,fwhm_r,rise_time_r,decay_time_r,rise_decay_symmetry_r,sharpness_deriv_r,sharpness_diff_r,fwhm_s,rise_time_s,decay_time_s,rise_decay_symmetry_s,sharpness_deriv_s,sharpness_diff_s,fwhm_t,rise_time_t,decay_time_t,rise_decay_symmetry_t,sharpness_deriv_t,sharpness_diff_t,Average_Heart_Rate,SDNN,RMSSD,NN50,p_on,p_off,q_on,q_off,r_on,r_off,s_on,s_off,t_on,t_off,sharpness_deriv_p_norm,sharpness_deriv_q_norm,sharpness_deriv_r_norm,sharpness_deriv_s_norm,sharpness_deriv_t_norm
0,0,0.0,0.0,0.0,0.0,0.0,0.0,0.0,0.0,0.0,0.0,0.0,0.0,0.0,0.0,0.0,0.0,0.0,0.0,0.0,0.0,0.0,0.0,0.0,0.0,0.0,0.0,0.0,0.0,0.0,0.0,0.0,0.0,0.0,0.0,0.0,0.0,0.0,0.0,0.0,0.0,0.0,0.0,0.0,0.0,0.0,0.0,0.0,0.0,0.0,0.0,0.0,0.0,0.0,0.0,65.48375015948606,313.4002451856008,441.06432111191856,628.0,,,,,,,,,,,,,,,
1,1,1335.0170752546503,1556.0747869508994,13.430539845945855,1450.4520345991425,-1064.0507156182923,15.287792405180992,1486.5551236789677,45562.22452944133,10.11507734034281,1510.452034599136,-8415.317510755078,5.8172586353414015,1723.684833895824,7415.953190471159,37.03779903359825,0.9926085732430782,55.0,17.0,147.0,246.0,393.0,38.0,,,38.0,18.0,20.0,0.4736842105263157,33.47099383247138,1454.4146756345654,88.0,79.0,9.0,0.8977272727272727,178.2561400201763,1455.5443588008493,25.0,13.0,12.0,0.52,2125.0387540933584,42223.40716707133,13.0,3.0,10.0,0.2307692307692307,1505.2392198595378,20738.829941959186,88.0,45.0,43.0,0.5113636363636364,57.676526998459245,8120.912164030219,0.0,0.0,0.0,0.0,1317.0,1355.0,1372.0,1459.0,1474.0,1499.0,1507.0,1519.0,1683.0,1765.0,0.021509887643676298,-0.16752598104931143,0.0466403643816865,-0.17886897528652818,0.007777358556222881
2,2,2151.5290411324486,1304.4178097934855,10.975162496238047,2269.4520345991364,-1587.9346130235244,15.28779240518434,2305.3465814939987,40622.625039619634,10.027244251604122,2328.4520345991364,-9605.747802897966,6.369891421785049,2538.288946635361,7251.2472050124625,34.30635784458638,0.9878728825597808,47.0,13.0,156.0,241.0,397.0,34.0,817.0,819.0,34.0,17.0,17.0,0.5,34.592605164446,1156.8934919790947,96.0,87.0,9.0,0.90625,156.4805457821515,902.5366236024198,24.0,12.0,12.0,0.5,1967.514893581139,38819.2445205845,14.0,3.0,11.0,0.2142857142857142,1485.8156508209286,21165.339018889736,83.0,41.0,42.0,0.4939759036144578,61.22243654719535,7899.961741971746,0.0,0.0,0.0,0.0,2135.0,2169.0,2182.0,2278.0,2293.0,2317.0,2325.0,2338.0,2500.0,2579.0,0.026519574406855633,-0.09854344410580168,0.048433967319005185,-0.15467985224145397,0.008443021568051772
3,3,2948.6432941327166,909.5480040377264,9.288543428328977,3066.0273736989925,-2101.551456464787,17.8357578060484,3102.9084581920774,44035.426221063695,10.131896126266495,3126.4520345991364,-9296.190494910396,6.387028554119402,3338.193682104996,7021.924988259784,31.317346841188236,0.9901521312906912,44.0,14.0,158.0,240.0,398.0,30.0,799.0,797.0,30.0,15.0,15.0,0.5,29.885527521048868,812.9789356387598,98.0,88.0,10.0,0.8979591836734694,158.50292523293555,408.42589971948337,24.0,12.0,12.0,0.5,2093.0906996025287,41364.87244531514,14.0,3.0,11.0,0.2142857142857142,1512.102921664448,21679.775240667623,77.0,38.0,39.0,0.4935064935064935,60.9018386536932,7582.196072456128,0.0,0.0,0.0,0.0,2934.0,2964.0,2978.0,3076.0,3091.0,3115.0,3123.0,3136.0,3302.0,3376.0,0.03285755934637758,-0.0754218626174245,0.04753197321390589,-0.16265834080017127,0.008673097299603347
4,4,3704.715324963034,1655.2593110792554,12.520784035112008,3825.027373698993,-1346.4131366655552,17.8357578060484,3862.501019755334,45005.16311114949,10.166396201243916,3885.87669549928,-9216.60903355802,6.18506845845208,4094.5732868995874,7685.045784121169,34.93027568685488,0.9929448635610592,52.0,16.0,156.0,240.0,396.0,36.0,754.0,760.0,37.0,18.0,19.0,0.4864864864864865,36.56567263971875,1534.1448181841015,97.0,87.0,10.0,0.8969072164948454,142.22536635894488,751.3884630385643,24.0,13.0,11.0,0.5416666666666666,2129.8307532571575,41226.019797279296,13.0,3.0,10.0,0.2307692307692307,1505.2649750244505,21212.480979702043,82.0,41.0,41.0,0.5,62.68050310931758,8404.155657958001,0.0,0.0,0.0,0.0,3687.0,3723.0,3739.0,3835.0,3850.0,3874.0,3883.0,3895.0,4057.0,4135.0,0.022090600786820132,-0.10563278275134151,0.04732414252109481,-0.16332091005962435,0.008156165216195322
5,5,4491.414715274279,1595.294074916077,12.266219684092915,4615.452034599137,-1301.2506369534906,15.28779240518434,4651.506291154076,41667.06947758264,10.108358999448784,4674.452034599137,-9831.910215414971,6.389705248002283,4882.00023700311,7735.749674895646,36.39534344831347,0.9881939208205446,50.0,14.0,160.0,242.0,402.0,36.0,785.0,789.0,36.0,17.0,19.0,0.4722222222222222,38.8955973936809,1547.4973920138227,100.0,91.0,9.0,0.91,158.3303299910746,1161.1595734375844,24.0,13.0,11.0,0.5416666666666666,2025.5788585738703,37750.94987842823,14.0,3.0,11.0,0.2142857142857142,1534.1823259835996,21631.506237701175,88.0,42.0,46.0,0.4772727272727273,58.200542961692584,8307.974578331628,0.0,0.0,0.0,0.0,4474.0,4510.0,4524.0,4624.0,4639.0,4663.0,4671.0,4684.0,4842.0,4926.0,0.02438145919630966,-0.12167550623587794,0.048613422637357656,-0.15604112449869917,0.007523581476604295
6,6,5270.729499900927,1791.023119459057,12.659288826356192,5394.876695499281,-1207.0741066284902,12.739827004320285,5429.436606963644,40990.773848313176,9.94451487974362,5452.876695499281,-8718.997920432292,5.99954808469921,5661.5455231065425,6621.690742096087,36.23092435471582,0.9926389472908675,52.0,17.0,157.0,241.0,398.0,35.0,784.0,778.0,35.0,18.0,17.0,0.5142857142857142,46.32999817026875,1713.2984132911738,97.0,90.0,7.0,0.9278350515463918,238.1173201822546,2105.365734722953,24.0,12.0,12.0,0.5,1955.733653463837,39608.00768059953,13.0,4.0,9.0,0.3076923076923077,1396.2629345787366,19664.20458600116,84.0,42.0,42.0,0.5,54.71266613673894,7320.216986290091,0.0,0.0,0.0,0.0,5253.0,5288.0,5305.0,5402.0,5417.0,5441.0,5450.0,5462.0,5623.0,5703.0,0.025867895096888426,-0.19726818666282736,0.04771155725678787,-0.16014029907114707,0.008262642921227656
7,7,6062.663419805161,1107.7087514127372,10.485075269723811,6186.027373698993,-1823.5224505488404,17.8357578060484,6222.493551461705,43455.01490171598,10.098139482279846,6245.876695499281,-9024.187530436597,6.199405020637285,6457.199774918271,6768.153825568009,31.66895038948064,0.991204105992289,46.0,14.0,162.0,240.0,402.0,32.0,792.0,793.0,33.0,16.0,17.0,0.4848484848484848,31.14507406748096,993.785455462199,103.0,93.0,10.0,0.9029126213592232,170.31942037589073,701.537038708339,24.0,12.0,12.0,0.5,2052.7158741328285,42193.17953969189,13.0,3.0,10.0,0.2307692307692307,1456.969656028076,20672.175704452253,77.0,38.0,39.0,0.4935064935064935,58.43363079027658,7306.403230372383,0.0,0.0,0.0,0.0,6047.0,6079.0,6093.0,6196.0,6210.0,6234.0,6243.0,6255.0,6421.0,6495.0,0.028116663362783314,-0.09340132901825711,0.047237721095609836,-0.16145161557359466,0.008633614468030003
8,8,6918.83229699025,1224.562320955425,10.649845343921786,7046.027373698993,-1799.6925352633452,17.8357578060484,7082.53959146192,43228.021201092335,10.100128129931091,7105.876695499281,-9622.257776546548,6.410216563118844,7317.534155696113,6955.043859731253,32.24428027632299,0.9893371710647356,47.0,14.0,165.0,241.0,406.0,33.0,853.0,860.0,33.0,16.0,17.0,0.4848484848484848,34.49272783202887,1108.1925900669153,106.0,96.0,10.0,0.9056603773584906,164.65320364752844,786.9023034966315,24.0,13.0,11.0,0.5416666666666666,2085.445348515705,39495.42807099499,13.0,3.0,10.0,0.2307692307692307,1479.715720972816,21300.07274525608,79.0,40.0,39.0,0.5063291139240507,61.57561861679266,7569.013531301269,0.0,0.0,0.0,0.0,6903.0,6936.0,6950.0,7056.0,7070.0,7094.0,7103.0,7115.0,7280.0,7356.0,0.028167392742508224,-0.09148962971246369,0.04824290565636642,-0.15378051132443155,0.008853376033083992
9,9,8135.746644627651,1562.8160626497113,14.636757659131316,8251.876695499283,-1231.579460585191,12.739827004320285,8286.970779275734,43316.52231142478,10.082050050094846,8310.452034599139,-8670.577382470019,6.042508136989513,8530.393284068185,6185.970035042465,36.37625102831684,0.9944967662294084,61.0,20.0,142.0,253.0,395.0,41.0,1217.0,1204.0,42.0,20.0,22.0,0.4761904761904761,28.137089327035767,1495.8352937246611,84.0,77.0,7.0,0.9166666666666666,233.06264258584443,2195.8452444039067,24.0,12.0,12.0,0.5,2045.1252053690184,40948.8351818363,13.0,3.0,10.0,0.2307692307692307,1484.4987168729942,20756.095574828672,87.0,43.0,44.0,0.4942528735632184,54.060948458787216,6799.342486988349,0.0,0.0,0.0,0.0,8116.0,8157.0,8177.0,8259.0,8275.0,8299.0,8307.0,8319.0,8491.0,8572.0,0.018004095299180706,-0.1892388189675586,0.047213513371769794,-0.17121105681777557,0.008739283920313414
10,10,9236.080463382152,1780.3398194633994,15.573464856668718,9351.301356400056,-844.5265639128404,10.191861603456156,9386.052073730125,44632.41582258094,10.029866333942758,9409.876695499284,-8327.51295531968,5.757222441057962,9624.395672314577,6912.642034021952,39.19873239159171,0.9933863831847962,60.0,18.0,142.0,251.0,393.0,42.0,1101.0,1100.0,42.0,20.0,22.0,0.4761904761904761,31.37005830775256,1721.8328070919947,82.0,76.0,6.0,0.926829268292683,230.7885779799724,2555.2985872042923,24.0,12.0,12.0,0.5,2080.8550106608154,42494.91244301821,12.0,3.0,9.0,0.25,1438.1202236541628,19851.538124915933,93.0,46.0,47.0,0.4946236559139785,57.97295924307476,7572.453936308286,0.0,0.0,0.0,0.0,9216.0,9258.0,9276.0,9357.0,9374.0,9398.0,9407.0,9418.0,9583.0,9669.0,0.017620264381441295,-0.27327568822783765,0.04662205646524842,-0.172695044891582,0.008386512560284365
11,11,10162.899356745607,1515.279907173029,13.727776830910466,10276.027373698991,-1124.6372553366382,17.8357578060484,10313.83897368079,43262.45969043341,10.0598436247813,10337.45203459914,-8994.250956534237,6.031627757745033,10549.331425792105,7762.058980613209,36.69726025209744,0.9905091326473298,54.0,13.0,149.0,246.0,395.0,41.0,924.0,927.0,41.0,20.0,21.0,0.4878048780487805,26.076636594025512,1409.7308972479282,89.0,79.0,10.0,0.8876404494382022,119.10999424880488,696.1915205482304,25.0,13.0,12.0,0.52,2051.533463382006,40484.933744293005,13.0,3.0,10.0,0.2307692307692307,1495.3991900084968,20914.05547169444,87.0,43.0,44.0,0.4942528735632184,62.36155105756713,8478.183361192383,0.0,0.0,0.0,0.0,10143.0,10184.0,10197.0,10286.0,10301.0,10326.0,10334.0,10346.0,10510.0,10592.0,0.017209121872852656,-0.10590969993533748,0.0474206385411706,-0.16626167061995348,0.00803415063107914
12,12,11001.26339523606,874.4488160667639,9.340088622601236,11114.60271279885,-2022.329141835711,20.383723206912453,11153.065158134588,42266.67204116802,10.118003546709078,11176.45203459914,-9672.716304193516,6.470421086704689,11388.165123824783,7218.640898387604,32.04735219137133,0.987555408398632,44.0,14.0,155.0,241.0,396.0,30.0,842.0,839.0,30.0,14.0,16.0,0.4666666666666667,28.26686768433065,802.8189410405737,97.0,85.0,12.0,0.8762886597938144,113.2965290910654,135.93449131224065,24.0,12.0,12.0,0.5,2023.2977930923307,39780.68163582505,14.0,3.0,11.0,0.2142857142857142,1501.320601550004,21582.40067359384,80.0,40.0,40.0,0.5,59.42463989664866,7743.413030173218,0.0,0.0,0.0,0.0,10987.0,11017.0,11031.0,11126.0,11141.0,11165.0,11173.0,11186.0,11351.0,11427.0,0.032325354171641396,-0.05602279408792168,0.047869815516150056,-0.15521189233050497,0.008232109164749016
13,13,11788.526621317333,1322.8011740269696,11.306949858028732,11904.027373698991,-1762.9053123644933,17.8357578060484,11940.818892158824,42963.68557630012,10.200076254801544,11963.876695499284,-9597.23481368933,6.453748998430942,12175.647847687,7339.865969946175,32.510423703394615,0.99144503379945,48.0,14.0,154.0,240.0,394.0,34.0,787.0,788.0,36.0,18.0,18.0,0.5,30.449836710741017,1162.327422120297,94.0,84.0,10.0,0.8936170212765957,159.7158926535461,738.8890450695128,25.0,13.0,12.0,0.52,2055.6040327508044,39908.907762137314,13.0,3.0,10.0,0.2307692307692307,1488.5147254467158,21260.679165005033,78.0,39.0,39.0,0.5,61.01921368491379,7958.121699037427,0.0,0.0,0.0,0.0,11772.0,11806.0,11820.0,11914.0,11928.0,11953.0,11961.0,11974.0,12139.0,12214.0,0.023019209015398258,-0.09059811184035033,0.047845151205666785,-0.1550982917833295,0.008313396175728977
14,14,12478.333241533188,1530.8108470899986,11.6071107620232,12599.60271279885,-1861.809908079075,20.383723206912453,12638.000577239833,44867.08889332185,10.169219952491744,12661.45203459914,-9642.290007304053,6.405265554756932,12869.2046211118,7550.289202910681,32.15649290774913,0.991522408391696,48.0,14.0,161.0,237.0,398.0,34.0,691.0,697.0,34.0,16.0,18.0,0.4705882352941176,38.81647234491858,1466.3362918166354,101.0,90.0,11.0,0.8910891089108911,122.30711475764431,125.07772794656626,24.0,12.0,12.0,0.5,2122.738767404775,42235.24002159149,14.0,3.0,11.0,0.2142857142857142,1558.1285113923564,22205.642612418033,79.0,39.0,40.0,0.4936708860759494,62.75487118450189,8159.84475636676,0.0,0.0,0.0,0.0,12462.0,12496.0,12510.0,12611.0,12626.0,12650.0,12658.0,12671.0,12832.0,12908.0,0.025356805132852905,-0.06569258989701846,0.04731171154098945,-0.1615932014295433,0.00831158509270208
15,15,13757.792930675176,1191.144474778825,13.207618740979202,13870.45203459914,-959.7765950240048,15.28779240518434,13906.928366391392,44217.62711865416,10.09200980613042,13930.45203459914,-8832.252400504234,5.998132427250703,14151.576688708676,7055.072596933697,37.32568452637297,0.9933643656533656,54.0,16.0,146.0,256.0,402.0,38.0,1278.0,1269.0,38.0,19.0,19.0,0.5,26.042104533919535,1132.6297193602386,88.0,79.0,9.0,0.8977272727272727,155.39276672029504,1228.485365229908,25.0,13.0,12.0,0.52,2080.8371297644967,41667.184293926985,13.0,3.0,10.0,0.2307692307692307,1516.2972519502807,21056.077210493553,89.0,45.0,44.0,0.5056179775280899,54.283181281341726,7669.136770695828,0.0,0.0,0.0,0.0,13739.0,13777.0,13793.0,13879.0,13894.0,13919.0,13927.0,13939.0,14111.0,14195.0,0.021863094767538675,-0.16190514284879862,0.047058995820394224,-0.17167730078272164,0.007694205911493312
16,16,14862.220101873854,944.0160933024168,11.350758894226102,14978.45203459914,-1369.01248856109,15.28779240518434,15014.122560489746,45615.36508981424,10.160995386784828,15037.876695499284,-8659.292664127232,5.994629882665793,15254.976352810916,7048.624106934457,34.98325473106982,0.9928577640691526,49.0,15.0,152.0,249.0,401.0,34.0,1105.0,1108.0,34.0,16.0,18.0,0.4705882352941176,24.608163601106742,910.5762464808246,92.0,83.0,9.0,0.9021739130434784,196.75310240766368,1523.4984574320831,24.0,12.0,12.0,0.5,2116.1772333912218,43680.45642186242,12.0,3.0,9.0,0.25,1469.9258111660097,20569.116808909643,85.0,42.0,43.0,0.4941176470588235,56.09124809830543,7641.947256924032,0.0,0.0,0.0,0.0,14846.0,14880.0,14895.0,14987.0,15002.0,15026.0,15035.0,15047.0,15216.0,15296.0,0.02606752551751624,-0.14371899749027298,0.04639176359160079,-0.16975125661885263,0.007957758457160838
17,17,15943.430511476094,1294.0278878746456,14.65039516510518,16062.123304500716,-982.360305394709,7.999073921329006,16094.459712762537,46449.276328570704,10.22334149686611,16117.876695499284,-8414.847909110362,5.871823679818206,16334.668970664754,7588.168147226915,37.925477472702944,0.9934057896189452,124.0,84.0,79.0,251.0,330.0,40.0,1079.0,1080.0,40.0,19.0,21.0,0.475,25.76489629349805,1294.7964624023855,18.0,14.0,4.0,0.7777777777777778,399.9689553730475,5030.055382312636,25.0,12.0,13.0,0.48,2125.921442580732,45255.70676565784,12.0,3.0,9.0,0.25,1505.5780887100882,20609.364001312628,88.0,44.0,44.0,0.5,59.30573395704326,8339.710158932603,0.0,0.0,0.0,0.0,15924.0,15964.0,16048.0,16065.0,16082.0,16107.0,16115.0,16127.0,16294.0,16378.0,0.01991061903296008,-0.4071509742164728,0.04576866661048687,-0.17891922765235832,0.007815553478307733
18,18,16969.537479328883,1644.8012742692629,22.134229945535367,17090.27398270043,-546.2528584896016,5.759532373633883,17122.570750546274,43354.98279196821,10.061796161461965,17145.876695499283,-8762.981053354022,5.842973696232041,17359.83551209554,7478.006035944928,38.89922364737016,0.9913704870352188,136.0,88.0,71.0,249.0,320.0,48.0,1030.0,1028.0,49.0,23.0,26.0,0.4693877551020408,27.358393980107756,1789.6700804944603,8.0,6.0,2.0,0.75,345.64885030819374,4630.350873422629,24.0,13.0,11.0,0.5416666666666666,2052.3726058464385,39848.07404532608,12.0,3.0,9.0,0.25,1475.2918381268366,20119.64338713847,92.0,46.0,46.0,0.5,56.91536918538562,8200.747317843161,0.0,0.0,0.0,0.0,16948.0,16996.0,17084.0,17092.0,17110.0,17134.0,17143.0,17155.0,17319.0,17404.0,0.016633251936324218,-0.6327634628108284,0.047338794151860535,-0.168355018588357,0.0076110354701249905
19,19,18019.397287201147,384.3937791653446,6.760138425031545,18130.602712798853,-1860.75692121308,20.383723206912453,18169.003112871313,45907.50634521177,10.231912211317535,18192.876695499283,-9029.607437036322,6.3423500854922255,18412.60032930074,7069.932717933007,31.82945535510636,0.9934685220052446,40.0,17.0,154.0,249.0,403.0,23.0,1045.0,1046.0,23.0,11.0,12.0,0.4782608695652174,28.460169074013173,384.5069200455399,95.0,84.0,11.0,0.8842105263157894,138.6177468954376,166.38921941671867,24.0,12.0,12.0,0.5,2129.0991795051723,43488.31882802106,13.0,3.0,10.0,0.2307692307692307,1466.799617856673,21129.278826085316,78.0,39.0,39.0,0.5,57.624567236136166,7595.198940765496,0.0,0.0,0.0,0.0,18008.0,18031.0,18048.0,18142.0,18157.0,18181.0,18190.0,18202.0,18376.0,18451.0,0.07403909900886094,-0.07449535472106092,0.04637801852043399,-0.16244334297860713,0.008150652847087278
20,20,18940.781579155737,1596.1082818505392,13.850893156129828,19056.45203459914,-1101.1333213253847,15.28779240518434,19093.77729332511,44075.70351156282,10.11948251327137,19117.45203459914,-9043.40201727629,6.056056921469054,19331.10056334778,8206.990478543727,35.620531419641644,0.9908653353919464,55.0,14.0,150.0,247.0,397.0,41.0,925.0,925.0,41.0,20.0,21.0,0.4878048780487805,28.934527670017488,1492.8793889660328,91.0,81.0,10.0,0.8901098901098901,130.80720296716203,901.3592965046496,25.0,13.0,12.0,0.52,2077.401054636598,41150.03349697546,13.0,3.0,10.0,0.2307692307692307,1515.7626840427604,21146.159382819125,85.0,42.0,43.0,0.4941176470588235,64.33649710153408,8945.073667465918,0.0,0.0,0.0,0.0,18921.0,18962.0,18976.0,19065.0,19081.0,19106.0,19114.0,19126.0,19292.0,19373.0,0.018128173382115774,-0.11879324731515278,0.04713256713172174,-0.16760978679783173,0.007839231356455789
21,21,19793.796581377763,1373.596384798469,12.517400836106336,19913.027373698995,-1394.328268329412,17.8357578060484,19950.227586017452,42921.84073172339,10.090204058503806,19973.876695499283,-9339.864006780475,6.2416107134002985,20188.04295132014,7489.110467207477,32.55715172641538,0.9899824080303667,52.0,14.0,156.0,244.0,400.0,38.0,854.0,857.0,38.0,19.0,19.0,0.5,28.984839527336952,1252.4329067685585,96.0,86.0,10.0,0.8958333333333334,140.26305728711336,722.2028449472305,24.0,12.0,12.0,0.5,2031.0540501346077,40984.78011871087,13.0,4.0,9.0,0.3076923076923077,1449.1275012852054,20666.88171166879,79.0,39.0,40.0,0.4936708860759494,63.01423935173934,8107.005396121699,0.0,0.0,0.0,0.0,19775.0,19813.0,19827.0,19923.0,19938.0,19962.0,19971.0,19983.0,20151.0,20227.0,0.021101423859374486,-0.10059543399716545,0.04731982635202927,-0.15515509650174564,0.008414115351570712
22,22,20731.55775578736,1401.1702741066802,13.11816734131892,20853.876695499283,-1451.474832061853,12.739827004320285,20888.830695705543,46583.332783986065,10.153183200828106,20912.876695499283,-8485.894555530276,5.994414848734067,21128.77783196085,7588.740967935491,33.610030176229856,0.9926354729646883,55.0,16.0,154.0,247.0,401.0,39.0,933.0,938.0,39.0,19.0,20.0,0.4871794871794871,28.08471280583061,1277.961460351845,94.0,87.0,7.0,0.925531914893617,263.7743602980346,2443.4270458527976,25.0,13.0,12.0,0.52,2159.16757315831,43973.43924841288,12.0,3.0,9.0,0.25,1456.933015812031,20525.911425589,81.0,40.0,41.0,0.4938271604938271,61.39664493894809,8237.73748244271,0.0,0.0,0.0,0.0,20713.0,20752.0,20768.0,20861.0,20876.0,20901.0,20910.0,20922.0,21091.0,21169.0,0.02004375437077845,-0.18172851121595895,0.046350646124241376,-0.17168879559816644,0.008090491584620654
23,23,21793.86423186546,1443.521295005136,13.233918567071193,21917.876695499283,-1298.5637340252176,12.739827004320285,21952.854478148787,44015.34523866244,10.08611694234139,21976.45203459914,-9160.59406613356,6.125092620621147,22193.31642283902,7829.707551957787,34.80255308033107,0.9911295825739692,53.0,14.0,158.0,249.0,407.0,39.0,1065.0,1064.0,40.0,19.0,21.0,0.475,26.818856151834883,1336.8785689459155,97.0,90.0,7.0,0.9278350515463918,239.77419990831837,2282.5003954057584,25.0,13.0,12.0,0.52,2085.321594486576,41246.58890730337,13.0,3.0,10.0,0.2307692307692307,1520.7723984116387,21360.203680287897,84.0,41.0,43.0,0.4880952380952381,60.90152598360264,8465.987869294378,0.0,0.0,0.0,0.0,21775.0,21814.0,21828.0,21925.0,21940.0,21965.0,21973.0,21986.0,22154.0,22235.0,0.018578774171626934,-0.1846456924875603,0.04737714956407657,-0.16601242096665852,0.007778263182815106
24,24,22735.406344184285,1250.44289212577,11.64144487567477,22860.027373698995,-1835.844161274303,17.8357578060484,22896.757843531646,45360.11699987099,10.199927859708598,22920.45203459914,-9173.321357772158,6.292789661455906,23137.47727370868,7616.106923214326,32.21489947135059,0.991487551417826,52.0,17.0,159.0,246.0,405.0,35.0,942.0,944.0,35.0,16.0,19.0,0.4571428571428571,32.63220039747882,1208.0819675646574,100.0,90.0,10.0,0.9,173.92031904457875,782.9024865386801,25.0,13.0,12.0,0.52,2128.018023456495,42335.71794814067,13.0,3.0,10.0,0.2307692307692307,1530.1798648337394,21748.978133547946,79.0,39.0,40.0,0.4936708860759494,63.74672465622291,8237.193269650374,0.0,0.0,0.0,0.0,22719.0,22754.0,22771.0,22870.0,22884.0,22909.0,22917.0,22930.0,23101.0,23176.0,0.026096513965546745,-0.09473588374944447,0.046913856581598926,-0.1668076158192457,0.00836998814471988
25,25,24080.002376505516,1532.9182526022378,13.743486797824698,24195.876695519648,-1205.9124680297448,12.739827004249635,24231.03427865812,46435.26483283049,10.18943632614912,24254.876695499283,-8205.02488072458,5.871607465361412,24477.70181418649,7399.4948658538115,35.99345379340791,0.9943946268479944,71.0,32.0,132.0,256.0,388.0,39.0,1343.0,1334.0,39.0,19.0,20.0,0.4871794871794871,29.70010995363699,1438.334346479815,82.0,75.0,7.0,0.9146341463414634,256.28041875328853,2485.0437455764863,25.0,13.0,12.0,0.52,2133.595257164071,44369.12766693219,12.0,3.0,9.0,0.25,1460.0555506282158,20247.14763718118,86.0,43.0,43.0,0.5,57.31605143245197,8069.118091522567,0.0,0.0,0.0,0.0,24061.0,24100.0,24132.0,24203.0,24218.0,24243.0,24252.0,24264.0,24438.0,24520.0,0.019374881800264913,-0.21251991794396735,0.04594773530085661,-0.17794651105302672,0.0077459411042970425
26,26,25034.338564369384,1427.911794742653,12.69052435839963,25152.45203459914,-1402.0764461926135,15.28779240518434,25188.52183034501,41469.22238639319,10.114795936341936,25211.45203459914,-9948.958833527717,6.48529617844693,25427.578053307618,8209.646160730608,35.340569877253884,0.9884755552466168,53.0,15.0,152.0,248.0,400.0,38.0,954.0,958.0,38.0,18.0,20.0,0.4736842105263157,30.78237844128312,1350.9594863026666,92.0,83.0,9.0,0.9021739130434784,157.08739089031985,1035.0451830474417,24.0,13.0,11.0,0.5416666666666666,2020.2582549580056,37550.66968201402,14.0,3.0,11.0,0.2142857142857142,1533.0458960319306,21707.69849301339,84.0,42.0,42.0,0.5,63.8676281702029,8957.498876218619,0.0,0.0,0.0,0.0,25016.0,25054.0,25069.0,25161.0,25176.0,25200.0,25208.0,25221.0,25388.0,25469.0,0.021557619003231856,-0.11203910551161174,0.04871705179648822,-0.15409108849316053,0.007779583543527419
27,27,25871.05867830452,1069.412157565834,10.46840613947064,25993.02737369906,-2144.7476234410656,17.835757806047784,26029.42956970613,45126.9409226025,10.16444079530882,26053.45203459914,-9094.933556448155,6.313358802721827,26270.46491065834,7610.314587043315,30.894669377175394,0.989488148703983,46.0,13.0,162.0,245.0,407.0,33.0,838.0,841.0,33.0,16.0,17.0,0.4848484848484848,28.183973011863927,1025.6558469802076,102.0,92.0,10.0,0.9019607843137256,185.62601546348725,701.4073463040185,24.0,12.0,12.0,0.5,2103.886484179951,43849.38548988114,13.0,3.0,10.0,0.2307692307692307,1496.5880581770073,21528.076840908772,76.0,37.0,39.0,0.4868421052631579,63.85149892559584,8151.318780758898,0.0,0.0,0.0,0.0,25855.0,25888.0,25901.0,26003.0,26017.0,26041.0,26050.0,26063.0,26234.0,26308.0,0.02635464054945429,-0.0865491181501654,0.04662151790409059,-0.16455184074609885,0.008390126084183703
28,28,26708.516624016564,1319.3972055014333,10.875502734433669,26829.602712798853,-1962.8597232213792,20.383723206912453,26868.26468515084,45953.8101307089,10.254736331798076,26891.876695499283,-9327.026742851704,6.4389151018836115,27108.222076880353,7631.685231445722,31.177085146238383,0.9909378152913556,49.0,14.0,161.0,245.0,406.0,35.0,839.0,839.0,35.0,18.0,17.0,0.5142857142857142,30.91521052694002,1153.6441333267212,102.0,91.0,11.0,0.8921568627450981,127.01657680852108,46.01093486769173,24.0,12.0,12.0,0.5,2136.143266908498,44063.88497455059,13.0,3.0,10.0,0.2307692307692307,1499.821087665315,21555.244380605567,77.0,38.0,39.0,0.4935064935064935,61.95432253422987,8165.457766464708,0.0,0.0,0.0,0.0,26691.0,26726.0,26740.0,26841.0,26856.0,26880.0,26889.0,26901.0,27072.0,27146.0,0.023431314238073424,-0.06470996134153986,0.046484573549669776,-0.1608037726293417,0.008118039548978285
29,29,27603.021694097413,1419.645868317181,11.3531686939963,27728.027373698995,-1786.319443448842,17.8357578060484,27764.813762781192,43033.20038203887,10.198304072710709,27787.876695499283,-10068.13591782459,6.617318241413535,28004.41027933451,7853.038393727371,31.91352724390299,0.9887151358520464,49.0,13.0,164.0,245.0,409.0,36.0,894.0,896.0,36.0,18.0,18.0,0.5,31.023065987813215,1287.49540379428,104.0,94.0,10.0,0.903846153846154,158.06356202053195,764.0977157324376,25.0,13.0,12.0,0.52,2071.708655608206,39787.03981820551,13.0,3.0,10.0,0.2307692307692307,1507.9270325859434,21798.39004883426,78.0,38.0,40.0,0.4871794871794871,64.57051421541831,8447.183672218487,0.0,0.0,0.0,0.0,27585.0,27621.0,27634.0,27738.0,27752.0,27777.0,27785.0,27798.0,27968.0,28043.0,0.021852679376010382,-0.08848560799145704,0.04814210045304677,-0.1497722165149077,0.008222360693791352
30,30,28429.687888644217,1139.2937494601242,10.463535084505333,28558.027373698995,-1949.2311563967792,17.8357578060484,28594.83630479554,41801.12978590102,10.16345497455887,28617.876695499283,-10133.817275671889,6.67027003108989,28833.3528097283,7362.643602227693,30.622111657915593,0.987171224598174,47.0,13.0,168.0,243.0,411.0,34.0,826.0,830.0,34.0,17.0,17.0,0.5,28.868618405896047,1004.4497350353817,109.0,99.0,10.0,0.908256880733945,149.95605891522803,485.92212665411193,23.0,12.0,11.0,0.5217391304347826,2028.4240642191792,38612.10139887083,13.0,3.0,10.0,0.2307692307692307,1485.0314529618272,21550.51331731352,77.0,38.0,39.0,0.4935064935064935,62.78378411253889,7888.745359797425,0.0,0.0,0.0,0.0,28413.0,28447.0,28460.0,28568.0,28583.0,28606.0,28615.0,28628.0,28797.0,28871.0,0.025339047475311776,-0.07693087524438454,0.04852557992112788,-0.146542158059917,0.008527342555810061
31,31,29849.647976907483,1539.5754382886792,14.236934296869295,29966.452034599864,-1219.828920746623,15.287792405179266,30002.80858469018,47335.90538557345,10.23544048128526,30026.876695499283,-7861.053621529021,5.791393710906939,30253.741784155172,6995.530710484231,35.38023345847421,0.9951305223840798,61.0,20.0,144.0,260.0,404.0,41.0,1418.0,1408.0,41.0,20.0,21.0,0.4878048780487805,28.900633207500206,1443.9425907137215,87.0,78.0,9.0,0.896551724137931,186.9175996747711,1404.2929177958797,25.0,13.0,12.0,0.52,2157.4930574878026,44787.156878966096,12.0,3.0,9.0,0.25,1442.9883267281184,20011.700677758286,83.0,41.0,42.0,0.4939759036144578,55.967880099714755,7641.823372827081,0.0,0.0,0.0,0.0,29830.0,29871.0,29891.0,29975.0,29990.0,30015.0,30024.0,30035.0,30215.0,30295.0,0.018771820132194895,-0.1532326349176605,0.04557836255404848,-0.183561694933134,0.008000519533969803
32,32,31193.917335942795,1540.0950490915286,13.551544391556307,31310.876695499283,-1145.443117172737,12.73982700431984,31346.64849539548,46383.09480963321,10.135403703168786,31370.876695499283,-8064.440912271499,5.769109378824477,31594.407072795148,7320.37500316319,36.306918059221765,0.99341500510815,55.0,17.0,148.0,258.0,406.0,38.0,1344.0,1344.0,40.0,19.0,21.0,0.475,32.04468101840578,1429.462367416135,88.0,80.0,8.0,0.9090909090909092,226.99160910474865,2079.760938513181,25.0,13.0,12.0,0.52,2138.7957523971786,43362.05050313266,12.0,3.0,9.0,0.25,1426.1783124768278,19806.374724925703,86.0,42.0,44.0,0.4883720930232558,56.750850579702366,7953.373480525204,0.0,0.0,0.0,0.0,31176.0,31214.0,31231.0,31318.0,31334.0,31359.0,31368.0,31379.0,31555.0,31637.0,0.020806950218629883,-0.19816925493866971,0.046111536135639154,-0.17684776018466955,0.0077524512822334775
33,33,32194.357499012494,1617.568898644441,13.68873496125788,32312.45203459914,-1222.814280544245,15.28779240518434,32349.1335473624,42313.8861079567,10.107068496250308,32372.45203459914,-9710.249650342124,6.311112851248428,32590.95656178275,8545.54260421457,35.32675445732643,0.9886429779416892,56.0,16.0,151.0,251.0,402.0,40.0,1001.0,1002.0,40.0,19.0,21.0,0.475,32.20685084971132,1536.6331321035884,91.0,82.0,9.0,0.9010989010989012,141.75529262148714,965.3598893567096,24.0,12.0,12.0,0.5,2018.1628639746632,40017.13077114754,14.0,3.0,11.0,0.2142857142857142,1522.3187865493485,21547.181619430557,85.0,42.0,43.0,0.4941176470588235,64.53357213495623,9268.708309190832,0.0,0.0,0.0,0.0,32175.0,32215.0,32231.0,32321.0,32337.0,32361.0,32369.0,32382.0,32551.0,32633.0,0.019910651643154975,-0.11592544745093694,0.04769504882689487,-0.15677442304438713,0.007551723175907983
34,34,32997.03992905477,1437.8350809634517,11.627225970116458,33118.027373699,-1763.6767507030577,17.8357578060484,33155.283023246426,42511.88447405793,10.19387052857856,33178.45203459914,-10001.1889881207,6.56128126292659,33395.706663875724,8114.231646605389,32.12741258352754,0.9894001737138428,50.0,13.0,159.0,246.0,405.0,37.0,802.0,807.0,37.0,18.0,19.0,0.4864864864864865,28.55071847851021,1307.362018969785,100.0,90.0,10.0,0.9,142.12892861511926,513.7947687765335,24.0,12.0,12.0,0.5,2028.236834478322,40442.616700323575,14.0,3.0,11.0,0.2142857142857142,1537.5406568843018,21991.416953841424,78.0,39.0,39.0,0.5,66.85455242046234,8729.362174127094,0.0,0.0,0.0,0.0,32979.0,33016.0,33029.0,33128.0,33143.0,33167.0,33175.0,33188.0,33359.0,33434.0,0.019856740774038702,-0.08058672234493205,0.04770987829805604,-0.15373578668602056,0.008239172275594465
35,35,33808.70995587609,1505.4624605207753,11.804313691594563,33928.60271279886,-1712.504128121751,20.383723206912453,33967.41313804304,45777.32359668098,10.269770706791345,33990.87669549929,-9337.00046821976,6.383966007788738,34207.772726717114,7879.648331685374,32.2637534361455,0.9918942493752232,50.0,13.0,159.0,246.0,405.0,37.0,815.0,812.0,37.0,18.0,19.0,0.4864864864864865,29.423544073496192,1352.0207105478808,100.0,89.0,11.0,0.89,121.29838321234614,235.6824667138276,24.0,12.0,12.0,0.5,2122.9817859916247,44220.02933813634,13.0,3.0,10.0,0.2307692307692307,1511.1598865893452,21560.006822480296,78.0,39.0,39.0,0.5,67.1707917897012,8546.879952513049,0.0,0.0,0.0,0.0,33791.0,33828.0,33841.0,33940.0,33955.0,33979.0,33988.0,34000.0,34171.0,34246.0,0.019544521929373043,-0.07083100193480082,0.04637627583246366,-0.1618463972164147,0.008524592591219623
36,36,35233.1063742843,1045.5789693409629,12.350622004101696,35349.87669549929,-1302.8533382968403,12.739827004320285,35385.36452384363,46768.32008296132,10.245413960183631,35408.87669549929,-8422.155884033267,6.024945326786128,35637.17583810707,7320.562147162156,34.64510192338593,0.9951150132771698,54.0,19.0,147.0,260.0,407.0,35.0,1421.0,1418.0,35.0,16.0,19.0,0.4571428571428571,31.48913935099213,1021.337609714424,86.0,79.0,7.0,0.9186046511627908,247.52127373808625,2260.6896373001873,24.0,12.0,12.0,0.5,2144.2737641587746,45395.320940242746,13.0,3.0,10.0,0.2307692307692307,1493.8066433055585,20841.851042862167,83.0,41.0,42.0,0.4939759036144578,59.44506067761419,7941.1894197269485,0.0,0.0,0.0,0.0,35217.0,35252.0,35271.0,35357.0,35373.0,35397.0,35406.0,35418.0,35598.0,35678.0,0.03011646205053263,-0.18998398857515253,0.045848851537859246,-0.17736630191534675,0.008120286322636889
37,37,36326.4460021608,1493.0857674153835,14.034619448549403,36446.45203459914,-1133.2801406576723,15.28779240518434,36483.5282529299,43169.36920971133,10.135648143651924,36506.87669549929,-9451.80895796994,6.209978235239697,36727.68483389583,8235.91382777846,35.20040801671977,0.9896290590250498,55.0,14.0,154.0,253.0,407.0,41.0,1094.0,1098.0,41.0,19.0,22.0,0.4634146341463415,27.993815404747423,1439.817318302044,93.0,84.0,9.0,0.9032258064516128,130.81846906926071,968.1720682979586,24.0,13.0,11.0,0.5416666666666666,2062.581710131946,39467.28672357874,13.0,3.0,10.0,0.2307692307692307,1485.3472242588855,20937.934122158884,84.0,42.0,42.0,0.5,62.64077382819245,8922.690018945188,0.0,0.0,0.0,0.0,36307.0,36348.0,36362.0,36455.0,36471.0,36495.0,36504.0,36516.0,36688.0,36769.0,0.01874896674770821,-0.11543347878075699,0.047778824381523505,-0.15714951824184017,0.0076058073382111934
38,38,37335.23960810626,1421.4774380144056,12.926154840385882,37456.45203459914,-1242.9694372498852,15.28779240518434,37493.54518486008,46682.12248674549,10.14491641501382,37517.87669549929,-8499.40577143079,5.86915608419036,37737.93683085185,8195.586321675277,34.68416734763967,0.9910109166266152,53.0,15.0,156.0,253.0,409.0,38.0,1009.0,1010.0,38.0,18.0,20.0,0.4736842105263157,30.16219306887477,1339.4306514706475,96.0,86.0,10.0,0.8958333333333334,149.19322254968432,941.4147365912409,25.0,13.0,12.0,0.52,2160.4126454829307,43328.4899296689,13.0,4.0,9.0,0.3076923076923077,1446.7469957025382,20248.984989611017,83.0,41.0,42.0,0.4939759036144578,66.03237946641256,8942.413674142104,0.0,0.0,0.0,0.0,37317.0,37355.0,37370.0,37465.0,37481.0,37506.0,37515.0,37526.0,37700.0,37779.0,0.02121890384064548,-0.12002967899176967,0.046279229186640757,-0.17021742867783957,0.008057065946797904
39,39,0.0,0.0,0.0,0.0,0.0,0.0,0.0,0.0,0.0,0.0,0.0,0.0,0.0,0.0,0.0,0.0,0.0,0.0,0.0,0.0,0.0,0.0,0.0,0.0,0.0,0.0,0.0,0.0,0.0,0.0,0.0,0.0,0.0,0.0,0.0,0.0,0.0,0.0,0.0,0.0,0.0,0.0,0.0,0.0,0.0,0.0,0.0,0.0,0.0,0.0,0.0,0.0,0.0,0.0,0.0,0.0,0.0,0.0,,38501.0,38753.0,38857.0,38870.0,38894.0,38903.0,38917.0,39107.0,39170.0,,,,,
40,40,39943.947890424184,1493.9921659339552,15.421000610540956,40058.027373699,-600.3033460439905,17.8357578060484,40097.01525137027,43276.31895981379,10.121197538462614,40120.45203459914,-9171.461653880951,5.974759597283275,40342.45464954643,8566.423684087593,38.33243850826755,0.9892442272348696,59.0,18.0,145.0,258.0,403.0,41.0,2608.0,2603.0,41.0,19.0,22.0,0.4634146341463415,31.490695477337603,1465.6362654364923,85.0,75.0,10.0,0.8823529411764706,91.83072268920787,713.7970990392988,24.0,12.0,12.0,0.5,2033.714079638023,40803.97121132015,13.0,3.0,10.0,0.2307692307692307,1526.332948878046,21052.198914259527,90.0,44.0,46.0,0.4888888888888889,67.32575630049827,9391.210704756104,0.0,0.0,0.0,0.0,39925.0,39966.0,39984.0,40068.0,40085.0,40109.0,40117.0,40129.0,40302.0,40387.0,0.021078219950137082,-0.15297386445431954,0.0469936937456839,-0.16642199536779073,0.007859260618355596
41,41,40847.63980703977,926.5063195862062,9.386916201006953,40968.45203459914,-2081.255708867698,15.28779240518434,41004.408477507175,44725.064772959624,10.162246379098066,41028.45203459914,-9359.005795384042,6.3674639731512395,41249.669290095466,8290.194998568186,31.41473717837452,0.9876974185295582,45.0,15.0,160.0,250.0,410.0,30.0,905.0,908.0,30.0,15.0,15.0,0.5,31.352894373266988,813.0708246713336,99.0,90.0,9.0,0.9090909090909092,188.2473541195774,859.2011002437316,24.0,12.0,12.0,0.5,2093.163703423785,43383.4480099449,13.0,3.0,10.0,0.2307692307692307,1501.1942533388856,21683.91250135968,77.0,38.0,39.0,0.4935064935064935,67.95037149789154,8871.614939389168,0.0,0.0,0.0,0.0,40833.0,40863.0,40878.0,40977.0,40992.0,41016.0,41025.0,41038.0,41213.0,41288.0,0.033839914213720346,-0.09044893105518154,0.04680068579105319,-0.16040103897352964,0.008196474450797282
42,42,41669.47234881919,1419.6722171008091,11.216280064987853,41791.027373699,-1869.1194827736135,17.8357578060484,41828.62384604131,45893.10687244206,10.21911624473154,41852.45203459914,-9400.596915390432,6.355464334633109,42071.426017353224,8329.55389023192,31.866059799979144,0.990362610622566,49.0,13.0,161.0,248.0,409.0,36.0,822.0,824.0,36.0,17.0,19.0,0.4722222222222222,31.63667242341289,1298.4133910083297,100.0,90.0,10.0,0.9,144.89004084096646,429.271847864924,25.0,13.0,12.0,0.52,2154.072513392456,42477.350094942965,13.0,3.0,10.0,0.2307692307692307,1545.8572870247672,22047.31336742951,78.0,38.0,40.0,0.4871794871794871,69.25320057766476,8978.378261801387,0.0,0.0,0.0,0.0,41652.0,41688.0,41701.0,41801.0,41816.0,41841.0,41849.0,41862.0,42035.0,42110.0,0.022284490773525092,-0.07751780567070117,0.046936733208749824,-0.16444246050949454,0.00831415481432662
43,43,43001.17650143814,972.11410342353,12.918668298717815,43115.45203459914,-1096.477513389514,15.28779240518434,43152.718530611026,43778.299629406625,10.207947767024647,43175.87669549929,-9384.558852815631,6.302225522830667,43403.074403548584,7945.514088928138,34.97416404170082,0.9923303568414972,54.0,17.0,147.0,260.0,407.0,37.0,1330.0,1324.0,38.0,18.0,20.0,0.4736842105263157,25.51562377095018,941.532960309314,88.0,78.0,10.0,0.8863636363636364,132.61308130263984,888.1769638045556,25.0,13.0,12.0,0.52,2072.059754078089,40476.654799849784,13.0,3.0,10.0,0.2307692307692307,1498.7996988989337,21153.844830963742,84.0,41.0,43.0,0.4880952380952381,58.405377972729,8547.943929019968,0.0,0.0,0.0,0.0,42984.0,43021.0,43038.0,43124.0,43140.0,43165.0,43173.0,43185.0,43364.0,43445.0,0.026247560529253585,-0.12094464289805296,0.0473307499747261,-0.15970912670543397,0.007350736191395763
44,44,43954.556431700454,1373.1217195357965,12.1999883390119,44075.027373699,-1537.6357911106618,17.8357578060484,44112.15291809862,43899.2416898497,10.182162709619847,44135.87669549929,-9506.045930905144,6.326223877814626,44357.1069568107,8390.575071156863,33.09867636380295,0.9902286004225108,53.0,17.0,155.0,252.0,407.0,36.0,956.0,960.0,36.0,18.0,18.0,0.5,33.728483760428794,1263.6764369606774,96.0,86.0,10.0,0.8958333333333334,152.31780387311468,759.723420733877,24.0,12.0,12.0,0.5,2061.5547207468576,41775.54358361571,14.0,4.0,10.0,0.2857142857142857,1469.9319600757756,21070.75939357209,79.0,39.0,40.0,0.4936708860759494,68.01468409511774,9067.396888222973,0.0,0.0,0.0,0.0,43937.0,43973.0,43990.0,44085.0,44100.0,44124.0,44133.0,44145.0,44320.0,44397.0,0.024563360465837795,-0.09905974142491364,0.04696105539389138,-0.15463127053666698,0.008106081349408642
45,45,44984.43066888007,1429.9054403821524,13.01821888959015,45109.45203459914,-1425.1963908519324,15.28779240518434,45145.65105365842,47296.521591769706,10.214248228965802,45169.87669549929,-8498.391351334041,5.9860774804514945,45392.85121148933,8045.04326406719,32.97560365381583,0.992209231853165,55.0,17.0,158.0,253.0,411.0,38.0,1028.0,1033.0,39.0,18.0,21.0,0.4615384615384615,30.25089516679154,1355.9930720846753,98.0,89.0,9.0,0.9081632653061223,190.1994020567885,1328.1491992491196,25.0,13.0,12.0,0.52,2176.0771565387713,44220.49576550563,12.0,3.0,9.0,0.25,1460.5530205559082,20574.689273551037,79.0,39.0,40.0,0.4936708860759494,65.38033148458022,8706.683269114372,0.0,0.0,0.0,0.0,44966.0,45004.0,45021.0,45118.0,45133.0,45158.0,45167.0,45179.0,45355.0,45432.0,0.021155871089424468,-0.1334548720987807,0.04600924303315872,-0.17186229254159222,0.00812678432403197
46,46,46335.7300888437,1505.008887892758,13.330479034705585,46453.027373699,-1179.578195048912,17.8357578060484,46490.60808802456,44324.413801999464,10.13754465866578,46514.45203459914,-8958.722411645307,6.050670713519566,46741.10234419851,8017.784986167197,35.001655876908494,0.992000485785179,54.0,17.0,151.0,260.0,411.0,37.0,1352.0,1345.0,37.0,18.0,19.0,0.4864864864864865,32.605300317800406,1411.0412984873822,91.0,81.0,10.0,0.8901098901098901,135.6441322076995,876.4506117023599,25.0,13.0,12.0,0.52,2083.9621946317116,40992.6686313864,13.0,3.0,10.0,0.2307692307692307,1499.9239033847682,21073.849221441767,84.0,41.0,43.0,0.4880952380952381,60.872675042923035,8656.244668234707,0.0,0.0,0.0,0.0,46318.0,46355.0,46372.0,46463.0,46478.0,46503.0,46511.0,46523.0,46702.0,46783.0,0.021664523432451486,-0.11499376029248737,0.04701612533311618,-0.1674260943095011,0.007592205970594687
47,47,47480.02994453464,1525.998761314107,13.264342191605357,47599.87669549929,-1315.430713086671,12.739827004320285,47635.422645564984,45639.5490566456,10.234285999554851,47658.87669549929,-8856.268846896315,6.082811580354149,47884.92346104854,8158.11019666507,34.18345284235618,0.9920347372344698,54.0,16.0,152.0,257.0,409.0,38.0,1143.0,1145.0,38.0,18.0,20.0,0.4736842105263157,32.43440970746807,1447.8332757126043,92.0,85.0,7.0,0.9239130434782608,234.40278617894197,2199.0527738002747,24.0,12.0,12.0,0.5,2108.492587077963,44308.32682109844,13.0,3.0,10.0,0.2307692307692307,1500.533453071937,20929.42866614529,83.0,41.0,42.0,0.4939759036144578,63.12555027940404,8815.057204748196,0.0,0.0,0.0,0.0,47462.0,47500.0,47516.0,47607.0,47623.0,47647.0,47656.0,47668.0,47847.0,47925.0,0.02125454523930106,-0.1781947037171677,0.0461988041218594,-0.169431786569781,0.007737766315685334
48,48,48732.7547755571,1501.2210464222578,13.299147555458584,48847.027373699,-1241.2207733699074,17.8357578060484,48884.881771088454,46695.326243903786,10.213899700420304,48908.87669549929,-8468.596586808862,5.967956375923868,49137.182961207975,7976.874633557297,34.58475779318584,0.9935093544576544,56.0,17.0,148.0,260.0,408.0,39.0,1255.0,1249.0,39.0,19.0,20.0,0.4871794871794871,32.04409684262704,1406.8800809439824,89.0,79.0,10.0,0.8876404494382022,143.2165159879901,794.912460741194,25.0,13.0,12.0,0.52,2145.474482599888,44155.13342272246,12.0,3.0,9.0,0.25,1465.675517139873,20501.603094777947,83.0,41.0,42.0,0.4939759036144578,62.308912426848416,8637.712426793709,0.0,0.0,0.0,0.0,48714.0,48753.0,48770.0,48857.0,48872.0,48897.0,48906.0,48918.0,49098.0,49178.0,0.021345355448483233,-0.1153835957797887,0.04594623606211523,-0.17307183098352888,0.00781119364277406
49,49,49779.09419937699,1435.7690530308437,12.282554088090276,49894.027373699,-1331.4980685313385,17.8357578060484,49931.80380816597,42800.03043534984,10.216816421245657,49954.87669549929,-9999.778116154404,6.464887039443978,50178.51626260446,8898.65179275751,35.130352684108395,0.9879196121601156,51.0,15.0,152.0,255.0,407.0,36.0,1046.0,1047.0,36.0,17.0,19.0,0.4722222222222222,34.5279987169461,1362.2477958366585,91.0,81.0,10.0,0.8901098901098901,127.38347416296035,636.6233036214153,25.0,13.0,12.0,0.52,2047.1789702416056,39557.7484705548,13.0,3.0,10.0,0.2307692307692307,1511.6059781088345,21512.30042084315,84.0,42.0,42.0,0.5,67.39426616164356,9611.59448575792,0.0,0.0,0.0,0.0,49762.0,49798.0,49813.0,49904.0,49919.0,49944.0,49952.0,49965.0,50139.0,50220.0,0.02404843497919046,-0.0956692894819338,0.047831250338335705,-0.15116395189477963,0.007573536725697574
50,50,50579.08657474459,1332.1411686866004,11.00583493410512,50701.027373699,-1957.6303304599433,17.8357578060484,50738.12791030237,43242.32142837291,10.212448476363273,50761.45203459914,-10125.850384041692,6.639644701976333,50982.82664330008,8511.456540853673,31.852337119410503,0.9882407441240526,48.0,13.0,161.0,250.0,411.0,35.0,799.0,806.0,35.0,17.0,18.0,0.4857142857142857,31.072633502405356,1219.1309549022078,101.0,91.0,10.0,0.900990099009901,150.4864584901788,467.458397691653,24.0,12.0,12.0,0.5,2061.6194855658287,40818.87751615733,14.0,3.0,11.0,0.2142857142857142,1545.9836636488778,22293.84156533785,77.0,38.0,39.0,0.4935064935064935,68.1752134004864,9118.489162672922,0.0,0.0,0.0,0.0,50562.0,50597.0,50610.0,50711.0,50726.0,50750.0,50758.0,50771.0,50946.0,51021.0,0.023325330852916163,-0.076871744449741,0.04767596691081258,-0.15267692144507122,0.008009817482267098
51,51,51403.779108672425,1364.4295448492155,11.157111594783652,51527.45203459914,-2001.8361205465535,15.28779240518434,51563.486212837845,45624.013736165245,10.200181108960534,51587.45203459914,-9431.52459618467,6.402940498749013,51809.16779422425,8063.756457274088,31.10554098905015,0.9905476060909056,50.0,14.0,161.0,250.0,411.0,36.0,825.0,826.0,36.0,18.0,18.0,0.5,29.19004938144836,1183.9803106136565,100.0,91.0,9.0,0.91,189.1325127697443,923.1510573248607,25.0,12.0,13.0,0.48,2125.0095998924676,44443.166228322465,13.0,3.0,10.0,0.2307692307692307,1530.0562224745213,22008.43438884026,77.0,38.0,39.0,0.4935064935064935,67.96088483550324,8645.062147925235,0.0,0.0,0.0,0.0,51386.0,51422.0,51436.0,51536.0,51551.0,51575.0,51584.0,51597.0,51773.0,51847.0,0.021393592283047626,-0.09447951849230604,0.046576559707810515,-0.1622278780986771,0.008427943625975662
52,52,52351.511288567905,1403.727470860472,11.487815859742048,52475.027373699,-1651.8344455422205,17.8357578060484,52512.7097837836,44447.87671877808,10.15985826688796,52536.45203459914,-9634.428032283806,6.361983566160418,52759.80932041356,8235.380902659677,32.51697886439127,0.9904136158468774,50.0,16.0,161.0,253.0,414.0,34.0,948.0,949.0,34.0,17.0,17.0,0.5,34.257234808834845,1274.5816357297265,100.0,90.0,10.0,0.9,135.48673338980004,421.94876874481395,25.0,13.0,12.0,0.52,2108.699579277777,41204.31959063678,13.0,3.0,10.0,0.2307692307692307,1532.7252074495022,21930.244992635115,80.0,40.0,40.0,0.5,67.59609933189422,8842.108823177572,0.0,0.0,0.0,0.0,52335.0,52369.0,52385.0,52485.0,52500.0,52525.0,52533.0,52546.0,52722.0,52799.0,0.024404477022762456,-0.08202198092880067,0.04744207676374574,-0.15908834466493757,0.00820801127851458
53,53,53222.80879695693,983.6048348516964,9.532592587467214,53349.60271279886,-1971.291393833296,20.383723206912453,53387.810428463075,42245.00437543148,10.123933509841455,53411.45203459914,-10305.39494341335,6.620568690018052,53632.15979510956,7917.677659170712,30.64021835944326,0.9840020430138788,45.0,15.0,168.0,249.0,417.0,30.0,871.0,875.0,31.0,15.0,16.0,0.4838709677419355,32.625556411722386,897.4421726030685,109.0,98.0,11.0,0.8990825688073395,121.29338018871202,81.93066317902537,24.0,12.0,12.0,0.5,2038.7544856923423,39010.89189236471,14.0,3.0,11.0,0.2142857142857142,1515.3978567578342,22157.19960961032,77.0,38.0,39.0,0.4935064935064935,66.7962647689861,8463.545734570806,0.0,0.0,0.0,0.0,53208.0,53238.0,53253.0,53361.0,53376.0,53400.0,53408.0,53421.0,53596.0,53670.0,0.03316937377258981,-0.06152990905766076,0.048260250314425934,-0.14704898405920816,0.008436345560445847
54,54,54601.21640913639,1531.2906992351034,13.895191881122791,54717.45203459914,-1287.3588779118693,15.28779240518406,54754.22044373486,47199.72743827216,10.195724928349344,54778.45203459914,-8210.269034940438,5.906861602383508,55009.74103415005,7403.535037102964,33.92042036242563,0.994606638622178,59.0,19.0,146.0,263.0,409.0,40.0,1377.0,1367.0,40.0,19.0,21.0,0.475,30.349722591567584,1448.9087699690217,86.0,77.0,9.0,0.8953488372093024,168.63059203697188,1084.823593968946,24.0,12.0,12.0,0.5,2152.633860200693,45628.652841995325,13.0,3.0,10.0,0.2307692307692307,1494.4774016619524,20895.55786508744,81.0,40.0,41.0,0.4938271604938271,59.61935997985953,8019.094657051941,0.0,0.0,0.0,0.0,54582.0,54622.0,54641.0,54726.0,54742.0,54766.0,54775.0,54787.0,54971.0,55050.0,0.01981970020893329,-0.13098957480333318,0.045606912942789964,-0.18202538739009716,0.00805282337168338
55,55,55862.60397375654,1690.8723888768411,14.94272622495882,55976.452034599206,-853.5221615354546,15.28779240518434,56013.69953827634,43535.87958209607,10.169727629767698,56036.87669549929,-9178.414898439683,6.126453768889166,56264.16124023886,8014.67371377183,36.860694309174974,0.9914554050667028,68.0,27.0,135.0,261.0,396.0,41.0,1263.0,1259.0,41.0,20.0,21.0,0.4878048780487805,31.749347127348724,1600.6156172710107,83.0,74.0,9.0,0.891566265060241,132.06318629834186,1016.8951587367724,25.0,13.0,12.0,0.52,2062.041737827625,40284.455283124706,13.0,3.0,10.0,0.2307692307692307,1492.10933320505,20787.662679197863,88.0,43.0,45.0,0.4886363636363636,61.20316439511065,8738.676833529626,0.0,0.0,0.0,0.0,55843.0,55884.0,55911.0,55985.0,56001.0,56026.0,56034.0,56046.0,56224.0,56307.0,0.018776903175075306,-0.154727307912855,0.04736419150414111,-0.1625672133713095,0.007636388776494245
56,56,56939.73837947061,1528.9314888837064,13.62881772073213,57056.87669549929,-1432.681277134757,12.739827004320285,57092.27840952413,46127.40889480523,10.221902516390267,57115.87669549929,-8824.51394216916,6.085637295307895,57342.41265562502,8124.925226325177,34.579696110956476,0.9921115790350457,56.0,15.0,149.0,258.0,407.0,41.0,1077.0,1079.0,41.0,20.0,21.0,0.4878048780487805,25.065578425248574,1363.931721046155,88.0,81.0,7.0,0.9204545454545454,245.463301775651,2188.345353967443,24.0,12.0,12.0,0.5,2130.97573711476,44498.76557137634,13.0,3.0,10.0,0.2307692307692307,1497.4934768115631,20983.59646995023,83.0,41.0,42.0,0.4939759036144578,64.57388425490089,8812.398687078901,0.0,0.0,0.0,0.0,56920.0,56961.0,56976.0,57064.0,57080.0,57104.0,57113.0,57125.0,57304.0,57383.0,0.016394180254309037,-0.17133140894153173,0.04619760329426927,-0.1696969925624553,0.007947628126555327
57,57,57961.97954461393,1319.460069987979,12.99887632749163,58080.45203459914,-1387.9715869199656,15.28779240518434,58117.03663440191,44765.97865803404,10.176549631229824,58140.87669549929,-9278.110959463003,6.210947691256446,58365.86054892233,8437.850137309782,34.06445036067938,0.9904218176308588,54.0,15.0,153.0,257.0,410.0,39.0,1021.0,1024.0,40.0,19.0,21.0,0.475,24.648907534886053,1199.1833026790216,92.0,83.0,9.0,0.9021739130434784,159.48162031206445,1055.7579611173016,24.0,12.0,12.0,0.5,2093.157402236462,42460.68956357158,12.0,3.0,9.0,0.25,1473.9532267274906,20961.897152619684,82.0,41.0,41.0,0.5,65.74994470446985,9105.50382038892,0.0,0.0,0.0,0.0,57943.0,57982.0,57997.0,58089.0,58105.0,58129.0,58138.0,58150.0,58327.0,58407.0,0.018681056058870063,-0.1149026549354433,0.04675777152614106,-0.1588635049922705,0.007792262677638968
58,58,58853.25635579832,1200.2702699694762,10.95120848058983,58974.45203459914,-1647.034021684973,15.28779240518434,59010.61050623139,41856.22618253118,10.130521738935297,59033.87669549929,-10226.709368834512,6.550411081935662,59256.42620092817,8448.360808859848,32.64330906888293,0.9859143153767314,48.0,14.0,159.0,252.0,411.0,34.0,894.0,894.0,34.0,16.0,18.0,0.4705882352941176,33.49622258883482,1140.6176636496868,98.0,89.0,9.0,0.9081632653061223,158.8770134141174,861.9457020113017,24.0,13.0,11.0,0.5416666666666666,2035.2050228450144,38181.82836969144,14.0,4.0,10.0,0.2857142857142857,1489.507639435098,21505.41166169252,80.0,39.0,41.0,0.4875,68.51735414555075,9102.695893804212,0.0,0.0,0.0,0.0,58837.0,58871.0,58885.0,58983.0,58998.0,59022.0,59031.0,59044.0,59219.0,59296.0,0.027907233418092287,-0.09646249641618254,0.04862371045993662,-0.14564876987453199,0.008110135882655033
59,59,59748.338773668656,860.3836978983265,9.506159279835298,59869.027373699,-2091.549704459658,17.8357578060484,59905.926902940555,45217.32601739321,10.2609145708481,59929.45203459914,-9638.515301229312,6.540693750447299,60153.79776633464,7906.151843302798,31.02391014781037,0.988817320761828,46.0,16.0,159.0,253.0,412.0,30.0,894.0,895.0,30.0,14.0,16.0,0.4666666666666667,30.50967594903053,828.6955169301896,100.0,90.0,10.0,0.9,168.70599094387038,618.2802961919406,25.0,13.0,12.0,0.52,2129.607853312695,42486.254276140615,14.0,3.0,11.0,0.2142857142857142,1554.7128537424942,22280.28351088557,76.0,38.0,38.0,0.5,65.21912859771315,8448.342411209362,0.0,0.0,0.0,0.0,59734.0,59764.0,59780.0,59879.0,59893.0,59918.0,59926.0,59939.0,60117.0,60192.0,0.03546054629295862,-0.08066076105394529,0.04709716475701205,-0.16130210983264234,0.008249162157562084
60,60,60757.44583217715,1294.2921790401394,11.738843614612682,60879.027373699,-1647.2996451032416,17.8357578060484,60916.20793598611,46348.83373606124,10.239099715855858,60939.87669549929,-9158.297236207056,6.289336968543806,61166.07967186869,7988.4565991112895,32.7499320900292,0.9916812057942648,52.0,16.0,157.0,256.0,413.0,36.0,1010.0,1011.0,36.0,17.0,19.0,0.4722222222222222,31.291209728966173,1219.7018386344175,97.0,87.0,10.0,0.8969072164948454,162.1540184854836,739.483771467943,24.0,12.0,12.0,0.5,2148.3007710523375,44447.47546309106,13.0,3.0,10.0,0.2307692307692307,1503.361168211538,21403.378349640858,79.0,39.0,40.0,0.4936708860759494,65.48753696405798,8630.19199634829,0.0,0.0,0.0,0.0,60740.0,60776.0,60792.0,60889.0,60904.0,60928.0,60937.0,60949.0,61129.0,61205.0,0.02417631060103605,-0.09843626140969688,0.04635069748002901,-0.16415291286551,0.008197770889979352
61,61,61745.34858637506,1306.3530493513551,11.905532942757567,61867.45203459914,-1507.4763649877189,15.28779240518434,61903.769646768065,42246.91565717834,10.172762959943077,61926.87669549929,-10162.394514149964,6.527983449490234,62150.31695460648,8470.197907881904,34.31203015752162,0.9871779733405304,50.0,14.0,159.0,255.0,414.0,36.0,988.0,987.0,36.0,17.0,19.0,0.4722222222222222,31.287034257855943,1242.710596386416,98.0,89.0,9.0,0.9081632653061223,156.43025559788524,969.9781341113794,24.0,13.0,11.0,0.5416666666666666,2038.6780203054548,38904.95503336662,13.0,3.0,10.0,0.2307692307692307,1504.6535899835796,21603.210610546892,83.0,40.0,43.0,0.4819277108433735,65.71633333437315,9144.41887207681,0.0,0.0,0.0,0.0,61728.0,61764.0,61778.0,61876.0,61891.0,61915.0,61924.0,61937.0,62112.0,62192.0,0.023949907165900463,-0.1037696240094349,0.04825625702119286,-0.14806093070767157,0.007758535756669996
62,62,62644.66556005447,1186.2066215808277,10.988980696129047,62766.027373699,-1678.0318385955638,17.8357578060484,62803.33605073026,44549.71136538624,10.220365072554127,62826.87669549929,-9405.772177720735,6.3477847807265455,63050.237208006656,8143.878607852507,32.889125201559764,0.9892393338081288,48.0,15.0,159.0,254.0,413.0,33.0,898.0,900.0,33.0,16.0,17.0,0.4848484848484848,32.68828014003168,1079.1429153637023,100.0,90.0,10.0,0.9,150.6895090174039,668.558656079879,24.0,12.0,12.0,0.5,2084.153667198931,42860.98382958406,13.0,3.0,10.0,0.2307692307692307,1487.6701053915394,21253.13521213349,80.0,39.0,41.0,0.4875,66.44614537824546,8791.351310201604,0.0,0.0,0.0,0.0,62629.0,62662.0,62677.0,62776.0,62791.0,62815.0,62824.0,62836.0,63013.0,63090.0,0.027556986738506678,-0.08980134080383372,0.046782652531801916,-0.15816565373711197,0.00815902944748914
63,63,63607.77997585435,1385.8991662537774,12.484467760176273,63729.45203459914,-1573.3471654592636,15.28779240518434,63765.46087344965,46234.39963432652,10.191500767635524,63789.45203459914,-9027.04134183254,6.194061290727375,64014.15865250631,8023.150064091776,33.06545182876028,0.992306816887977,54.0,17.0,155.0,255.0,410.0,37.0,964.0,962.0,37.0,18.0,19.0,0.4864864864864865,30.81442042917498,1272.3710703570375,95.0,86.0,9.0,0.9052631578947368,191.87379123363593,1283.133409333071,25.0,12.0,13.0,0.48,2136.3455659781675,45041.521312829354,13.0,3.0,10.0,0.2307692307692307,1527.0927707756348,21682.25800723824,81.0,40.0,41.0,0.4938271604938271,64.11575427283557,8633.449195271221,0.0,0.0,0.0,0.0,63590.0,63627.0,63644.0,63738.0,63753.0,63778.0,63786.0,63799.0,63977.0,64054.0,0.022234244149572157,-0.1219526087096153,0.046206841288624574,-0.16916869137387006,0.007991344267607626
64,64,64521.827636902766,679.8187551862007,8.619889755635597,64641.60271279977,-2322.550672821744,20.383723206904257,64679.30664896256,41932.46075341569,10.223540787527911,64702.45203459914,-10716.850121560075,6.9572975496651255,64925.82396513942,8272.212934606798,31.09343076102043,0.9843251284494474,42.0,15.0,162.0,251.0,413.0,27.0,913.0,914.0,27.0,13.0,14.0,0.4814814814814814,31.896884656452904,643.4977772689076,102.0,91.0,11.0,0.8921568627450981,139.26010125322006,51.95949301993119,24.0,12.0,12.0,0.5,2022.4091813204875,39572.87432312547,14.0,3.0,11.0,0.2142857142857142,1543.5000723813532,22692.79314346665,77.0,38.0,39.0,0.4935064935064935,63.843217108275255,8771.051741091409,0.0,0.0,0.0,0.0,64509.0,64536.0,64551.0,64653.0,64667.0,64691.0,64699.0,64713.0,64889.0,64964.0,0.046919689127606405,-0.059959984030844994,0.048230157376484235,-0.14402553501015675,0.007717791794404517
65,65,65366.22143279037,819.636319474514,9.218665735136462,65485.60271279886,-2066.013040026071,20.383723206912453,65524.06875171859,41332.9477371105,10.236130643003836,65546.87669549929,-10551.64876622127,6.875916548505915,65769.24458512836,7727.138791405531,31.063897445218277,0.9851084547996872,44.0,15.0,161.0,250.0,411.0,29.0,847.0,844.0,30.0,14.0,16.0,0.4666666666666667,30.554578917667353,757.3007564621722,101.0,90.0,11.0,0.8910891089108911,115.23528352580236,96.11523665986432,24.0,12.0,12.0,0.5,2005.250022759912,38408.8610010307,14.0,3.0,11.0,0.2142857142857142,1498.0554836542317,21915.78759064665,77.0,38.0,39.0,0.4935064935064935,65.03483161240362,8266.441630135707,0.0,0.0,0.0,0.0,65352.0,65381.0,65396.0,65497.0,65512.0,65536.0,65544.0,65557.0,65733.0,65807.0,0.03727821497375389,-0.055776648691601774,0.04851456604338703,-0.14197359264363685,0.008416418207052042
66,66,66252.93642351177,1014.6833402706274,10.626446708190706,66372.45203459915,-1891.8932128547713,15.28779240518434,66408.20365096755,45503.99051736185,10.183838323584016,66431.87669549929,-9184.533523919845,6.303710153107203,66655.45406056037,7719.477886929066,32.09296216453669,0.9902580459570524,48.0,15.0,156.0,253.0,409.0,33.0,885.0,885.0,33.0,16.0,17.0,0.4848484848484848,29.05435610035998,952.5700123061268,96.0,87.0,9.0,0.90625,196.91356040205417,1130.9061051103886,24.0,12.0,12.0,0.5,2131.305512106023,43655.94540335735,13.0,3.0,10.0,0.2307692307692307,1487.237929387698,21259.015165359622,78.0,38.0,40.0,0.4871794871794871,65.53349752874574,8325.083786529283,0.0,0.0,0.0,0.0,66237.0,66270.0,66285.0,66381.0,66396.0,66420.0,66429.0,66441.0,66619.0,66694.0,0.028633914589167156,-0.10408280925376415,0.04683777154209876,-0.16192852097653004,0.008489369163128212
67,67,67142.99666864178,1564.8299507206368,13.496790183146292,67260.60271279886,-1249.527206127263,20.383723206912453,67300.16564914901,43713.03686699043,10.109116421129269,67323.87669549929,-9400.227713984776,6.193901779952003,67545.22883539935,8296.620336566219,34.23847606831638,0.989828787001778,55.0,17.0,153.0,253.0,406.0,38.0,889.0,892.0,38.0,18.0,20.0,0.4736842105263157,32.195713626938385,1476.6732977202248,93.0,82.0,11.0,0.8817204301075269,91.8397740833892,122.5418218667063,24.0,12.0,12.0,0.5,2058.192912436281,41569.27442079653,13.0,4.0,9.0,0.3076923076923077,1467.6501480090794,20854.902771007193,82.0,40.0,42.0,0.4878048780487805,67.37041423487554,9021.602672715717,0.0,0.0,0.0,0.0,67125.0,67163.0,67180.0,67272.0,67288.0,67312.0,67321.0,67333.0,67507.0,67586.0,0.020574576561569254,-0.07349961940247295,0.047084189522199726,-0.15612921225574647,0.008120223838368216
68,68,67982.4429064066,482.59305002189495,7.239666679978879,68101.17805189872,-2494.7507210345952,22.93168860777651,68139.54065766162,40091.79639341307,10.179158040755098,68162.45203459915,-11107.426043584568,7.116073492819722,68383.87536940949,7866.171862692014,30.1456845591094,0.9798993799495256,41.0,18.0,161.0,248.0,409.0,23.0,840.0,839.0,24.0,11.0,13.0,0.4583333333333333,28.407644489945703,492.5937044740432,103.0,90.0,13.0,0.8737864077669902,96.88023051719108,726.4541900442632,24.0,13.0,11.0,0.5416666666666666,1988.6771777543663,35561.89492334535,14.0,3.0,11.0,0.2142857142857142,1522.167381222798,22671.306028149334,76.0,38.0,38.0,0.5,67.7654738141985,8397.868677957735,0.0,0.0,0.0,0.0,67971.0,67994.0,68012.0,68114.0,68127.0,68151.0,68159.0,68173.0,68348.0,68421.0,0.05886459510483391,-0.0388336316331493,0.04960309481370854,-0.13704051462957723,0.008614797006355687
69,69,68828.36684967505,757.5797094727856,9.407946658951255,68948.027373699,-2216.542040415551,17.835757806048353,68984.16127482655,40730.511372903406,10.104695623132832,69007.45203459915,-10436.494293023365,6.737049375314331,69228.89966479785,7785.099770181171,31.053945456417264,0.9832801273245086,44.0,14.0,159.0,250.0,409.0,30.0,847.0,845.0,30.0,14.0,16.0,0.4666666666666667,26.559064525723,744.7057706163387,100.0,90.0,10.0,0.9,169.48894925615647,516.8717492352358,24.0,12.0,12.0,0.5,1985.507423527921,38305.63564405594,14.0,3.0,11.0,0.2142857142857142,1503.247344760792,22040.95436622229,78.0,39.0,39.0,0.5,66.03876737796539,8342.889241740126,0.0,0.0,0.0,0.0,68814.0,68844.0,68858.0,68958.0,68972.0,68996.0,69004.0,69017.0,69193.0,69267.0,0.03505778229489009,-0.07646547918594007,0.048747421935114964,-0.14403757646527815,0.008482713045105722
70,70,69709.03736454074,1246.0201911478205,12.248154210304044,69829.027373699,-1677.3277767634802,17.8357578060484,69866.11733157266,43712.50611714734,10.18145411179562,69889.45203459915,-9435.139213029675,6.3600591134536115,70112.32562668524,7577.836447162587,32.4625304880477,0.989755752910742,52.0,14.0,156.0,252.0,408.0,38.0,880.0,881.0,39.0,19.0,20.0,0.4871794871794871,25.71152603065083,1127.119057610148,97.0,87.0,10.0,0.8969072164948454,152.24855896446925,644.3945321759886,24.0,12.0,12.0,0.5,2065.7912568747383,41468.69900829376,14.0,3.0,11.0,0.2142857142857142,1530.2377276832983,21680.213530203044,79.0,39.0,40.0,0.4936708860759494,62.85409632371569,8184.38971364341,0.0,0.0,0.0,0.0,69691.0,69729.0,69743.0,69839.0,69854.0,69878.0,69886.0,69899.0,70075.0,70151.0,0.020634919251963042,-0.09076851947103826,0.04725858662366602,-0.16218496549262154,0.008294464622187843
71,71,70623.49835670671,1408.6875564025215,12.501882208952694,70743.45203459915,-1687.6031481320977,15.28779240518434,70779.12176829492,45454.80413373975,10.17864539832733,70802.87669549929,-9027.1716759831,6.2250841505622265,71026.28557235867,7564.397359010287,32.718865494295336,0.9919215713898736,54.0,15.0,154.0,254.0,408.0,39.0,916.0,913.0,40.0,19.0,21.0,0.475,25.315666592609016,1287.018109252159,94.0,85.0,9.0,0.9042553191489362,200.6003915295304,1277.6448368890306,24.0,12.0,12.0,0.5,2121.540681468881,43441.05183718265,12.0,3.0,9.0,0.25,1474.7027378073312,21037.098811308344,80.0,39.0,41.0,0.4875,61.50315560160719,8152.912652880215,0.0,0.0,0.0,0.0,70604.0,70643.0,70658.0,70752.0,70767.0,70791.0,70800.0,70812.0,70989.0,71066.0,0.017971101169701298,-0.1188670403652437,0.04667362937538486,-0.16336265562898242,0.008130608782515645
72,72,71462.35009845531,933.379710208666,10.197175836060593,71584.60271291029,-2205.4558527167396,20.383723204262232,71622.37749879129,42847.36086843161,10.21681944428622,71645.45203459919,-10345.624443537072,6.778133591210652,71866.24486094539,7922.14410376841,31.12331759883468,0.9849011219092544,46.0,14.0,162.0,249.0,411.0,32.0,836.0,844.0,33.0,16.0,17.0,0.4848484848484848,29.086300710891347,934.7621961524552,103.0,92.0,11.0,0.8932038834951457,140.56793352662137,93.53209225572756,24.0,12.0,12.0,0.5,2052.841076674542,40778.72293833961,14.0,3.0,11.0,0.2142857142857142,1552.1467863816824,22538.723270656257,77.0,38.0,39.0,0.4935064935064935,67.21172157816888,8500.507332423784,0.0,0.0,0.0,0.0,71447.0,71479.0,71493.0,71596.0,71610.0,71634.0,71642.0,71655.0,71830.0,71904.0,0.031162345177172136,-0.06373645310263909,0.047910560535526496,-0.15002929932869455,0.008484031683568791
73,73,72245.40879050342,1560.9441886724958,12.448612974335632,72369.027373699,-1565.9926288895192,17.8357578060484,72406.44288750293,41315.04215607198,10.120735921824908,72429.45203459915,-10324.747411075305,6.594861069546018,72647.31026772699,8143.014599302991,34.00506024668061,0.9877322665531668,51.0,13.0,161.0,249.0,410.0,38.0,786.0,784.0,38.0,18.0,20.0,0.4736842105263157,30.32564613063164,1435.5179679332368,101.0,91.0,10.0,0.900990099009901,128.44636687211576,461.5430784354263,24.0,12.0,12.0,0.5,1995.935552410109,39448.901536871956,14.0,3.0,11.0,0.2142857142857142,1538.2897067403967,22083.67335604949,82.0,40.0,42.0,0.4878048780487805,67.18664962623903,8849.66242406178,0.0,0.0,0.0,0.0,72227.0,72265.0,72278.0,72379.0,72394.0,72418.0,72426.0,72439.0,72609.0,72688.0,0.01942775811633731,-0.08202233171633763,0.04831014197856194,-0.14899054141414453,0.00825083251502336
74,74,73065.97861961203,1091.523728045181,10.112100065691402,73191.45203459915,-2213.914947870827,15.28779240518434,73226.95450903723,43415.34015964788,10.11299055818781,73250.45203459915,-9790.959729774737,6.533714739765408,73471.30692614299,7426.233164335594,30.86100731967215,0.9874091578648756,47.0,14.0,163.0,249.0,412.0,33.0,819.0,820.0,33.0,16.0,17.0,0.4848484848484848,29.06634827051556,980.5390263289094,103.0,94.0,9.0,0.912621359223301,195.1839074320252,829.4812260035835,24.0,12.0,12.0,0.5,2086.6809513591843,40776.98675555014,14.0,3.0,11.0,0.2142857142857142,1525.8489261038085,22088.617493480273,77.0,38.0,39.0,0.4935064935064935,62.35778818616003,7942.134759058263,0.0,0.0,0.0,0.0,73050.0,73083.0,73097.0,73200.0,73215.0,73239.0,73247.0,73260.0,73435.0,73509.0,0.026629149255940343,-0.08816233325482448,0.048063217832360484,-0.15584263118391092,0.008396960721033195
75,75,74347.65455326125,1249.3484435482533,12.176496801633329,74460.45203459915,-1423.6052232182526,15.28779240518434,74496.59051235234,45580.75192277083,10.090313188436566,74520.87669549929,-8382.749301845746,5.915453732055123,74751.24308930578,7224.638533511594,34.872452186621956,0.9929749008420868,52.0,15.0,147.0,263.0,410.0,37.0,1279.0,1270.0,37.0,18.0,19.0,0.4864864864864865,28.259822319143957,1147.1918419939652,87.0,78.0,9.0,0.896551724137931,180.46457587656505,1172.310623701935,25.0,13.0,12.0,0.52,2125.4702665382465,42393.16126062997,13.0,4.0,9.0,0.3076923076923077,1414.282833857086,19972.973388345432,83.0,41.0,42.0,0.4939759036144578,57.45071697238806,7854.906540037034,0.0,0.0,0.0,0.0,74330.0,74367.0,74382.0,74469.0,74484.0,74509.0,74518.0,74529.0,74712.0,74792.0,0.02261964823751148,-0.12676588490494606,0.046630873271672,-0.1687134832417908,0.007952054169340382
76,76,75317.5343692669,1343.422263281193,12.721864187825858,75435.45203459915,-1327.7775735139164,15.28779240518434,75471.37514081836,41240.95676528957,10.075456401764256,75494.45203459915,-9952.414559207562,6.422410496058972,75715.41415531909,8318.307782248177,36.09396353832483,0.9863742127575827,52.0,15.0,152.0,254.0,406.0,37.0,971.0,975.0,39.0,19.0,20.0,0.4871794871794871,28.049158975028156,1212.361827586697,93.0,84.0,9.0,0.9032258064516128,161.3647865778994,1120.5414395634834,24.0,12.0,12.0,0.5,1989.84787431162,39364.57224239539,14.0,3.0,11.0,0.2142857142857142,1521.7869964522054,21625.52227536148,87.0,43.0,44.0,0.4942528735632184,64.48529221456417,9017.609600174075,0.0,0.0,0.0,0.0,75300.0,75337.0,75352.0,75444.0,75459.0,75483.0,75491.0,75504.0,75675.0,75758.0,0.02087888502496639,-0.1215299834827404,0.04824931404080262,-0.1529063110664247,0.0077522128181142895
77,77,76155.01077858012,833.4706860732678,9.364183161282885,76274.027373699,-2106.601214469745,17.8357578060484,76310.36302061552,42369.89904329539,10.20350747736346,76333.45203459915,-10011.219600379456,6.660432932890151,76554.51965882133,7795.010886997782,31.4670823489821,0.9860444011155108,44.0,15.0,158.0,250.0,408.0,29.0,837.0,839.0,29.0,14.0,15.0,0.4827586206896552,29.546801298057265,779.7863950693668,99.0,89.0,10.0,0.898989898989899,172.99937012443783,691.2215977310068,24.0,12.0,12.0,0.5,2028.244268122444,40498.40108832234,14.0,3.0,11.0,0.2142857142857142,1532.2293608433552,22049.53455805099,78.0,39.0,39.0,0.5,63.7329795581282,8363.539501746927,0.0,0.0,0.0,0.0,76141.0,76170.0,76185.0,76284.0,76298.0,76322.0,76330.0,76343.0,76518.0,76593.0,0.03545031851961246,-0.08212250564375739,0.047869933937059815,-0.15305121873315805,0.008176124508618193
78,78,76989.30981141164,1206.6045909345469,10.467702254718688,77109.027373699,-2072.5838020298843,17.8357578060484,77145.77736076676,44519.38682335208,10.132986682569884,77169.45203459915,-9528.738199987698,6.421987135283644,77390.04847733816,7799.125906865294,31.340064948868715,0.9888379631291744,48.0,15.0,158.0,249.0,407.0,33.0,837.0,835.0,33.0,16.0,17.0,0.4848484848484848,29.909223270826676,1100.6199483771593,99.0,89.0,10.0,0.898989898989899,166.93893963443625,515.9939453726234,25.0,13.0,12.0,0.52,2120.233684535269,41484.10844960667,13.0,3.0,10.0,0.2307692307692307,1526.781606614372,21977.128841085596,77.0,38.0,39.0,0.4935064935064935,64.66078076360752,8376.224834041905,0.0,0.0,0.0,0.0,76973.0,77006.0,77021.0,77119.0,77133.0,77158.0,77166.0,77179.0,77354.0,77428.0,0.02478792430887504,-0.08054629176920933,0.047624952539173954,-0.16022914834792537,0.008290772778355703
79,79,77795.63744535869,1166.1251451713135,10.202640041207047,77919.027373699,-2044.8999260191183,17.8357578060484,77955.85508174916,42982.03579482458,10.088265143860273,77979.45203459915,-9905.112172087964,6.483481975058296,78197.58815570801,8268.519684399405,31.884813597251295,0.9862167705629098,46.0,14.0,163.0,247.0,410.0,32.0,807.0,810.0,32.0,16.0,16.0,0.5,32.370629750516486,1044.530330877204,103.0,93.0,10.0,0.9029126213592232,153.16028027588635,407.9277753968141,24.0,12.0,12.0,0.5,2070.473823194478,40044.19746088626,13.0,3.0,10.0,0.2307692307692307,1517.64484106721,21974.942115586822,78.0,39.0,39.0,0.5,65.73365235783258,8847.90122758464,0.0,0.0,0.0,0.0,77780.0,77812.0,77826.0,77929.0,77944.0,77968.0,77976.0,77989.0,78161.0,78236.0,0.027759138789311476,-0.07489866781600853,0.04817067839871329,-0.15321833965130108,0.007949869488955232
80,80,78674.3204302601,1250.0065877297354,11.310467310672289,78804.45203459915,-1907.3670025294548,15.28779240518434,78840.30710651701,41650.33672143432,10.092374381657674,78863.45203459915,-10167.957977870994,6.571902190775934,79083.49646425708,7943.511108453732,31.7664083363757,0.9843307709812014,50.0,14.0,166.0,249.0,415.0,36.0,875.0,885.0,36.0,17.0,19.0,0.4722222222222222,27.45540459600654,1140.113242384963,106.0,97.0,9.0,0.9150943396226416,166.35322511880864,780.4408890662935,24.0,12.0,12.0,0.5,2018.3132000120725,39635.08398864741,14.0,3.0,11.0,0.2142857142857142,1529.795000683442,22040.72874955025,79.0,39.0,40.0,0.4936708860759494,67.5516713090646,8568.062793404257,0.0,0.0,0.0,0.0,78657.0,78693.0,78707.0,78813.0,78828.0,78852.0,78860.0,78873.0,79047.0,79122.0,0.021964207921392722,-0.08721615971032282,0.04845850859528339,-0.15045252980124493,0.008504006652319528
81,81,80027.91456834097,1448.6147558470063,13.32941960584444,80143.87669549929,-1168.1364311935554,12.739827004320285,80179.18459014592,46059.59764301383,10.15702628677576,80202.87669549929,-8104.895984253345,5.780469671368591,80431.53441195814,7607.684880396754,36.18941310242143,0.9928922332147232,56.0,18.0,146.0,262.0,408.0,38.0,1356.0,1339.0,38.0,18.0,20.0,0.4736842105263157,30.59268422186115,1378.5574863799593,85.0,78.0,7.0,0.9176470588235294,245.2371131407358,2338.3728443504297,24.0,12.0,12.0,0.5,2120.606761881841,44373.0190900874,12.0,3.0,9.0,0.25,1460.9980739612831,20113.825811381183,86.0,43.0,43.0,0.5,61.87641577372036,8346.559303804697,0.0,0.0,0.0,0.0,80010.0,80048.0,80066.0,80151.0,80167.0,80191.0,80200.0,80212.0,80392.0,80474.0,0.0211185783510631,-0.20993875937090864,0.04604049688661333,-0.1802611750724246,0.008133409407264171
82,82,81240.00844530649,467.348775504611,8.028374253367309,81358.027373699,-1892.5068114780688,17.8357578060484,81394.42804397109,42731.031867465965,10.12192248213165,81417.87669549929,-9704.830116123863,6.431856994865824,81644.31036709041,8014.856321500265,32.73465372763882,0.9885048422422216,44.0,19.0,155.0,257.0,412.0,25.0,1212.0,1215.0,26.0,13.0,13.0,0.5,23.34070623302695,477.4806385867356,96.0,86.0,10.0,0.8958333333333334,169.87649922652298,700.4575771128387,24.0,12.0,12.0,0.5,2034.1512621998895,41140.92186346624,14.0,4.0,10.0,0.2857142857142857,1466.9588599579774,21181.163726079485,81.0,40.0,41.0,0.4938271604938271,62.74322688553905,8572.229293840443,0.0,0.0,0.0,0.0,81228.0,81253.0,81272.0,81368.0,81382.0,81406.0,81415.0,81427.0,81606.0,81684.0,0.04994279958864825,-0.08976268840683725,0.04760360733878338,-0.15115760321458208,0.007828365770853198
83,83,82145.6058685787,1161.570363468211,10.407176294197152,82265.027373699,-2098.1810693461475,17.8357578060484,82301.62484268991,42279.64225220049,10.14286555907877,82324.87669549929,-9916.744243826892,6.539595353268983,82547.32157072512,8577.733011851,31.916662918801773,0.985649867015138,48.0,14.0,158.0,251.0,409.0,34.0,908.0,907.0,34.0,17.0,17.0,0.5,30.772704562379676,1004.697912817068,98.0,88.0,10.0,0.8979591836734694,163.2680836367013,513.8456096163586,24.0,13.0,11.0,0.5416666666666666,2048.272614140072,38722.94950529725,14.0,4.0,10.0,0.2857142857142857,1474.141766178563,21379.20102188214,78.0,38.0,40.0,0.4871794871794871,73.32803514349756,9263.514986599435,0.0,0.0,0.0,0.0,82129.0,82163.0,82177.0,82275.0,82289.0,82313.0,82322.0,82335.0,82511.0,82586.0,0.02649232928989225,-0.07781410576141565,0.04844583598702205,-0.14865178832218112,0.008548649747221965
84,84,82934.83583236889,1564.248383123466,12.442803017974548,83058.45203459915,-1559.479467362869,15.28779240518434,83094.88226153665,44561.30567330821,10.137953308722809,83118.45203459915,-9199.562631866804,6.155718325323388,83337.08433844204,8798.5436676933,33.924990177691,0.9883952573994396,52.0,15.0,159.0,249.0,408.0,37.0,786.0,793.0,38.0,19.0,19.0,0.5,31.919733228187784,1435.8444547652457,100.0,90.0,10.0,0.9,163.33511756807857,916.9489466476048,25.0,13.0,12.0,0.52,2102.486885821574,41873.82142320445,13.0,3.0,10.0,0.2307692307692307,1534.388333933876,21526.85511743481,81.0,40.0,41.0,0.4938271604938271,73.63842047272705,9620.451520784794,0.0,0.0,0.0,0.0,82917.0,82954.0,82969.0,83067.0,83082.0,83107.0,83115.0,83128.0,83300.0,83377.0,0.020405795890580353,-0.1047369465173425,0.04718189590842584,-0.16678926980928802,0.008369387395679393
85,85,83839.92640841933,1458.0866707758832,11.863315356783383,83961.60271279886,-1579.5492754504107,20.383723206912453,84000.02642182287,44225.21768867552,10.106234997971406,84023.87669549929,-9235.225476278869,6.153610870387601,84245.59216132211,8461.544161560869,32.729635851818976,0.9875399155769714,50.0,13.0,161.0,252.0,413.0,37.0,907.0,905.0,37.0,18.0,19.0,0.4864864864864865,28.54512815321598,1307.995673995951,102.0,91.0,11.0,0.8921568627450981,122.54281555800569,321.0819394351845,24.0,12.0,12.0,0.5,2082.64542992319,41853.55475409536,13.0,4.0,9.0,0.3076923076923077,1458.0167465309466,20754.493033830066,80.0,40.0,40.0,0.5,69.84428734023798,9172.147087680234,0.0,0.0,0.0,0.0,83822.0,83859.0,83872.0,83973.0,83988.0,84012.0,84021.0,84033.0,84208.0,84285.0,0.01957711343594303,-0.07758087541970632,0.047091807316450594,-0.15787559819475275,0.00825431930705117
86,86,84667.25845306476,951.0875929980452,10.01508495254441,84791.17805189872,-2113.750927576944,22.93168860777651,84830.8473712258,41637.048901113274,10.184470418772758,84853.87669549929,-10393.575054975943,6.750448661164296,85073.65991469084,8317.684464285921,31.066390551078875,0.98237092733639,45.0,13.0,167.0,248.0,415.0,32.0,826.0,831.0,32.0,15.0,17.0,0.46875,30.704404889651187,937.3550687171928,108.0,95.0,13.0,0.8796296296296297,72.81851363780098,725.8497773266959,23.0,12.0,11.0,0.5217391304347826,2020.3697481125992,38216.58924507055,14.0,4.0,10.0,0.2857142857142857,1488.1194287370038,21765.91731441652,76.0,38.0,38.0,0.5,68.86278355946827,8897.533853295281,0.0,0.0,0.0,0.0,84652.0,84684.0,84697.0,84804.0,84819.0,84842.0,84851.0,84864.0,85038.0,85112.0,0.0322834669652917,-0.034449902629386436,0.048523365642721604,-0.14317685886383857,0.008279081017697656
87,87,85679.23079792144,1424.5680022058466,12.937722305953388,85801.027373699,-1526.0669217769976,17.8357578060484,85837.74030869275,45467.21406367407,10.105730522297646,85861.87669549929,-8724.446350812352,6.0027419687192625,86086.08324408205,8069.017959354819,33.153466862162624,0.9904208274912552,56.0,16.0,155.0,254.0,409.0,40.0,1012.0,1007.0,40.0,19.0,21.0,0.475,26.90203449819773,1321.3906855128378,96.0,86.0,10.0,0.8958333333333334,173.07973903327675,938.4961006755984,25.0,13.0,12.0,0.52,2123.2783783511145,42555.04939858398,13.0,4.0,9.0,0.3076923076923077,1441.8392977650356,20379.93784361898,79.0,39.0,40.0,0.4936708860759494,67.36506764641996,8780.916848051878,0.0,0.0,0.0,0.0,85660.0,85700.0,85716.0,85811.0,85825.0,85850.0,85859.0,85871.0,86049.0,86125.0,0.0188843456097159,-0.11341556295037021,0.04669910884307959,-0.16526427463569454,0.00834860797010871
88,88,87028.71541073963,1551.0508354292606,13.608358981237012,87143.4520345992,-1082.7046092913986,15.28779240518385,87180.15310694245,45053.614378886385,10.0852221092809,87203.87669549929,-8400.80796718903,5.838748284706259,87432.42310729438,7994.841280847784,36.16425071064359,0.991851945976416,57.0,18.0,146.0,262.0,408.0,39.0,1349.0,1343.0,39.0,19.0,20.0,0.4871794871794871,32.2971387156737,1438.2738684146389,87.0,78.0,9.0,0.896551724137931,154.80459873591977,1077.0004106421652,24.0,12.0,12.0,0.5,2096.4603328858852,43182.67347788869,12.0,3.0,9.0,0.25,1453.95264517006,20130.85553016398,87.0,43.0,44.0,0.4942528735632184,62.08268619785349,8676.148935979918,0.0,0.0,0.0,0.0,87010.0,87049.0,87067.0,87152.0,87168.0,87192.0,87201.0,87213.0,87392.0,87475.0,0.020822746732691914,-0.14297953237424127,0.0465325670712083,-0.17307295332172232,0.0077653431778035445
89,89,88156.27207600954,1568.020784811681,14.711655167141243,88270.027373699,-1039.6376525123717,17.8357578060484,88308.1192858377,41592.07689687811,10.024736781919083,88331.45203459915,-9396.94509082705,6.1704874297388965,88556.11864506229,8589.600700523191,36.523342514307245,0.9873804720304394,58.0,16.0,147.0,258.0,405.0,42.0,1130.0,1128.0,42.0,20.0,22.0,0.4761904761904761,28.972545128353644,1506.2478073852008,87.0,77.0,10.0,0.8850574712643678,107.2110447492546,517.327309180745,24.0,12.0,12.0,0.5,1992.7559096036705,39313.93478279792,13.0,3.0,10.0,0.2307692307692307,1496.413119967111,21023.08220277566,87.0,43.0,44.0,0.4942528735632184,68.3583700290456,9403.143595959367,0.0,0.0,0.0,0.0,88136.0,88178.0,88194.0,88280.0,88296.0,88320.0,88328.0,88341.0,88516.0,88599.0,0.01847714354872741,-0.10312347238498924,0.04791191155335756,-0.15924463807156372,0.007958270985155561
90,90,89106.62428378964,1455.4618519222884,12.98999897930272,89222.45203459915,-1471.540545479968,15.28779240518434,89258.88768576703,44129.440310258986,10.141417508488123,89282.45203459915,-8999.665256796607,6.090999092090333,89505.77910627903,8677.570560145701,34.42555835725599,0.9886435771604076,54.0,14.0,151.0,255.0,406.0,40.0,949.0,950.0,40.0,20.0,20.0,0.5,24.096443817972368,1281.8570986779278,90.0,81.0,9.0,0.9,163.69986355046237,969.6738357718524,25.0,13.0,12.0,0.52,2077.6571002437995,41508.714629279726,13.0,3.0,10.0,0.2307692307692307,1516.6269924061571,21212.127356513654,83.0,41.0,42.0,0.4939759036144578,70.1459297661481,9446.41154683786,0.0,0.0,0.0,0.0,89087.0,89127.0,89141.0,89231.0,89246.0,89271.0,89279.0,89292.0,89468.0,89547.0,0.01655587453985634,-0.1112438689190646,0.0470809755491233,-0.16852037816193113,0.00808359082533007
91,91,90055.34556361061,1426.621263537547,12.25622457211263,90171.60271279886,-1647.480949431915,20.383723206912453,90210.46732636336,45280.198580236785,10.2447112738717,90233.87669549928,-9173.004258501796,6.296513410973486,90458.01840446464,8525.177848485044,33.20849323704435,0.9894161681298732,52.0,14.0,154.0,255.0,409.0,38.0,948.0,952.0,38.0,18.0,20.0,0.4736842105263157,27.09209476825116,1308.0682898156783,95.0,84.0,11.0,0.8842105263157894,119.7806352477871,200.36871327862505,24.0,12.0,12.0,0.5,2102.8167453005744,43897.27255428881,13.0,3.0,10.0,0.2307692307692307,1498.6165564632636,21227.39267060165,81.0,40.0,41.0,0.4938271604938271,69.19819737615848,9224.662323924633,0.0,0.0,0.0,0.0,90037.0,90075.0,90089.0,90183.0,90198.0,90222.0,90231.0,90243.0,90420.0,90498.0,0.018990390414532137,-0.0727053234145681,0.04644009547737231,-0.16337249108701807,0.008116921266159304
92,92,91036.72359802351,1421.445507174553,13.022793725528178,91156.45203459916,-1410.0116992169608,15.28779240518434,91192.41953803462,42573.50756760323,10.077724876859946,91215.87669549928,-9599.655846485271,6.2863786128803705,91438.8157864706,8868.307626486765,34.408903427114524,0.9864511212306332,55.0,16.0,152.0,255.0,407.0,39.0,980.0,982.0,39.0,19.0,20.0,0.4871794871794871,27.582510836494873,1270.916080113309,93.0,84.0,9.0,0.9032258064516128,166.17127621865,1097.765131621076,24.0,12.0,12.0,0.5,2027.53533811176,41021.16825004791,14.0,4.0,10.0,0.2857142857142857,1467.695213701168,20945.550207079938,83.0,41.0,42.0,0.4939759036144578,72.16166547550965,9657.361776804855,0.0,0.0,0.0,0.0,91018.0,91057.0,91073.0,91165.0,91180.0,91204.0,91213.0,91225.0,91400.0,91480.0,0.019404550295650375,-0.11785099110236599,0.04762434325835616,-0.15289039911139485,0.008137027775173935
93,93,91915.19703423562,937.2151890121496,10.142016804374713,92036.027373699,-2050.8989549438697,17.8357578060484,92072.94566210042,42712.173139005514,10.127231295849684,92096.45203459916,-9769.243140925078,6.481012567689946,92318.5387444848,8429.009739474157,31.196794137022778,0.9844194824358908,47.0,15.0,159.0,251.0,410.0,32.0,880.0,880.0,32.0,15.0,17.0,0.46875,28.218365690800983,895.8548343474249,99.0,89.0,10.0,0.898989898989899,152.98675480164636,385.9298533709749,24.0,12.0,12.0,0.5,2048.00587093654,40015.64440141831,14.0,3.0,11.0,0.2142857142857142,1510.4014274064389,21767.162151419212,77.0,39.0,38.0,0.5064935064935064,70.8960042082437,9041.989784779096,0.0,0.0,0.0,0.0,91900.0,91932.0,91947.0,92046.0,92061.0,92085.0,92093.0,92106.0,92282.0,92357.0,0.030108737055941134,-0.07459497428328125,0.04794899721611834,-0.15460782433381165,0.00841095293510321
94,94,92873.45767193908,1193.1482403101902,11.173100048943873,92996.45203459916,-1692.6092561589528,15.28779240518434,93032.16388637287,45665.0855837495,10.188912264781507,93055.87669549928,-8993.802367545537,6.177483558019041,93280.28779134524,8360.355255968503,32.33675857684419,0.9895807924145216,49.0,15.0,159.0,254.0,413.0,34.0,959.0,960.0,34.0,16.0,18.0,0.4705882352941176,32.25677676240229,1147.930966104043,99.0,90.0,9.0,0.9090909090909092,198.55170511365571,1323.3702239514353,24.0,12.0,12.0,0.5,2128.8867665114217,43777.987477271745,12.0,3.0,9.0,0.25,1483.881673880209,21009.508467153988,79.0,39.0,40.0,0.4936708860759494,71.22445288522046,9052.450115767027,0.0,0.0,0.0,0.0,92857.0,92891.0,92906.0,93005.0,93020.0,93044.0,93053.0,93065.0,93244.0,93319.0,0.027035011805420166,-0.11730510417048655,0.04661957246542451,-0.16498935747519314,0.008519309371975902
95,95,93820.25350091553,2017.0431886677736,19.625976960655215,93885.89025949354,-1257.036513797522,87.32102786412182,93977.00635634894,43279.0050618245,10.057328535674444,94000.45203459916,-9336.464126365769,6.117103638734426,94222.79801949486,8842.12071418555,33.36517652035983,0.9854864761287346,49.0,15.0,160.0,253.0,413.0,34.0,944.0,944.0,35.0,19.0,16.0,0.5428571428571428,29.944697836372978,907.7779141348504,101.0,37.0,64.0,0.3663366336633663,12.220681441365436,1233.313785844414,24.0,12.0,12.0,0.5,2043.5087287219264,40022.44303895801,13.0,3.0,10.0,0.2307692307692307,1524.7068962142978,21795.453164545695,80.0,39.0,41.0,0.4875,70.3414090154994,9549.794959422365,0.0,0.0,0.0,0.0,93801.0,93835.0,93850.0,93950.0,93965.0,93989.0,93997.0,94010.0,94185.0,94263.0,0.014845838703211406,-0.009721818982367198,0.04721709119243276,-0.1633066732306711,0.007955264499233717
96,96,94683.47390107124,978.6230671067414,9.859485120994634,94808.45203459916,-2031.74098005956,15.28779240518434,94843.8040372278,42277.339667001856,10.151614149987266,94866.87669549928,-9912.300271456268,6.61342472399085,95089.41214999509,8229.099212947556,30.750982608745975,0.9855899820841864,46.0,16.0,162.0,250.0,412.0,30.0,867.0,867.0,30.0,14.0,16.0,0.4666666666666667,31.031552071238984,946.894783407767,102.0,93.0,9.0,0.9117647058823528,193.70025792371405,1018.9181159276812,24.0,13.0,11.0,0.5416666666666666,2049.9675462777645,39154.86619004493,13.0,3.0,10.0,0.2307692307692307,1483.5700961355033,21484.30366128805,76.0,37.0,39.0,0.4868421052631579,70.32220007283813,8845.899205766978,0.0,0.0,0.0,0.0,94669.0,94699.0,94715.0,94817.0,94831.0,94855.0,94864.0,94877.0,95054.0,95127.0,0.03170940182616223,-0.09533708274075162,0.04848856532658788,-0.14966960801294857,0.008545552587602067
97,97,95666.07298158886,1275.29542447553,11.993080288237142,95788.027373699,-1624.0215271610025,17.8357578060484,95824.74613722146,46088.72151317929,10.117919181596651,95848.87669549928,-8657.551115391423,6.025760398925396,96073.43116212048,8267.75392482839,32.739696024687866,0.9904034134026964,53.0,17.0,156.0,255.0,411.0,36.0,978.0,981.0,36.0,17.0,19.0,0.4722222222222222,29.96574359127587,1182.504748576109,98.0,88.0,10.0,0.8979591836734694,174.42004106889902,921.2844214230907,25.0,13.0,12.0,0.52,2148.9873759342236,43210.18825961965,13.0,4.0,9.0,0.3076923076923077,1446.8487965158745,20513.49768074396,80.0,39.0,41.0,0.4875,69.72254743349488,8948.400906154364,0.0,0.0,0.0,0.0,95649.0,95685.0,95702.0,95798.0,95812.0,95837.0,95846.0,95858.0,96036.0,96113.0,0.023497099586630602,-0.10740007946434527,0.04662718568402272,-0.16711986764290215,0.008433069980967302
98,98,96638.02814580698,1329.6283841971265,12.028586998288477,96760.45203459916,-1470.581490483748,15.28779240518434,96796.90834031522,42506.49187635011,10.131115858544966,96819.87669549928,-9814.629166572931,6.403476761995041,97042.93612612569,8769.8712728779,34.09010835963532,0.9858547652567712,50.0,13.0,159.0,255.0,414.0,37.0,977.0,972.0,37.0,18.0,19.0,0.4864864864864865,29.193612134761963,1225.1173720437382,100.0,90.0,10.0,0.9,150.40168306350404,879.7232186448167,24.0,12.0,12.0,0.5,2048.1886580876526,39592.93786897582,13.0,3.0,10.0,0.2307692307692307,1504.536691016092,21368.2358203526,83.0,41.0,42.0,0.4939759036144578,70.24567594756905,9492.215453781682,0.0,0.0,0.0,0.0,96620.0,96657.0,96670.0,96769.0,96785.0,96809.0,96817.0,96829.0,97005.0,97084.0,0.021956219107333537,-0.10227361355815065,0.048185313999700594,-0.15329531717207462,0.008009886777336632
99,99,97518.59737799538,943.8543751672562,9.860313689380224,97640.60271279886,-2022.150152439461,20.383723206912453,97678.81591340942,42748.61197417628,10.198462650560009,97701.87669549928,-9958.762895146228,6.604152911182883,97924.99741969992,8172.87424222438,31.268157192837943,0.9858246014055684,46.0,16.0,162.0,251.0,413.0,30.0,879.0,882.0,32.0,16.0,16.0,0.5,30.159592138935672,847.4773470198327,102.0,91.0,11.0,0.8921568627450981,127.05664793717943,43.976853959968594,25.0,13.0,12.0,0.52,2055.1771114011713,39491.31742494051,13.0,3.0,10.0,0.2307692307692307,1494.5836019138362,21582.013492615304,77.0,38.0,39.0,0.4935064935064935,68.09307464854659,8775.931674300477,0.0,0.0,0.0,0.0,97504.0,97534.0,97550.0,97652.0,97666.0,97691.0,97699.0,97712.0,97889.0,97963.0,0.03195364977101603,-0.06283244979800442,0.0480758793441684,-0.15007723526004188,0.008331594568866627
100,100,98472.75889401016,1231.1107775339642,11.65878014998731,98593.027373699,-1625.132586750365,17.8357578060484,98630.1490513419,45516.62060699612,10.171690478956863,98653.87669549928,-8887.317975367336,6.139406324346511,98878.8812239472,8162.486043399683,32.70047295989134,0.990025802464414,51.0,16.0,156.0,255.0,411.0,35.0,953.0,952.0,35.0,17.0,18.0,0.4857142857142857,28.905786301659692,1126.2637784193366,97.0,87.0,10.0,0.8969072164948454,157.86251242423194,745.3370115911441,24.0,12.0,12.0,0.5,2119.8110434729233,43553.0571074687,12.0,3.0,9.0,0.25,1473.7063041256165,20867.63215889169,79.0,39.0,40.0,0.4936708860759494,69.81224812498722,8857.561432552922,0.0,0.0,0.0,0.0,98456.0,98491.0,98507.0,98603.0,98618.0,98642.0,98651.0,98663.0,98842.0,98918.0,0.02347943566830015,-0.09713823580382186,0.04657224141871153,-0.1658212644366091,0.008552816844500277
101,101,99379.1130276388,1255.654950198625,11.207898336080744,99499.027373699,-1570.384393081588,17.8357578060484,99536.86967871584,42285.86853198106,10.153649997398665,99559.87669549928,-9898.404081393426,6.43277334934756,99782.23813963402,8628.953437448316,33.45173560943838,0.9860233353555876,48.0,14.0,159.0,252.0,411.0,34.0,908.0,906.0,34.0,16.0,18.0,0.4705882352941176,32.18043645124954,1180.657094014009,98.0,88.0,10.0,0.8979591836734694,117.91370532386652,433.5894004048022,24.0,12.0,12.0,0.5,2038.2465913335316,39272.48570828524,13.0,3.0,10.0,0.2307692307692307,1499.0992049226038,21345.347586619468,82.0,40.0,42.0,0.4878048780487805,68.13784459713906,9323.594148548416,0.0,0.0,0.0,0.0,99363.0,99397.0,99411.0,99509.0,99525.0,99549.0,99557.0,99570.0,99744.0,99822.0,0.025628407267585012,-0.07508588715179648,0.04820160167200996,-0.15144857621447713,0.007896420474519125
102,102,100980.29996484962,1627.5759913837198,12.92733677157018,101103.87669549928,-1554.109147089378,12.739827004320285,101138.28919315607,40623.196191240735,10.019497675882464,101161.45203459916,-9646.170287093288,6.321548333169485,101381.58511697076,7832.482306141206,32.729745856171284,0.9873392127228044,53.0,15.0,156.0,249.0,405.0,38.0,1600.0,1602.0,38.0,18.0,20.0,0.4736842105263157,34.06550369281162,1573.4032119128517,97.0,90.0,7.0,0.9278350515463918,244.55894406362785,2109.2825875059616,24.0,12.0,12.0,0.5,1964.72714571942,38697.86577195813,13.0,3.0,10.0,0.2307692307692307,1489.525590628863,21172.13444806762,80.0,40.0,40.0,0.5,66.62951386238177,8492.278747288272,0.0,0.0,0.0,0.0,100962.0,101000.0,101015.0,101111.0,101126.0,101150.0,101158.0,101171.0,101345.0,101420.0,0.020930207789468604,-0.15736278531121925,0.04836466181710879,-0.1544162653464525,0.008506819582616822
103,103,0.0,0.0,0.0,0.0,0.0,0.0,0.0,0.0,0.0,0.0,0.0,0.0,0.0,0.0,0.0,0.0,0.0,0.0,0.0,0.0,0.0,0.0,0.0,0.0,0.0,0.0,0.0,0.0,0.0,0.0,0.0,0.0,0.0,0.0,0.0,0.0,0.0,0.0,0.0,0.0,0.0,0.0,0.0,0.0,0.0,0.0,0.0,0.0,0.0,0.0,0.0,0.0,0.0,0.0,0.0,0.0,0.0,0.0,,101418.0,101659.0,101789.0,101801.0,101824.0,101832.0,101848.0,102033.0,102081.0,,,,,
104,104,0.0,0.0,0.0,0.0,0.0,0.0,0.0,0.0,0.0,0.0,0.0,0.0,0.0,0.0,0.0,0.0,0.0,0.0,0.0,0.0,0.0,0.0,0.0,0.0,0.0,0.0,0.0,0.0,0.0,0.0,0.0,0.0,0.0,0.0,0.0,0.0,0.0,0.0,0.0,0.0,0.0,0.0,0.0,0.0,0.0,0.0,0.0,0.0,0.0,0.0,0.0,0.0,0.0,0.0,0.0,0.0,0.0,0.0,,102099.0,102350.0,102470.0,102482.0,102506.0,102514.0,102529.0,102709.0,102767.0,,,,,
105,105,103147.28441261456,1061.7779686043618,9.06095937118916,103272.60271279886,-2161.177605098675,20.383723206912453,103310.88181780212,42759.10038812462,10.200561065245656,103333.87669549928,-10243.294543286756,6.716445905600815,103555.75218809798,7781.27392909321,30.73797141507723,0.9854202229481218,44.0,15.0,167.0,249.0,416.0,29.0,2167.0,2172.0,29.0,14.0,15.0,0.4827586206896552,39.57548576919579,1003.3110408998956,108.0,97.0,11.0,0.8981481481481481,123.14711017677628,50.33683997223034,24.0,12.0,12.0,0.5,2067.0137089748196,39565.86521983963,13.0,3.0,10.0,0.2307692307692307,1508.9771211188126,21953.43220892772,76.0,38.0,38.0,0.5,66.4478397210932,8338.565342576736,0.0,0.0,0.0,0.0,103133.0,103162.0,103177.0,103284.0,103299.0,103323.0,103331.0,103344.0,103519.0,103593.0,0.03727284511395089,-0.05698148541158589,0.04834090732060598,-0.14731365135914842,0.008539455149195177
106,106,103970.49529960768,1036.6841400774647,9.223607156029932,104101.027373699,-2130.078676474997,17.8357578060484,104137.24228995368,41356.85907913736,10.065909649600156,104160.45203459916,-10233.387600420658,6.615598634551885,104380.7685223593,7329.139094074515,30.58500637241444,0.9836841042889608,45.0,16.0,169.0,248.0,417.0,29.0,823.0,827.0,29.0,14.0,15.0,0.4827586206896552,36.56144904306503,991.2648080451507,111.0,101.0,10.0,0.90990990990991,165.22468704169094,536.739184058898,24.0,12.0,12.0,0.5,2013.6064360813525,39160.69266073874,14.0,3.0,11.0,0.2142857142857142,1516.569262854323,22057.35108038832,76.0,38.0,38.0,0.5,62.751910151082,7864.844076275504,0.0,0.0,0.0,0.0,103956.0,103985.0,104001.0,104111.0,104125.0,104149.0,104157.0,104170.0,104345.0,104418.0,0.035267684369448375,-0.07756741047477002,0.04868857260722502,-0.14819816487670048,0.008561975607996833
107,107,104999.38851466964,1532.6111183846538,13.258193704207082,105122.027373699,-1348.6961472127396,17.8357578060484,105158.96521080908,46012.907383978614,10.101320216673916,105182.87669549928,-8501.258416881868,5.885989268502057,105407.98174662818,7498.101273444098,34.17705573546645,0.9916121253865374,55.0,15.0,157.0,256.0,413.0,40.0,1030.0,1021.0,40.0,19.0,21.0,0.475,28.366370486279763,1460.1764810957357,97.0,87.0,10.0,0.8969072164948454,163.2912002120617,984.8512888178376,24.0,12.0,12.0,0.5,2138.5324614282395,43673.05403201426,12.0,3.0,9.0,0.25,1459.8994008003822,20412.32305805779,81.0,40.0,41.0,0.4938271604938271,62.15819703499944,8181.661402582217,0.0,0.0,0.0,0.0,104980.0,105020.0,105035.0,105132.0,105147.0,105171.0,105180.0,105192.0,105370.0,105448.0,0.018508524534375972,-0.12107337931492186,0.04647679494760338,-0.17172744659794154,0.00828985829454506
108,108,106241.99945547676,1478.9821566690791,13.10903721261089,106358.45203459916,-1312.2096748914737,15.28779240518434,106395.09215293852,44644.06894507682,10.05091351359498,106418.87669549928,-8584.712830319979,5.904083553741945,106646.3978147487,7485.778999453797,35.7733489279789,0.991533152042961,55.0,17.0,149.0,261.0,410.0,38.0,1241.0,1237.0,38.0,18.0,20.0,0.4736842105263157,30.478788106761115,1390.1599862804298,90.0,80.0,10.0,0.8888888888888888,152.8065948337379,931.8610888382892,24.0,12.0,12.0,0.5,2093.916327488452,42611.33229485732,12.0,3.0,9.0,0.25,1446.2548308426406,20231.405650320117,86.0,42.0,44.0,0.4883720930232558,59.88164589642599,8179.479656220188,0.0,0.0,0.0,0.0,106224.0,106262.0,106279.0,106367.0,106383.0,106407.0,106416.0,106428.0,106606.0,106689.0,0.020607948493039673,-0.11644983096651515,0.046902452598227194,-0.1684686324899157,0.007999387358455984
109,109,107180.42960658512,1680.9057467109335,14.163230572070574,107298.45203459916,-995.5342990522468,15.28779240518434,107334.79617319768,41294.271127270986,10.039296880847338,107357.87669549928,-9479.066537959108,6.170106460384092,107578.42804455668,8346.49690152698,36.73444112137136,0.9863798272178824,57.0,17.0,149.0,254.0,403.0,40.0,937.0,939.0,40.0,19.0,21.0,0.475,32.1505908082143,1619.0460314713434,90.0,81.0,9.0,0.9,144.12207570180712,1198.5338936894334,24.0,13.0,11.0,0.5416666666666666,1998.7282674651792,38232.036490480605,13.0,3.0,10.0,0.2307692307692307,1467.5717272689865,20548.8197042213,88.0,43.0,45.0,0.4886363636363636,70.37815535340854,9148.03669991114,0.0,0.0,0.0,0.0,107161.0,107201.0,107218.0,107307.0,107322.0,107346.0,107355.0,107367.0,107539.0,107621.0,0.019126944429290034,-0.14476856883686678,0.04840207159257031,-0.15482238903926526,0.008432059124173755
110,110,107975.09669476686,1149.6896094580031,10.111048178573084,108097.027373699,-2031.4211571911449,17.8357578060484,108134.03769816968,43505.65733768829,10.12074148728797,108157.45203459916,-9588.683084483382,6.39795008703457,108377.83750876648,8080.672320742756,31.94417482490313,0.9864838201061248,46.0,13.0,162.0,249.0,411.0,33.0,796.0,799.0,33.0,16.0,17.0,0.4848484848484848,29.17202321832217,1013.2943094401468,103.0,93.0,10.0,0.9029126213592232,150.97303814038997,401.4066027280471,24.0,12.0,12.0,0.5,2077.861449861749,41068.4152776773,14.0,3.0,11.0,0.2142857142857142,1526.3525737271782,21862.641572549288,78.0,39.0,39.0,0.5,69.47381073421087,8746.574746872793,0.0,0.0,0.0,0.0,107959.0,107992.0,108005.0,108107.0,108122.0,108146.0,108154.0,108167.0,108342.0,108416.0,0.025373825229293587,-0.07431892574612202,0.04776071842182532,-0.1591827115651737,0.008597528519486483
111,111,108794.83989547404,1097.9162690314276,9.67718109971627,108917.027373699,-2230.575659078386,17.8357578060484,108953.73801161013,44372.089334706005,10.09904956293158,108977.45203459916,-9486.345001983773,6.364591755131149,109198.71927560263,7879.685194488742,31.00985746900271,0.9870348839457184,46.0,14.0,162.0,249.0,411.0,32.0,822.0,820.0,32.0,16.0,16.0,0.5,30.73411279235921,950.0601326922484,103.0,93.0,10.0,0.9029126213592232,166.150395329967,417.8708177417317,25.0,13.0,12.0,0.52,2122.379058470446,41299.06639445671,13.0,3.0,10.0,0.2307692307692307,1518.655099194983,21871.67488222761,76.0,38.0,38.0,0.5,65.89460236326065,8425.86560973462,0.0,0.0,0.0,0.0,108779.0,108811.0,108825.0,108927.0,108941.0,108966.0,108974.0,108987.0,109163.0,109236.0,0.027993129949219698,-0.07448767525716474,0.04783139785149602,-0.16008853766939782,0.008362593268237297
112,112,109580.85330898158,1255.6376566010197,10.147962004460144,109705.027373699,-1851.2451271080884,17.8357578060484,109741.7302211824,41794.67159508636,10.089082330395756,109764.87669549928,-10135.251904734563,6.534815705626783,109982.94658091832,8392.510134085427,33.13776322504013,0.985983883454831,46.0,15.0,163.0,247.0,410.0,31.0,784.0,788.0,31.0,15.0,16.0,0.4838709677419355,40.10672299655944,1141.98225810953,103.0,93.0,10.0,0.9029126213592232,148.7419042985625,634.3156886078056,24.0,13.0,11.0,0.5416666666666666,2039.1518757761555,38385.92859853248,14.0,4.0,10.0,0.2857142857142857,1486.7859563047346,21509.410582420176,81.0,40.0,41.0,0.4938271604938271,68.94234519744128,9111.854582588276,0.0,0.0,0.0,0.0,109566.0,109597.0,109612.0,109715.0,109729.0,109753.0,109762.0,109775.0,109945.0,110022.0,0.03194131904671237,-0.0803469525026752,0.048789757113820484,-0.1466945242485981,0.00821474673202218
113,113,110336.75993803346,1721.2070826972251,13.772973081193776,110463.027373699,-1225.5666548725158,17.8357578060484,110500.71974327994,41338.78097962432,10.035739645770384,110523.87669549928,-9698.791256684546,6.256292673063799,110740.50661058836,8214.256414518773,34.659568299996394,0.9882043394801994,55.0,16.0,160.0,248.0,408.0,39.0,758.0,759.0,39.0,19.0,20.0,0.4871794871794871,37.101528914521786,1667.5991967471332,101.0,91.0,10.0,0.900990099009901,118.02234844151968,534.8471170274858,24.0,13.0,11.0,0.5416666666666666,2006.0367649056027,38024.47299219304,14.0,4.0,10.0,0.2857142857142857,1469.6332367676264,20824.967163089383,82.0,41.0,41.0,0.5,68.20609925561436,9002.792532856696,0.0,0.0,0.0,0.0,110318.0,110357.0,110373.0,110473.0,110488.0,110512.0,110521.0,110533.0,110703.0,110781.0,0.021555528842224884,-0.09630022812084132,0.04852675181434035,-0.15152746335835757,0.008303380831289788
114,114,111606.05363822842,1315.8815226678057,12.816462172916724,111719.45203459916,-1428.2084912410492,15.28779240518434,111755.44720387529,45796.55363539913,10.173147947112396,111778.87669549928,-8326.585670301089,5.9530939469319035,112010.28394933984,7479.105819623995,34.80364639592329,0.9929923661080696,55.0,17.0,145.0,263.0,408.0,38.0,1265.0,1255.0,38.0,18.0,20.0,0.4736842105263157,27.15001736702934,1223.9719562105752,86.0,77.0,9.0,0.8953488372093024,188.6491278155858,1290.7027026499743,25.0,12.0,13.0,0.48,2118.5977933761596,44661.75202821579,12.0,3.0,9.0,0.25,1476.3418820720628,20516.4492106407,83.0,41.0,42.0,0.4939759036144578,63.722345791620135,8196.575634940462,0.0,0.0,0.0,0.0,111588.0,111626.0,111643.0,111728.0,111743.0,111768.0,111776.0,111788.0,111972.0,112051.0,0.02063256980156211,-0.13208794722376854,0.046261074801457504,-0.17730459284623903,0.008520048696787087
115,115,112772.30742363282,1499.2474634628118,12.995385586679149,112887.45203459916,-1203.106004003928,15.28779240518434,112923.40417769458,42562.71316246218,10.04536252503326,112946.87669549928,-9050.982356200097,6.045008728020679,113171.96124531724,8067.444880975094,36.72347299699067,0.9890874232591708,56.0,18.0,146.0,259.0,405.0,38.0,1168.0,1168.0,38.0,18.0,20.0,0.4736842105263157,32.39650187663586,1417.8306300206305,87.0,78.0,9.0,0.896551724137931,167.391761055136,1235.110380911015,24.0,12.0,12.0,0.5,2014.4229437919244,41073.90098235934,12.0,3.0,9.0,0.25,1448.3167765404737,20301.057312495777,88.0,44.0,44.0,0.5,63.80343788785476,8803.216233441246,0.0,0.0,0.0,0.0,112754.0,112792.0,112810.0,112896.0,112911.0,112935.0,112944.0,112956.0,113131.0,113215.0,0.021608508712637513,-0.13913301113788595,0.047328349020018,-0.16001763339515837,0.00790875411350105
116,116,113633.6069135543,1217.642435624767,10.754928510701152,113751.60271279886,-1735.20898154187,20.383723206912453,113790.03882627437,41880.82435341725,10.038029482081605,113813.45203459916,-9551.170843110323,6.310987274436757,114034.60178583732,8332.342680854681,32.67866741978208,0.9853614349887196,48.0,15.0,158.0,251.0,409.0,33.0,863.0,866.0,33.0,17.0,16.0,0.5151515151515151,31.861325100739357,1076.3160142200638,99.0,88.0,11.0,0.8888888888888888,109.77089659135092,49.68245324876136,24.0,12.0,12.0,0.5,2013.8822245810863,39373.23209586216,13.0,3.0,10.0,0.2307692307692307,1492.9606580153184,21324.44382609355,80.0,40.0,40.0,0.5,69.87114425686401,9040.455401082434,0.0,0.0,0.0,0.0,113617.0,113650.0,113665.0,113763.0,113778.0,113802.0,113810.0,113823.0,113998.0,114074.0,0.026166404987677236,-0.06326090848942635,0.04808602160231271,-0.15631179491384095,0.008385534168848786
117,117,114424.70498053548,1384.253471779291,11.461126641382346,114547.027373699,-1728.9419494622264,17.8357578060484,114583.65978985756,44277.30133281198,10.163891553826067,114606.87669549928,-9300.592437762418,6.281585999314122,114826.48111997916,8383.97264415609,33.19627400647879,0.9881828500908956,50.0,14.0,159.0,250.0,409.0,36.0,791.0,794.0,36.0,18.0,18.0,0.5,29.497655403437644,1236.9102162136403,101.0,91.0,10.0,0.900990099009901,167.84207485504933,845.7076521845959,25.0,13.0,12.0,0.52,2108.977664515566,40931.896801359035,13.0,3.0,10.0,0.2307692307692307,1498.9210659781916,21237.713154394623,80.0,39.0,41.0,0.4875,71.03293657975276,9124.35647910604,0.0,0.0,0.0,0.0,114407.0,114443.0,114457.0,114557.0,114571.0,114596.0,114604.0,114616.0,114789.0,114866.0,0.02130943212699475,-0.0970779122498909,0.04763112477572554,-0.16116404153914407,0.008472467599147654
118,118,115258.39281134188,950.2369722283562,9.22724337078122,115384.45203459916,-2358.8276488174424,15.28779240518434,115419.67400451354,44302.17067735862,10.185460522917728,115442.87669549928,-9646.302742437883,6.522540667794543,115664.45012155376,8138.9725256562915,30.43039746065622,0.9852896739732764,44.0,14.0,165.0,249.0,414.0,30.0,835.0,836.0,30.0,14.0,16.0,0.4666666666666667,32.64846309488821,929.4378138500864,105.0,96.0,9.0,0.9142857142857144,213.09105955140276,1024.0122980242224,24.0,13.0,11.0,0.5416666666666666,2128.35907448484,40959.42800335211,13.0,3.0,10.0,0.2307692307692307,1506.6039560896838,21725.48846471488,76.0,37.0,39.0,0.4868421052631579,70.99612227073885,8732.657594860726,0.0,0.0,0.0,0.0,115244.0,115274.0,115288.0,115393.0,115407.0,115431.0,115440.0,115453.0,115629.0,115702.0,0.034358232787265505,-0.09033769790609004,0.04804186887331402,-0.15618460215451666,0.008722983404470214
119,119,116082.8164103598,902.3712608870454,8.674004451239416,116210.027373699,-2350.369284006668,17.8357578060484,116246.93330402348,40619.67157017606,10.198265491222935,116269.45203459916,-10875.020282100097,6.977727652795872,116489.12496419932,8477.61631220309,31.411842690241865,0.9798927065845636,44.0,16.0,167.0,248.0,415.0,28.0,823.0,827.0,28.0,14.0,14.0,0.5,35.00250241826052,806.6883785477274,108.0,98.0,10.0,0.9074074074074074,142.754687394784,138.67916955324847,23.0,12.0,11.0,0.5217391304347826,2009.3940738827648,37279.97606741522,15.0,3.0,12.0,0.2,1553.4576023675852,22606.52959873814,78.0,39.0,39.0,0.5,71.55738386105614,9120.012484764093,0.0,0.0,0.0,0.0,116069.0,116097.0,116113.0,116220.0,116235.0,116258.0,116266.0,116280.0,116453.0,116528.0,0.038789469407361776,-0.060737131124956885,0.049468496327235455,-0.1428464096682672,0.008440743391282405
120,120,116871.8959083705,1198.4140806482835,10.448617167841109,117000.027373699,-1831.418692945707,17.8357578060484,117036.52305170278,41598.572952172675,10.115701066456174,117059.45203459916,-10002.326270252428,6.502734611987492,117278.00130761016,8255.620544449117,32.40445607456812,0.9855157560862348,47.0,15.0,166.0,248.0,414.0,32.0,789.0,790.0,33.0,16.0,17.0,0.4848484848484848,35.15559157459207,1094.529490108134,107.0,97.0,10.0,0.9065420560747663,157.8265744034059,683.9546266895229,24.0,13.0,11.0,0.5416666666666666,2032.3732861266117,37683.106941310805,14.0,3.0,11.0,0.2142857142857142,1533.2107264720194,21849.452656252062,79.0,39.0,40.0,0.4936708860759494,69.42281689389571,8956.713887755644,0.0,0.0,0.0,0.0,116856.0,116888.0,116903.0,117010.0,117024.0,117048.0,117056.0,117069.0,117241.0,117317.0,0.029335095558602427,-0.08617722152303309,0.04885680305579958,-0.1532854143172562,0.008409157920972273
121,121,118194.6343965008,1295.58391312325,12.247026826361449,118310.45203459916,-1476.733763247801,15.28779240518434,118346.43034700202,45982.45090651454,10.194269247520271,118369.87669549928,-8261.838484790751,5.975754346223331,118601.82849472453,7717.359215949514,34.05235965360926,0.992917131633834,55.0,18.0,147.0,263.0,410.0,37.0,1323.0,1310.0,37.0,18.0,19.0,0.4864864864864865,30.11418102319302,1200.275675328374,88.0,79.0,9.0,0.8977272727272727,192.6806325959794,1278.4998020750652,25.0,12.0,13.0,0.48,2121.795092548297,44838.114874425344,12.0,3.0,9.0,0.25,1473.377594501612,20506.98487640337,82.0,41.0,41.0,0.5,64.78765218531159,8423.44046771964,0.0,0.0,0.0,0.0,118177.0,118214.0,118232.0,118319.0,118334.0,118359.0,118367.0,118379.0,118564.0,118642.0,0.02324371329263968,-0.13047756974975247,0.046143584143917234,-0.17833531812731007,0.008395054625864058
122,122,119387.8092663648,1460.46415046542,13.52804121901195,119504.45203459916,-1025.7159643270968,15.28779240518434,119540.41680256728,41816.55372798464,9.981443832366809,119563.87669549928,-9043.807343161649,5.98283542441762,119789.2601729957,8231.110940622633,37.12359419692323,0.987525260359879,55.0,16.0,149.0,259.0,408.0,39.0,1193.0,1194.0,39.0,19.0,20.0,0.4871794871794871,29.949917875364676,1352.5984775752704,90.0,81.0,9.0,0.9,158.82997410117392,1289.9590043753412,24.0,12.0,12.0,0.5,1990.968078024137,40345.19321487093,13.0,4.0,9.0,0.3076923076923077,1437.102508812524,20063.959625558215,88.0,43.0,45.0,0.4886363636363636,66.98142368109748,9002.713484825192,0.0,0.0,0.0,0.0,119369.0,119408.0,119424.0,119513.0,119528.0,119552.0,119561.0,119573.0,119749.0,119832.0,0.02050712293473294,-0.15484791075214627,0.047611959870612994,-0.15890459120617706,0.0081375921384472
123,123,120426.76406921315,1274.9445018348845,12.429005967173625,120542.45203459916,-1572.6674659234934,15.28779240518434,120578.35036373556,44345.31072987533,10.126386353789568,120601.87669549928,-8721.863211869313,6.0329816249598025,120827.2881448657,8248.787135563083,34.38697999624081,0.9886861306629788,53.0,14.0,150.0,257.0,407.0,39.0,1037.0,1038.0,39.0,19.0,20.0,0.4871794871794871,24.83778150313349,1131.2128242735153,90.0,81.0,9.0,0.9,182.1371682432865,1150.5363899295944,24.0,12.0,12.0,0.5,2076.3118632397664,42922.68046234149,12.0,3.0,9.0,0.25,1458.373699783813,20470.5297644875,83.0,41.0,42.0,0.4939759036144578,69.04525870914401,8977.971026938203,0.0,0.0,0.0,0.0,120408.0,120447.0,120461.0,120551.0,120566.0,120590.0,120599.0,120611.0,120789.0,120868.0,0.019481460932132544,-0.11581416427174125,0.04682145257448743,-0.16720896262155974,0.008370352825746764
124,124,121393.81570863196,1286.1738264671744,12.569758476498588,121511.45203459916,-1593.3851186224188,15.28779240518434,121547.62378695831,44934.93175283997,10.208233457550552,121570.87669549928,-8953.121455977609,6.152887416604826,121795.28733593858,8511.761149716194,34.24935189083882,0.9889867715945516,54.0,15.0,151.0,256.0,407.0,39.0,967.0,969.0,39.0,19.0,20.0,0.4871794871794871,26.288804162856454,1181.5546305721432,91.0,82.0,9.0,0.9010989010989012,177.8889652487052,1126.968388546802,25.0,13.0,12.0,0.52,2117.9825461639207,41603.26760620706,13.0,3.0,10.0,0.2307692307692307,1498.3575677998008,20970.55326925506,82.0,40.0,42.0,0.4878048780487805,71.23048965030776,9270.32897452187,0.0,0.0,0.0,0.0,121375.0,121414.0,121429.0,121520.0,121535.0,121560.0,121568.0,121580.0,121758.0,121836.0,0.02043954216909062,-0.11164216558172789,0.04713443335829837,-0.16735588533755597,0.008368478437941458
125,125,122297.92554646308,1167.2631695850796,11.076931044566832,122412.17805189872,-1588.4653330497365,22.93168860777651,122452.00557923158,41667.39844956748,10.142442611675447,122474.87669549928,-9970.147333181236,6.471614355756899,122697.3779438327,8788.074560592035,33.666025447830066,0.9848533369351834,49.0,14.0,155.0,253.0,408.0,35.0,907.0,904.0,35.0,17.0,18.0,0.4857142857142857,31.126290944404307,1077.4215077035572,95.0,82.0,13.0,0.8631578947368421,66.15075009232812,370.44291294439415,24.0,12.0,12.0,0.5,2012.3227638723763,38784.399315685456,13.0,3.0,10.0,0.2307692307692307,1491.9724334811117,21313.48350084787,82.0,40.0,42.0,0.4878048780487805,72.00312734133834,9544.02359629703,0.0,0.0,0.0,0.0,122281.0,122316.0,122330.0,122425.0,122440.0,122464.0,122472.0,122485.0,122659.0,122738.0,0.02666604391832957,-0.041644440527589956,0.048294898139801305,-0.14964397050741063,0.008193276791735326
126,126,123120.99309129808,1156.9107264109173,10.881938663393203,123237.60271279886,-1843.04353955254,20.383723206912453,123275.461151612,41366.35102481013,10.112354935278963,123298.45203459916,-9961.537336859446,6.519735852901789,123519.9068075712,8300.76274551862,32.17139249346828,0.985369753688506,49.0,14.0,155.0,251.0,406.0,35.0,820.0,824.0,35.0,17.0,18.0,0.4857142857142857,27.078865971260974,1035.14020316943,97.0,86.0,11.0,0.8865979381443299,127.23787668907224,215.56506855523548,24.0,12.0,12.0,0.5,1994.2581740089065,39592.24285339054,14.0,3.0,11.0,0.2142857142857142,1518.894661952016,21715.545925138165,79.0,39.0,40.0,0.4936708860759494,69.94975262963932,8965.658678160715,0.0,0.0,0.0,0.0,123104.0,123139.0,123153.0,123249.0,123263.0,123287.0,123295.0,123308.0,123483.0,123559.0,0.02340618455087516,-0.06903682629221199,0.0482096710152853,-0.15247592922548586,0.008426906631851814
127,127,123940.58808252616,1041.611554540803,10.23826385428738,124060.60271279886,-2155.177486634038,20.383723206912453,124098.48137841152,44444.811696683595,10.158150936874904,124121.87669549928,-9531.991110135034,6.452084687190345,124343.84237099806,8076.197472737475,30.85113967218617,0.987202763060268,47.0,13.0,160.0,250.0,410.0,34.0,823.0,823.0,34.0,17.0,17.0,0.5,28.461283563799956,951.4261694649,102.0,91.0,11.0,0.8921568627450981,140.831979297002,106.37161607156634,24.0,12.0,12.0,0.5,2100.377456471816,42958.89019423703,13.0,3.0,10.0,0.2307692307692307,1490.6268245966028,21502.63425885313,76.0,38.0,38.0,0.5,69.675929703916,8681.52870082427,0.0,0.0,0.0,0.0,123924.0,123958.0,123971.0,124072.0,124086.0,124110.0,124119.0,124131.0,124308.0,124381.0,0.02732427788432818,-0.06534588458278384,0.04725810226862864,-0.15638147448665488,0.008627318727547028
128,128,124955.75741634778,1491.8374495588953,12.850053041446111,125076.87669549928,-1632.510222907176,12.739827004320285,125111.66096994106,42834.11882343573,10.09741547295015,125134.87669549928,-9493.425631395448,6.312389662489732,125360.15874781855,8254.207353808317,34.02491420303522,0.9885942922850772,55.0,15.0,153.0,257.0,410.0,40.0,1014.0,1013.0,40.0,20.0,20.0,0.5,24.91985280360899,1326.008963972802,93.0,86.0,7.0,0.9247311827956988,247.34399405346144,2075.704912155237,24.0,13.0,11.0,0.5416666666666666,2062.659854247416,39475.55110303048,13.0,3.0,10.0,0.2307692307692307,1479.4645663919814,21095.01812312682,83.0,41.0,42.0,0.4939759036144578,66.83824918551505,8933.165666984425,0.0,0.0,0.0,0.0,124936.0,124976.0,124991.0,125084.0,125099.0,125123.0,125132.0,125144.0,125322.0,125401.0,0.016704134093816495,-0.1515114518627583,0.048154599905505184,-0.15584096024297958,0.008097476392409417
129,129,125879.35662159196,1474.267977620202,12.771087232087597,126000.45203459916,-1586.2063236625906,15.28779240518434,126036.23098253988,42971.51760868667,10.093311518884947,126059.45203459916,-9281.216599251606,6.243454831049471,126282.61046386953,8156.678884042208,33.27328146256738,0.9884985226194832,54.0,15.0,155.0,253.0,408.0,39.0,924.0,925.0,39.0,19.0,20.0,0.4871794871794871,25.87879957822182,1372.7692990264622,96.0,87.0,9.0,0.90625,176.34679515925023,1110.8389628208529,24.0,12.0,12.0,0.5,2047.4901116773924,41045.24027702548,13.0,3.0,10.0,0.2307692307692307,1518.6101902862492,21412.054316446236,80.0,40.0,40.0,0.5,67.95958084304887,8869.613849859734,0.0,0.0,0.0,0.0,125860.0,125899.0,125914.0,126009.0,126024.0,126048.0,126056.0,126069.0,126245.0,126322.0,0.017553660508855377,-0.11117519362302189,0.047647609989540915,-0.16362188879512873,0.008331771031958306
130,130,126981.69703953037,1250.0617981403716,12.228134628567725,127100.45203459916,-1610.5325091448528,15.28779240518434,127136.07645549491,45407.62267345028,10.098711764462562,127159.87669549928,-8652.893318742343,6.0039469367190135,127387.68206806952,7928.335413940461,33.36774415640383,0.9906433963699288,53.0,16.0,152.0,258.0,410.0,37.0,1099.0,1100.0,38.0,19.0,19.0,0.5,26.970044281352383,1106.8994875754754,92.0,83.0,9.0,0.9021739130434784,195.28625472723613,1267.1034714250536,24.0,12.0,12.0,0.5,2124.8260902448296,43366.79856104682,12.0,3.0,9.0,0.25,1457.9390848706405,20564.560381537136,81.0,40.0,41.0,0.4938271604938271,66.67511324929055,8609.66078023566,0.0,0.0,0.0,0.0,126964.0,127001.0,127017.0,127109.0,127124.0,127148.0,127157.0,127169.0,127350.0,127427.0,0.021574968790722033,-0.12125570494129771,0.04679447998248123,-0.16849151274206917,0.00840972408054976
131,131,127976.44083773886,1345.5061884822328,12.90304521111014,128094.027373699,-1346.1274866844851,17.8357578060484,128131.40364351544,41971.96617831438,10.085846316653686,128154.45203459916,-9647.45647299265,6.299801402777752,128378.22822326267,8635.27055929434,34.70755288633622,0.9860307401269104,53.0,14.0,153.0,255.0,408.0,39.0,996.0,995.0,39.0,18.0,21.0,0.4615384615384615,26.78646565194815,1263.000580052386,93.0,83.0,10.0,0.8924731182795699,129.99153109555138,634.0504122147457,24.0,12.0,12.0,0.5,2010.2680264286548,40239.14166412904,14.0,3.0,11.0,0.2142857142857142,1526.1320206810587,21488.051920134458,84.0,41.0,43.0,0.4880952380952381,69.7767213668147,9390.365909981538,0.0,0.0,0.0,0.0,127958.0,127997.0,128011.0,128104.0,128119.0,128143.0,128151.0,128164.0,128340.0,128419.0,0.019908095467152033,-0.09656702829515858,0.04789549333686679,-0.15819009134203962,0.008080432557114544
132,132,128841.34270640412,997.624255897116,10.417546388640384,128960.027373699,-1950.4576872647351,17.8357578060484,128996.27051127712,41874.650157554344,10.108979493554596,129019.45203459916,-9824.657828267258,6.477926563312244,129242.49812396037,8190.922195117454,31.677784677242837,0.9848152985947668,47.0,15.0,156.0,252.0,408.0,32.0,864.0,865.0,32.0,15.0,17.0,0.46875,28.144362065784403,950.537114346814,97.0,87.0,10.0,0.8969072164948454,169.2805858982742,779.71234360304,24.0,12.0,12.0,0.5,2018.1869867910636,39879.36908728046,14.0,3.0,11.0,0.2142857142857142,1514.6800213603694,21696.022209782295,78.0,38.0,40.0,0.4871794871794871,70.29068025852833,8838.384111644235,0.0,0.0,0.0,0.0,128826.0,128858.0,128873.0,128970.0,128984.0,129008.0,129016.0,129029.0,129206.0,129281.0,0.028211385097564132,-0.08679018622324915,0.048195912782497005,-0.15417127474937298,0.008581534360127124
133,133,129751.68582078534,1303.4342308214063,12.122517042422476,129867.027373699,-1586.3673780816257,17.8357578060484,129904.76290120104,45042.358926050234,10.12358729530496,129928.45203459916,-8803.669194794573,6.075254346597109,130152.51537110316,8201.855666836467,33.08932957337545,0.9899809786370976,52.0,14.0,152.0,255.0,407.0,38.0,912.0,908.0,38.0,19.0,19.0,0.5,26.183213586704692,1145.1754434136317,94.0,83.0,11.0,0.8829787234042553,135.43095431773312,452.15704454662693,25.0,13.0,12.0,0.52,2118.899154590399,42145.074069073205,13.0,3.0,10.0,0.2307692307692307,1513.200142012308,21250.35647041753,80.0,40.0,40.0,0.5,67.16521471174107,8891.971276387874,0.0,0.0,0.0,0.0,129733.0,129771.0,129785.0,129877.0,129892.0,129917.0,129925.0,129937.0,130115.0,130192.0,0.02008786708801133,-0.08537174691622068,0.04704236645485577,-0.1718828943399,0.008189026659334927
134,134,130680.79143088016,1110.7548234308902,11.365932860537972,130799.45203459916,-1694.6306970587018,15.28779240518434,130835.56409096476,42856.652478091986,10.078369455806468,130858.87669549928,-9562.313428665311,6.297005809309806,131082.13158738398,8409.820724721809,33.302036090957024,0.9868403519826952,50.0,15.0,154.0,254.0,408.0,35.0,932.0,931.0,35.0,17.0,18.0,0.4857142857142857,26.212524396613215,985.6718758160106,94.0,85.0,9.0,0.9042553191489362,168.06375960797263,813.4321621784904,24.0,13.0,11.0,0.5416666666666666,2070.4901803800353,39269.338624519165,13.0,3.0,10.0,0.2307692307692307,1478.9463815202794,21111.267974801332,81.0,40.0,41.0,0.4938271604938271,67.16217201172282,9064.466254081548,0.0,0.0,0.0,0.0,130664.0,130699.0,130714.0,130808.0,130823.0,130847.0,130856.0,130868.0,131044.0,131122.0,0.023598839135038092,-0.09917426841120824,0.04831199033658672,-0.15466407711409935,0.007986159777971307
135,135,131536.43713442853,1076.8603084278716,10.6689159848456,131656.02737369903,-1739.1478411904047,17.8357578060484,131693.01457862582,41218.945223767536,9.99523690447791,131716.45203459918,-9888.257622316818,6.4043415313168985,131938.0111544819,8154.048580792869,32.267096516357356,0.9846670671778992,47.0,15.0,158.0,251.0,409.0,32.0,855.0,857.0,33.0,15.0,18.0,0.4545454545454545,29.517959829319473,1012.8937988452692,98.0,88.0,10.0,0.8979591836734694,137.1843592227906,403.31694244734183,24.0,12.0,12.0,0.5,2005.3173634264028,38638.345305379306,13.0,3.0,10.0,0.2307692307692307,1491.769739695296,21537.225572034935,79.0,39.0,40.0,0.4936708860759494,68.72086752246527,8799.33100634615,0.0,0.0,0.0,0.0,131521.0,131553.0,131568.0,131666.0,131681.0,131705.0,131713.0,131726.0,131901.0,131977.0,0.027411131785898296,-0.07888021706590005,0.04865038036611629,-0.15086275021076712,0.008427821693917736
136,136,132472.667954324,1233.205975727282,11.735601426445838,132593.45203459918,-1591.821772037462,15.28779240518434,132629.11341297155,45137.47134610424,10.09021843111851,132652.87669549932,-8728.453022412777,6.017247560506596,132877.22154089718,8028.638622432262,33.09031927347108,0.9898714569848268,51.0,16.0,155.0,255.0,410.0,35.0,934.0,937.0,35.0,17.0,18.0,0.4857142857142857,29.447077530605572,1113.5862092424904,95.0,86.0,9.0,0.9052631578947368,195.27225012424788,1247.302162726533,24.0,12.0,12.0,0.5,2115.2670948966093,43146.69314960818,12.0,3.0,9.0,0.25,1460.081092704016,20569.037496601864,81.0,40.0,41.0,0.4938271604938271,68.50632784881961,8711.815986790545,0.0,0.0,0.0,0.0,132456.0,132491.0,132507.0,132602.0,132617.0,132641.0,132650.0,132662.0,132840.0,132917.0,0.02387847456969967,-0.12267218199579463,0.04686277347433144,-0.1672783354570213,0.008532745222510182
137,137,133689.2876167872,1451.610344050582,13.342226072512185,133803.45203459918,-1207.0515519460375,15.28779240518434,133839.66283993763,43691.41636542479,10.110735637722897,133862.87669549932,-8905.778297219473,6.054214665576328,134091.85071443478,8042.138503945471,35.84771290515464,0.9908291115453725,56.0,16.0,146.0,262.0,408.0,40.0,1218.0,1210.0,40.0,19.0,21.0,0.475,27.82127819660746,1383.6608781413477,87.0,78.0,9.0,0.896551724137931,165.1138247935004,1196.837856729713,25.0,13.0,12.0,0.52,2078.1354849227605,40457.64381175496,12.0,3.0,9.0,0.25,1479.7839998025129,20605.90755616613,86.0,43.0,43.0,0.5,63.6719157852723,8743.742015430482,0.0,0.0,0.0,0.0,133670.0,133710.0,133726.0,133812.0,133827.0,133852.0,133860.0,133872.0,134052.0,134134.0,0.019165803213398717,-0.1367910297843534,0.04756393035056866,-0.1661599862939015,0.00791728664633603
