Unnamed: 0,cycle,p_center,p_height,p_width,q_center,q_height,q_width,r_center,r_height,r_width,s_center,s_height,s_width,t_center,t_height,t_width,r_squared,pr_interval,pr_segment,qrs_duration,st_segment,qt_interval,p_duration,pp_interval,rr_interval,fwhm_p,rise_time_p,decay_time_p,rise_decay_symmetry_p,sharpness_deriv_p,sharpness_diff_p,fwhm_q,rise_time_q,decay_time_q,rise_decay_symmetry_q,sharpness_deriv_q,sharpness_diff_q,fwhm_r,rise_time_r,decay_time_r,rise_decay_symmetry_r,sharpness_deriv_r,sharpness_diff_r,fwhm_s,rise_time_s,decay_time_s,rise_decay_symmetry_s,sharpness_deriv_s,sharpness_diff_s,fwhm_t,rise_time_t,decay_time_t,rise_decay_symmetry_t,sharpness_deriv_t,sharpness_diff_t,Average_Heart_Rate,SDNN,RMSSD,NN50,p_on,p_off,q_on,q_off,r_on,r_off,s_on,s_off,t_on,t_off,sharpness_deriv_p_norm,sharpness_deriv_q_norm,sharpness_deriv_r_norm,sharpness_deriv_s_norm,sharpness_deriv_t_norm
0,0,0.0,0.0,0.0,0.0,0.0,0.0,0.0,0.0,0.0,0.0,0.0,0.0,0.0,0.0,0.0,0.0,0.0,0.0,0.0,0.0,0.0,0.0,0.0,0.0,0.0,0.0,0.0,0.0,0.0,0.0,0.0,0.0,0.0,0.0,0.0,0.0,0.0,0.0,0.0,0.0,0.0,0.0,0.0,0.0,0.0,0.0,0.0,0.0,0.0,0.0,0.0,0.0,0.0,0.0,64.1325461445695,350.720468222582,522.3988027477541,403.0,,,,,,,,,,,,,,,
1,1,1813.7375686722855,2649.837343076562,7.240365109403419,1943.547965400864,-13808.606572986311,11.173631427359236,1969.213613564076,47354.16529987168,12.60494912226859,1995.027373698992,-14145.603658194612,14.04365048643258,2219.4368606706776,20193.361237602425,35.15328399906157,0.9604076992425024,123.0,108.0,83.0,249.0,332.0,15.0,,,16.0,7.0,9.0,0.4375,224.88236476049445,3071.835673889598,20.0,16.0,4.0,0.8,1523.3338633847254,8342.822813573644,27.0,14.0,13.0,0.5185185185185185,1919.0550101387903,42610.411303056426,25.0,5.0,20.0,0.2,1370.8238036390874,26420.68819853795,85.0,41.0,44.0,0.4823529411764706,188.9773022955299,20482.15846362171,0.0,0.0,0.0,0.0,1807.0,1822.0,1930.0,1947.0,1955.0,1982.0,1991.0,2013.0,2178.0,2262.0,0.08486647882295956,-0.11031771057659168,0.040525579914381694,-0.09690811624323738,0.009358387643936752
2,2,2662.5479654008636,3119.9512203730287,7.865763350877477,2790.3972872011477,-13377.157640932071,8.98776051775002,2816.704373044053,40741.3359500196,13.061827067666565,2842.0273736989925,-14772.973151807731,12.81540885777376,3065.2235479934384,18622.374909908187,36.27729728354165,0.9593687165266503,124.0,104.0,82.0,249.0,331.0,20.0,847.0,848.0,21.0,10.0,11.0,0.4761904761904761,246.38234529408493,3263.340241032699,17.0,12.0,5.0,0.7058823529411765,1337.6316434564253,5586.185664266183,27.0,15.0,12.0,0.5555555555555556,1642.3908526897908,34081.40637160847,25.0,5.0,20.0,0.2,1284.7790574951448,24401.570560846525,88.0,43.0,45.0,0.4886363636363636,236.3075601724808,19670.054323835437,0.0,0.0,0.0,0.0,2654.0,2674.0,2778.0,2795.0,2802.0,2829.0,2838.0,2860.0,3023.0,3109.0,0.07896993506989089,-0.09999371162103043,0.04031264106568898,-0.08696821176703551,0.012689442743779766
3,3,3514.981393602164,2001.9079021000016,4.481898131840916,3643.6601424784208,-11879.445970273404,8.606472385085508,3671.369494407715,46795.67267257097,11.4299790272394,3696.602712798848,-11449.442412418215,20.383723206912453,3923.109494795968,18464.78271705887,33.21754035097863,0.9375826603183672,122.0,114.0,83.0,246.0,329.0,8.0,856.0,854.0,12.0,7.0,5.0,0.5833333333333334,240.69247591654823,2399.462896754347,15.0,10.0,5.0,0.6666666666666666,1402.7164575932504,3094.822311746374,27.0,14.0,13.0,0.5185185185185185,1808.9363639467783,38172.43857524261,26.0,6.0,20.0,0.2307692307692307,1255.8789540913583,25139.262592924097,86.0,46.0,40.0,0.5348837209302325,207.96300120303417,18180.28203744963,0.0,0.0,0.0,0.0,3512.0,3520.0,3634.0,3649.0,3657.0,3684.0,3692.0,3717.0,3877.0,3963.0,0.12023154295163219,-0.11807928257793718,0.03865606071321797,-0.10968909304519629,0.01126268336810189
4,4,4390.946599804244,2960.6511863915684,9.382599770659937,4518.803303655638,-12461.03701851168,9.880457782682292,4545.5324865383645,48102.07602819203,11.573661905064297,4571.602712798849,-11059.4236079744,17.519516247063358,4795.748002097796,20062.533273204062,34.26305479875998,0.9537695802459552,127.0,104.0,83.0,249.0,332.0,23.0,873.0,875.0,26.0,13.0,13.0,0.5,205.15520371887536,3388.6989182791986,17.0,12.0,5.0,0.7058823529411765,1453.5178425365166,5302.583779272503,26.0,14.0,12.0,0.5384615384615384,1953.8686376892156,39852.6357975033,25.0,5.0,20.0,0.2,1272.6606761267788,23844.571134271235,85.0,42.0,43.0,0.4941176470588235,166.2289186294882,20531.44284403048,0.0,0.0,0.0,0.0,4380.0,4403.0,4507.0,4524.0,4532.0,4558.0,4567.0,4590.0,4754.0,4839.0,0.06929394609599986,-0.11664501440588142,0.04061921644596124,-0.11507477434982474,0.008285539835166628
5,5,5274.4997932622655,2325.377530600698,5.410141233967606,5405.547965400833,-13671.306971077036,15.28779238326829,5429.656235434593,49546.2699023373,12.06658664535632,5458.462623303646,-12558.658165138131,17.8357578060484,5680.591700818967,18513.133315867875,33.08545060830816,0.9409736615999008,121.0,110.0,88.0,242.0,330.0,11.0,886.0,885.0,13.0,6.0,7.0,0.4615384615384615,244.9824363629099,3344.147129773609,22.0,19.0,3.0,0.8636363636363636,1626.7816024545034,8416.664698032113,27.0,14.0,13.0,0.5185185185185185,1798.077182885306,39481.35748555672,28.0,6.0,22.0,0.2142857142857142,1150.8086194450018,24363.636088558156,83.0,42.0,41.0,0.5060240963855421,249.65318310880667,19285.55281712308,0.0,0.0,0.0,0.0,5270.0,5281.0,5391.0,5409.0,5416.0,5443.0,5452.0,5479.0,5639.0,5721.0,0.1053516829586056,-0.11899239815886778,0.03629086884703067,-0.09163467978128093,0.013485193394833133
6,6,6145.940985690856,2291.9365687021377,7.703489359032457,6271.234921109784,-13192.074575119934,7.460656404636406,6297.571378938103,39456.18693528623,12.176694533849105,6324.7533909985605,-12236.966154388274,14.315891958299837,6547.171849494465,18356.681929294933,34.332162480789904,0.9436917875481712,122.0,107.0,81.0,249.0,330.0,15.0,870.0,865.0,22.0,11.0,11.0,0.5,205.9308598167765,2158.407473298338,15.0,10.0,5.0,0.6666666666666666,1392.8453437956498,3155.1036478376,27.0,15.0,12.0,0.5555555555555556,1610.859266854305,32893.47558789204,24.0,6.0,18.0,0.25,1116.7821139074497,20979.08152411824,88.0,43.0,45.0,0.4886363636363636,202.34496561613548,19190.27838066671,0.0,0.0,0.0,0.0,6139.0,6154.0,6261.0,6276.0,6283.0,6310.0,6319.0,6342.0,6504.0,6591.0,0.08985015668797047,-0.10558197923035824,0.04082653170455482,-0.09126298952023845,0.011022959726355482
7,7,7028.726017299569,1936.100398168302,7.64389620259217,7150.547965400863,-11198.68116847646,15.28779240518434,7175.258030768593,48416.54939151423,11.725011539148714,7203.328730098417,-11064.254196489472,18.8520685301575,7424.946485794634,18439.710504605617,33.721674672663035,0.9368350773613816,123.0,104.0,86.0,246.0,332.0,19.0,885.0,879.0,21.0,16.0,5.0,0.7619047619047619,241.36183337064296,1585.62021311667,20.0,16.0,4.0,0.8,1465.8994752164515,8198.636481841604,27.0,13.0,14.0,0.4814814814814814,1774.7405880876358,40384.53821579794,27.0,6.0,21.0,0.2222222222222222,1136.012698731261,22757.430021707652,91.0,44.0,47.0,0.4835164835164835,200.5945143218085,17871.731919055903,0.0,0.0,0.0,0.0,7014.0,7033.0,7137.0,7154.0,7162.0,7189.0,7197.0,7223.0,7382.0,7469.0,0.12466390358629624,-0.1308992954762263,0.03665566031433639,-0.10267413226023869,0.01087839824121462
8,8,7912.821948101295,2804.6128634211163,22.93168860777651,8036.622780144453,-11199.572302593471,7.5902165873020095,8062.742843840907,44406.568037416655,11.381521345506286,8095.75339099856,-10036.718058187724,12.124748021647248,8313.017116944686,20440.99190645214,38.22427710855185,0.969648769538754,126.0,103.0,84.0,249.0,333.0,23.0,879.0,888.0,28.0,17.0,11.0,0.6071428571428571,218.6137497347129,2957.956115136639,15.0,11.0,4.0,0.7333333333333333,1425.0278709441425,7258.529297402445,28.0,14.0,14.0,0.5,1790.0742018567864,41970.79874178077,27.0,11.0,16.0,0.4074074074074074,679.5483359149897,13014.934167285151,93.0,46.0,47.0,0.4946236559139785,233.8913679013668,20763.111828310022,0.0,0.0,0.0,0.0,7900.0,7923.0,8026.0,8041.0,8049.0,8077.0,8085.0,8110.0,8268.0,8359.0,0.07794792378868433,-0.1272394902628693,0.040311023368175686,-0.06770622946418524,0.011442270951026583
9,9,8805.368240234533,3377.016958863206,9.641076762072652,8932.479465694127,-13637.983200850997,8.301184995135221,8958.82808227036,46105.66873765674,12.141185286091291,8984.60271279885,-13805.5746258892,13.216562899137209,9209.246133286972,20505.6737305756,36.56459156082723,0.9671559091147032,129.0,103.0,80.0,253.0,333.0,26.0,893.0,895.0,26.0,13.0,13.0,0.5,233.13655088611875,3303.360369724593,16.0,11.0,5.0,0.6875,1473.6756113574666,4857.18867538996,26.0,14.0,12.0,0.5384615384615384,1939.1661546595792,39041.643021072974,25.0,6.0,19.0,0.24,1318.560379225931,24343.07682401466,90.0,45.0,45.0,0.5,218.08138007997235,21535.755863570957,0.0,0.0,0.0,0.0,8792.0,8818.0,8921.0,8937.0,8945.0,8971.0,8980.0,9001.0,9164.0,9254.0,0.06903623929818781,-0.10805671114666798,0.04205916989716642,-0.09550927179469026,0.010635172632967215
10,10,9693.123304500716,2773.1987975233264,12.739827004320272,9812.28756166303,-13154.867012949904,7.377933133663939,9837.865704651676,39842.82087888998,12.842644075843555,9863.60271279885,-13862.21679037491,11.420255422889504,10086.702570831216,19709.955096454967,38.180057981617445,0.9652216494631026,115.0,103.0,79.0,251.0,330.0,12.0,889.0,880.0,18.0,12.0,6.0,0.6666666666666666,256.3571957246933,3409.4297263026288,15.0,11.0,4.0,0.7333333333333333,1424.23767217917,6644.395755510009,27.0,14.0,13.0,0.5185185185185185,1671.7009718861643,35456.44738708908,22.0,5.0,17.0,0.2272727272727272,1211.08180564013,22971.132629514606,94.0,46.0,48.0,0.4893617021276595,245.2934382967452,20694.82751626704,0.0,0.0,0.0,0.0,9686.0,9698.0,9801.0,9816.0,9824.0,9851.0,9859.0,9880.0,10045.0,10131.0,0.09244097320164693,-0.10826697607639234,0.041957394958746154,-0.08736566625339695,0.012445154598087526
11,11,10557.301356399426,1859.3177800203664,6.445060407696737,10688.54796540086,-12801.542596882467,12.190947173035124,10713.049587150765,45658.032348880806,12.19854035145959,10740.163339810062,-12480.429462648935,15.28779240518434,10964.511603626848,18661.509200776243,33.8272552894099,0.9423446682909974,123.0,112.0,85.0,247.0,332.0,11.0,868.0,875.0,18.0,12.0,6.0,0.6666666666666666,285.8245490730086,1338.8890065014589,18.0,15.0,3.0,0.8333333333333334,1474.713421933364,8355.756971101564,26.0,13.0,13.0,0.5,1808.54761895848,40057.693510687,26.0,6.0,20.0,0.2307692307692307,1182.3868676230632,24707.255680633105,92.0,47.0,45.0,0.5108695652173914,235.61079687512367,17718.926458352995,0.0,0.0,0.0,0.0,10552.0,10563.0,10675.0,10692.0,10700.0,10726.0,10734.0,10760.0,10924.0,11007.0,0.15372549660116613,-0.11519810294522614,0.039610721836172424,-0.09473927729503828,0.012625495309099824
12,12,11448.357607261563,2411.092164065614,8.92150204453509,11575.88143376669,-13920.54425193597,8.780429942339559,11602.586462160483,47785.655052377835,11.919424222197618,11627.02737369928,-12915.388693584446,17.835757798348084,11853.452479724352,19487.17621623322,33.4526494802104,0.9438058554257996,125.0,105.0,84.0,248.0,332.0,20.0,889.0,889.0,20.0,9.0,11.0,0.45,220.26013655406817,2783.6251873349984,17.0,12.0,5.0,0.7058823529411765,1505.6972499417725,4086.5618654211935,27.0,15.0,12.0,0.5555555555555556,1853.1493027601184,36962.85828864626,26.0,4.0,22.0,0.1538461538461538,1412.4891241678613,27834.31837349245,87.0,42.0,45.0,0.4827586206896552,195.03103445771137,19774.728836461534,0.0,0.0,0.0,0.0,11439.0,11459.0,11564.0,11581.0,11588.0,11615.0,11623.0,11648.0,11813.0,11896.0,0.09135284823897515,-0.10816367684276215,0.038780452014917074,-0.10936481724855074,0.010008173184950547
13,13,12332.698643600574,2532.3813835929336,8.608725129433164,12460.520477292432,-14506.426623776491,9.431471259055876,12486.519949476457,46641.27520700613,12.557768574075604,12510.45203459914,-14977.932913443949,15.287792405113557,12736.630762078672,19180.010452763698,34.42848813456127,0.947022578217764,121.0,107.0,84.0,247.0,331.0,14.0,883.0,884.0,21.0,7.0,14.0,0.3333333333333333,248.0659881085327,3059.8753394825844,18.0,14.0,4.0,0.7777777777777778,1537.2033441597848,7432.070081487198,27.0,15.0,12.0,0.5555555555555556,1858.8084340842745,36510.05142655806,27.0,3.0,24.0,0.1111111111111111,1450.438482926118,28195.48977549596,86.0,42.0,44.0,0.4883720930232558,251.1884047506459,19603.35981692111,0.0,0.0,0.0,0.0,12327.0,12341.0,12448.0,12465.0,12472.0,12499.0,12507.0,12532.0,12698.0,12779.0,0.09795759426906606,-0.1059670574998987,0.039853293586729746,-0.09683836156217712,0.013096364330419408
14,14,13202.095930801726,3182.8283304966226,30.5755848103686,13327.123304500716,-11184.595400484395,6.136635762786344,13352.164850181083,40284.38173170984,11.827823175618658,13380.75339099856,-9625.19186144566,9.759595496792064,13601.191607892531,20913.32479536397,43.832626639900546,0.9822896867043356,132.0,80.0,78.0,256.0,334.0,52.0,866.0,867.0,82.0,33.0,49.0,0.4024390243902439,241.34621298033477,2779.2799875988776,13.0,10.0,3.0,0.7692307692307693,1453.8114981502097,7219.568123967738,28.0,14.0,14.0,0.5,1654.688347718421,39138.46723406475,21.0,6.0,15.0,0.2857142857142857,994.825225669632,16475.469569507713,94.0,44.0,50.0,0.4680851063829787,223.50063143961648,21883.89408460912,0.0,0.0,0.0,0.0,13185.0,13237.0,13317.0,13330.0,13338.0,13366.0,13375.0,13395.0,13560.0,13651.0,0.07582759354874696,-0.12998337857507536,0.04107518290186228,-0.10335640473354821,0.010686996621845692
15,15,14087.72601729957,1802.985187854238,7.64389620259217,14207.38344993603,-15682.14729240099,10.125498950382896,14233.051434717609,45248.01291090326,12.98725253263796,14258.240768865602,-14266.38238994559,15.28779240518434,14483.057014543623,19094.030203336737,32.791937575397625,0.9436954441204236,119.0,103.0,85.0,244.0,329.0,16.0,892.0,880.0,16.0,12.0,4.0,0.75,212.04145036203096,1549.3729248835614,18.0,13.0,5.0,0.7222222222222222,1515.290180887856,4851.9184875868195,27.0,14.0,13.0,0.5185185185185185,1746.575045572941,38759.792778626506,27.0,4.0,23.0,0.1481481481481481,1290.711635071983,26635.456803810477,83.0,41.0,42.0,0.4939759036144578,187.75456529264432,18392.716992498063,0.0,0.0,0.0,0.0,14076.0,14092.0,14195.0,14212.0,14219.0,14246.0,14254.0,14280.0,14443.0,14524.0,0.11760576392443077,-0.0966251720912041,0.03860003861411724,-0.09047224445502232,0.009833155352390386
16,16,14971.588513988689,3484.6163304316756,8.9762694043837,15097.50188120428,-12500.417689281396,8.26095814114103,15124.299514923525,48410.483208420585,11.619959369893737,15150.178051898703,-12027.12779993912,16.71535389187949,15374.41350891232,20848.09464737431,36.3420468274249,0.9651505912001628,128.0,104.0,82.0,248.0,330.0,24.0,881.0,891.0,24.0,14.0,10.0,0.5833333333333334,205.66929103254495,3281.1092952691843,17.0,12.0,5.0,0.7058823529411765,1503.6887301820452,6453.916777002502,27.0,14.0,13.0,0.5185185185185185,1944.042447399655,41580.48659196701,24.0,5.0,19.0,0.2083333333333333,1344.9091271709335,25433.106352446153,86.0,43.0,43.0,0.5,208.95381981702255,21947.24813558856,0.0,0.0,0.0,0.0,14958.0,14982.0,15086.0,15103.0,15110.0,15137.0,15145.0,15168.0,15332.0,15416.0,0.05902207632915115,-0.12029107887102027,0.04015746835308402,-0.11182296800552342,0.010022681849410109
17,17,15856.54796540086,2758.745128028204,15.28779240517219,15982.19964928628,-12581.17760772573,7.040333337808623,16007.715511411334,40631.092857259704,11.24215393579838,16039.75339099856,-10490.36792015224,12.106307912073673,16257.946728512825,19486.5233146155,36.33885645757214,0.9554213935022784,123.0,100.0,83.0,246.0,329.0,23.0,884.0,882.0,26.0,12.0,14.0,0.4615384615384615,233.9787248141191,3534.0839822408207,16.0,11.0,5.0,0.6875,1458.460874057139,4389.369913001548,27.0,14.0,13.0,0.5185185185185185,1713.8514613450957,37976.60616498803,24.0,10.0,14.0,0.4166666666666667,707.4730852402333,14019.294434827938,90.0,46.0,44.0,0.5111111111111111,223.0105732317547,20381.276249996896,0.0,0.0,0.0,0.0,15848.0,15871.0,15971.0,15987.0,15994.0,16021.0,16030.0,16054.0,16220.0,16300.0,0.08481346190227944,-0.11592403505706345,0.04218078670357191,-0.06744025477706661,0.011444348980635751
18,18,16742.62526742645,3206.8137653683693,15.28779240518434,16860.931098653004,-11107.305270734574,6.659230189266563,16887.596445463983,41288.14685858619,11.015920686199305,16919.178051898707,-9343.878185421803,12.70000635902608,17137.00794490245,19592.377009694832,37.15159412514356,0.9656015396840488,127.0,101.0,80.0,252.0,332.0,26.0,891.0,882.0,28.0,19.0,9.0,0.6785714285714286,208.73062912615575,3076.7037427436676,14.0,9.0,5.0,0.6428571428571429,1342.0774796313246,4405.845781971975,27.0,14.0,13.0,0.5185185185185185,1765.114343082423,37329.82845508422,24.0,10.0,14.0,0.4166666666666667,787.5794713870125,13949.664950159711,90.0,43.0,47.0,0.4777777777777778,236.7056785398449,20355.17347959352,0.0,0.0,0.0,0.0,16725.0,16751.0,16852.0,16866.0,16874.0,16901.0,16909.0,16932.0,17095.0,17184.0,0.06508972593928562,-0.12082835997741218,0.04275111569255024,-0.08428828541619729,0.012081519175683309
19,19,17628.30135639943,2228.1914396248053,10.191861603456228,17748.88487170559,-13973.49176989415,9.425400848377173,17776.268537819324,47183.167905851544,12.45656021773883,17799.579546031153,-15142.49614108583,15.28779240518434,18027.0863885296,20011.074245101205,33.008839553211146,0.945941454590597,121.0,102.0,84.0,249.0,333.0,19.0,885.0,887.0,20.0,14.0,6.0,0.7,206.8724011825476,2199.676702094464,19.0,14.0,5.0,0.7368421052631579,1450.932767468324,4584.384216787198,26.0,14.0,12.0,0.5384615384615384,1836.3839327023768,38052.57640901142,26.0,4.0,22.0,0.1538461538461538,1420.6368985333409,27196.893983779708,83.0,41.0,42.0,0.4939759036144578,196.96133530798545,20527.99519982513,0.0,0.0,0.0,0.0,17615.0,17634.0,17736.0,17754.0,17762.0,17788.0,17796.0,17820.0,17986.0,18069.0,0.09284318999869323,-0.10383466003782639,0.0389203187112545,-0.09381788083661817,0.009842616787861972
20,20,18518.54796540086,3310.503325929886,12.441084604931074,18644.842437597832,-13635.81307086068,7.889640361542014,18671.02990896857,44830.44712689396,12.151993811354169,18697.178051898707,-12517.334440941211,14.411406465209698,18920.67268247549,20233.93398970866,35.74195492821802,0.9581256456333412,124.0,104.0,83.0,247.0,330.0,20.0,886.0,896.0,20.0,9.0,11.0,0.45,244.2624214583031,4382.731192358616,15.0,11.0,4.0,0.7333333333333333,1511.327819280865,6448.1827606461475,27.0,14.0,13.0,0.5185185185185185,1796.5296794982432,38620.08885837268,26.0,5.0,21.0,0.1923076923076923,1219.6193689920808,24493.16824331259,92.0,48.0,44.0,0.5217391304347826,239.3448179581457,20456.22914870851,0.0,0.0,0.0,0.0,18510.0,18530.0,18634.0,18649.0,18657.0,18684.0,18692.0,18717.0,18880.0,18964.0,0.07378407372229186,-0.11083518169595084,0.04007387377630008,-0.09743443180706246,0.011828882019674511
21,21,19385.57865386078,2543.7630365688096,15.841662229083632,19513.12229978316,-11846.610171050554,7.624664781925,19540.313145991047,41594.925450545066,11.74429296602113,19566.753390998565,-10469.215959944098,15.243485109475705,19787.866889428664,18527.607796910215,35.6757770443336,0.9508944921942116,131.0,106.0,84.0,245.0,329.0,25.0,868.0,869.0,27.0,14.0,13.0,0.5185185185185185,204.46116322107173,2901.6738492883096,15.0,10.0,5.0,0.6666666666666666,1346.0951339984551,3655.133595484027,27.0,14.0,13.0,0.5185185185185185,1691.7326542995286,36046.93082439254,28.0,6.0,22.0,0.2142857142857142,1072.709141463653,20944.73549569064,86.0,41.0,45.0,0.4767441860465116,228.7921457064864,19520.10823599703,0.0,0.0,0.0,0.0,19372.0,19397.0,19503.0,19518.0,19526.0,19553.0,19561.0,19587.0,19747.0,19832.0,0.08037744093367362,-0.11362703039624743,0.040671611644332445,-0.10246317829032354,0.012348714859164995
22,22,20258.67406478525,2266.5015499088317,7.373055129524338,20384.34318736668,-13548.5420903685,10.876551601905662,20411.32565584861,46915.40802103592,12.035969230088815,20437.602712798853,-11687.01789662493,20.383723206912453,20663.95881659626,18646.37514327727,31.12042580968281,0.9345339290065038,122.0,103.0,87.0,242.0,329.0,19.0,876.0,871.0,19.0,9.0,10.0,0.4736842105263157,221.18027994757452,2160.775763287807,18.0,12.0,6.0,0.6666666666666666,1405.2618964275543,2253.746163039182,27.0,14.0,13.0,0.5185185185185185,1723.3949963596929,38780.110296395265,26.0,5.0,21.0,0.1923076923076923,1228.4354109567143,24384.673070058725,79.0,41.0,38.0,0.5189873417721519,241.3532039092352,18432.608153637146,0.0,0.0,0.0,0.0,20250.0,20269.0,20372.0,20390.0,20397.0,20424.0,20433.0,20459.0,20623.0,20701.0,0.0975866440314022,-0.10372052483983044,0.036734093745640184,-0.10511110890926861,0.012943706326548527
23,23,21133.706178671266,3948.4922625154895,8.338488456863443,21259.468365215,-13289.922248985093,7.937669772712581,21286.50685464075,47305.66788278042,12.119987568594109,21310.45203459914,-12769.749360323143,14.538219569027614,21535.017314865243,21104.15420725325,35.7834353610475,0.9662910236979368,123.0,106.0,84.0,246.0,330.0,17.0,872.0,875.0,21.0,10.0,11.0,0.4761904761904761,275.72920058707706,4070.1564066532073,17.0,12.0,5.0,0.7058823529411765,1423.191607574536,4806.762259053804,27.0,15.0,12.0,0.5555555555555556,1863.2312569354751,37407.843297200496,25.0,3.0,22.0,0.12,1497.36108127095,26897.15348410665,90.0,45.0,45.0,0.5,207.00661835944277,21585.392127885472,0.0,0.0,0.0,0.0,21124.0,21141.0,21247.0,21264.0,21272.0,21299.0,21307.0,21331.0,21496.0,21577.0,0.06983151599527679,-0.10708803113451024,0.03938706164243173,-0.11725845504246128,0.009808809030039072
24,24,22010.58288724785,2776.6562077263234,6.287564313202648,22137.54796540086,-11844.48851003551,15.28779240518434,22161.101965805286,50280.644124471175,11.679146821101934,22188.178051898707,-10523.155684893136,22.931688607776376,22410.855319034563,18955.452042786485,33.036077811887246,0.936268745667193,121.0,107.0,86.0,243.0,329.0,14.0,877.0,876.0,15.0,9.0,6.0,0.6,250.1909226993212,3017.207666304152,21.0,18.0,3.0,0.8571428571428571,1574.9581606334243,9811.684936918477,27.0,13.0,14.0,0.4814814814814814,1791.051572149775,40975.78358452475,27.0,5.0,22.0,0.1851851851851851,1238.519538115374,25309.42498443662,84.0,43.0,41.0,0.5119047619047619,198.74281504113895,19657.87400252812,0.0,0.0,0.0,0.0,22002.0,22016.0,22123.0,22141.0,22148.0,22175.0,22183.0,22209.0,22369.0,22452.0,0.09010511348259102,-0.13296970648407533,0.035621094425838606,-0.11769468923598381,0.010484730967772976
25,25,22878.972626301005,2906.4337751769044,17.835757805961144,23006.655451106453,-12064.847530839765,6.773302255967057,23032.744197185017,42706.7082726611,11.686137636771637,23059.178051898707,-9235.922171768903,14.648618707889993,23281.24762354611,20253.513390835345,38.12904784199229,0.968667028016967,128.0,105.0,81.0,250.0,331.0,23.0,867.0,870.0,29.0,11.0,18.0,0.3793103448275862,261.75674978851276,3627.201238239793,15.0,11.0,4.0,0.7333333333333333,1478.2949318173482,6561.255806539437,26.0,14.0,12.0,0.5384615384615384,1731.5988374645342,37449.12794159238,24.0,5.0,19.0,0.2083333333333333,1089.7805932529243,20638.718877150597,98.0,50.0,48.0,0.5102040816326531,172.01816687820573,21181.85502979326,0.0,0.0,0.0,0.0,22869.0,22892.0,22997.0,23011.0,23019.0,23045.0,23054.0,23078.0,23232.0,23328.0,0.09006114366826767,-0.12252910184223875,0.04054629606218153,-0.1179936960257218,0.008493250704642852
26,26,23510.026369017425,1727.300086235746,1.5263268765142732,23892.972626301005,-12829.694982840616,17.83575780570186,23917.58000139091,51231.50031173002,11.731875059793229,23946.137250099524,-12320.805008952737,17.8357578060484,24169.216881947228,18602.964529694345,30.93510203940864,0.9206904193809968,371.0,365.0,86.0,244.0,330.0,6.0,634.0,886.0,6.0,3.0,3.0,0.5,319.8327114287294,1298.5789183445206,22.0,18.0,4.0,0.8181818181818182,1569.5046488935434,7244.231847476394,27.0,14.0,13.0,0.5185185185185185,1857.069090528071,39607.42882496896,25.0,7.0,18.0,0.28,1166.162533706915,23532.584266512036,76.0,37.0,39.0,0.4868421052631579,184.52623228495293,19253.85226551786,0.0,0.0,0.0,0.0,23507.0,23513.0,23878.0,23897.0,23904.0,23931.0,23939.0,23964.0,24132.0,24208.0,0.185163373739957,-0.1223337461251195,0.03624857908178173,-0.09464986523685259,0.009919184224127785
27,27,24653.54796540086,2180.525491108779,10.445680572095156,24780.54796540086,-14058.837320350747,10.389040399895023,24805.45493038833,46163.61477400884,12.343767687750324,24831.473547650676,-12587.313468810473,15.28779240518434,25055.197770869003,19379.944807466,33.940968165301484,0.9468776364121366,124.0,111.0,84.0,244.0,328.0,13.0,1141.0,888.0,13.0,10.0,3.0,0.7692307692307693,231.85876287915173,2676.280587162299,19.0,15.0,4.0,0.7894736842105263,1557.458952906576,7907.821072255949,26.0,13.0,13.0,0.5,1837.3645777679883,41872.46951533526,26.0,4.0,22.0,0.1538461538461538,1294.1013966789285,24422.901049601496,91.0,46.0,45.0,0.5054945054945055,284.167110771772,19822.740059542917,0.0,0.0,0.0,0.0,24644.0,24657.0,24768.0,24784.0,24792.0,24818.0,24827.0,24852.0,25012.0,25096.0,0.10633159934363046,-0.11078149049011969,0.03980114180318622,-0.10280997608310329,0.014662947371361885
28,28,25507.876695499283,1953.363652537897,9.411422630036151,25630.972626301005,-12206.93333831958,11.98344455135864,25656.494084065052,44197.9878156072,12.548457688287622,25680.45203459914,-13945.515427167988,15.28779240518434,25905.16157900146,18163.00743825762,33.344024844248864,0.9389145054573091,117.0,101.0,87.0,246.0,333.0,16.0,859.0,850.0,18.0,11.0,7.0,0.6111111111111112,166.96527522727368,1826.6222260403065,22.0,18.0,4.0,0.8181818181818182,1343.2547569817273,7897.886475035673,26.0,13.0,13.0,0.5,1734.0874795148206,37477.0167453967,27.0,3.0,24.0,0.1111111111111111,1423.2897892156209,26917.597375759775,87.0,42.0,45.0,0.4827586206896552,204.83818589635084,18068.729972808775,0.0,0.0,0.0,0.0,25499.0,25515.0,25616.0,25635.0,25643.0,25669.0,25677.0,25703.0,25864.0,25949.0,0.08547577662272202,-0.11004031231701976,0.03923453453920541,-0.10206075183444534,0.011277768100501366
29,29,26367.397287201147,3145.328174987855,9.518177835473166,26493.135764931,-13433.308252416093,10.84251175600337,26518.638668907184,46924.14673416171,12.42764740569502,26544.45203459914,-12684.31218858052,14.310266060042604,26771.53415569611,20022.901623955764,34.654181892111566,0.9623397815443706,122.0,99.0,85.0,247.0,332.0,23.0,854.0,862.0,24.0,12.0,12.0,0.5,235.28492780477913,2883.8381992009763,19.0,15.0,4.0,0.7894736842105263,1449.5964230011043,7196.44797077787,27.0,14.0,13.0,0.5185185185185185,1862.829173332557,39425.107893556415,24.0,4.0,20.0,0.1666666666666666,1418.2991887183846,24661.845823754586,90.0,49.0,41.0,0.5444444444444444,219.95216437695564,19288.848147890887,0.0,0.0,0.0,0.0,26356.0,26379.0,26478.0,26497.0,26505.0,26532.0,26541.0,26563.0,26724.0,26810.0,0.07480457196034485,-0.10791060517355301,0.03969873301875899,-0.11181522242847794,0.010985029468146657
30,30,27223.821948101293,1907.0378680904664,13.472685403608429,27348.250564179507,-14616.430686462569,8.15478077357823,27375.209834596768,44283.9094505986,12.55853682355308,27399.656641788024,-14207.066140458304,15.28779240518434,27623.81918623434,19072.909881484,36.09216542820453,0.9551961691825372,128.0,108.0,83.0,248.0,331.0,20.0,856.0,857.0,31.0,16.0,15.0,0.5161290322580645,306.6463990846696,1436.2643612239592,16.0,11.0,5.0,0.6875,1484.8369187601886,3400.921462069623,27.0,14.0,13.0,0.5185185185185185,1721.4031134256754,36493.34724467198,25.0,4.0,21.0,0.16,1287.511655081279,25785.41844892756,86.0,42.0,44.0,0.4883720930232558,235.14522599693055,20529.80718432992,0.0,0.0,0.0,0.0,27209.0,27229.0,27337.0,27353.0,27361.0,27388.0,27396.0,27420.0,27582.0,27668.0,0.1607972260098418,-0.10158683406444867,0.03887197708562758,-0.09062473858798727,0.01232875462937146
31,31,28047.69864360057,1792.05362342712,5.555175387431193,28182.972626301005,-10602.68759684893,17.835757805719595,28207.44794812433,46323.91439528311,11.424028874454962,28237.141459651702,-9510.292303273563,20.383723206912453,28458.168084775218,16884.732030636562,32.146832018807615,0.9298971874751332,127.0,113.0,89.0,243.0,332.0,14.0,826.0,833.0,15.0,7.0,8.0,0.4666666666666667,193.9964310719662,1947.73001789304,19.0,15.0,4.0,0.7894736842105263,1434.5274917699896,6479.681963059174,27.0,13.0,14.0,0.4814814814814814,1685.7759464381768,38700.55286310516,28.0,7.0,21.0,0.25,873.9961599109969,18909.696356663775,81.0,38.0,43.0,0.4691358024691358,214.6665697929901,17596.464514853258,0.0,0.0,0.0,0.0,28042.0,28056.0,28169.0,28187.0,28194.0,28221.0,28230.0,28258.0,28420.0,28501.0,0.10825369762148511,-0.13529847773656226,0.03639105132725635,-0.0919000312545763,0.012713649787481825
32,32,28911.123304500717,2766.6815938625996,12.73982700432028,29025.10037999927,-13680.167193176105,7.352761732577879,29050.48809664189,40369.35291961075,12.955854562291323,29076.027373698995,-11641.882499036185,10.300662457861554,29299.587669685377,19001.964391801856,38.54130992501012,0.9741716926148702,110.0,93.0,79.0,254.0,333.0,17.0,863.0,842.0,23.0,7.0,16.0,0.3043478260869565,259.37445364744036,3590.3277005699174,16.0,12.0,4.0,0.75,1458.7642942740438,7897.821128650935,28.0,14.0,14.0,0.5,1641.1165749655042,39525.13488013076,22.0,4.0,18.0,0.1818181818181818,1221.0195808822905,21213.69366970124,94.0,47.0,47.0,0.5,216.10113537090328,19835.447524924224,0.0,0.0,0.0,0.0,28904.0,28921.0,29014.0,29029.0,29036.0,29064.0,29072.0,29093.0,29253.0,29347.0,0.09374929671083848,-0.10663351358758975,0.04065253605212675,-0.10488162726117335,0.011372568167959373
33,33,29735.69864360057,3261.7263032623673,4.943532499415288,29860.80015987033,-13465.71620991648,7.928866254076708,29888.18286495909,42465.782562237386,12.29094463947795,29912.45203459914,-12530.24611688303,15.041015224294975,30136.987634230012,18543.418709451573,34.60017917327179,0.957110004006834,119.0,107.0,83.0,246.0,329.0,12.0,825.0,838.0,14.0,7.0,7.0,0.5,265.30523067905386,3896.485345627624,17.0,12.0,5.0,0.7058823529411765,1385.5618635152605,4054.4772560712977,27.0,14.0,13.0,0.5185185185185185,1693.2446814539096,35558.43204018273,24.0,3.0,21.0,0.125,1312.4652094808175,25457.494396234364,87.0,43.0,44.0,0.4942528735632184,230.76614707480397,17880.97441322383,0.0,0.0,0.0,0.0,29730.0,29742.0,29849.0,29866.0,29874.0,29901.0,29909.0,29932.0,30095.0,30178.0,0.08133890032823922,-0.10289551940021573,0.039873153849745,-0.10474376937516218,0.012444638752463835
34,34,30572.150678199716,2323.562188695107,4.126301390899127,30692.972626301005,-11077.219161124192,17.8357578060484,30717.024109885584,47951.30039879709,11.565861861693044,30743.704424636428,-12436.52698606306,17.8357578060484,30965.73713953215,17501.618164987052,32.09326088243692,0.925604046447333,118.0,105.0,83.0,241.0,324.0,13.0,839.0,829.0,13.0,10.0,3.0,0.7692307692307693,291.6542376514802,2544.570343327585,18.0,14.0,4.0,0.7777777777777778,1501.9234970785114,6543.663091885512,26.0,13.0,13.0,0.5,1715.1442442386472,37063.096210717296,25.0,6.0,19.0,0.24,1235.4101952826693,25055.565703905453,79.0,40.0,39.0,0.5063291139240507,229.29277172587743,17078.77959028934,0.0,0.0,0.0,0.0,30562.0,30575.0,30680.0,30697.0,30704.0,30730.0,30738.0,30763.0,30929.0,31004.0,0.12552030630833716,-0.13558669150011526,0.03576846154273792,-0.09933723431526555,0.013101232672564541
35,35,31383.027373698995,1730.728022733026,10.722918770318357,31504.13364770393,-11007.461729692568,12.739827004320285,31530.258521358,44578.46984865393,12.091565570723176,31556.178051898707,-12289.935872846394,16.79141431927914,31777.926845465045,18581.53095225565,33.92788855912824,0.9483388773426892,129.0,99.0,84.0,244.0,328.0,30.0,813.0,814.0,30.0,20.0,10.0,0.6666666666666666,165.13646089532887,1706.1498509236094,17.0,12.0,5.0,0.7058823529411765,1313.9693748298291,5007.665871584805,27.0,14.0,13.0,0.5185185185185185,1670.147935731625,37118.98243327395,26.0,5.0,21.0,0.1923076923076923,1206.5601683130028,24875.038513863205,84.0,42.0,42.0,0.5,174.44469996459333,19082.23243984193,0.0,0.0,0.0,0.0,31363.0,31393.0,31492.0,31509.0,31516.0,31543.0,31551.0,31576.0,31736.0,31820.0,0.0954144491371664,-0.11937078748004219,0.03746534911139522,-0.09817465125906788,0.009388069283032738
36,36,32217.11713261246,3287.609332039853,5.5790616012394265,32339.17737012031,-14028.337700703709,8.137350904935618,32365.46978682511,45156.247966340736,12.229098785846272,32391.027373698995,-13293.08879781193,12.615770948781266,32613.8893424943,20146.64224181773,35.27702543571079,0.9663667438048736,118.0,103.0,81.0,250.0,331.0,15.0,831.0,834.0,15.0,8.0,7.0,0.5333333333333333,284.511161237805,3049.8227315170743,17.0,12.0,5.0,0.7058823529411765,1527.7240144747177,5199.917885199677,27.0,14.0,13.0,0.5185185185185185,1894.91556225246,41552.84905356632,23.0,5.0,18.0,0.217391304347826,1338.456379074608,25148.481363108283,87.0,42.0,45.0,0.4827586206896552,219.10275887896333,20927.2074694495,0.0,0.0,0.0,0.0,32209.0,32224.0,32327.0,32344.0,32351.0,32378.0,32387.0,32408.0,32572.0,32658.0,0.08654044094140445,-0.10890271157345192,0.04196352991207156,-0.1006881394860554,0.010875398304546195
37,37,33052.79315192772,2822.839770409938,12.099950631934083,33178.30491888919,-12760.368491694357,7.96778747227838,33204.94467447063,44090.395627353966,12.513068101473092,33228.45203459914,-13761.342695239966,13.657184207561736,33452.28614055338,19162.84623918821,35.47054357480407,0.961746999813294,132.0,101.0,81.0,245.0,326.0,31.0,835.0,839.0,32.0,18.0,14.0,0.5625,223.73927778399317,2235.8659865669692,16.0,11.0,5.0,0.6875,1373.2404661637286,5577.53081354112,27.0,15.0,12.0,0.5555555555555556,1740.9168763595123,35381.97811632139,24.0,3.0,21.0,0.125,1403.2560215455253,26219.310653095512,82.0,41.0,41.0,0.5,208.91180162371217,19637.62173623112,0.0,0.0,0.0,0.0,33035.0,33066.0,33167.0,33183.0,33190.0,33217.0,33225.0,33248.0,33412.0,33493.0,0.07926035339636063,-0.10761761833583114,0.039485172486849636,-0.10197086524347003,0.010901919214719027
38,38,33901.54796540086,2397.320497183257,7.279987260729471,34022.501182210115,-13542.330939417769,9.394513890860935,34048.12258693434,43696.61407191762,12.698958868428395,34072.45203459914,-13255.404457623285,15.195380953657194,34295.63516862234,18911.35082976362,34.98085143225236,0.957312829250716,119.0,106.0,81.0,245.0,326.0,13.0,847.0,844.0,16.0,9.0,7.0,0.5625,274.67351860393654,2494.182730942489,16.0,12.0,4.0,0.75,1527.0451487032524,7367.367224997975,27.0,14.0,13.0,0.5185185185185185,1713.87256058669,36906.7831763377,28.0,3.0,25.0,0.1071428571428571,1372.6286739967202,25091.20973727362,89.0,45.0,44.0,0.5056179775280899,223.00148981327584,19162.963683751022,0.0,0.0,0.0,0.0,33893.0,33906.0,34012.0,34027.0,34034.0,34061.0,34069.0,34093.0,34252.0,34338.0,0.11457521800971772,-0.1127608796103535,0.03922209070400582,-0.10355237958863722,0.011791938704997479
39,39,34759.726017299574,2004.165941560442,3.5277382938792705,34878.6226689013,-13002.59882451015,9.19846594694221,34906.856275972714,45815.90961262213,11.558393424248738,34933.178051898714,-10184.431275694122,22.93168860777651,35156.24790742292,17936.552479423117,31.501257785977593,0.933198368919016,116.0,105.0,83.0,245.0,328.0,11.0,862.0,858.0,11.0,7.0,4.0,0.6363636363636364,330.19223258621656,832.1350956787684,16.0,10.0,6.0,0.625,1401.183017224169,861.2581874499447,27.0,14.0,13.0,0.5185185185185185,1717.065591432951,36638.712667208616,25.0,5.0,20.0,0.2,1231.000882664846,23772.632344747515,80.0,39.0,41.0,0.4875,193.6449954561801,18049.362209030172,0.0,0.0,0.0,0.0,34753.0,34764.0,34869.0,34885.0,34893.0,34920.0,34928.0,34952.0,35118.0,35197.0,0.16475294073160887,-0.10776176640802851,0.03747749648431961,-0.12087085172862996,0.010796110104120087
40,40,35600.556698871085,1438.4170117558006,1.767851166969827,35727.972626301,-11794.242532904858,17.835757804045244,35752.558824673884,50650.92377143464,11.296976457271995,35784.53651061496,-9949.856976459909,20.383723206912453,36002.80647301276,18369.903526282684,32.28372782327636,0.9354473391909344,116.0,111.0,86.0,246.0,332.0,5.0,840.0,848.0,5.0,3.0,2.0,0.6,185.28841945986304,1059.593211597365,19.0,15.0,4.0,0.7894736842105263,1534.7499300058505,6345.3071408259375,26.0,13.0,13.0,0.5,1906.9236001595923,41559.950635142064,25.0,10.0,15.0,0.4,789.0231807753797,15640.54994024204,85.0,41.0,44.0,0.4823529411764706,154.85286332657293,18073.13109199588,0.0,0.0,0.0,0.0,35598.0,35603.0,35714.0,35732.0,35740.0,35766.0,35775.0,35800.0,35962.0,36046.0,0.12881411853833064,-0.13012704510052583,0.03764834791098185,-0.07929995201359254,0.008429704767094594
41,41,36421.26289041017,2853.897649624516,7.084940693747263,36544.73993480204,-9877.186367619906,8.04805705061382,36572.714063137646,39577.79692511161,11.103419171360152,36604.753390998565,-9694.659012478514,12.2033242320702,36822.21600562559,18457.310331260665,34.265209088882514,0.960349601366265,122.0,102.0,86.0,243.0,329.0,20.0,822.0,819.0,21.0,10.0,11.0,0.4761904761904761,266.3218945394663,2318.450369612545,18.0,12.0,6.0,0.6666666666666666,1175.541724972932,3165.4542044801674,27.0,14.0,13.0,0.5185185185185185,1641.2412363789272,36455.55050289159,25.0,11.0,14.0,0.44,716.0882586380177,12014.684863727438,80.0,39.0,41.0,0.4875,221.0070084471595,18982.26859061431,0.0,0.0,0.0,0.0,36411.0,36431.0,36533.0,36551.0,36559.0,36586.0,36594.0,36619.0,36784.0,36862.0,0.09331865653083458,-0.11901584937454215,0.041468736612208464,-0.0738642027240259,0.011973955277375692
42,42,37246.69864360057,2975.3229882779588,8.257456423710476,37371.06620078157,-12800.25265336244,8.772745403102645,37398.69766731841,46264.07536372016,11.67887683580526,37424.60271279886,-11642.305937845524,16.676250386145473,37647.106331515206,19388.03900490793,34.018390409919654,0.9496665436232816,119.0,110.0,83.0,246.0,329.0,9.0,822.0,825.0,11.0,7.0,4.0,0.6363636363636364,346.24835250534704,4154.721341406667,18.0,12.0,6.0,0.6666666666666666,1386.226126218888,3510.2690340335284,27.0,15.0,12.0,0.5555555555555556,1858.476188968929,37061.64156235546,24.0,6.0,18.0,0.25,1221.0798804095873,24037.642461156192,82.0,39.0,43.0,0.4756097560975609,236.3997491551777,19876.33963284091,0.0,0.0,0.0,0.0,37241.0,37250.0,37360.0,37377.0,37384.0,37411.0,37420.0,37443.0,37610.0,37689.0,0.1163733664780195,-0.10829677849012978,0.0401710436090619,-0.10488299198874645,0.012193071671422518
43,43,38080.726017299574,1656.4173452807408,7.64389620259217,38194.972626301,-10223.120792186644,17.83575780604758,38219.8925899493,45671.687713771345,11.08827557961533,38255.178051898714,-11655.146313933255,12.34410644461625,38469.69254895612,18171.429362169907,33.743775547378476,0.9371644796154088,103.0,96.0,86.0,243.0,329.0,7.0,837.0,824.0,7.0,2.0,5.0,0.2857142857142857,352.060033123474,2057.0661845215304,18.0,13.0,5.0,0.7222222222222222,1418.0815483329943,5865.512247618495,27.0,13.0,14.0,0.4814814814814814,1736.2386469006908,40797.14473824649,25.0,12.0,13.0,0.48,676.5663313220629,12700.82443716962,84.0,42.0,42.0,0.5,287.31050278617005,19049.499560468597,0.0,0.0,0.0,0.0,38079.0,38086.0,38182.0,38199.0,38207.0,38234.0,38243.0,38268.0,38429.0,38511.0,0.21254307323363875,-0.138713175473463,0.03801564456697676,-0.05804872054787122,0.01581111188667997
44,44,38889.2604630805,2007.3659199277313,5.188554769107093,39013.54796540086,-11800.1190760654,15.28779240518434,39038.47313943128,48396.08491810251,11.796939483483753,39065.753390998565,-11550.056013852876,19.63312846492665,39287.54039324552,18145.509148486857,33.22794532360792,0.9415877653968064,116.0,109.0,84.0,244.0,328.0,7.0,806.0,817.0,8.0,5.0,3.0,0.625,258.6888951853605,2341.9822072455627,18.0,14.0,4.0,0.7777777777777778,1534.215336881752,6753.942177177449,27.0,13.0,14.0,0.4814814814814814,1789.1990940567998,40982.22825071915,26.0,6.0,20.0,0.2307692307692307,1157.7954955161258,23916.953785528483,84.0,42.0,42.0,0.5,256.056847649759,18050.955497284132,0.0,0.0,0.0,0.0,38885.0,38892.0,39001.0,39017.0,39025.0,39052.0,39060.0,39085.0,39250.0,39329.0,0.12886982518596996,-0.1300169368624131,0.0369699139317683,-0.10024154810396521,0.014111306855840495
45,45,39712.22990865556,1662.2761275652958,7.191440033478835,39834.77578875731,-13629.297031873632,7.59224359697627,39863.04525790294,45860.35043054981,11.745856850497775,39887.027373699,-12135.774094494604,17.83575779118765,40110.51819377055,18963.164650266743,33.13374038160904,0.9467633067052478,119.0,109.0,84.0,243.0,327.0,10.0,823.0,822.0,10.0,6.0,4.0,0.6,267.0687184888839,2364.2363793634695,16.0,10.0,6.0,0.625,1443.3029032846073,1819.3153073849771,27.0,15.0,12.0,0.5555555555555556,1739.7778473045655,34928.24671088184,28.0,4.0,24.0,0.1428571428571428,1360.8564049521322,26381.18394076075,85.0,44.0,41.0,0.5176470588235295,238.69167066661495,19419.26875572841,0.0,0.0,0.0,0.0,39706.0,39716.0,39825.0,39841.0,39848.0,39875.0,39883.0,39909.0,40070.0,40152.0,0.16066447328462471,-0.10589709065033086,0.03793642723989337,-0.1121359374652075,0.01258712219551695
46,46,40533.064574826385,2647.220036477711,6.091368664427627,40659.972626301,-10626.694421733218,17.835757806048395,40684.7282253116,50573.475824785986,11.532327834379972,40711.36421894661,-13040.151245061194,17.8357578060484,40933.02213055524,18627.34439201504,32.66944085254925,0.9458483760588648,120.0,109.0,85.0,241.0,326.0,11.0,823.0,824.0,11.0,7.0,4.0,0.6363636363636364,319.71749942611405,3371.262474566838,19.0,15.0,4.0,0.7894736842105263,1492.8827274947,7437.146579622383,26.0,14.0,12.0,0.5384615384615384,1879.500281461412,38575.27399568452,26.0,5.0,21.0,0.1923076923076923,1293.4951094872265,26313.890188275145,84.0,43.0,41.0,0.5119047619047619,233.4872831951145,18814.16209829795,0.0,0.0,0.0,0.0,40526.0,40537.0,40646.0,40664.0,40671.0,40697.0,40706.0,40731.0,40892.0,40972.0,0.12077481094148783,-0.14048420592969402,0.0371637553244911,-0.09919325973900209,0.012534652190958749
47,47,41350.6032170691,1952.4570107551483,5.095930801728113,41468.810340037955,-13729.01112794407,8.4178289709846,41494.528789709686,38662.24041986075,11.870650268404626,41523.12330450071,-12040.43396260501,12.739827004320285,41740.96904012482,17562.899787475777,33.28038361067097,0.9454359076375876,110.0,103.0,84.0,243.0,327.0,7.0,816.0,810.0,9.0,4.0,5.0,0.4444444444444444,285.9242515659953,1988.5433405771175,15.0,11.0,4.0,0.7333333333333333,1467.7488998626047,2591.3175934237465,26.0,14.0,12.0,0.5384615384615384,1724.670333136507,34902.13355623772,28.0,8.0,20.0,0.2857142857142857,997.8139244149236,19305.054890591688,87.0,42.0,45.0,0.4827586206896552,260.73010267127046,17769.155676323695,0.0,0.0,0.0,0.0,41348.0,41355.0,41458.0,41473.0,41481.0,41507.0,41516.0,41542.0,41701.0,41785.0,0.1464433019477386,-0.10690856655182865,0.044608649535233504,-0.08287192367932239,0.014845504206383895
48,48,42177.61346637673,1968.535268487356,7.64389620259217,42300.21403370145,-13700.833563119566,7.310224944791449,42327.77912456708,47984.673434379685,11.481975955435884,42352.60271279886,-10354.193622177198,20.383723097876295,42575.52888355919,18909.358845726216,34.23759234281137,0.9435844716996602,116.0,109.0,84.0,245.0,329.0,7.0,827.0,833.0,7.0,4.0,3.0,0.5714285714285714,221.31726366929072,2684.1118095704924,16.0,10.0,6.0,0.625,1511.4751901996835,1662.9838492251756,27.0,15.0,12.0,0.5555555555555556,1819.6823293963832,37687.69768301988,27.0,5.0,22.0,0.1851851851851851,1287.3964359843064,25187.04968556342,86.0,42.0,44.0,0.4883720930232558,261.21123300476967,20232.94694941849,0.0,0.0,0.0,0.0,42174.0,42181.0,42290.0,42306.0,42313.0,42340.0,42348.0,42374.0,42535.0,42619.0,0.1124273805057876,-0.11031994390971443,0.03792215720473428,-0.12433575061093004,0.01381385985299058
49,49,43023.13592863115,2764.222825926586,6.0982614748902195,43147.972626301,-18427.997285813097,10.024682185724178,43172.64484278328,45513.57999889142,14.470111205006791,43197.95983637814,-17794.78226103178,12.739827004313405,43420.6442885676,19776.11840608979,34.74088886221224,0.9601454703488346,119.0,102.0,83.0,247.0,330.0,17.0,845.0,843.0,17.0,8.0,9.0,0.4705882352941176,241.6662654726678,2491.0024832549784,19.0,15.0,4.0,0.7894736842105263,1569.0464735962848,9194.35628269572,28.0,15.0,13.0,0.5357142857142857,1729.8969846474604,38131.9074331955,25.0,4.0,21.0,0.16,1423.9825298823846,26452.713369607016,87.0,43.0,44.0,0.4942528735632184,315.4139686196132,19150.461951901525,0.0,0.0,0.0,0.0,43015.0,43032.0,43134.0,43152.0,43158.0,43186.0,43195.0,43217.0,43382.0,43464.0,0.08742647778102318,-0.08514470939303993,0.038008369912663334,-0.08002247563324885,0.01594923544361899
50,50,43855.54796540086,2000.4644438045968,15.28779240518434,43978.53359035575,-12619.26980449299,8.044523028997979,44004.524114555905,41420.54300728808,12.308445745480665,44029.45203459914,-12231.386115736905,15.28779240518275,44259.65746019684,18729.36099805593,33.97215102203675,0.9404191439885526,122.0,86.0,81.0,241.0,322.0,36.0,831.0,834.0,40.0,11.0,29.0,0.275,219.6866854459325,2133.0081983455416,15.0,11.0,4.0,0.7333333333333333,1424.7795735303018,6252.690074752149,27.0,15.0,12.0,0.5555555555555556,1636.3482772166296,33294.44261796789,27.0,4.0,23.0,0.1481481481481481,1194.3561936114077,23073.09137658732,82.0,48.0,34.0,0.5853658536585366,244.5594834349722,18540.573301563774,0.0,0.0,0.0,0.0,43847.0,43883.0,43969.0,43983.0,43990.0,44017.0,44026.0,44050.0,44213.0,44291.0,0.10981784061511231,-0.11290507260753078,0.03950571765630182,-0.0976468392306534,0.013057545500904008
51,51,44695.158547963525,3737.0932570290784,6.0004582271060265,44819.18633726578,-11968.481666647343,8.112504598890448,44846.22700798054,43204.04249796414,11.51443918671443,44873.32873009842,-10847.978633139692,14.778567439738667,45096.10949479597,19570.91960405108,35.932874835332036,0.9631526775562366,121.0,107.0,82.0,245.0,327.0,14.0,841.0,841.0,15.0,8.0,7.0,0.5333333333333333,310.64436421156796,3330.9758124606014,16.0,11.0,5.0,0.6875,1376.7567915485258,3393.9392802189477,27.0,14.0,13.0,0.5185185185185185,1784.3405745284674,38198.89877736815,25.0,6.0,19.0,0.24,1108.7715983463302,21008.767612511707,97.0,52.0,45.0,0.5360824742268041,265.4709999051299,20010.3882754388,0.0,0.0,0.0,0.0,44688.0,44702.0,44809.0,44824.0,44832.0,44859.0,44867.0,44891.0,45054.0,45136.0,0.08312459519903033,-0.11503186702329538,0.04130031523352355,-0.102209972552778,0.013564564429061307
52,52,45553.86720340425,2211.324466225219,6.694348147431694,45677.821948101286,-10617.341304861204,22.93168860777651,45703.39908712307,50543.213677053376,11.206742058641538,45732.54796540086,-12441.569410922646,15.28779240518434,45952.576463079095,19781.85929287286,34.85408015052068,0.9304463225129482,118.0,102.0,88.0,244.0,332.0,16.0,858.0,858.0,20.0,9.0,11.0,0.45,197.79033602735407,1646.6505651178727,19.0,14.0,5.0,0.7368421052631579,1500.7911196274042,4914.254859448663,26.0,13.0,13.0,0.5,1921.492658866167,41130.6514851713,28.0,9.0,19.0,0.3214285714285714,1007.7683127905052,20507.893660882262,88.0,45.0,43.0,0.5113636363636364,238.68767965215625,20908.17605063783,0.0,0.0,0.0,0.0,45546.0,45562.0,45664.0,45683.0,45690.0,45716.0,45724.0,45752.0,45909.0,45996.0,0.08944428510981324,-0.141352818613852,0.03801682795921077,-0.08100009568774899,0.01206598814188069
53,53,46409.726017299574,2067.9158269186737,7.64389620259217,46529.54796540086,-11291.316761310056,15.28779240518434,46553.11812535544,47046.20459510371,11.679685664291856,46582.47940829813,-9942.64419764304,24.561000242076055,46803.10192307922,17579.561511646603,34.1010972845736,0.9402751364294706,106.0,99.0,87.0,243.0,330.0,7.0,859.0,850.0,18.0,12.0,6.0,0.6666666666666666,258.50198076574287,1954.3603301712144,21.0,18.0,3.0,0.8571428571428571,1433.6307912712648,8835.223945321653,27.0,13.0,14.0,0.4814814814814814,1679.940255618521,38066.38087340367,26.0,7.0,19.0,0.2692307692307692,1025.076347012258,21031.457679980973,87.0,43.0,44.0,0.4942528735632184,210.15010531587376,18210.91953271212,0.0,0.0,0.0,0.0,46408.0,46415.0,46514.0,46533.0,46540.0,46567.0,46575.0,46601.0,46760.0,46844.0,0.12500604589449238,-0.12696754697234533,0.035708305698125525,-0.10309896709924089,0.01195422907315678
54,54,47227.273982700426,1600.7649991367336,4.743441355532166,47362.54796540086,-12232.280075925057,15.28779240518434,47385.97315126884,47225.20901394263,11.967177918508172,47414.753390998565,-10507.673622094017,24.03645025258423,47636.927906027915,17181.729066425418,32.35754344853553,0.9266122240379696,123.0,108.0,90.0,241.0,331.0,15.0,815.0,831.0,19.0,4.0,15.0,0.2105263157894736,170.48259506487224,2403.752680514011,22.0,19.0,3.0,0.8636363636363636,1453.5759173138183,8542.833558895678,27.0,13.0,14.0,0.4814814814814814,1615.156536248442,37899.82185925457,28.0,7.0,21.0,0.25,1006.5705529019788,22041.892118976877,85.0,44.0,41.0,0.5176470588235295,202.08813595663528,17111.188171646365,0.0,0.0,0.0,0.0,47223.0,47238.0,47346.0,47366.0,47373.0,47400.0,47409.0,47436.0,47595.0,47677.0,0.10650070132518559,-0.1188311507169192,0.03420115167243808,-0.09579385400641945,0.01176180436644953
55,55,48073.076355150784,1926.94727913728,3.726319618192894,48197.39728720114,-13770.668110037246,12.35136010844168,48223.0338921092,47912.6403668293,12.238528272270838,48249.60271279886,-12821.101064879644,20.383723206912453,48474.214793043706,17709.83165196844,31.406827274626743,0.9311325157018188,116.0,107.0,86.0,243.0,329.0,9.0,846.0,836.0,9.0,5.0,4.0,0.5555555555555556,252.20666837025425,1986.1853187088464,18.0,13.0,5.0,0.7222222222222222,1464.8521378477565,4577.518973395481,28.0,14.0,14.0,0.5,1697.6631206425957,38668.15658776388,30.0,5.0,25.0,0.1666666666666666,1292.8047470561949,26408.243873285795,83.0,41.0,42.0,0.4939759036144578,234.80487475267657,17321.878378645597,0.0,0.0,0.0,0.0,48068.0,48077.0,48184.0,48202.0,48209.0,48237.0,48245.0,48270.0,48438.0,48513.0,0.1308840522524158,-0.10637480521225011,0.03543246850194287,-0.10083414369125643,0.013258447588155255
56,56,48914.05812320595,2018.7176556057293,6.563405038327094,49036.54796540086,-12045.36740540544,15.287792324092912,49060.666806100686,49110.37327849234,11.87950392977696,49087.60271279886,-11655.79183816386,20.383723206912453,49309.61567504304,17711.723825656205,34.399402099254864,0.944057778410219,115.0,105.0,89.0,244.0,333.0,10.0,842.0,841.0,10.0,7.0,3.0,0.7,283.4502636533615,2246.045928468663,19.0,16.0,3.0,0.8421052631578947,1553.5163347715202,8654.889495324267,27.0,14.0,13.0,0.5185185185185185,1790.178381796023,38436.70208454056,30.0,5.0,25.0,0.1666666666666666,1182.1897463077198,24019.406098539268,95.0,49.0,46.0,0.5157894736842106,212.4599192651088,17639.705266269993,0.0,0.0,0.0,0.0,48907.0,48917.0,49022.0,49040.0,49048.0,49074.0,49083.0,49111.0,49266.0,49355.0,0.14041104899749363,-0.12897210043376253,0.03645214365699035,-0.10142509086658076,0.011995439933257728
57,57,49740.15067819971,2181.6999495783957,5.095930801625611,49861.12330450071,-11332.457943644757,6.714828885037533,49885.64499862319,39794.79031581281,12.582272261437817,49912.027373699,-11311.167797793112,9.39108536986621,50136.68483389583,19393.432006922096,39.40909508667187,0.9450583218510475,120.0,107.0,76.0,252.0,328.0,13.0,827.0,824.0,14.0,11.0,3.0,0.7857142857142857,230.8644138112791,2068.8733504712327,15.0,12.0,3.0,0.8,1335.977351136208,10217.75706028672,28.0,15.0,13.0,0.5357142857142857,1657.780492913557,38008.84490936536,18.0,4.0,14.0,0.2222222222222222,1216.6823666768842,21083.507466170835,96.0,54.0,42.0,0.5625,158.2512842737564,19373.51396625481,0.0,0.0,0.0,0.0,49730.0,49743.0,49850.0,49864.0,49871.0,49899.0,49908.0,49926.0,50084.0,50178.0,0.10581859061595186,-0.11788946032536782,0.04165822912389674,-0.10756469963377852,0.008160045329639013
58,58,0.0,0.0,0.0,0.0,0.0,0.0,0.0,0.0,0.0,0.0,0.0,0.0,0.0,0.0,0.0,0.0,0.0,0.0,0.0,0.0,0.0,0.0,0.0,0.0,0.0,0.0,0.0,0.0,0.0,0.0,0.0,0.0,0.0,0.0,0.0,0.0,0.0,0.0,0.0,0.0,0.0,0.0,0.0,0.0,0.0,0.0,0.0,0.0,0.0,0.0,0.0,0.0,0.0,0.0,0.0,0.0,0.0,0.0,,50333.0,50677.0,50694.0,50702.0,50728.0,50736.0,50764.0,50924.0,51007.0,,,,,
59,59,51409.10064717345,1374.458039697524,5.716473070451766,51535.547965396814,-14469.839796059432,15.287792405090462,51558.74799941905,48703.878429267235,11.84305886324866,51588.12330450071,-14210.952272457283,12.739827004320285,51808.21819575068,18558.973039120687,31.49275009184477,0.932334846282719,117.0,107.0,87.0,242.0,329.0,10.0,1667.0,1673.0,14.0,6.0,8.0,0.4285714285714285,234.65120402580487,1530.9586823950913,32.0,29.0,3.0,0.90625,1673.4957537819985,9037.918145250234,26.0,13.0,13.0,0.5,1913.2612265118871,42296.49361806196,27.0,7.0,20.0,0.2592592592592592,1130.7844981282358,24024.59473208384,82.0,39.0,43.0,0.4756097560975609,175.62091981510014,18324.25807447615,0.0,0.0,0.0,0.0,51404.0,51414.0,51521.0,51539.0,51546.0,51572.0,51581.0,51608.0,51769.0,51850.0,0.17072271196976255,-0.11565406233714773,0.03928354965181102,-0.07957133881308198,0.009462857640070205
60,60,52252.383536279136,2449.4913497562716,3.5525204736129825,52379.39728720114,-15118.682878908456,10.738174288275566,52405.08520463106,43759.71344966468,12.690743389284744,52432.178051898714,-14631.707231626173,16.35837182947127,52658.383477496405,19415.43378912967,35.849347773450255,0.9285583280223912,118.0,108.0,84.0,244.0,328.0,10.0,845.0,844.0,11.0,4.0,7.0,0.3636363636363636,275.17553532673804,1931.7705441831483,19.0,14.0,5.0,0.7368421052631579,1458.174565171542,3760.4857888335127,27.0,14.0,13.0,0.5185185185185185,1655.2280596814728,36566.93915670974,24.0,6.0,18.0,0.25,1299.5057817586974,25901.07128261029,87.0,50.0,37.0,0.5747126436781609,198.04566808028684,18892.91828549764,0.0,0.0,0.0,0.0,52248.0,52258.0,52366.0,52384.0,52391.0,52418.0,52427.0,52450.0,52609.0,52694.0,0.11233986817472062,-0.096448518488723,0.03782538616450096,-0.08881436466619827,0.010200424581353873
61,61,53095.273982700426,1632.537691684332,7.64389620259217,53230.13787505325,-12413.643483505328,7.338890851995913,53256.29333824139,42413.62585957692,11.494011089890664,53283.178051898714,-9763.079477653162,22.575359922705996,53503.57253895061,17651.09035535148,34.07337706267209,0.9449769444534636,128.0,104.0,83.0,243.0,326.0,24.0,841.0,853.0,24.0,4.0,20.0,0.1666666666666666,215.3608959969765,2565.0880595053345,17.0,11.0,6.0,0.6470588235294118,1339.4297879148717,3399.621539832345,27.0,14.0,13.0,0.5185185185185185,1638.6536822133903,35832.48625153572,29.0,6.0,23.0,0.2068965517241379,1084.9477530119418,21597.6447106141,87.0,46.0,41.0,0.5287356321839081,231.0629138550256,18435.07221316932,0.0,0.0,0.0,0.0,53091.0,53115.0,53219.0,53236.0,53242.0,53269.0,53278.0,53302.0,53458.0,53545.0,0.13191787062189236,-0.10789981117909853,0.03863507655861932,-0.1111276165983584,0.013090574531276572
62,62,53966.821948101286,2869.876607896248,13.218503423505949,54091.3839120181,-11665.820142849354,7.871534511458592,54117.522741495544,43051.38841924711,11.30818542346963,54148.90406919828,-8760.146516864848,13.333595722573396,54366.50991779118,19586.799799625664,35.815595034086904,0.9671556654531472,126.0,100.0,86.0,243.0,329.0,26.0,869.0,862.0,29.0,14.0,15.0,0.4827586206896552,207.2437447251457,2904.644736775821,17.0,11.0,6.0,0.6470588235294118,1345.870509432054,5492.91125319126,27.0,14.0,13.0,0.5185185185185185,1804.5569610241696,39513.154169847985,27.0,10.0,17.0,0.3703703703703703,735.6559694034943,13380.693776750231,88.0,45.0,43.0,0.5113636363636364,211.1803138575439,19201.086003436245,0.0,0.0,0.0,0.0,53954.0,53980.0,54080.0,54097.0,54104.0,54131.0,54140.0,54166.0,54323.0,54409.0,0.07221346874459,-0.11536870043869266,0.04191634758560774,-0.0839775873596663,0.010781767109376382
63,63,54838.54796540086,2579.5612975218073,15.287792404883485,54963.23067784306,-12284.86626452459,6.606282585204272,54989.77179800228,45092.608868425654,10.970404956656948,55022.178051898714,-8944.264703642068,11.423587338044484,55237.562287405075,22038.609970974387,37.35040612603592,0.9560748479135288,124.0,107.0,81.0,249.0,330.0,17.0,873.0,872.0,17.0,9.0,8.0,0.5294117647058824,219.46799544683705,2947.863532935933,14.0,9.0,5.0,0.6428571428571429,1448.792333205475,3875.061078961662,27.0,14.0,13.0,0.5185185185185185,1900.3258602080125,42463.543338773685,25.0,10.0,15.0,0.4,775.6196491814401,12843.877472441563,92.0,45.0,47.0,0.4891304347826087,175.11995428288463,22543.420628596163,0.0,0.0,0.0,0.0,54830.0,54847.0,54954.0,54968.0,54976.0,55003.0,55012.0,55035.0,55194.0,55284.0,0.08507958142250027,-0.11793309768370862,0.04214273487153771,-0.08671698288017024,0.007946052610102165
64,64,55700.52059170187,6183.3199017743145,33.12355021123273,55823.69864360057,-10163.20870664922,6.0034580407417275,55848.79640326157,42552.80251761853,12.081639780078149,55876.178051898714,-9464.898718555032,9.498768052679775,56094.76773122622,20489.50499248739,44.13108079488055,0.9640016552316504,132.0,102.0,79.0,251.0,330.0,30.0,859.0,859.0,88.0,38.0,50.0,0.4318181818181818,294.1630052996336,5873.936168925932,14.0,11.0,3.0,0.7857142857142857,1468.3383875401444,10683.40214300385,28.0,14.0,14.0,0.5,1694.3256582328115,40259.952466315735,22.0,5.0,17.0,0.2272727272727272,1110.894156245385,19824.218496297315,100.0,48.0,52.0,0.48,227.06948045663813,21126.085868840128,0.0,0.0,0.0,0.0,55682.0,55712.0,55814.0,55826.0,55835.0,55863.0,55871.0,55893.0,56051.0,56144.0,0.04757363519477991,-0.14447586681748378,0.03981701692929142,-0.11736989367541596,0.011082233589337303
65,65,56548.39728720114,2967.363124681014,20.383723206912453,56670.97262425739,-12109.671670318046,7.58927187239997,56697.03725512844,39199.85495939071,12.564241649367572,56723.60271279886,-11557.784157539358,11.36429026331958,56944.827085043165,19095.06048680763,37.91141226799812,0.970478906592814,122.0,104.0,81.0,250.0,331.0,18.0,850.0,848.0,51.0,12.0,39.0,0.2352941176470588,274.14622806957493,3735.2342233612662,16.0,12.0,4.0,0.75,1343.0615952213043,6361.118767884565,27.0,14.0,13.0,0.5185185185185185,1620.13697102822,36265.735442812635,22.0,5.0,17.0,0.2272727272727272,1192.5387763995973,20339.697780601105,91.0,44.0,47.0,0.4835164835164835,242.13257482555673,20547.3791857107,0.0,0.0,0.0,0.0,56537.0,56555.0,56659.0,56675.0,56683.0,56710.0,56719.0,56740.0,56902.0,56990.0,0.0923871520102701,-0.11090817586023208,0.04133017769342793,-0.10318057165150311,0.012680377472113324
66,66,57403.15067819971,768.7963288437425,5.095930801728109,57531.972626301,-11047.151194230204,17.835757805984375,57557.999498608486,49610.51806811717,11.74035860192168,57583.027373699,-12359.361637619664,17.835757801179042,57807.200194909485,18596.329613774546,31.866534317202778,0.9323433005414156,114.0,108.0,87.0,242.0,329.0,6.0,859.0,861.0,6.0,1.0,5.0,0.1666666666666666,222.887896590863,1233.5153610657944,22.0,17.0,5.0,0.7727272727272727,1382.254039730229,5410.853981813267,26.0,13.0,13.0,0.5,1842.6235687891765,38565.73836923773,25.0,4.0,21.0,0.16,1361.8186374955014,25991.816425401656,79.0,37.0,42.0,0.4683544303797468,187.31445478826117,18755.939382450422,0.0,0.0,0.0,0.0,57402.0,57408.0,57516.0,57536.0,57545.0,57571.0,57579.0,57603.0,57771.0,57845.0,0.28991800328454076,-0.12512312137559625,0.03714179251785242,-0.11018519219879216,0.010072657275848397
67,67,58273.54796540086,3098.4229769628378,6.902985024201679,58396.977643766615,-14823.090710553271,8.665658917227828,58422.50951360283,46272.63751967656,12.453057003262554,58448.027373699,-13210.708963779214,14.501102654229255,58671.43468204773,20312.267513910396,34.899376284299855,0.9661856422900592,119.0,100.0,84.0,243.0,327.0,19.0,867.0,864.0,19.0,9.0,10.0,0.4736842105263157,272.6690656156033,3793.775724961647,17.0,13.0,4.0,0.7647058823529411,1562.3622603196216,6741.279591052433,27.0,15.0,12.0,0.5555555555555556,1888.616063417358,39274.53346653666,25.0,4.0,21.0,0.16,1300.4059168992933,25100.682811422703,84.0,43.0,41.0,0.5119047619047619,255.55893451615168,21109.803811716494,0.0,0.0,0.0,0.0,58265.0,58284.0,58384.0,58401.0,58408.0,58435.0,58444.0,58468.0,58628.0,58711.0,0.08800253149519349,-0.10540057339103381,0.04081496462383973,-0.0984357403122507,0.01258150693127382
68,68,59128.54796540086,1892.188363530002,15.287792401967048,59254.680647328125,-13302.329896294492,6.901984218698602,59281.63473855612,42671.14661528658,12.14183207566605,59306.60271279886,-12442.714454182274,14.793542905754796,59528.89831932864,18273.5143064888,36.48685802628783,0.9542580003213694,128.0,113.0,83.0,245.0,328.0,15.0,855.0,859.0,15.0,12.0,3.0,0.8,245.78214478844112,1916.0144954486416,14.0,10.0,4.0,0.7142857142857143,1508.4510618962,4411.835249810474,27.0,15.0,12.0,0.5555555555555556,1682.383051639373,33760.93343915556,27.0,5.0,22.0,0.1851851851851851,1227.261446312276,24012.40112990816,92.0,46.0,46.0,0.5,205.7035190705972,18434.333714461725,0.0,0.0,0.0,0.0,59117.0,59132.0,59245.0,59259.0,59267.0,59294.0,59302.0,59328.0,59487.0,59573.0,0.1298930643088399,-0.11339750807987369,0.03942671301540965,-0.09863293502646972,0.011256921663806796
69,69,59977.39728720114,2052.0401570405393,10.075375406341188,60103.332405571266,-12363.059655583951,8.148347839322684,60130.44758219314,41801.00554494028,11.933164176847892,60156.60271279886,-12016.514315823444,14.600800902566,60378.85928381272,18280.16813623272,33.15563946093833,0.947882155768023,127.0,104.0,83.0,242.0,325.0,23.0,848.0,847.0,23.0,11.0,12.0,0.4782608695652174,243.90286697445805,2657.2020101690396,15.0,10.0,5.0,0.6666666666666666,1338.996786431243,3343.069278386915,27.0,14.0,13.0,0.5185185185185185,1751.367891797922,36093.74535337171,25.0,6.0,19.0,0.24,1116.9043824710218,22254.375002734712,85.0,45.0,40.0,0.5294117647058824,227.53378339761795,18481.140065737047,0.0,0.0,0.0,0.0,59966.0,59989.0,60093.0,60108.0,60116.0,60143.0,60152.0,60176.0,60342.0,60418.0,0.11885872025341637,-0.10830626266746728,0.041897745495979175,-0.09294745157506058,0.012447029026315585
70,70,60846.61434857697,1682.5262222581791,6.60121321646828,60974.587577653525,-13966.706562904526,9.462262071910567,61001.43952053902,46835.57207476755,12.192088813552989,61027.027373699,-12086.851795887576,17.583689957446282,61249.94649494507,19035.12200967584,33.67172614645301,0.952920928618898,122.0,111.0,83.0,247.0,330.0,11.0,873.0,874.0,11.0,6.0,5.0,0.5454545454545454,174.74986455297028,2033.0388614538535,17.0,12.0,5.0,0.7058823529411765,1506.2431025471403,4923.077460911656,27.0,14.0,13.0,0.5185185185185185,1782.901904145119,39812.78254733936,28.0,5.0,23.0,0.1785714285714285,1293.1028468149773,24765.211693794743,85.0,42.0,43.0,0.4941176470588235,241.2730785713476,19468.043578361332,0.0,0.0,0.0,0.0,60841.0,60852.0,60963.0,60979.0,60987.0,61014.0,61023.0,61046.0,61208.0,61293.0,0.10386159944564322,-0.10784526013797063,0.03806726010091055,-0.10698425600411034,0.012675152722882724
71,71,61747.027373699,2306.087842829684,10.849933356244604,61866.97262629772,-15646.616369191835,9.079042842608027,61892.59045155224,47047.25126564811,12.83021585105122,61917.45203459914,-14114.90409159882,15.287792405184112,62142.49654170907,19876.70601458749,33.768066964463024,0.9560096501783856,121.0,97.0,84.0,245.0,329.0,24.0,903.0,889.0,25.0,15.0,10.0,0.6,248.665618545802,2006.7991304649947,17.0,13.0,4.0,0.7647058823529411,1586.0880614594562,6636.259112918892,28.0,15.0,13.0,0.5357142857142857,1822.0100293678483,38469.70400731443,28.0,4.0,24.0,0.1428571428571428,1397.475162990542,25927.9109327438,88.0,46.0,42.0,0.5227272727272727,174.01189208300724,20035.34059520991,0.0,0.0,0.0,0.0,61733.0,61757.0,61854.0,61871.0,61878.0,61906.0,61914.0,61938.0,62097.0,62183.0,0.10783007218002458,-0.10136939668198558,0.038727236562238906,-0.09900706047463108,0.008754563857577816
72,72,62632.821948101286,2723.407988401775,9.598766420357846,62758.19271186848,-13257.267450339454,8.730771851473998,62784.07770692751,44474.205803262535,11.581569682342815,62813.32873009842,-11517.31104156545,15.30837533929273,63033.132266291526,18871.061357530616,34.4043940938993,0.9522483323323668,127.0,101.0,82.0,245.0,327.0,26.0,879.0,893.0,26.0,13.0,13.0,0.5,191.21606035304097,2624.8084389688115,16.0,11.0,5.0,0.6875,1455.3547678514112,4355.785226588869,26.0,13.0,13.0,0.5,1873.109507161539,40465.317614975305,25.0,8.0,17.0,0.32,1039.8668780955074,20626.599305457436,80.0,39.0,41.0,0.4875,223.0264488563183,19773.374501946342,0.0,0.0,0.0,0.0,62620.0,62646.0,62747.0,62763.0,62771.0,62797.0,62805.0,62829.0,62994.0,63074.0,0.07021205091832591,-0.10977788396462852,0.042116761240155336,-0.09028729660444833,0.011818436951206148
73,73,64369.45170093373,3446.2723123060614,6.5250579778201825,64495.79622924874,-12225.82307490524,8.891124133878717,64522.41227010938,41832.10518169175,12.039335672660174,64551.32873009842,-9835.26846470145,14.511965485861827,64776.808138396555,18814.9919493678,35.55329835972632,0.9585735507097644,122.0,104.0,87.0,241.0,328.0,18.0,1739.0,1738.0,19.0,9.0,10.0,0.4736842105263157,302.3333593350265,3845.523315542078,18.0,13.0,5.0,0.7222222222222222,1344.692609591819,5011.879178544629,27.0,13.0,14.0,0.4814814814814814,1708.1908439935842,39884.38940943427,26.0,6.0,20.0,0.2307692307692307,949.0664591606452,19088.5283184411,85.0,50.0,35.0,0.5882352941176471,302.36803551522075,18430.24491576595,0.0,0.0,0.0,0.0,64361.0,64379.0,64483.0,64501.0,64509.0,64536.0,64545.0,64570.0,64729.0,64811.0,0.08772764655173786,-0.10998790031175398,0.04083444609288254,-0.09649624334778686,0.016070590746406384
74,74,65249.821948101286,2405.026486148064,9.44004138133363,65370.3655901193,-13680.733820313226,8.159387831233953,65396.67174368961,43529.57488821304,12.01189512765504,65424.178051898714,-11345.434542017929,14.33240622152002,65646.39843829787,19868.131418734494,35.169484793713956,0.9597993565037316,121.0,96.0,84.0,249.0,333.0,25.0,878.0,875.0,27.0,14.0,13.0,0.5185185185185185,242.31558747564205,1649.0725657529065,17.0,12.0,5.0,0.7058823529411765,1460.8903723814417,3674.230235845668,26.0,14.0,12.0,0.5384615384615384,1802.4041249917063,37892.22829502161,24.0,6.0,18.0,0.25,1079.5877008679704,21156.889686448227,94.0,47.0,47.0,0.5,233.21298994583717,19378.844326433536,0.0,0.0,0.0,0.0,65237.0,65262.0,65358.0,65375.0,65383.0,65409.0,65419.0,65442.0,65608.0,65691.0,0.10075381243045654,-0.10678450378241436,0.04140642608204662,-0.09515613499594984,0.011738043454148429
75,75,66123.08130006956,1867.0709755288729,7.64389620259217,66251.972626301,-10649.01600713398,17.835757806023903,66276.54619766116,49614.041610364584,11.32251701299203,66305.18337249024,-12003.424763137522,15.28779240518434,66528.95881659626,19357.80442858999,33.12011845307472,0.9377880750993955,121.0,112.0,82.0,245.0,327.0,9.0,878.0,880.0,15.0,11.0,4.0,0.7333333333333333,262.04814392712393,2884.9593181846144,20.0,16.0,4.0,0.8,1550.1326040368492,8334.657134097848,27.0,14.0,13.0,0.5185185185185185,1914.4835282070703,40147.43179519592,23.0,7.0,16.0,0.3043478260869565,1135.914773187972,22605.62653631179,85.0,46.0,39.0,0.5411764705882353,234.09551032325652,19757.20429582402,0.0,0.0,0.0,0.0,66118.0,66127.0,66239.0,66256.0,66263.0,66290.0,66298.0,66321.0,66487.0,66566.0,0.14035253472509007,-0.14556580654948642,0.038587534215457395,-0.09463255659137904,0.01209308169151226
76,76,66997.12330450071,2676.798100350987,12.73982700432001,67127.21692990615,-13442.008203167466,8.517690152852259,67154.62588113606,47694.89536399191,11.890531973691465,67179.54955569704,-12474.671384956311,15.28779240518434,67404.83551209555,20508.35074088778,34.78955939202184,0.9548421765360172,126.0,107.0,86.0,247.0,333.0,19.0,871.0,877.0,30.0,7.0,23.0,0.2333333333333333,259.7110287235269,4647.373818220993,16.0,11.0,5.0,0.6875,1461.7225218266055,4059.039367573227,27.0,15.0,12.0,0.5555555555555556,1951.6300865937976,38854.32680141679,28.0,5.0,23.0,0.1785714285714285,1233.7991503905723,24116.180272927715,89.0,44.0,45.0,0.4943820224719101,214.8301573825668,20752.559607355503,0.0,0.0,0.0,0.0,66990.0,67009.0,67116.0,67132.0,67140.0,67167.0,67176.0,67202.0,67364.0,67449.0,0.09702301742125156,-0.1087428678612297,0.040919055838147714,-0.09890434082924689,0.010475252744447019
77,77,67873.39728720114,2686.99474085274,19.685380570172953,67998.28438706924,-13571.910735625512,7.61952083465141,68024.16970516475,43246.547309374546,12.705831103447478,68049.45203459915,-13844.264013119388,11.942804338529328,68271.88684826203,19687.85855279483,38.34096403170095,0.9650484036115334,125.0,107.0,80.0,252.0,332.0,18.0,875.0,870.0,19.0,11.0,8.0,0.5789473684210527,253.3987630540629,2974.5279579134703,16.0,12.0,4.0,0.75,1510.787156789977,6846.17367134246,27.0,14.0,13.0,0.5185185185185185,1835.251380492682,39546.0856193044,24.0,4.0,20.0,0.1666666666666666,1407.8089174978174,24603.609221455416,96.0,48.0,48.0,0.5,290.44982019440846,18717.29049149902,0.0,0.0,0.0,0.0,67862.0,67880.0,67987.0,68002.0,68010.0,68037.0,68046.0,68067.0,68231.0,68319.0,0.09430564161567533,-0.11131720405618677,0.04243694571415774,-0.10168896780382984,0.01475273806013692
78,78,69577.46345066311,2739.608428286635,7.5387419122594,69702.972626301,-11703.146476244594,12.384822968573598,69728.0615241631,46453.60513451381,12.102331489618756,69754.60271279886,-10476.11373770516,20.383723206912453,69977.73854787082,18251.843841013582,35.05394835631807,0.9584060858976734,124.0,102.0,92.0,237.0,329.0,22.0,1706.0,1704.0,22.0,11.0,11.0,0.5,304.67660090633257,3294.794003972147,17.0,13.0,4.0,0.7647058823529411,1422.861792312466,6495.298831068911,28.0,14.0,14.0,0.5,1659.7307421322496,38751.18469963652,32.0,5.0,27.0,0.15625,1194.0716262417757,23145.58515402648,90.0,45.0,45.0,0.5,259.1668252897371,18115.704842977462,0.0,0.0,0.0,0.0,69566.0,69588.0,69690.0,69707.0,69714.0,69742.0,69750.0,69782.0,69934.0,70019.0,0.11121173294713466,-0.12157942269633508,0.035728782240393074,-0.113980399233747,0.014199487325623797
79,79,70447.65444217452,2777.971747596539,13.665987806485878,70570.12177439766,-14498.078329450367,8.456587711471197,70597.82234533601,45652.99824034427,12.290926922454076,70623.027373699,-12412.055947994317,15.076165493664464,70846.19208879178,19503.799524304173,35.990111371870704,0.9611447980563096,125.0,97.0,86.0,246.0,332.0,28.0,868.0,869.0,34.0,16.0,18.0,0.4705882352941176,220.35520806244523,2547.666972272662,16.0,11.0,5.0,0.6875,1473.9318160975183,2709.9677466125495,28.0,15.0,13.0,0.5357142857142857,1767.7553238710557,37295.87532820061,27.0,4.0,23.0,0.1481481481481481,1312.324436165867,25288.173813613772,89.0,43.0,46.0,0.4831460674157303,245.57861274022616,19239.705837374575,0.0,0.0,0.0,0.0,70434.0,70462.0,70559.0,70575.0,70583.0,70611.0,70619.0,70645.0,70805.0,70891.0,0.07932233589239825,-0.1016639434968066,0.03872156029193418,-0.10572981959349993,0.012591321626035198
80,80,71316.12330450071,1908.9491183323696,6.563428118151906,71441.13627868133,-14516.714629402604,7.612933453320001,71469.1270869675,48546.04003827819,11.6220008771413,71494.02737369917,-13197.237426302485,17.835757805933024,71718.07929344835,19430.221515908215,31.619418172091535,0.945051591394496,122.0,103.0,83.0,245.0,328.0,19.0,870.0,871.0,19.0,7.0,12.0,0.3684210526315789,205.27646487597028,1546.8717612116477,16.0,10.0,6.0,0.625,1536.5395188942043,1020.8563909403792,27.0,15.0,12.0,0.5555555555555556,1885.3394720924596,37769.37324409048,27.0,5.0,22.0,0.1851851851851851,1362.369818717268,26914.80677290167,83.0,42.0,41.0,0.5060240963855421,255.74233803250172,20121.88858291992,0.0,0.0,0.0,0.0,71309.0,71328.0,71431.0,71447.0,71454.0,71481.0,71490.0,71514.0,71681.0,71759.0,0.107533753993033,-0.10584623023325467,0.038836112494569766,-0.10323143963463327,0.013162090706125833
81,81,72182.39728720114,2619.696113696365,18.159203241708564,72310.12330450071,-14084.94253270512,8.955647061081965,72334.84708888784,42971.400167342275,13.12366239018572,72359.45203459915,-13724.934427956756,13.050989351685905,72582.30722626342,19015.226599446196,36.88386447069456,0.9640641688438532,126.0,108.0,83.0,247.0,330.0,18.0,865.0,865.0,24.0,12.0,12.0,0.5,313.88295833950394,3819.860133064689,17.0,14.0,3.0,0.8235294117647058,1465.7702886266309,8888.256824729018,27.0,14.0,13.0,0.5185185185185185,1743.8434794969935,37094.5328495076,25.0,3.0,22.0,0.12,1322.3993987121037,24856.365434494222,93.0,46.0,47.0,0.4946236559139785,257.6466827773254,20417.24362414502,0.0,0.0,0.0,0.0,72171.0,72189.0,72297.0,72313.0,72321.0,72348.0,72356.0,72380.0,72537.0,72627.0,0.11981655303393882,-0.1040664727756698,0.040581490775399326,-0.0963501432850904,0.01354949316169754
82,82,73043.972626301,2536.8147361981537,16.290336855797175,73171.23130851834,-13497.019405969711,8.322002467584184,73196.5851492327,39987.42134787988,13.422664406965817,73220.87669549929,-13704.651971732175,12.014929776211089,73442.75259678533,18643.39048250528,37.74668910981501,0.9636797763086052,125.0,101.0,83.0,247.0,330.0,24.0,862.0,863.0,24.0,10.0,14.0,0.4166666666666667,219.24331546069115,3371.622867046184,17.0,13.0,4.0,0.7647058823529411,1364.0150700966667,7355.503754025973,28.0,15.0,13.0,0.5357142857142857,1589.8814671835314,33625.00972814652,26.0,4.0,22.0,0.1538461538461538,1241.5109803066762,23343.9707719668,93.0,47.0,46.0,0.5053763440860215,242.9154937045062,18921.21591187064,0.0,0.0,0.0,0.0,73034.0,73058.0,73159.0,73175.0,73182.0,73209.0,73218.0,73242.0,73397.0,73489.0,0.08642464596735368,-0.10106046594949436,0.039759539715051584,-0.09059047853732236,0.013029577100391421
83,83,73913.54796540085,2452.2220661580795,8.963216370786174,74043.17812840722,-13489.692474127887,8.96076551541051,74069.35681765534,45443.75712631067,12.21186881424318,74094.45203459915,-12102.620564752528,15.287792405183342,74318.45356503273,18868.309387748173,34.879517738788024,0.9548144470327232,126.0,106.0,84.0,246.0,330.0,20.0,870.0,873.0,21.0,10.0,11.0,0.4761904761904761,160.4865117503631,2480.5949955885626,17.0,12.0,5.0,0.7058823529411765,1436.5054763780602,6200.717829272979,27.0,14.0,13.0,0.5185185185185185,1828.4247543207143,40048.621490859114,25.0,3.0,22.0,0.12,1321.828832038181,25701.689824480363,87.0,41.0,46.0,0.4712643678160919,214.13800716583307,17866.261379137602,0.0,0.0,0.0,0.0,73905.0,73925.0,74031.0,74048.0,74055.0,74082.0,74091.0,74115.0,74280.0,74361.0,0.06544534198805205,-0.10648911968402235,0.040234894074418576,-0.10921839819450785,0.011349082886296113
84,84,74798.22396863779,2569.8303578848495,12.282850084104233,74924.37562052555,-13851.361128524297,7.509094500143427,74951.58846080693,46558.718281059875,11.84936235394857,74977.60271279886,-11847.70388708245,14.860801634338134,75200.9785800949,19744.614991970982,36.23165593441353,0.9630727337505308,129.0,106.0,84.0,249.0,333.0,23.0,887.0,882.0,23.0,13.0,10.0,0.5652173913043478,167.0025498071913,2676.986724287012,15.0,10.0,5.0,0.6666666666666666,1481.0394680343093,2943.3505791682646,27.0,15.0,12.0,0.5555555555555556,1892.3469732607564,38705.00927113119,26.0,6.0,20.0,0.2307692307692307,1196.1944294503196,23480.02680208444,93.0,46.0,47.0,0.4946236559139785,212.82933733673647,19904.460525134575,0.0,0.0,0.0,0.0,74785.0,74808.0,74914.0,74929.0,74937.0,74964.0,74973.0,74998.0,75159.0,75247.0,0.06498582651371825,-0.10692374953566004,0.040644309876343064,-0.1009642409070107,0.010779107995941279
85,85,75679.45097112286,2076.015020498117,6.896344747045997,75806.19390261195,-13990.034856462044,8.974585321381722,75832.98203437579,44461.91123735521,12.690618728898768,75856.45203459915,-15744.62992346503,15.287792405183314,76081.4797812411,17507.57957856147,33.845542066914156,0.9336334703904672,123.0,110.0,81.0,248.0,329.0,13.0,881.0,881.0,13.0,7.0,6.0,0.5384615384615384,201.05985369452824,2456.8545755685573,16.0,11.0,5.0,0.6875,1452.6520946673809,3910.737954219346,28.0,15.0,13.0,0.5357142857142857,1707.393434106672,33625.4065663089,27.0,3.0,24.0,0.1111111111111111,1439.76906142149,28379.510108853432,82.0,39.0,43.0,0.4756097560975609,337.3083301553208,18764.482147874776,0.0,0.0,0.0,0.0,75672.0,75685.0,75795.0,75811.0,75818.0,75845.0,75853.0,75876.0,76042.0,76124.0,0.09684893977611306,-0.10383477307752353,0.03840126046295969,-0.0914450875263653,0.01926641707619964
86,86,77397.503726198,2191.208529998847,5.953434276759781,77524.972626301,-13900.752350507311,11.457764304301662,77550.27977451016,45797.2060305272,12.449806146973756,77576.027373699,-12632.696108472035,17.8357578060484,77800.69463815268,18064.511964890364,32.69135878337787,0.9384275065527704,122.0,107.0,85.0,244.0,329.0,15.0,1718.0,1719.0,18.0,8.0,10.0,0.4444444444444444,232.61307490998425,2103.2587229328356,18.0,14.0,4.0,0.7777777777777778,1477.3950843297866,5838.674686179722,27.0,13.0,14.0,0.4814814814814814,1733.8655569128491,39006.56740734614,26.0,4.0,22.0,0.1538461538461538,1366.1034340555368,24817.62278162728,82.0,41.0,41.0,0.5,198.39500809144457,17933.673476945598,0.0,0.0,0.0,0.0,77390.0,77405.0,77512.0,77529.0,77537.0,77564.0,77572.0,77597.0,77761.0,77841.0,0.10615743400291831,-0.10628166354433821,0.03785963614804581,-0.10814029106101654,0.010982583336712282
87,87,78267.69864360057,3557.812238991911,7.118092876710463,78392.65040350244,-13148.659786922994,7.881214107507663,78419.32296748842,43685.195109237255,11.21048263270271,78452.17805189872,-10301.69562275624,13.264069560487943,78669.01118897318,19583.583741259197,35.93804710291365,0.9596880842161782,121.0,105.0,82.0,249.0,331.0,16.0,869.0,868.0,19.0,7.0,12.0,0.3684210526315789,261.84690365397466,3993.4461056504465,15.0,10.0,5.0,0.6666666666666666,1504.3232200422349,4089.277070704999,27.0,13.0,14.0,0.4814814814814814,1842.166879999372,42996.023649229224,25.0,11.0,14.0,0.44,760.4586769943079,14033.4618638249,86.0,40.0,46.0,0.4651162790697674,182.3026028086551,20472.03354421344,0.0,0.0,0.0,0.0,78262.0,78278.0,78383.0,78398.0,78406.0,78433.0,78441.0,78465.0,78629.0,78714.0,0.07359772974646007,-0.11440886329254335,0.04216913476963835,-0.07381878720183402,0.009308950048022891
88,88,79128.34773002772,1448.1351880163022,5.534658135934104,79256.82573878094,-13159.47043484627,7.747227054676628,79283.38182138444,49340.068992085595,11.079567769971264,79313.90406919828,-9038.605200211614,30.57558481036868,79533.76099820992,18557.502129791803,33.01332025638357,0.9356155259731068,123.0,109.0,85.0,245.0,330.0,14.0,863.0,865.0,15.0,5.0,10.0,0.3333333333333333,176.76439871089306,1218.4839102193123,17.0,11.0,6.0,0.6470588235294118,1546.1808991515927,2429.4881138828887,27.0,13.0,14.0,0.4814814814814814,1912.0336454647152,42910.5232814848,26.0,9.0,17.0,0.3461538461538461,938.964743191566,18746.097977079808,83.0,40.0,43.0,0.4819277108433735,172.70287631023513,17501.506259863527,0.0,0.0,0.0,0.0,79123.0,79137.0,79246.0,79263.0,79270.0,79297.0,79305.0,79331.0,79497.0,79576.0,0.12206346491243686,-0.11749567786993212,0.03875214778826952,-0.10388380976852299,0.009306364353475231
89,89,79971.027373699,2691.0242036733384,8.807490509525442,80102.20358434935,-12451.170535988442,8.129288756021426,80129.08372471527,42270.10733591141,11.880273315019505,80154.60271279886,-11817.628456937391,17.208706373042936,80376.95246860954,18014.956401654006,36.418624937987445,0.9516865126715766,130.0,110.0,84.0,245.0,329.0,20.0,845.0,844.0,28.0,15.0,13.0,0.5357142857142857,214.68926031115697,2052.7325946519127,16.0,11.0,5.0,0.6875,1340.033857526945,3454.5707125728572,27.0,14.0,13.0,0.5185185185185185,1661.8051516636676,34914.434414173695,25.0,5.0,20.0,0.2,1202.8048748863584,23609.33334435601,86.0,43.0,43.0,0.5,270.6385819838974,20651.070176514768,0.0,0.0,0.0,0.0,79961.0,79981.0,80091.0,80107.0,80115.0,80141.0,80150.0,80175.0,80334.0,80420.0,0.07977975821179865,-0.10762312295488657,0.03931395627784101,-0.10178056276428854,0.015022994002863601
90,90,80815.12330450071,1782.2827433509285,12.739827004320285,80944.00544718624,-14823.044445638354,7.320841414508756,80970.69691294877,42878.655171884035,12.190386005265852,80994.45203459915,-12572.336129545063,14.103715302240104,81217.88068525227,18690.385351881258,35.81760345573614,0.9599034582332994,126.0,116.0,80.0,248.0,328.0,10.0,839.0,842.0,12.0,8.0,4.0,0.6666666666666666,220.11986982863192,3073.8619146343417,15.0,10.0,5.0,0.6666666666666666,1530.0043939730283,3425.6464007718205,27.0,15.0,12.0,0.5555555555555556,1699.789473302269,34435.7639582678,24.0,3.0,21.0,0.125,1379.3561113805122,25859.39058714323,89.0,45.0,44.0,0.5056179775280899,210.5736922583043,20186.76312370548,0.0,0.0,0.0,0.0,80808.0,80818.0,80934.0,80949.0,80956.0,80983.0,80991.0,81014.0,81173.0,81262.0,0.12350446114670745,-0.1032179590086319,0.039641855988450825,-0.10971358840295538,0.011266417909201068
91,91,81680.15067819973,1726.5661579102557,5.095930801728113,81806.12330450071,-15135.559247553443,12.319724812024116,81829.72289777784,47615.10459506023,12.375119815032258,81857.65414100289,-12188.491491435165,17.8357578060484,82081.10949479598,18687.590131547215,31.71361273275214,0.9398759920217958,112.0,107.0,87.0,243.0,330.0,5.0,868.0,860.0,17.0,12.0,5.0,0.7058823529411765,237.78142871769464,1272.829270283249,19.0,16.0,3.0,0.8421052631578947,1572.0679267350438,7728.687669143328,26.0,13.0,13.0,0.5,1811.8595424728856,40403.13389575733,28.0,6.0,22.0,0.2142857142857142,1116.170416204605,22615.865431263213,84.0,44.0,40.0,0.5238095238095238,176.4477783867919,18958.074858058277,0.0,0.0,0.0,0.0,81679.0,81684.0,81791.0,81809.0,81817.0,81843.0,81852.0,81878.0,82038.0,82121.0,0.1377192687510409,-0.10386586323126168,0.03805220124751873,-0.09157576366106802,0.009441976046388339
92,92,82545.87669549929,2946.7646029972825,9.028144096847768,82677.12330450071,-14940.220929505052,11.093640488163173,82701.37859775384,47062.08165111028,12.472358793743576,82728.93503131694,-14139.68669640704,12.739827004320285,82950.84953426909,19166.915275308795,34.194472648655506,0.9555271070659618,129.0,111.0,86.0,244.0,330.0,18.0,867.0,872.0,19.0,12.0,7.0,0.631578947368421,229.4807246286109,2810.0661134552265,18.0,14.0,4.0,0.7777777777777778,1606.2507388943716,7676.588546741894,27.0,13.0,14.0,0.4814814814814814,1937.350393990769,44792.568792154656,27.0,6.0,21.0,0.2222222222222222,1254.7654115153443,24888.4721335966,86.0,43.0,43.0,0.5,182.4637207174481,19764.495094897466,0.0,0.0,0.0,0.0,82535.0,82553.0,82664.0,82680.0,82688.0,82715.0,82723.0,82750.0,82908.0,82994.0,0.07787548567510146,-0.10751184647626119,0.04116584575142913,-0.0887406799355877,0.009519722819065284
93,93,83406.69864360057,1581.425263410055,10.191861603456228,83537.54796540085,-13696.035620070934,10.076921453114382,83561.33992846584,40697.26560268343,12.488640422141124,83590.11631953878,-12361.88286713007,12.739827004320285,83810.63234577526,18223.3605423334,36.18107013475377,0.9567743866108276,127.0,116.0,84.0,245.0,329.0,11.0,857.0,860.0,12.0,10.0,2.0,0.8333333333333334,174.58981203046667,1988.8535806925504,18.0,15.0,3.0,0.8333333333333334,1512.834586902551,9018.6994145758,27.0,13.0,14.0,0.4814814814814814,1761.1433522732657,39633.80961896144,25.0,6.0,19.0,0.24,1015.4876743246206,21394.03091949171,91.0,48.0,43.0,0.5274725274725275,310.6480045186487,19584.25438752227,0.0,0.0,0.0,0.0,83398.0,83409.0,83525.0,83541.0,83548.0,83575.0,83584.0,83609.0,83763.0,83854.0,0.11040029274225428,-0.11045784553053871,0.04327424278247191,-0.08214668309346113,0.01704669145940477
94,94,84264.94541794948,2598.2874038964105,7.874687132874772,84395.54796540085,-13008.45612983638,10.578330622196477,84419.56113912373,40362.9281259362,12.286273156296875,84450.08977282012,-10722.427465717585,12.739827004320285,84669.71965133735,17974.35717206614,33.982269003955494,0.942288659607693,129.0,109.0,87.0,244.0,331.0,20.0,860.0,859.0,20.0,11.0,9.0,0.55,238.04352224822796,2667.477672108641,18.0,14.0,4.0,0.7777777777777778,1414.5362631560315,8048.133380191426,26.0,13.0,13.0,0.5,1666.0669081024544,38161.665719741686,27.0,7.0,20.0,0.2592592592592592,881.0165675225878,17659.428747776772,94.0,49.0,45.0,0.5212765957446809,206.52541403250083,18101.334126168036,0.0,0.0,0.0,0.0,84254.0,84274.0,84383.0,84399.0,84407.0,84433.0,84443.0,84470.0,84627.0,84714.0,0.09161554718360108,-0.10873974967034182,0.04127715667466359,-0.08216577545890882,0.011490002788720644
95,95,85154.69864360057,1220.7895008176924,6.936601777217067,85282.39728719924,-10608.030601799806,20.38372320685494,85308.08384854147,48116.00902532531,11.36870886690568,85336.1233045007,-12780.2794003661,12.739827004310834,85559.52958777154,18229.949079748483,31.997789595369163,0.9298380886086896,110.0,101.0,95.0,249.0,344.0,9.0,888.0,888.0,9.0,7.0,2.0,0.7777777777777778,251.45362580099905,918.3339575700406,32.0,26.0,6.0,0.8125,1315.2105059926607,5592.615119906275,26.0,13.0,13.0,0.5,1870.2366634301372,40222.66514466964,26.0,7.0,19.0,0.2692307692307692,1243.991576401349,23721.542047053328,83.0,40.0,43.0,0.4819277108433735,224.12359441090987,18973.489292619037,0.0,0.0,0.0,0.0,85148.0,85157.0,85258.0,85287.0,85295.0,85321.0,85329.0,85353.0,85520.0,85602.0,0.20597623556933758,-0.1239825331734541,0.03886932231735512,-0.09733680598295166,0.012294252355311685
96,96,86062.61238021801,3756.061049565262,28.20195976997971,86188.54796540085,-12953.692067762888,7.2734866072284765,86215.20989695929,45586.78707593904,12.63090358040325,86239.45203459915,-13954.992777765772,11.475017981890696,86464.6454566067,20856.755858480938,38.872796278417525,0.973613249747164,133.0,101.0,80.0,254.0,334.0,32.0,906.0,906.0,42.0,23.0,19.0,0.5476190476190477,206.674374260751,2531.2370402582255,16.0,12.0,4.0,0.75,1522.8363030481046,9173.637411516182,28.0,15.0,13.0,0.5357142857142857,1819.6292039997195,40246.503684601696,24.0,3.0,21.0,0.125,1505.1597629878763,26742.582707010355,99.0,51.0,48.0,0.5151515151515151,191.7367523351249,20950.14829347331,0.0,0.0,0.0,0.0,86045.0,86077.0,86178.0,86192.0,86200.0,86228.0,86236.0,86258.0,86420.0,86512.0,0.05502423191036049,-0.11756002034646942,0.03991571507262748,-0.10785815420743314,0.009193028562836603
97,97,86972.42700487497,3668.791421116176,21.67672869410963,87091.80339569754,-14847.896386638284,7.6459892285601825,87118.2920423002,46660.41046420254,12.834311486870789,87142.45203459915,-15235.196612519345,11.823225021124983,87367.79597657347,21536.903681228643,38.03442143858404,0.9746592359577608,123.0,102.0,79.0,252.0,331.0,21.0,911.0,903.0,24.0,15.0,9.0,0.625,236.2912052070968,4534.9296780412205,16.0,12.0,4.0,0.75,1601.3208046234142,7538.299275250899,27.0,14.0,13.0,0.5185185185185185,1916.1910779132556,41336.73370465101,24.0,3.0,21.0,0.125,1539.03696576324,27332.44982270524,94.0,48.0,46.0,0.5106382978723404,243.31464406544947,22127.12910425903,0.0,0.0,0.0,0.0,86958.0,86979.0,87081.0,87096.0,87104.0,87131.0,87139.0,87160.0,87322.0,87412.0,0.06440573422819677,-0.10784832833723523,0.04106674285223746,-0.10101851685317631,0.011297568474409818
98,98,87861.972626301,2967.8244594453536,17.8357578060484,87992.28331368545,-14310.590344272565,8.131212679185051,88018.42327470522,42740.17443686256,12.82612291493302,88042.45203459915,-13400.98597691584,15.287792404401792,88267.7390463823,18953.493459093173,37.35356902149539,0.950956552557559,129.0,109.0,85.0,247.0,332.0,20.0,889.0,900.0,30.0,11.0,19.0,0.3666666666666666,213.7198702985781,3957.6332530170735,17.0,12.0,5.0,0.7058823529411765,1446.9902283281515,4747.651961166658,27.0,14.0,13.0,0.5185185185185185,1658.0690598672088,36706.375850777746,28.0,3.0,25.0,0.1071428571428571,1283.372805085793,24524.085146044163,92.0,46.0,46.0,0.5,173.32286687282055,18843.733822992832,0.0,0.0,0.0,0.0,87852.0,87872.0,87981.0,87996.0,88004.0,88031.0,88039.0,88066.0,88227.0,88313.0,0.07201230167720885,-0.10111324505262434,0.03879415752775115,-0.09576704335759285,0.009144639601501367
99,99,88753.27398270041,2977.038819318654,7.64389620259217,88878.87280155525,-12899.26014351246,7.684720901110506,88906.0280162944,39379.17963875693,12.528111150805138,88931.60271279886,-13047.13637914308,13.878087772827106,89155.50452388886,18395.693262825334,36.01095124167527,0.9514037887718424,122.0,114.0,82.0,250.0,332.0,8.0,893.0,887.0,20.0,7.0,13.0,0.35,312.7035235148477,2567.8545666137243,15.0,10.0,5.0,0.6666666666666666,1350.539444163494,3823.281609754029,27.0,15.0,12.0,0.5555555555555556,1573.5540828485186,32906.35571523967,24.0,5.0,19.0,0.2083333333333333,1151.5979457861383,22945.03060571174,92.0,46.0,46.0,0.5,168.59864032075723,18740.994325262112,0.0,0.0,0.0,0.0,88747.0,88755.0,88869.0,88884.0,88891.0,88918.0,88927.0,88951.0,89113.0,89201.0,0.1050384433973942,-0.10469898499122314,0.039959036660576576,-0.08826442158043679,0.009165114785941082
100,100,89647.38181152036,2713.9461922788223,7.759037136674445,89772.59994050604,-14319.06819614072,8.889507670430003,89799.6434680722,44098.133351766315,12.801083057671718,89823.45203459915,-14463.57136325048,14.137706608689175,90050.1875799268,19075.376319112052,34.59364991587776,0.9476328396749564,121.0,102.0,84.0,249.0,333.0,19.0,895.0,894.0,19.0,8.0,11.0,0.4210526315789473,218.55696479786965,3033.4117636111105,17.0,13.0,4.0,0.7647058823529411,1452.031502241386,5240.74857730349,27.0,15.0,12.0,0.5555555555555556,1709.4149516411203,33861.5959259516,26.0,3.0,23.0,0.1153846153846153,1385.7039991168574,26590.857413990336,86.0,42.0,44.0,0.4883720930232558,202.6347781401496,19591.649513265133,0.0,0.0,0.0,0.0,89639.0,89658.0,89760.0,89777.0,89785.0,89812.0,89820.0,89844.0,90009.0,90093.0,0.0805310604239923,-0.10140544638461448,0.03876388458453086,-0.09580648958096892,0.010622845638810554
101,101,90545.82194810128,2656.320145343202,22.161664243017313,90666.83586617884,-14750.531665477094,6.856136111052367,90693.4450191016,47463.15663004609,12.06337001546161,90717.45203459916,-12046.60864077744,14.232603862845057,90943.27191173549,20839.3308914178,37.87287515242987,0.9694255506138408,124.0,104.0,81.0,250.0,331.0,20.0,895.0,894.0,29.0,20.0,9.0,0.6896551724137931,220.2262682105836,2262.8368105396003,15.0,11.0,4.0,0.7333333333333333,1730.4226563282316,5675.04288141549,27.0,14.0,13.0,0.5185185185185185,1918.252643629859,41848.39244931193,26.0,3.0,23.0,0.1153846153846153,1429.056744280501,26114.21652691288,93.0,48.0,45.0,0.5161290322580645,237.47273219170444,21848.464961931422,0.0,0.0,0.0,0.0,90533.0,90553.0,90657.0,90671.0,90679.0,90706.0,90714.0,90738.0,90898.0,90988.0,0.08290652337093575,-0.11731256171451787,0.04041561454881254,-0.11862730722762779,0.011395410602626504
102,102,91421.24660900142,2772.6446615569325,15.418917642748898,91545.94444412556,-15297.546649952646,8.00105060407658,91572.06734833696,45582.01235954183,12.783496504928817,91596.45203459916,-14794.75490649802,13.061718177760367,91820.7025573684,19950.944014176835,36.826811462649026,0.9617862184996436,131.0,107.0,82.0,250.0,332.0,24.0,875.0,879.0,24.0,18.0,6.0,0.75,209.90080931741952,1808.9096228712272,17.0,12.0,5.0,0.7058823529411765,1582.8327626618056,7137.929745597265,27.0,14.0,13.0,0.5185185185185185,1826.9675332125105,38799.51725357048,24.0,3.0,21.0,0.125,1438.5405739969754,26863.53235441769,97.0,51.0,46.0,0.5257731958762887,155.4852630643037,20322.962194560412,0.0,0.0,0.0,0.0,91403.0,91427.0,91534.0,91550.0,91558.0,91585.0,91593.0,91616.0,91771.0,91866.0,0.07570418677435327,-0.10346971307760028,0.040080888022269716,-0.09723314668532647,0.007793378747081754
103,103,93136.69864360055,1363.3084220126775,7.108236586479264,93261.3859203209,-13044.693260445603,9.168956753130134,93288.73582149576,44600.675249364016,11.599623244012465,93313.02737369952,-11254.393460434449,17.835757805997236,93538.68483389584,18117.923072145248,32.702266550742905,0.9341771508475094,119.0,105.0,85.0,245.0,330.0,14.0,1718.0,1717.0,14.0,6.0,8.0,0.4285714285714285,168.1001352880957,1289.0256296071211,17.0,11.0,6.0,0.6470588235294118,1359.3867557358997,1445.3021198684182,26.0,14.0,12.0,0.5384615384615384,1782.866240415539,35323.32960573427,26.0,4.0,22.0,0.1538461538461538,1276.3127056624471,24602.301689508236,88.0,46.0,42.0,0.5227272727272727,249.901702322264,17520.78102384396,0.0,0.0,0.0,0.0,93131.0,93145.0,93250.0,93267.0,93275.0,93301.0,93309.0,93335.0,93497.0,93580.0,0.12330308576831524,-0.10420994412017806,0.03997397417073774,-0.11340572996220608,0.013793065647047945
104,104,94008.64641092403,2573.8744107910784,7.328831782784322,94137.54796540084,-13409.96774292315,13.026963656013493,94161.98274965808,48945.094762056775,12.35920674062864,94187.9178792126,-13966.59285411472,15.28779240518434,94411.963861848,19454.596717807253,33.38039551361966,0.9488673603672868,126.0,104.0,87.0,244.0,331.0,22.0,872.0,873.0,23.0,12.0,11.0,0.5217391304347826,195.73177060196284,2707.7385253114467,19.0,16.0,3.0,0.8421052631578947,1544.0150528214097,9653.530202019898,26.0,13.0,13.0,0.5,1915.9693649315536,41343.24828640693,28.0,5.0,23.0,0.1785714285714285,1299.007303875875,26544.55914687435,86.0,43.0,43.0,0.5,289.4167441513873,19675.079192561767,0.0,0.0,0.0,0.0,93997.0,94019.0,94123.0,94141.0,94149.0,94175.0,94183.0,94210.0,94372.0,94454.0,0.07604557929530245,-0.11513935621778311,0.03914527848492086,-0.09300817439474313,0.014876522415212921
105,105,94894.46900998335,3036.4439501274087,6.7087203435828044,95025.39728720114,-12551.783182327046,11.237817364376776,95051.48032314512,47426.7697352832,12.313358185701594,95076.45203459916,-13667.067699078989,15.28779240518434,95300.1395055288,19750.19142697571,34.15428113711765,0.948559367292176,129.0,111.0,83.0,247.0,330.0,18.0,889.0,889.0,19.0,11.0,8.0,0.5789473684210527,301.2906622225465,3688.469965242139,17.0,12.0,5.0,0.7058823529411765,1414.9350327707664,5743.525068210785,27.0,14.0,13.0,0.5185185185185185,1840.2792488465632,40510.43636423163,25.0,4.0,21.0,0.16,1419.7727508595792,27010.36583735284,82.0,38.0,44.0,0.4634146341463415,204.41303857709875,20575.28368267287,0.0,0.0,0.0,0.0,94884.0,94902.0,95013.0,95030.0,95037.0,95064.0,95073.0,95096.0,95263.0,95343.0,0.09922483904565549,-0.11272781024157585,0.038802542511713285,-0.10388276271985222,0.010349926953006749
106,106,95773.64511073276,1970.2655499016012,7.023108073706705,95903.14235663612,-12718.200558942,8.604881973038689,95930.37546873714,43010.58817343832,11.866931886641035,95956.17805189872,-11598.69782360065,20.704628085889247,96179.8709470402,17830.825957901903,33.55677711752406,0.9340364452516992,125.0,113.0,91.0,238.0,329.0,12.0,879.0,879.0,14.0,9.0,5.0,0.6428571428571429,226.5738823735183,2030.951017061721,17.0,11.0,6.0,0.6470588235294118,1298.333282310413,2268.871263896791,27.0,14.0,13.0,0.5185185185185185,1638.81879509958,35433.79261939553,33.0,5.0,28.0,0.1515151515151515,1172.509726206359,23603.396008603377,88.0,46.0,42.0,0.5227272727272727,212.6253218732864,17300.790588503558,0.0,0.0,0.0,0.0,95767.0,95779.0,95892.0,95909.0,95916.0,95943.0,95951.0,95983.0,96137.0,96221.0,0.11499662184360572,-0.10208466805452066,0.03810268272759058,-0.10108977266573618,0.011924591848705663
107,107,96665.80777480829,2569.3320757416373,19.645293030543833,96789.54796540084,-13978.831100665137,8.339073206545823,96814.2734821134,40784.05001053296,12.531840028269668,96842.69864360055,-11174.111270446892,10.191861603456228,97065.25897884724,20254.689468983655,36.070077889437506,0.966400295512085,128.0,101.0,89.0,243.0,332.0,27.0,887.0,885.0,31.0,20.0,11.0,0.6451612903225806,206.15128435073856,1937.525039903976,18.0,14.0,4.0,0.7777777777777778,1500.779583934383,7447.967156597528,27.0,13.0,14.0,0.4814814814814814,1688.070112596142,41051.17147532402,29.0,6.0,23.0,0.2068965517241379,1011.9633537018526,19191.846313862996,91.0,44.0,47.0,0.4835164835164835,259.37001965212306,20346.967552752656,0.0,0.0,0.0,0.0,96649.0,96676.0,96777.0,96793.0,96801.0,96828.0,96837.0,96866.0,97024.0,97109.0,0.08023536011445039,-0.10736087825418918,0.04139044827966271,-0.09056320714993028,0.012805430567044768
108,108,97565.79156745886,2429.8020287096147,10.72476881547468,97696.54796540084,-12067.706216453356,13.26008243866032,97721.45215818916,50303.64682829253,11.701488265044366,97747.027373699,-11409.380097258274,17.8357578060484,97973.2601729957,19858.05995250035,33.96279092953417,0.9435121462002856,122.0,111.0,87.0,247.0,334.0,11.0,904.0,907.0,11.0,6.0,5.0,0.5454545454545454,270.6899508754049,3310.302943402717,21.0,17.0,4.0,0.8095238095238095,1473.7778191578195,8723.704675850895,26.0,13.0,13.0,0.5,1949.289777481535,43474.54128157108,27.0,4.0,23.0,0.1481481481481481,1308.1592008495822,25241.26026184928,88.0,43.0,45.0,0.4886363636363636,181.10836221018155,20151.81082264748,0.0,0.0,0.0,0.0,97560.0,97571.0,97682.0,97700.0,97708.0,97734.0,97743.0,97769.0,97932.0,98016.0,0.1114041175688536,-0.12212576215589677,0.038750466425133745,-0.11465646596907915,0.009120143792665809
109,109,98479.85883622969,2926.6085009628664,10.615016364704742,98606.94879928046,-13469.226297869143,8.694274875916474,98633.30615406467,44778.09308593894,12.164295082852917,98658.60271279886,-13608.202719326371,14.9709654440443,98884.06609517836,18743.751174666668,34.36024739873516,0.9485106424268218,128.0,105.0,81.0,250.0,331.0,23.0,912.0,911.0,24.0,14.0,10.0,0.5833333333333334,206.2193967437758,2911.6846451201327,17.0,12.0,5.0,0.7058823529411765,1474.3502529187451,4797.1020300017235,27.0,14.0,13.0,0.5185185185185185,1844.2571124586395,39056.41637209262,23.0,5.0,18.0,0.217391304347826,1287.1004729287756,25150.44831731741,92.0,48.0,44.0,0.5217391304347826,213.6992738886085,18454.2053556786,0.0,0.0,0.0,0.0,98467.0,98490.0,98595.0,98612.0,98619.0,98646.0,98654.0,98676.0,98843.0,98926.0,0.07046360887557347,-0.10946064906133399,0.04118659338438346,-0.09458269394391336,0.011401094257879192
110,110,100249.69063991736,2337.321170737716,10.530223650024702,100376.93392393118,-13188.746332661956,8.636598957995623,100404.363806622,42647.76830876741,12.56038479855905,100428.75174704622,-13877.750250689778,12.739827004320285,100654.2820918134,18856.846030097466,34.52957664885993,0.9451502950275332,128.0,109.0,84.0,248.0,332.0,19.0,1773.0,1771.0,19.0,13.0,6.0,0.6842105263157895,186.77173016208835,3067.2283879174606,17.0,12.0,5.0,0.7058823529411765,1403.1505996489386,4377.56106517869,27.0,14.0,13.0,0.5185185185185185,1747.3883378469034,36804.811042761095,24.0,4.0,20.0,0.1666666666666666,1286.477726223863,25887.63318317232,91.0,46.0,45.0,0.5054945054945055,192.7755952546456,18951.018096181124,0.0,0.0,0.0,0.0,100237.0,100256.0,100365.0,100382.0,100390.0,100417.0,100425.0,100449.0,100612.0,100697.0,0.07990845781075889,-0.10638999069790533,0.040972562156029166,-0.09270074060886924,0.010223109153405395
111,111,101146.67126990156,3361.328490382907,28.02761940950315,101273.54796535196,-14693.861782052987,8.956759358933283,101298.34501474052,45127.12326103446,13.23605824850302,101324.45203459916,-13500.014039922256,11.280050486903928,101549.8008172202,21150.240560805927,39.63030683370655,0.9713010924195544,128.0,101.0,83.0,253.0,336.0,27.0,891.0,894.0,98.0,52.0,46.0,0.5306122448979592,218.4055745136623,2639.0703121849297,19.0,16.0,3.0,0.8421052631578947,1528.4354693570378,10976.500066489538,28.0,14.0,14.0,0.5,1805.3118088062777,43809.50979686431,24.0,4.0,20.0,0.1666666666666666,1353.5864866008158,24324.71438176988,97.0,50.0,47.0,0.5154639175257731,274.60979084943887,22682.80945753652,0.0,0.0,0.0,0.0,101131.0,101158.0,101259.0,101277.0,101284.0,101312.0,101321.0,101342.0,101506.0,101595.0,0.06497596862030659,-0.10401863662715691,0.04000502753883927,-0.10026556139852806,0.012983766783169624
112,112,102041.00570528004,3390.215940499589,9.64678333041492,102168.87776221192,-13695.136642346448,7.866926682442934,102195.9913754474,44723.77096402292,12.433143889512786,102221.60271279886,-14629.761256049973,11.923892433720768,102446.31832363905,20073.194276612703,35.459352572196615,0.9524037524588096,125.0,107.0,80.0,248.0,328.0,18.0,899.0,898.0,18.0,7.0,11.0,0.3888888888888889,268.8878012529838,4173.962178425203,16.0,11.0,5.0,0.6875,1496.26548449829,5790.401097348933,28.0,15.0,13.0,0.5357142857142857,1826.0756058314585,39117.34016123825,22.0,5.0,17.0,0.2272727272727272,1364.36139491152,25956.27686877885,90.0,47.0,43.0,0.5222222222222223,220.5959274652071,20665.09717396555,0.0,0.0,0.0,0.0,102034.0,102052.0,102159.0,102174.0,102181.0,102209.0,102217.0,102239.0,102407.0,102487.0,0.07931288330069027,-0.10925524319864897,0.04083009027347908,-0.09325930690408933,0.010989577663890974
113,113,102926.29648053768,2770.086009145448,12.106748504342272,103053.12330450072,-13797.65687579244,11.241034000376724,103077.13489701494,43858.81990462029,12.23130110834098,103105.90406919828,-11799.03940717497,15.125829335739274,103328.7865353028,19677.33081912411,36.0168692064092,0.955015716371962,128.0,105.0,85.0,248.0,333.0,23.0,884.0,882.0,23.0,14.0,9.0,0.6086956521739131,177.5991893586731,2931.2459232482497,18.0,14.0,4.0,0.7777777777777778,1494.4161737362208,7242.579657551247,27.0,13.0,14.0,0.4814814814814814,1820.6178199602296,40952.04244976987,27.0,7.0,20.0,0.2592592592592592,1009.9409146020122,20850.007864468753,89.0,44.0,45.0,0.4943820224719101,237.22950215526663,20271.81576863991,0.0,0.0,0.0,0.0,102912.0,102935.0,103040.0,103056.0,103064.0,103090.0,103099.0,103125.0,103285.0,103373.0,0.06411324008436158,-0.1083094171125626,0.04151087110687256,-0.08559518107786548,0.012055979763510749
114,114,103797.2225024622,1979.6922801115795,7.64389620259217,103919.4771858042,-11771.43532629434,9.474446739514631,103947.43835979288,42986.22452752346,11.963720583980574,103973.027373699,-11914.745088843138,17.8357578060484,104202.53415569612,17950.392338921116,32.83120034900061,0.9317540349900229,117.0,107.0,84.0,249.0,333.0,10.0,873.0,869.0,10.0,6.0,4.0,0.6,208.4179028439507,1891.531573643707,17.0,11.0,6.0,0.6470588235294118,1224.9022200815505,2033.197963918351,27.0,14.0,13.0,0.5185185185185185,1646.9116472910653,35650.986454655125,24.0,5.0,19.0,0.2083333333333333,1209.046958649163,24358.34692048117,90.0,51.0,39.0,0.5666666666666667,189.2498142275002,16565.766327897916,0.0,0.0,0.0,0.0,103791.0,103801.0,103908.0,103925.0,103933.0,103960.0,103969.0,103992.0,104157.0,104241.0,0.10527792876588066,-0.10405716772239626,0.03831254466734038,-0.10147484899037444,0.010542934697708941
115,115,104680.45077224108,2129.310478642488,4.461860005213848,104808.60751184289,-13367.023865343564,8.218855099099077,104835.94400591194,47925.57021621288,11.278806309960787,104862.17805189872,-10668.623769569584,22.93168860740184,105087.14900232876,18871.377126105584,32.68710226148024,0.9375720226016668,123.0,112.0,85.0,246.0,331.0,11.0,884.0,889.0,11.0,5.0,6.0,0.4545454545454545,177.32708892422755,2315.9515188733913,17.0,11.0,6.0,0.6470588235294118,1483.1398909566665,2293.654090641043,27.0,14.0,13.0,0.5185185185185185,1871.236894283869,38569.03196471093,26.0,5.0,21.0,0.1923076923076923,1260.9888395357336,25118.37658567149,85.0,43.0,42.0,0.5058823529411764,242.6138173244503,20267.164813188796,0.0,0.0,0.0,0.0,104675.0,104686.0,104798.0,104815.0,104822.0,104849.0,104857.0,104883.0,105044.0,105129.0,0.0832791134514493,-0.11095513151599705,0.03904464539163361,-0.11819601729067321,0.01285617979563517
116,116,105601.39728720114,2864.134405809992,19.14078248003317,105726.33088433353,-12408.153211403864,7.706308192630579,105753.86960143431,47527.140791918675,11.852751711630042,105777.45203459916,-12117.645832171638,15.025776860663225,106003.36094196988,20687.24862253231,36.715780728251175,0.9616954672572507,126.0,109.0,84.0,249.0,333.0,17.0,916.0,917.0,18.0,12.0,6.0,0.6666666666666666,252.2501363005449,3931.5586663348568,17.0,11.0,6.0,0.6470588235294118,1372.292555183911,4834.971613587442,27.0,15.0,12.0,0.5555555555555556,1897.1349289316531,38354.06517871453,26.0,3.0,23.0,0.1153846153846153,1446.0885158310557,26861.491201061548,93.0,44.0,49.0,0.4731182795698925,240.638301213667,21273.30420778647,0.0,0.0,0.0,0.0,105589.0,105606.0,105715.0,105731.0,105739.0,105766.0,105774.0,105799.0,105963.0,106048.0,0.08807203174154365,-0.110596035671343,0.03991687480712566,-0.11933741387223709,0.011632204243514847
117,117,106517.21865487432,3270.498762505329,23.707710671455597,106641.97175663224,-12426.618979740582,7.967863384707441,106667.08844671155,43482.27788401446,12.01798594664243,106694.17805189872,-10947.305022956862,12.752621132410903,106917.29739891725,20379.462485017255,39.25521943816487,0.9712120177907736,128.0,102.0,83.0,254.0,337.0,26.0,916.0,915.0,28.0,17.0,11.0,0.6071428571428571,229.08934071054676,2928.583990022787,17.0,13.0,4.0,0.7647058823529411,1457.0176217497376,8470.679511936622,27.0,14.0,13.0,0.5185185185185185,1839.49562962271,40508.91156201258,24.0,5.0,19.0,0.2083333333333333,1116.541994528416,21006.56287218802,96.0,47.0,49.0,0.4895833333333333,204.5365304261064,21407.21738200568,0.0,0.0,0.0,0.0,106501.0,106527.0,106629.0,106645.0,106653.0,106680.0,106689.0,106712.0,106871.0,106966.0,0.07004721828271093,-0.11724972207847917,0.042304490913043225,-0.10199240746347986,0.010036404570359954
118,118,107412.24660900142,2991.424331268123,25.23248017005736,107537.54186074113,-12576.366801750106,7.184280567899563,107564.72243660517,42623.45823255084,12.548391099752502,107588.45203459916,-12975.67001112079,12.96537451050583,107815.01592816845,20119.54987818712,38.30344151898177,0.968194392644458,130.0,106.0,80.0,254.0,334.0,24.0,894.0,896.0,26.0,16.0,10.0,0.6153846153846154,212.30128452883488,3808.4423684819,15.0,11.0,4.0,0.7333333333333333,1450.463462588695,6558.843496759159,27.0,15.0,12.0,0.5555555555555556,1687.5785425676688,34174.447713407906,26.0,3.0,23.0,0.1153846153846153,1341.621957754296,24325.626365217897,91.0,44.0,47.0,0.4835164835164835,209.1812482269944,21301.282066623167,0.0,0.0,0.0,0.0,107398.0,107422.0,107528.0,107541.0,107550.0,107577.0,107585.0,107608.0,107771.0,107862.0,0.07096996648377071,-0.11533247124971346,0.039592717544417656,-0.10339519705760548,0.010396914915764643
119,119,108319.1808566758,2782.1457098856404,12.739827004320285,108447.57886303651,-12258.72707520152,8.457239824191126,108473.95253340703,46596.66551504031,11.571765821374662,108500.60271279886,-10307.302668312284,19.052644904369863,108725.54964041608,19304.237591946658,35.21477722441787,0.9490768424457688,127.0,111.0,85.0,251.0,336.0,16.0,912.0,910.0,20.0,10.0,10.0,0.5,258.83373030986854,3376.0771694732507,17.0,12.0,5.0,0.7058823529411765,1446.387070628726,5844.9338056578745,27.0,14.0,13.0,0.5185185185185185,1873.2323406582389,39360.52907479832,26.0,5.0,21.0,0.1923076923076923,1103.9663785403457,22958.17277626427,91.0,45.0,46.0,0.4945054945054945,200.62146064332623,19943.912075981865,0.0,0.0,0.0,0.0,108309.0,108325.0,108436.0,108453.0,108460.0,108487.0,108496.0,108521.0,108681.0,108772.0,0.09303385131489315,-0.11798835733562076,0.040200995499422666,-0.10710526449701209,0.010392612486650158
120,120,109240.39728720114,3981.091054660944,20.383723206912453,109364.97581612322,-13273.70502680972,7.296462251636052,109390.41306492616,45777.17085119843,12.02895665621154,109416.60271279886,-11313.753207893418,11.198656721965452,109643.83551209555,21617.635453126848,39.83421693372561,0.9732375109345404,125.0,105.0,80.0,254.0,334.0,20.0,917.0,916.0,25.0,13.0,12.0,0.52,314.4195501120351,4040.097376589105,15.0,11.0,4.0,0.7333333333333333,1567.202034946278,7991.757125747207,26.0,13.0,13.0,0.5,1914.4519747634004,44526.4886799503,23.0,5.0,18.0,0.217391304347826,1231.8098518209588,22036.48139296363,95.0,50.0,45.0,0.5263157894736842,176.320505144433,22109.101806504375,0.0,0.0,0.0,0.0,109229.0,109249.0,109354.0,109369.0,109377.0,109403.0,109412.0,109434.0,109595.0,109688.0,0.07897823631637914,-0.11806816798933709,0.04182110731540065,-0.1088772071642455,0.008156327065776726
121,121,110143.94253470196,3020.7001216059875,10.418489999544413,110272.06782579728,-12859.47933622612,7.008946606094459,110299.08302630173,41655.20938015241,11.869432249081338,110326.32873009844,-12398.849173770315,13.457454006007485,110549.40836394751,18968.277292090297,36.25646335013148,0.9566669870398316,130.0,111.0,82.0,250.0,332.0,19.0,909.0,909.0,24.0,16.0,8.0,0.6666666666666666,196.13340608987176,2790.9676016521717,15.0,10.0,5.0,0.6666666666666666,1406.3902118604892,3491.664755752733,27.0,14.0,13.0,0.5185185185185185,1726.726395222992,36451.99118102679,24.0,6.0,18.0,0.25,1168.3878816219756,22746.103879770075,92.0,46.0,46.0,0.5,237.1031176904477,19118.77167232876,0.0,0.0,0.0,0.0,110132.0,110151.0,110262.0,110277.0,110285.0,110312.0,110320.0,110344.0,110504.0,110594.0,0.0649297838891718,-0.10936603069912654,0.041452831972697536,-0.09423357484609883,0.012499981629292126
122,122,111040.24660900142,2880.153171897207,24.27615480201633,111163.89522419004,-11681.386712782847,8.163516573629549,111190.17983806576,42698.07753699309,12.284729038566304,111214.45203459916,-12406.273681012091,13.139553642195883,111441.98619029528,19938.659709064817,38.067085296471184,0.9692286284571529,125.0,101.0,83.0,255.0,338.0,24.0,890.0,890.0,33.0,21.0,12.0,0.6363636363636364,262.227307423787,2759.0846495151004,17.0,13.0,4.0,0.7647058823529411,1383.7826500436524,7637.684166313363,27.0,14.0,13.0,0.5185185185185185,1759.4968849373874,36532.95729095017,24.0,3.0,21.0,0.125,1343.8289973748,24557.682957605684,97.0,49.0,48.0,0.5051546391752577,248.8755522918937,19851.982793047988,0.0,0.0,0.0,0.0,111026.0,111050.0,111151.0,111168.0,111176.0,111203.0,111211.0,111234.0,111395.0,111489.0,0.09104630614178527,-0.11846047768707034,0.041207871324252965,-0.10831850335782467,0.012482060275031731
123,123,111940.2739827004,792.820940828043,4.7932884941657425,112072.54796540084,-12923.089164584106,15.287792400471156,112096.48145735824,48265.69612464287,11.66763361227736,112124.56544232398,-13021.522080878936,15.28779240518434,112348.79341526594,18512.20517159965,31.609099112565616,0.9161493327484124,123.0,113.0,83.0,248.0,331.0,10.0,903.0,908.0,16.0,8.0,8.0,0.5,177.67010335744388,1351.3869880477428,21.0,17.0,4.0,0.8095238095238095,1607.957879850976,8116.451548335003,27.0,13.0,14.0,0.4814814814814814,1881.9877574632312,41991.926819132575,24.0,7.0,17.0,0.2916666666666667,1157.476327423704,23984.64189642751,81.0,40.0,41.0,0.4938271604938271,231.8871960422517,19720.31136443209,0.0,0.0,0.0,0.0,111936.0,111946.0,112059.0,112076.0,112083.0,112110.0,112118.0,112142.0,112310.0,112390.0,0.224098651042038,-0.12442519426838017,0.038992243116169424,-0.08888948006495842,0.012526179020422676
124,124,112853.78110375768,2528.3396257727227,19.6338278244488,112977.64722632951,-13756.61103494438,7.263463936905328,113003.5937001094,44902.548453159674,12.077429207956875,113030.33998518728,-12344.461880138875,12.739827004320285,113254.32624513425,20755.092950863123,37.21509402193713,0.9633771287814178,133.0,105.0,83.0,248.0,331.0,28.0,910.0,906.0,31.0,20.0,11.0,0.6451612903225806,228.2639340007541,2111.266866009305,15.0,11.0,4.0,0.7333333333333333,1584.1030289902862,7152.858824910073,27.0,15.0,12.0,0.5555555555555556,1891.958607045952,39231.07919966393,25.0,5.0,20.0,0.2,1199.2183851011605,23825.705483587157,88.0,44.0,44.0,0.5,235.1641058312827,21790.16515715376,0.0,0.0,0.0,0.0,112834.0,112862.0,112967.0,112982.0,112989.0,113016.0,113025.0,113050.0,113210.0,113298.0,0.0902821486773127,-0.11515212758188528,0.04213477123730646,-0.09714626662103389,0.011330428940406319
125,125,113728.82194810128,2713.543748709626,10.621729098528617,113857.85632472143,-11527.628902945493,9.03237067456193,113885.6967536397,41231.30975848595,12.220734082775062,113910.60271279886,-13167.27971214542,13.851075515285904,114135.60740356328,19916.27925168864,35.08005285514312,0.9463203505044736,131.0,106.0,84.0,249.0,333.0,25.0,876.0,882.0,27.0,14.0,13.0,0.5185185185185185,186.49803598369783,3022.7860306705757,16.0,11.0,5.0,0.6875,1261.7038689090225,3437.966442890335,27.0,15.0,12.0,0.5555555555555556,1685.9220402477074,33017.307475130365,26.0,5.0,21.0,0.1923076923076923,1241.2063922422594,23586.23363592045,90.0,45.0,45.0,0.5,199.801038714102,19733.410989835014,0.0,0.0,0.0,0.0,113716.0,113741.0,113847.0,113863.0,113871.0,113898.0,113906.0,113931.0,114093.0,114180.0,0.06872859008533892,-0.10945042380629004,0.040889364177928454,-0.09426445092507438,0.01003204645753104
126,126,114623.82917501706,3192.6010222963637,13.708640305990796,114752.00977721968,-14135.912774473489,7.717110159431239,114778.8076794197,43584.742680269475,12.250420079354331,114804.60271279886,-12873.58146343407,13.061220421930951,115029.55630087854,19957.85436629595,35.63230904586074,0.9599121155154547,128.0,105.0,83.0,252.0,335.0,23.0,899.0,893.0,23.0,11.0,12.0,0.4782608695652174,228.8987323488494,4144.9553093118375,16.0,11.0,5.0,0.6875,1479.9664130426584,4191.742967378628,27.0,15.0,12.0,0.5555555555555556,1778.371011914034,37200.30077013632,24.0,5.0,19.0,0.2083333333333333,1222.857977565544,24034.59399253756,90.0,44.0,46.0,0.4888888888888889,206.74715132595435,20419.038320106505,0.0,0.0,0.0,0.0,114613.0,114636.0,114741.0,114757.0,114764.0,114791.0,114800.0,114824.0,114987.0,115076.0,0.07169662940977443,-0.10469549696961693,0.04080260436455647,-0.09498972613323896,0.01035918729195163
127,127,115535.4950165772,2463.073204310574,13.326643064161006,115657.79990827246,-13839.847687788282,7.991274225351987,115685.31537772436,47303.20374055432,11.964553768919972,115709.45203459916,-12721.778846947962,15.287792391559876,115936.18526491192,20653.092644127963,36.579656278414205,0.9584143410672384,123.0,100.0,84.0,250.0,334.0,23.0,909.0,907.0,25.0,12.0,13.0,0.48,190.19561114353456,2691.5606883297833,16.0,11.0,5.0,0.6875,1512.6930784926174,4221.22724182087,27.0,14.0,13.0,0.5185185185185185,1875.4600143072164,39750.50663234634,27.0,3.0,24.0,0.1111111111111111,1476.148022782078,26477.649780607324,94.0,47.0,47.0,0.5,177.20432533947084,21175.92234636467,0.0,0.0,0.0,0.0,115524.0,115547.0,115647.0,115663.0,115671.0,115698.0,115706.0,115731.0,115895.0,115981.0,0.07721882192160473,-0.10929983570753861,0.03964763199959189,-0.11603314603572248,0.008580038272856591
128,128,116437.2739827004,1787.902489539382,7.4923102614565265,116568.45572044452,-12412.199862809332,8.01440892954755,116596.3336873602,47645.746490852696,11.26066385379088,116621.60271279886,-11654.454548091224,20.38372320604668,116852.80813839656,19862.15442665807,32.717557731822104,0.9262283627245884,125.0,111.0,84.0,245.0,329.0,14.0,903.0,911.0,23.0,5.0,18.0,0.217391304347826,219.8843369701109,3054.6848193213536,17.0,10.0,7.0,0.5882352941176471,1353.3704942982183,1270.541189051326,27.0,14.0,13.0,0.5185185185185185,1883.9195089606064,38355.43289461317,25.0,5.0,20.0,0.2,1257.152131827631,25817.47557127423,85.0,49.0,36.0,0.5764705882352941,199.69953738088415,19200.66793523772,0.0,0.0,0.0,0.0,116433.0,116447.0,116558.0,116575.0,116582.0,116609.0,116617.0,116642.0,116806.0,116887.0,0.12298452418775913,-0.10903550613564657,0.03954014046820092,-0.10786880901547884,0.010054273725354617
129,129,117338.82194810128,3278.147460563368,21.46809064757458,117463.54796540084,-12847.594534933683,7.514291679763071,117489.37222312804,40930.16179927268,13.170437775187876,117514.45203459916,-13335.25223246424,10.928345037871727,117738.74250420702,20354.867798753767,39.57073908581772,0.964848414435749,127.0,108.0,80.0,256.0,336.0,19.0,899.0,893.0,30.0,16.0,14.0,0.5333333333333333,261.6246055612514,3674.848230604297,16.0,13.0,3.0,0.8125,1465.6119922303783,9556.844717869626,27.0,14.0,13.0,0.5185185185185185,1684.1223263498955,38621.3864267068,22.0,3.0,19.0,0.1363636363636363,1301.84016129894,23043.13867918622,96.0,46.0,50.0,0.4791666666666667,199.536021613833,20639.32143705254,0.0,0.0,0.0,0.0,117325.0,117344.0,117452.0,117467.0,117475.0,117502.0,117511.0,117532.0,117693.0,117788.0,0.0798086750851317,-0.11407676263795972,0.04114624160561764,-0.09762396230718849,0.00980286502406317
130,130,118232.972626301,3248.849926614944,9.634923084599228,118359.21507876762,-13892.801876599657,9.205089650282368,118385.44390431038,42898.30506307544,12.63440444471308,118411.60271279886,-12997.740224875532,12.13750961545398,118636.65280431848,20467.587815127677,36.1873834747672,0.9625587251024232,124.0,103.0,82.0,253.0,335.0,21.0,895.0,897.0,26.0,12.0,14.0,0.4615384615384615,239.5757921047757,2830.4275161174114,17.0,12.0,5.0,0.7058823529411765,1406.2827348917358,5588.150392225934,28.0,14.0,14.0,0.5,1709.7516977181406,39665.031453475895,23.0,5.0,18.0,0.217391304347826,1237.5486753444764,23616.81333083603,90.0,44.0,46.0,0.4888888888888889,214.7035442709433,20615.151410598148,0.0,0.0,0.0,0.0,118223.0,118244.0,118347.0,118364.0,118371.0,118399.0,118407.0,118429.0,118594.0,118682.0,0.07374172323016336,-0.10122383860237785,0.03985592659673175,-0.09521260264734421,0.010489929062977075
131,131,119131.09593080172,2757.063810310538,15.888277306457,119254.04712528462,-12604.093307943696,8.471584656502166,119281.0803142396,46854.07390397198,11.855372809979576,119307.17805189872,-12057.766893607764,15.210209677236929,119532.14112717671,20963.02065837083,35.96060251095107,0.9633417193309536,128.0,100.0,86.0,247.0,333.0,28.0,896.0,895.0,29.0,17.0,12.0,0.5862068965517241,175.70675061546177,2112.180654501698,17.0,12.0,5.0,0.7058823529411765,1438.934501881135,4852.852905442178,27.0,14.0,13.0,0.5185185185185185,1887.2236375189457,39696.152245002486,26.0,5.0,21.0,0.1923076923076923,1279.1238758678112,25404.199076815778,88.0,44.0,44.0,0.5,186.1111955824901,20798.46640316864,0.0,0.0,0.0,0.0,119114.0,119142.0,119242.0,119259.0,119267.0,119294.0,119302.0,119328.0,119494.0,119575.0,0.0637296641297799,-0.1141640629536002,0.04027875231056396,-0.10608298262474444,0.008878071467633327
132,132,120024.1573742102,2699.5993612650295,15.768898646419998,120144.1489610188,-12204.739307264628,8.097531364357787,120170.48616862547,41944.8414747799,11.977370582049048,120197.17805189872,-11713.24670055602,12.882718181741682,120424.68483389584,19779.567408168292,35.838518115536196,0.954591226812839,123.0,101.0,83.0,250.0,333.0,22.0,897.0,889.0,23.0,15.0,8.0,0.6521739130434783,259.8208861639906,3055.5158422496324,17.0,12.0,5.0,0.7058823529411765,1369.7282386836855,5887.136960533791,27.0,14.0,13.0,0.5185185185185185,1776.4938893925146,39526.238314044014,24.0,5.0,19.0,0.2083333333333333,1150.8422531697156,21861.638825526927,88.0,45.0,43.0,0.5113636363636364,203.71446230404885,19230.86320903977,0.0,0.0,0.0,0.0,120010.0,120032.0,120133.0,120149.0,120156.0,120183.0,120192.0,120216.0,120380.0,120466.0,0.09624423901265068,-0.11222920901459829,0.04235309580227318,-0.09825134589840799,0.010299237495958666
133,133,120895.29779426088,2850.052057237967,7.495505110862217,121024.54796539784,-12816.6151449243,6.719300597738951,121050.63312602892,42287.581457584885,12.507801356225588,121074.87669549928,-12012.196760141418,12.324099569769714,121300.40414097252,20704.96580626331,38.716490756531,0.9483990298281724,129.0,107.0,81.0,253.0,334.0,22.0,873.0,880.0,24.0,12.0,12.0,0.5,241.63990967972447,2929.867676286344,15.0,11.0,4.0,0.7333333333333333,1495.499701350522,7933.396115118334,27.0,15.0,12.0,0.5555555555555556,1718.8232510202783,35275.01302388727,25.0,4.0,21.0,0.16,1254.7243921721129,23250.45482186327,96.0,47.0,49.0,0.4895833333333333,212.65972141888523,21947.257904093374,0.0,0.0,0.0,0.0,120885.0,120907.0,121014.0,121028.0,121036.0,121063.0,121072.0,121095.0,121256.0,121348.0,0.08478438457503185,-0.11668445095995389,0.0406460523816971,-0.10445419911331365,0.010270952553544188
134,134,121786.41708298384,2676.3692232716376,4.646765084518517,121914.54796540084,-12640.995155597484,15.28779239916724,121938.89500194944,49258.4103683133,12.071560243531207,121966.02664380394,-12169.055792830668,17.8357578060484,122191.78356621708,19017.367288614336,32.38298932837684,0.9320281010189304,120.0,108.0,85.0,245.0,330.0,12.0,889.0,890.0,12.0,5.0,7.0,0.4166666666666667,249.29100738673216,2669.717038356689,19.0,16.0,3.0,0.8421052631578947,1603.1206891041331,8433.913914582394,27.0,14.0,13.0,0.5185185185185185,1790.1791143657522,40377.702388650054,25.0,5.0,20.0,0.2,1208.6969779458482,24559.337440790416,82.0,42.0,40.0,0.5121951219512195,282.27505923426895,19197.92543416599,0.0,0.0,0.0,0.0,121781.0,121793.0,121901.0,121918.0,121925.0,121952.0,121961.0,121986.0,122151.0,122231.0,0.09314522272154764,-0.12681918388318222,0.036342608317651466,-0.09932545289651358,0.014843014542989162
135,135,122684.39728720114,2115.901077550711,15.80246623616836,122807.10119584402,-13214.186648752597,8.689678302396965,122834.90189894316,48333.23151001805,11.733701316850022,122860.027373699,-11653.041630499823,16.8792888863536,123088.10949479598,21278.96849095372,35.4682589236363,0.9584663786910014,129.0,107.0,82.0,250.0,332.0,22.0,896.0,895.0,26.0,20.0,6.0,0.7692307692307693,170.2069311652388,2022.343008319891,17.0,11.0,6.0,0.6470588235294118,1430.9563792177482,3196.2501052299635,26.0,14.0,12.0,0.5384615384615384,1892.173428821474,39937.12208407883,23.0,4.0,19.0,0.1739130434782608,1400.6817948282624,25476.03172575805,87.0,45.0,42.0,0.5172413793103449,202.91096227230204,21549.60992049043,0.0,0.0,0.0,0.0,122667.0,122689.0,122796.0,122813.0,122821.0,122847.0,122856.0,122878.0,123044.0,123128.0,0.0804418188407296,-0.10828940268925509,0.0391484982424418,-0.12019881497395665,0.009535751808578744
