Unnamed: 0,cycle,p_center,p_height,p_width,q_center,q_height,q_width,r_center,r_height,r_width,s_center,s_height,s_width,t_center,t_height,t_width,r_squared,pr_interval,pr_segment,qrs_duration,st_segment,qt_interval,p_duration,pp_interval,rr_interval,fwhm_p,rise_time_p,decay_time_p,rise_decay_symmetry_p,sharpness_deriv_p,sharpness_diff_p,fwhm_q,rise_time_q,decay_time_q,rise_decay_symmetry_q,sharpness_deriv_q,sharpness_diff_q,fwhm_r,rise_time_r,decay_time_r,rise_decay_symmetry_r,sharpness_deriv_r,sharpness_diff_r,fwhm_s,rise_time_s,decay_time_s,rise_decay_symmetry_s,sharpness_deriv_s,sharpness_diff_s,fwhm_t,rise_time_t,decay_time_t,rise_decay_symmetry_t,sharpness_deriv_t,sharpness_diff_t,Average_Heart_Rate,SDNN,RMSSD,NN50,p_on,p_off,q_on,q_off,r_on,r_off,s_on,s_off,t_on,t_off,sharpness_deriv_p_norm,sharpness_deriv_q_norm,sharpness_deriv_r_norm,sharpness_deriv_s_norm,sharpness_deriv_t_norm
0,0,0.0,0.0,0.0,0.0,0.0,0.0,0.0,0.0,0.0,0.0,0.0,0.0,0.0,0.0,0.0,0.0,0.0,0.0,0.0,0.0,0.0,0.0,0.0,0.0,0.0,0.0,0.0,0.0,0.0,0.0,0.0,0.0,0.0,0.0,0.0,0.0,0.0,0.0,0.0,0.0,0.0,0.0,0.0,0.0,0.0,0.0,0.0,0.0,0.0,0.0,0.0,0.0,0.0,0.0,71.24349091926932,361.4365234917511,484.62187389318046,322.0,,,,,,,,,,,,,,,
1,1,2405.469492200683,2044.2515998244908,17.536544988608835,2535.1210587223545,-2437.6005418523227,7.590955500402597,2562.6993613251843,32906.947755625784,9.419083445200798,2587.3013563994245,-2650.8590275209285,4.961209501647671,2814.123643313475,5721.672126356756,36.106383204484096,0.9952108486757127,139.0,97.0,70.0,263.0,333.0,42.0,,,42.0,20.0,22.0,0.4761904761904761,38.20912681780712,2049.0498176262117,15.0,11.0,4.0,0.7333333333333333,559.9461544707536,4931.092546383496,24.0,12.0,12.0,0.5,1595.911264763902,31739.05176057984,10.0,3.0,7.0,0.3,810.9494728498605,11403.837153846214,87.0,43.0,44.0,0.4942528735632184,37.64955496937594,6091.0515491474725,0.0,0.0,0.0,0.0,2385.0,2427.0,2524.0,2539.0,2551.0,2575.0,2585.0,2594.0,2773.0,2857.0,0.018691009864484177,-0.229712024122399,0.0484976995318888,-0.30591950172780663,0.006580166450982764
2,2,4029.4871237701714,1839.8272179819207,14.3204938333169,4160.547965400863,-2666.706663365045,10.377931984859831,4187.201663795226,31945.55032393371,9.5841190531314,4211.301356399425,-2976.41865325139,5.639119327628295,4436.678685295301,5713.9957579544525,33.58694497836385,0.9943641464283586,138.0,98.0,71.0,258.0,329.0,40.0,1625.0,1625.0,40.0,19.0,21.0,0.475,36.72986937260378,1780.362500469647,18.0,14.0,4.0,0.7777777777777778,641.761545975756,6176.503808009751,23.0,11.0,12.0,0.4782608695652174,1556.48692497374,31914.526095591464,11.0,2.0,9.0,0.1818181818181818,829.0665511509625,12002.00625148796,82.0,41.0,41.0,0.5,41.05870945585512,6076.092332028352,0.0,0.0,0.0,0.0,4010.0,4050.0,4148.0,4164.0,4176.0,4199.0,4209.0,4219.0,4398.0,4477.0,0.01996376019096632,-0.24065697018431506,0.04872312134837806,-0.27854500583958647,0.007185638771029415
3,3,4905.531968905369,1740.7164875658923,13.214909854883963,5036.547965400863,-2589.819368090422,15.287792405184309,5062.69611352856,33072.03556538334,9.6055883243845,5086.876695499281,-3240.331878584157,5.766871641447867,5315.471793318309,5241.885950675891,33.21584282654031,0.9930741665469396,135.0,98.0,73.0,261.0,334.0,37.0,876.0,875.0,37.0,19.0,18.0,0.5135135135135135,37.95443985402561,1594.8129013658972,20.0,17.0,3.0,0.85,676.9575092627191,6787.594840232011,24.0,12.0,12.0,0.5,1597.1350305257251,31764.985819394737,11.0,3.0,8.0,0.2727272727272727,826.1587657935029,12144.114065284068,82.0,40.0,42.0,0.4878048780487805,37.09629029892391,5559.035627506431,0.0,0.0,0.0,0.0,4887.0,4924.0,5022.0,5040.0,5051.0,5075.0,5084.0,5095.0,5276.0,5356.0,0.021803918171131184,-0.2613917856988872,0.04829261347908848,-0.2549611572980259,0.007076897637221714
4,4,5841.164919117299,1794.2716753250684,13.489185192540916,5972.737356068996,-2734.5685425452752,10.158837971867042,5999.417758199155,31879.45519647584,9.591692109267408,6023.301356399425,-3174.6219902188686,5.761569406064643,6254.310515404433,5322.554756926942,33.38439372030549,0.9940516916131552,136.0,101.0,72.0,264.0,336.0,35.0,935.0,937.0,35.0,17.0,18.0,0.4857142857142857,48.718072660310085,1749.9358757601226,18.0,14.0,4.0,0.7777777777777778,629.8938580657618,5871.436373327453,23.0,11.0,12.0,0.4782608695652174,1559.809099134464,32164.073285626364,11.0,2.0,9.0,0.1818181818181818,849.9620345462097,12304.689213162224,86.0,43.0,43.0,0.5,32.63665272144875,5521.098454217843,0.0,0.0,0.0,0.0,5824.0,5859.0,5960.0,5977.0,5988.0,6011.0,6021.0,6032.0,6212.0,6296.0,0.02715200453213632,-0.23034487827446107,0.048928348665973925,-0.26773645402979473,0.006131764577710426
5,5,6673.020446727505,1356.5718172367954,11.140203392155415,6802.972626301007,-2789.0371130485837,11.956237189600497,6829.216002202011,31716.569345832213,9.62884974353604,6853.301356399425,-3188.21516937899,5.851165145429074,7081.4453212321005,5289.554336770678,32.02870113052204,0.9936725549969284,132.0,102.0,72.0,259.0,331.0,30.0,833.0,830.0,30.0,15.0,15.0,0.5,46.89424940511804,1326.228255980065,18.0,14.0,4.0,0.7777777777777778,637.6241433949705,5817.150520672328,23.0,11.0,12.0,0.4782608695652174,1546.4539808883098,31676.473645750528,11.0,2.0,9.0,0.1818181818181818,835.5420612048945,12151.48267574308,81.0,40.0,41.0,0.4938271604938271,36.19302207988573,5519.760961954291,0.0,0.0,0.0,0.0,6658.0,6688.0,6790.0,6807.0,6818.0,6841.0,6851.0,6862.0,7042.0,7121.0,0.03456820258925698,-0.2286180203238706,0.04875855153267152,-0.2620720424486418,0.006842357555207932
6,6,7516.8853520048515,1455.9839557936486,12.310351845477236,7645.547965400863,-2601.3074996845376,12.364217341877149,7671.824886137798,32595.091720653418,9.58568732311068,7696.301356399425,-3183.0217467103803,5.815132034712761,7924.723873318159,5485.396764903023,33.10728238116594,0.9939071127787804,131.0,99.0,72.0,261.0,333.0,32.0,842.0,842.0,33.0,16.0,17.0,0.4848484848484848,44.91555726766919,1393.1169649021735,18.0,15.0,3.0,0.8333333333333334,668.3016036094725,6658.483909362911,24.0,12.0,12.0,0.5,1587.440634067586,31774.281179722944,12.0,3.0,9.0,0.25,829.7527104659082,12179.212414453945,82.0,41.0,41.0,0.5,35.535206234166644,5734.1507704286105,0.0,0.0,0.0,0.0,7501.0,7533.0,7632.0,7649.0,7660.0,7684.0,7694.0,7704.0,7885.0,7965.0,0.030848936960425486,-0.25690988231515033,0.04870183056002038,-0.2606808173156369,0.006478146933970213
7,7,8378.378777082868,1646.1896119618443,15.878584955992574,8504.39093088828,-2396.832943464071,7.5622739398071985,8531.68676926702,32872.671586221826,9.470225028339206,8555.72601729957,-2793.3476073191987,5.051238807320038,8784.788795913648,5775.597011447447,35.56151703441414,0.9961383123619728,133.0,95.0,70.0,264.0,334.0,38.0,860.0,860.0,38.0,18.0,20.0,0.4736842105263157,44.929938792525554,1645.547611946677,15.0,11.0,4.0,0.7333333333333333,559.6531791500985,5018.557029642361,23.0,12.0,11.0,0.5217391304347826,1596.5019740954804,31698.825432029196,10.0,3.0,7.0,0.3,808.4812661978211,11451.500783467403,85.0,42.0,43.0,0.4941176470588235,39.44483408055827,6153.77254832892,0.0,0.0,0.0,0.0,8360.0,8398.0,8493.0,8508.0,8520.0,8543.0,8554.0,8563.0,8744.0,8827.0,0.027293295053040918,-0.23349694882833533,0.04856623745678871,-0.2894309552020731,0.006829568268419205
8,8,9952.086715653908,1669.2173300151649,15.510115707617931,10081.36797950448,-2514.498198729444,8.300944408090805,10108.739229548231,31885.291125002248,9.4836241542597,10133.301356399426,-2748.4621021697662,5.330683433213125,10358.20061397996,5727.644306206484,33.800876597645974,0.9947436195476084,136.0,99.0,70.0,259.0,329.0,37.0,1575.0,1577.0,37.0,18.0,19.0,0.4864864864864865,44.96423534559547,1671.3712601564257,16.0,11.0,5.0,0.6875,545.6263893777345,4611.180642220574,24.0,12.0,12.0,0.5,1550.3056553469696,30929.587550509084,10.0,2.0,8.0,0.2,793.4057507200871,11366.276447228958,83.0,41.0,42.0,0.4939759036144578,40.566644774241226,6091.679568082857,0.0,0.0,0.0,0.0,9934.0,9971.0,10070.0,10086.0,10097.0,10121.0,10131.0,10140.0,10318.0,10399.0,0.026937316391980527,-0.2169921575817534,0.04862134233835885,-0.2886726180774823,0.0070826054492041605
9,9,10776.933311246812,1639.775975507977,15.63833847627429,10907.349065175007,-2523.3899314590076,8.814677910877345,10935.02720236897,32824.304081435635,9.475765494467922,10959.301356399426,-3012.6071250741106,5.389365572671922,11186.952882587551,5836.176032954,34.7537143961288,0.9950015702183606,137.0,98.0,71.0,262.0,333.0,39.0,825.0,826.0,39.0,18.0,21.0,0.4615384615384615,38.72796431854493,1626.8240730751445,17.0,12.0,5.0,0.7058823529411765,536.6022512991019,4461.880452316873,24.0,12.0,12.0,0.5,1601.1513531019657,32303.927912832085,10.0,2.0,8.0,0.2,843.0144144016529,12099.969839430923,85.0,42.0,43.0,0.4941176470588235,39.938627686620414,6191.478866528611,0.0,0.0,0.0,0.0,10759.0,10798.0,10896.0,10912.0,10923.0,10947.0,10957.0,10967.0,11147.0,11229.0,0.023617838593194176,-0.21265134040890857,0.048779445533089764,-0.2798288589923303,0.0068432870189498625
10,10,11684.91359607897,1652.785760542253,14.225569425855973,11814.604276396203,-2434.353615990884,8.553771246040931,11842.010761110863,32475.413133067417,9.495499450437173,11866.301356399426,-2830.5032096974446,5.384233373702234,12096.049690892973,5738.937643598841,34.162615022313304,0.9953930769607252,135.0,101.0,71.0,263.0,334.0,34.0,908.0,907.0,35.0,17.0,18.0,0.4857142857142857,50.198391143826505,1618.3016365345036,17.0,13.0,4.0,0.7647058823529411,593.9552759151437,5660.484842554181,24.0,12.0,12.0,0.5,1578.7476340418552,31963.026319957386,10.0,2.0,8.0,0.2,822.9814400225754,11831.950812256777,84.0,42.0,42.0,0.5,36.53960548859832,6025.148734726128,0.0,0.0,0.0,0.0,11668.0,11702.0,11803.0,11819.0,11830.0,11854.0,11864.0,11874.0,12056.0,12137.0,0.030371989124202765,-0.24398890613653884,0.04861362741015689,-0.29075446274111266,0.006366963322794466
11,11,12527.303234618195,1356.5076349204844,10.771333353903335,12658.54796540086,-2648.66350596669,15.287792405184184,12684.584652489384,31912.207356478768,9.57745283246585,12708.876695499284,-3169.762767029811,5.84920744269668,12937.105269946223,5549.004898503585,31.532172974158307,0.99166577069039,131.0,102.0,73.0,260.0,333.0,29.0,843.0,843.0,30.0,15.0,15.0,0.5,46.58756401021571,1326.9884119148242,19.0,16.0,3.0,0.8421052631578947,665.7777972920176,6452.64672727024,23.0,12.0,11.0,0.5217391304347826,1547.697550308437,30479.887296922934,11.0,3.0,8.0,0.2727272727272727,791.5755468803083,11681.64752979955,79.0,39.0,40.0,0.4936708860759494,38.75043398678281,5776.483018263128,0.0,0.0,0.0,0.0,12513.0,12542.0,12644.0,12662.0,12673.0,12696.0,12706.0,12717.0,12899.0,12977.0,0.034343753629478516,-0.25136367673440146,0.04849860534621482,-0.2497270632092271,0.006983312268697537
12,12,13371.734147930656,1247.892256304279,11.018230213996558,13502.54796540086,-2703.8788545246193,15.287792405182875,13528.858433740374,32552.524659150204,9.60735127079863,13552.876695499284,-3382.325428154098,6.076168843737196,13781.568602855628,5588.807670935872,32.353965518293855,0.9919849756501562,131.0,103.0,74.0,260.0,334.0,28.0,845.0,844.0,29.0,15.0,14.0,0.5172413793103449,45.90270639786518,1197.665011499955,20.0,16.0,4.0,0.8,662.7791624152145,6289.374942567034,24.0,12.0,12.0,0.5,1579.6959728988236,31528.805514320615,12.0,3.0,9.0,0.25,828.8978269973478,12307.947852352612,81.0,41.0,40.0,0.5061728395061729,38.75134254939045,5859.593472128081,0.0,0.0,0.0,0.0,13357.0,13385.0,13488.0,13506.0,13517.0,13541.0,13550.0,13562.0,13742.0,13822.0,0.03678419043468487,-0.2451216190052792,0.04852760237307081,-0.24506743795191768,0.006933740581361133
13,13,14263.092703419548,1481.0626524484535,15.120673895602405,14390.499512000702,-2550.473957898,7.85242828258755,14417.921385014724,32844.14140419302,9.46824353138179,14442.301356399426,-2835.7394752984274,5.2750690618121086,14671.897282308144,5860.154785433865,35.21596676578751,0.9955586204918137,133.0,99.0,70.0,264.0,334.0,34.0,890.0,889.0,35.0,17.0,18.0,0.4857142857142857,46.36371781761521,1464.9299022268006,16.0,11.0,5.0,0.6875,550.9904334392395,4595.66997480512,24.0,12.0,12.0,0.5,1596.080110223707,32119.66873826463,10.0,2.0,8.0,0.2,828.0283714126991,11836.187119574985,85.0,43.0,42.0,0.5058823529411764,42.67649353158777,6297.343410534388,0.0,0.0,0.0,0.0,14246.0,14280.0,14379.0,14395.0,14406.0,14430.0,14440.0,14449.0,14630.0,14713.0,0.031304359569777784,-0.21603452634087825,0.0485955802766074,-0.29199733565988434,0.007282485718238268
14,14,15877.076258195046,1510.998777076256,13.10730832821417,16006.54796540086,-2671.00509970625,11.736925196339138,16033.2985524354,32204.89224500255,9.610591524080434,16057.301356399426,-3194.6714330762684,5.797937133209926,16285.690887402336,5730.369109148685,32.40110719954362,0.9943886921408692,132.0,99.0,73.0,259.0,332.0,33.0,1615.0,1616.0,33.0,16.0,17.0,0.4848484848484848,45.06105301527462,1486.7103945890187,19.0,15.0,4.0,0.7894736842105263,637.0276694322085,6020.145633676142,23.0,11.0,12.0,0.4782608695652174,1569.6582902950206,32245.583108919775,11.0,2.0,9.0,0.1818181818181818,850.3023549629187,12362.866344085109,81.0,41.0,40.0,0.5061728395061729,42.65606913751265,6035.452065505771,0.0,0.0,0.0,0.0,15861.0,15894.0,15993.0,16010.0,16022.0,16045.0,16055.0,16066.0,16246.0,16325.0,0.029822031426436097,-0.23849736172434383,0.048739746692945236,-0.2661626939657237,0.007443860652782578
15,15,16668.861798208,1799.7979886384285,17.729967336048983,16799.05083316886,-2441.555143262936,9.248739932594477,16826.433752512,32667.726531017895,9.520027924936562,16850.30135639943,-3072.7739744463584,5.2541841597188,17078.79841519241,5949.490585846127,34.85880327628193,0.9955060664813574,137.0,97.0,71.0,262.0,333.0,40.0,792.0,793.0,41.0,19.0,22.0,0.4634146341463415,42.2604305443138,1823.6435304115712,16.0,12.0,4.0,0.75,568.3004911073155,5160.853561185508,23.0,11.0,12.0,0.4782608695652174,1589.3591030524642,32863.269822129034,10.0,2.0,8.0,0.2,871.849007348695,12301.869942883604,83.0,41.0,42.0,0.4939759036144578,40.67053250954168,6321.122367262895,0.0,0.0,0.0,0.0,16650.0,16690.0,16787.0,16803.0,16815.0,16838.0,16848.0,16858.0,17039.0,17120.0,0.02348065216823827,-0.23276168579499254,0.04865227157890443,-0.2837335302235439,0.006835968882158939
16,16,17483.995318940397,1603.5301100467182,13.18188858765614,17616.54796540086,-2580.489827632876,13.847380030305064,17642.3949827558,32144.492836608257,9.585441564442432,17666.30135639943,-3221.264210640196,5.739561465997819,17896.133531410054,5647.687354068291,33.11435005715781,0.9940298788605552,136.0,101.0,72.0,262.0,334.0,35.0,815.0,816.0,35.0,17.0,18.0,0.4857142857142857,41.52285381822934,1528.6356043952292,19.0,16.0,3.0,0.8421052631578947,681.2668954196859,6936.614173835584,23.0,11.0,12.0,0.4782608695652174,1562.6685967580063,32181.23966405312,11.0,2.0,9.0,0.1818181818181818,854.8439952839159,12371.399094690292,83.0,41.0,42.0,0.4939759036144578,35.35696375878518,5855.9202921009055,0.0,0.0,0.0,0.0,17467.0,17502.0,17603.0,17620.0,17631.0,17654.0,17664.0,17675.0,17856.0,17937.0,0.025894651779890553,-0.26400681301837287,0.048613882468176224,-0.2653753121089138,0.006260432198555736
17,17,19067.73311570648,1668.6864566768097,13.399001543756016,19201.54796540086,-2542.8719436991946,15.28779240518414,19227.8282084312,32596.423053826384,9.5803501782703,19252.30135639943,-3264.4141870390395,5.898476221853595,19480.922757690063,5620.970780262917,32.476850198769625,0.9926448981001048,137.0,101.0,73.0,261.0,334.0,36.0,1583.0,1585.0,36.0,18.0,18.0,0.5,42.63874728278843,1566.475427059205,19.0,16.0,3.0,0.8421052631578947,660.1223208439844,6475.0808658064225,24.0,12.0,12.0,0.5,1575.7145332962175,31521.176830188582,12.0,3.0,9.0,0.25,829.481623702687,12241.256438947988,80.0,39.0,41.0,0.4875,36.51674766539688,5860.253902967765,0.0,0.0,0.0,0.0,19050.0,19086.0,19187.0,19205.0,19216.0,19240.0,19250.0,19260.0,19443.0,19521.0,0.025552282223050775,-0.25959715450070364,0.04834010562122858,-0.25409815549633474,0.006496519745951931
18,18,19948.550579805156,1628.1025016234105,13.174051623767268,20081.54796540086,-2482.342581643607,14.237237668005184,20108.05392958747,32794.21498183542,9.577927363555572,20132.30135639943,-3248.1287568445223,5.78156704920192,20362.685007666343,5666.052649501944,33.994936338936874,0.9924354273336312,136.0,101.0,72.0,265.0,337.0,35.0,882.0,880.0,36.0,18.0,18.0,0.5,42.84800820827603,1526.9447782668572,18.0,15.0,3.0,0.8333333333333334,650.4351810119189,6352.142228620777,23.0,11.0,12.0,0.4782608695652174,1587.3384469135733,32200.257873937175,11.0,2.0,9.0,0.1818181818181818,848.6114344399117,12430.191732323528,84.0,42.0,42.0,0.5,36.10393340624723,5918.150621179464,0.0,0.0,0.0,0.0,19932.0,19967.0,20068.0,20085.0,20097.0,20120.0,20130.0,20140.0,20322.0,20405.0,0.026317758350933987,-0.2620247446189531,0.04840300180360449,-0.2612616364581301,0.006371972807104225
19,19,20835.423515346203,1535.5659347758435,11.999851120373348,20966.54796540086,-2702.1754371602347,12.922579053678373,20992.45387430916,31980.67944783094,9.607816047745205,21016.876695499283,-3096.9514070404507,5.866993976304459,21247.7287245862,5492.69923046633,33.90799685617693,0.992822131572794,132.0,101.0,73.0,264.0,337.0,31.0,885.0,885.0,31.0,15.0,16.0,0.4838709677419355,50.88357513057519,1521.8918195722636,19.0,16.0,3.0,0.8421052631578947,680.9376633556791,6839.8039590055305,23.0,11.0,12.0,0.4782608695652174,1552.1822101470125,32253.262192865273,11.0,3.0,8.0,0.2727272727272727,784.1386513997863,11598.489681147685,84.0,42.0,42.0,0.5,38.61619809285749,5800.046542200437,0.0,0.0,0.0,0.0,20820.0,20851.0,20952.0,20970.0,20981.0,21004.0,21014.0,21025.0,21208.0,21289.0,0.03313669180737784,-0.25199609691933583,0.048534997909567175,-0.25319695027089084,0.007030459246460319
20,20,21646.994110793567,1558.6795587825034,13.951479288010914,21775.24145093124,-2731.1296440971114,8.621060872613548,21802.733938814057,31801.03661528192,9.469612544858473,21827.30135639943,-2701.666068440974,5.276846937892506,22055.363785824808,5609.5871766473865,34.99558349990066,0.9945513258146976,134.0,99.0,70.0,263.0,333.0,35.0,811.0,810.0,37.0,18.0,19.0,0.4864864864864865,43.899707179770594,1468.62476557306,17.0,12.0,5.0,0.7058823529411765,552.6191550412926,4354.8304044633605,24.0,12.0,12.0,0.5,1551.1516457062455,30896.0414653425,10.0,2.0,8.0,0.2,788.3813243013099,11285.89670684074,85.0,42.0,43.0,0.4941176470588235,36.99100993908705,5955.845280341441,0.0,0.0,0.0,0.0,21630.0,21665.0,21764.0,21780.0,21791.0,21815.0,21825.0,21834.0,22015.0,22097.0,0.028164677551851,-0.2023408724795208,0.048776763615335825,-0.29181301623862566,0.006594248163765059
21,21,22465.380660527782,1200.3329816964865,9.98769877992468,22595.547965392725,-2829.8667760224766,15.28779240518434,22621.593622919492,32492.311184703216,9.63232885896417,22645.876695499283,-3293.247635098832,6.00090967270857,22876.411478173453,5339.719451859758,31.08329909436492,0.9919292291834364,128.0,101.0,74.0,261.0,335.0,27.0,820.0,819.0,28.0,14.0,14.0,0.5,47.51988821768941,1201.7064045153938,21.0,18.0,3.0,0.8571428571428571,674.6562485047846,6615.88600728966,24.0,12.0,12.0,0.5,1573.024615614415,31045.499020164018,12.0,3.0,9.0,0.25,808.3653393409375,12013.49098838057,78.0,38.0,40.0,0.4871794871794871,39.02477586471811,5576.223256452064,0.0,0.0,0.0,0.0,22452.0,22479.0,22580.0,22599.0,22610.0,22634.0,22643.0,22654.0,22839.0,22915.0,0.03958892152619796,-0.23840565719247345,0.048412210712636725,-0.24546144988476643,0.007308394423442277
22,22,23324.310312527537,1631.701228964844,16.06368834115415,23451.23748822046,-2331.7472909293997,7.756599098028739,23478.617461011512,32956.51273764933,9.487849501206233,23502.72601729957,-2664.297892073654,4.892981683064241,23732.65294402643,5974.220588370607,37.23405378721696,0.9956369528866378,133.0,97.0,69.0,268.0,337.0,36.0,858.0,857.0,36.0,17.0,19.0,0.4722222222222222,49.16698192605688,1672.8364920562103,15.0,11.0,4.0,0.7333333333333333,561.9191079207391,5213.317763961893,23.0,12.0,11.0,0.5217391304347826,1593.652724350519,31677.57182686209,9.0,2.0,7.0,0.2222222222222222,803.159773079962,11234.546971651078,88.0,44.0,44.0,0.5,34.69165490703672,6329.964861703107,0.0,0.0,0.0,0.0,23307.0,23343.0,23440.0,23455.0,23467.0,23490.0,23501.0,23509.0,23690.0,23777.0,0.03013234350338055,-0.24098628102051595,0.048356230437267694,-0.3014526924595708,0.005806892195204066
23,23,24175.39426726456,1298.6143996116812,11.227171338256364,24301.807514979293,-2770.4659379933823,9.669793404764112,24328.916227752194,31550.26976089179,9.514979395970958,24353.30135639943,-2874.3862321429688,5.542029472087739,24583.26754300999,5445.107010115637,33.14153823811338,0.9935994093359128,129.0,101.0,71.0,263.0,334.0,28.0,852.0,850.0,28.0,14.0,14.0,0.5,50.386678155016966,1312.1148163248945,17.0,13.0,4.0,0.7647058823529411,597.4442731493822,5109.802235234265,24.0,12.0,12.0,0.5,1545.9860674222437,31040.13801985678,10.0,2.0,8.0,0.2,800.2400121987367,11589.638257118711,83.0,41.0,42.0,0.4939759036144578,37.938860870023625,5719.095135217914,0.0,0.0,0.0,0.0,24161.0,24189.0,24290.0,24306.0,24317.0,24341.0,24351.0,24361.0,24543.0,24624.0,0.038800338399207546,-0.21564757933176557,0.049000724213729994,-0.27840378695458967,0.00696751428384103
24,24,24988.541474195714,1286.2408352452155,12.903769520282776,25114.619454356067,-2771.6217144536436,9.47484597400757,25141.51129182186,31749.08670338474,9.534476105799024,25165.876695499283,-2968.0174197011142,5.705749113213791,25394.95636819816,5653.9592533069,32.99719965020769,0.9949309434808322,130.0,97.0,72.0,262.0,334.0,33.0,813.0,813.0,33.0,17.0,16.0,0.5151515151515151,40.038438842922794,1213.0389265069073,17.0,13.0,4.0,0.7647058823529411,626.9354823688361,5663.527885326193,23.0,12.0,11.0,0.5217391304347826,1555.457621601803,30477.2829170599,11.0,3.0,8.0,0.2727272727272727,778.6740914398582,11412.490154871655,82.0,41.0,41.0,0.5,39.80321858578957,5950.142210077884,0.0,0.0,0.0,0.0,24972.0,25005.0,25102.0,25119.0,25130.0,25153.0,25163.0,25174.0,25355.0,25436.0,0.03112825976737837,-0.22619806992399066,0.04899220050433694,-0.2623549600050098,0.007039884230242618
25,25,25878.568521716476,1445.5398242331985,13.358308187616386,26006.138061764115,-2523.393647546453,8.776864155474714,26033.748367426073,32438.88806308071,9.486745388813018,26058.30135639943,-2926.0663157766353,5.566840258058871,26289.80402379973,5669.283951867876,34.14008313244382,0.994870059223662,131.0,101.0,72.0,265.0,337.0,30.0,890.0,892.0,31.0,16.0,15.0,0.5161290322580645,49.74440554947052,1410.3567383387776,17.0,12.0,5.0,0.7058823529411765,549.659762472791,4712.117438268254,24.0,12.0,12.0,0.5,1581.3495724765353,31434.05242239762,11.0,3.0,8.0,0.2727272727272727,810.0268728845364,11789.590208683498,83.0,42.0,41.0,0.5060240963855421,39.75872505767223,6029.106978248698,0.0,0.0,0.0,0.0,25863.0,25893.0,25994.0,26011.0,26022.0,26046.0,26056.0,26066.0,26249.0,26331.0,0.034412338363530005,-0.21782561076320234,0.048748575148489695,-0.2768313447022951,0.007013006474049127
26,26,26767.71708535969,1234.254181077073,10.867324726027892,26896.54796540086,-2605.5347708722675,12.793741461089024,26922.961281359752,32298.161212519528,9.6036230618761,26947.30135639943,-3032.3241493688192,5.6450036862084305,27178.90236765488,5621.85312474587,33.10591794123867,0.9935115382853648,129.0,102.0,72.0,265.0,337.0,27.0,889.0,889.0,28.0,15.0,13.0,0.5357142857142857,48.06524317252214,1192.4092734101605,19.0,16.0,3.0,0.8421052631578947,652.6644106768349,6431.1734601384105,24.0,12.0,12.0,0.5,1566.067596228605,31755.382800651376,11.0,2.0,9.0,0.1818181818181818,826.326649919711,11977.03522389224,82.0,41.0,41.0,0.5,39.07544792491399,5902.633565449032,0.0,0.0,0.0,0.0,26754.0,26781.0,26883.0,26900.0,26911.0,26935.0,26945.0,26955.0,27140.0,27220.0,0.038942742839710665,-0.25049153746596875,0.048487825233269326,-0.2725060413121439,0.006950634792096307
27,27,27581.9049252544,1372.727743563326,13.23710891106862,27707.549253094163,-2593.5147264588204,8.894189926010963,27734.912191067226,31685.678233480412,9.513750983373594,27759.30135639943,-2693.137479136842,5.2522603998721875,27987.57385710902,5763.4043388568,34.64629811291816,0.995166358013578,130.0,98.0,70.0,264.0,334.0,32.0,814.0,812.0,33.0,17.0,16.0,0.5151515151515151,44.09373354646156,1318.551347399312,17.0,13.0,4.0,0.7647058823529411,596.50261110413,5433.563737053597,24.0,12.0,12.0,0.5,1540.2332875563957,31120.291171075136,10.0,2.0,8.0,0.2,797.7963690700838,11350.155324338915,84.0,42.0,42.0,0.5,38.672550480314506,6050.789365893535,0.0,0.0,0.0,0.0,27566.0,27598.0,27696.0,27712.0,27723.0,27747.0,27757.0,27766.0,27947.0,28030.0,0.03212125183104631,-0.22999777291359105,0.04860976230986657,-0.2962330646877261,0.006710018629021854
28,28,28387.70796462358,1335.4256007900008,12.16294978453133,28515.54796540086,-2564.6540683403555,11.328572572494464,28542.027106571102,31934.84308999245,9.582059575233949,28566.30135639943,-2989.3919408527254,5.598724128333921,28796.44759979292,5774.471857281473,32.17046898875102,0.9944040685126396,129.0,100.0,72.0,262.0,334.0,29.0,806.0,807.0,29.0,15.0,14.0,0.5172413793103449,48.04457881986155,1306.4666286849133,18.0,15.0,3.0,0.8333333333333334,645.0406816686965,6370.957428272238,24.0,12.0,12.0,0.5,1554.630128312273,31576.512291804604,11.0,2.0,9.0,0.1818181818181818,821.0363534352839,11891.07467394525,80.0,39.0,41.0,0.4875,39.90678349687481,6037.351243597026,0.0,0.0,0.0,0.0,28373.0,28402.0,28502.0,28519.0,28530.0,28554.0,28564.0,28574.0,28758.0,28836.0,0.03597697901810457,-0.2515117690262674,0.048681314134887785,-0.27464995212407073,0.006910897564866178
29,29,29236.31520668131,1352.610002482795,11.064102651240306,29363.972626301005,-2341.6882352276225,16.49064084622888,29390.745936202955,32941.166503686705,9.55332838604972,29415.30135639943,-3052.426712307722,5.5970246334458436,29646.25954346298,5835.753016853593,33.0824019917306,0.99361448352339,128.0,101.0,73.0,264.0,337.0,27.0,849.0,849.0,28.0,14.0,14.0,0.5,54.38692051792807,1372.3342031972008,19.0,15.0,4.0,0.7894736842105263,600.3951780218526,5531.883236367387,24.0,12.0,12.0,0.5,1582.0375080167282,31632.778588111112,11.0,3.0,8.0,0.2727272727272727,822.1519940378796,12005.07909423823,81.0,40.0,41.0,0.4938271604938271,36.620016922421414,6080.37348585693,0.0,0.0,0.0,0.0,29222.0,29249.0,29350.0,29368.0,29379.0,29403.0,29413.0,29423.0,29607.0,29687.0,0.040208870567345865,-0.25639415571624613,0.04802615316733456,-0.26934372927706074,0.006275114251179444
30,30,30100.047042281836,1316.295908734183,10.710802460759206,30225.54796540086,-2649.8942678191106,12.021663981437252,30251.876510817616,32120.81525344145,9.578144858357998,30276.30135639943,-3032.290449453647,5.813570226503238,30507.00610231777,5749.987910270711,33.830312235996225,0.9936490798326972,126.0,98.0,72.0,264.0,336.0,28.0,864.0,861.0,28.0,14.0,14.0,0.5,50.48011526894207,1286.5312690808764,18.0,15.0,3.0,0.8333333333333334,659.6382032130805,6424.961130240682,24.0,12.0,12.0,0.5,1566.787291450284,31463.628735243183,11.0,2.0,9.0,0.1818181818181818,813.7940482481414,11953.899218486422,84.0,42.0,42.0,0.5,32.52159118754101,5965.15878792419,0.0,0.0,0.0,0.0,30086.0,30114.0,30212.0,30229.0,30240.0,30264.0,30274.0,30284.0,30466.0,30548.0,0.03835012699954854,-0.24893000872671395,0.04877794287249347,-0.26837602195883625,0.005655940794145059
31,31,30896.24646938518,1503.424128815478,14.021301883093958,31021.72129864396,-2559.095521571627,8.905877844012936,31049.073071102815,31764.41186576175,9.550227883701965,31073.30135639943,-2775.8701578957784,5.438640805561409,31302.04296481247,5972.608022067995,34.42115745754758,0.9952680732899106,130.0,97.0,71.0,262.0,333.0,33.0,796.0,797.0,35.0,17.0,18.0,0.4857142857142857,46.25049085781291,1506.863955980017,17.0,13.0,4.0,0.7647058823529411,587.5551005446789,5353.23540920522,24.0,12.0,12.0,0.5,1541.5959590959635,31460.698498846778,11.0,2.0,9.0,0.1818181818181818,810.3383632598783,11605.39617888593,82.0,40.0,42.0,0.4878048780487805,42.77134839601549,6386.717656104479,0.0,0.0,0.0,0.0,30880.0,30913.0,31010.0,31026.0,31037.0,31061.0,31071.0,31081.0,31263.0,31343.0,0.03076343526177997,-0.22959482973259296,0.04853217385578671,-0.2919222864062732,0.007161251540027577
32,32,31679.814277527315,1342.536848301139,12.537800168737526,31807.3451204931,-2663.602521954316,9.57136413479619,31834.22947475919,32109.162121999492,9.522662303647412,31858.30135639943,-2968.84215708311,5.427825714048724,32086.799257126557,6048.787575331493,33.633700209617004,0.9944218548932856,131.0,101.0,71.0,262.0,333.0,30.0,783.0,786.0,31.0,16.0,15.0,0.5161290322580645,46.87790641732635,1303.5764265043538,16.0,12.0,4.0,0.75,580.3715603645146,4970.210210296319,23.0,11.0,12.0,0.4782608695652174,1568.9875357564204,32092.98356984216,10.0,2.0,8.0,0.2,837.3339152926333,11986.793472602769,83.0,42.0,41.0,0.5060240963855421,41.60452328375404,6353.293875503243,0.0,0.0,0.0,0.0,31664.0,31694.0,31795.0,31811.0,31823.0,31846.0,31856.0,31866.0,32046.0,32128.0,0.0349174076500367,-0.21788970222880297,0.04886416935437357,-0.28204056362340074,0.006878159096449007
33,33,32505.939362972913,1457.1257787890045,13.051922892753469,32634.54796540086,-2411.3765235137357,15.28779240514013,32660.70130585919,32893.544880454094,9.5879822205372,32684.876695499283,-3180.867729533951,5.5648119616351694,32914.80857100666,6001.739884199603,33.772440859226606,0.9934473738373564,130.0,99.0,73.0,262.0,335.0,31.0,826.0,826.0,32.0,16.0,16.0,0.5,49.03121588169928,1424.3046755064884,20.0,17.0,3.0,0.85,667.8385693592504,6888.770645180417,24.0,12.0,12.0,0.5,1587.6539999821418,31600.94423428061,11.0,3.0,8.0,0.2727272727272727,823.9311409062266,11972.904538825787,82.0,41.0,41.0,0.5,46.91808264594238,6435.730764452635,0.0,0.0,0.0,0.0,32490.0,32521.0,32620.0,32638.0,32649.0,32673.0,32682.0,32693.0,32876.0,32955.0,0.03364926802849401,-0.2769532517410885,0.04826643056417896,-0.2590271620715728,0.007817413541939832
34,34,33356.70168833823,1263.081840561094,10.154177891999089,33483.972626301,-2442.625476592232,17.8357578060484,33510.246003667846,32435.32766500436,9.57069920933388,33534.30135639943,-3109.2823679606586,5.823450293500959,33765.55506637454,5810.530095049864,32.16663901992253,0.99206960919809,127.0,100.0,73.0,262.0,335.0,27.0,852.0,850.0,27.0,14.0,13.0,0.5185185185185185,49.34942918420072,1207.790718654372,19.0,15.0,4.0,0.7894736842105263,628.0533003949542,5790.3641898648675,23.0,11.0,12.0,0.4782608695652174,1555.5787678924564,31837.62946101879,11.0,2.0,9.0,0.1818181818181818,836.7399614481977,12236.392107724503,82.0,42.0,40.0,0.5121951219512195,38.923873064334536,6021.948499768048,0.0,0.0,0.0,0.0,33343.0,33370.0,33470.0,33488.0,33499.0,33522.0,33532.0,33543.0,33726.0,33805.0,0.0390706505306722,-0.25712222623304787,0.0479593973570622,-0.26911031628079685,0.006698850608741319
35,35,34153.992323850776,1445.431826337611,14.902824490611,34278.89521229447,-2542.0229469442115,8.860628790638755,34306.394239583766,31810.40244951736,9.479898414716883,34331.30135639943,-2509.2831950119275,5.244891397262709,34559.31367703444,5861.730698973069,33.67277546423377,0.9948184086222928,131.0,93.0,71.0,263.0,334.0,38.0,794.0,796.0,40.0,18.0,22.0,0.45,38.38049331659193,1363.0913948457774,16.0,12.0,4.0,0.75,565.3500380520728,4910.824251159552,23.0,11.0,12.0,0.4782608695652174,1539.4893124177224,32037.102717809194,10.0,3.0,7.0,0.3,757.4521437466209,10881.280993036344,84.0,41.0,43.0,0.4880952380952381,35.57918249997247,6076.353615904387,0.0,0.0,0.0,0.0,34136.0,34174.0,34267.0,34283.0,34295.0,34318.0,34329.0,34338.0,34519.0,34601.0,0.02655295989561763,-0.22240162652020318,0.04839578231872008,-0.30185996752073274,0.006069740205943899
36,36,34991.04957908636,1114.4337030295296,8.461576445092192,35119.54796540086,-2696.783964880379,15.28779240506405,35145.81532260875,32510.676538698237,9.598223118878888,35170.30135639943,-3217.371467434909,5.979578472916003,35401.4866139895,5616.783108114938,31.23032939788537,0.9913598430573536,126.0,103.0,73.0,262.0,335.0,23.0,841.0,839.0,23.0,12.0,11.0,0.5217391304347826,53.85487728971831,1101.415317219198,21.0,17.0,4.0,0.8095238095238095,661.2238140532505,6375.343856644691,24.0,12.0,12.0,0.5,1572.0806117220975,31456.41079243808,12.0,3.0,9.0,0.25,822.1012456918749,12188.583239200918,78.0,38.0,40.0,0.4871794871794871,38.224105570541575,5850.076122983974,0.0,0.0,0.0,0.0,34979.0,35002.0,35105.0,35123.0,35134.0,35158.0,35168.0,35178.0,35363.0,35440.0,0.048324882084341714,-0.2451897603457385,0.04835582581158569,-0.2555195301546283,0.00680533765231502
37,37,35854.04960942689,1383.800376904934,10.346397734040126,35979.54796540086,-2364.0836607490805,14.212089132504872,36006.1218401645,32974.013816941915,9.607407372399202,36030.30135639943,-2982.534592597973,5.310662547996206,36260.99188110066,5828.1914601776925,34.76996717332361,0.9944148656958434,126.0,99.0,72.0,265.0,337.0,27.0,862.0,861.0,27.0,14.0,13.0,0.5185185185185185,56.93852069382037,1377.9872036097008,19.0,16.0,3.0,0.8421052631578947,645.5694874627479,6546.6092127168595,23.0,11.0,12.0,0.4782608695652174,1582.6482342512877,32562.703391964504,10.0,2.0,8.0,0.2,851.5079318623259,12097.573888619558,87.0,44.0,43.0,0.5057471264367817,43.99196983990417,6220.485412652359,0.0,0.0,0.0,0.0,35840.0,35867.0,35966.0,35983.0,35995.0,36018.0,36028.0,36038.0,36219.0,36303.0,0.04114648445259963,-0.2730738755912697,0.04799683299210997,-0.28549809077674754,0.007548133952099598
38,38,37453.17739604372,1482.6331159209503,13.585437001986923,37577.72606363776,-2597.722593654857,8.66092737080634,37604.95493552149,31770.724484355444,9.50406541310779,37629.30135639943,-2997.073077890897,5.634374579342235,37858.72425145962,5992.835166571856,34.17358052715803,0.9952987695483276,129.0,97.0,71.0,263.0,334.0,32.0,1599.0,1598.0,32.0,16.0,16.0,0.5,49.63601117164167,1504.1359022060312,17.0,13.0,4.0,0.7647058823529411,595.1099244481796,5394.088206123923,24.0,12.0,12.0,0.5,1552.5247992118937,31191.2677073738,11.0,2.0,9.0,0.1818181818181818,813.1433487356857,11788.488471196064,84.0,42.0,42.0,0.5,44.60545168692955,6358.994058485332,0.0,0.0,0.0,0.0,37437.0,37469.0,37566.0,37582.0,37593.0,37617.0,37627.0,37637.0,37819.0,37900.0,0.03347828308880706,-0.2290890974662894,0.04886652175578774,-0.271312486416885,0.007443130079021625
39,39,38257.72178835345,1457.5259710507312,12.58214903018422,38382.972626301,-2602.707983927422,11.937347643793304,38409.366087912415,32218.06493253583,9.590687628752695,38433.30135639943,-3189.090467802917,5.622137766981647,38662.23952805183,5741.934513659301,32.57411439608189,0.9938813876139436,128.0,97.0,71.0,261.0,332.0,31.0,804.0,805.0,31.0,16.0,15.0,0.5161290322580645,49.57981629382946,1413.520674699767,18.0,14.0,4.0,0.7777777777777778,626.914608795278,5923.853971585171,23.0,11.0,12.0,0.4782608695652174,1571.0023752840564,32350.694220086523,11.0,2.0,9.0,0.1818181818181818,856.9389474374906,12356.03550319765,81.0,40.0,41.0,0.4938271604938271,37.60396583744435,5970.652112467754,0.0,0.0,0.0,0.0,38242.0,38273.0,38370.0,38387.0,38398.0,38421.0,38431.0,38441.0,38623.0,38702.0,0.03401642048140476,-0.24087012936782842,0.04876153731062722,-0.2687095132888681,0.00654900639287848
40,40,39042.5005124468,1772.9556012118203,16.603503248059944,39168.7618173879,-2195.709214887656,7.443909461939397,39196.01902933752,32921.21808903309,9.50328675205518,39220.30135639943,-2689.4580233753554,5.033594078959224,39442.4108511954,5620.116487118472,42.51670316608504,0.9780106143504392,134.0,94.0,69.0,261.0,330.0,40.0,784.0,786.0,41.0,19.0,22.0,0.4634146341463415,44.351193987882866,1751.551034953548,15.0,12.0,3.0,0.8,596.4486687883715,6061.504717312276,24.0,12.0,12.0,0.5,1585.553794226834,32345.485186241152,10.0,2.0,8.0,0.2,833.366469280357,11688.028223757488,86.0,38.0,48.0,0.4418604651162791,58.63987123551421,6668.281372462032,0.0,0.0,0.0,0.0,39024.0,39064.0,39158.0,39172.0,39184.0,39208.0,39218.0,39227.0,39409.0,39488.0,0.025015400248922588,-0.2716428317302885,0.04816206344306023,-0.3098640923327948,0.010433924522724592
41,41,42031.70745412186,1510.0970383865176,13.69985939297749,42160.972626301,-2782.6538894543014,17.8357578060484,42187.34900722695,32635.260867057143,9.591385439979042,42211.87669549929,-3366.975529293827,6.303210006052434,42441.857500882346,5535.782485127444,31.857412505909583,0.991063907778306,132.0,95.0,74.0,262.0,336.0,37.0,2992.0,2992.0,37.0,18.0,19.0,0.4864864864864865,33.23836188841282,1444.4732726768088,21.0,17.0,4.0,0.8095238095238095,627.6144266809946,5488.11288026612,23.0,11.0,12.0,0.4782608695652174,1567.801766754471,32127.714249341443,12.0,3.0,9.0,0.25,789.9827078319894,11998.2378435804,81.0,40.0,41.0,0.4938271604938271,34.975531668175066,5679.559156362742,0.0,0.0,0.0,0.0,42014.0,42051.0,42146.0,42165.0,42176.0,42199.0,42209.0,42220.0,42403.0,42482.0,0.022010745696135373,-0.22554527138985092,0.04804011750177397,-0.234626804073529,0.0063180827213029245
42,42,42899.30168572375,1322.873078734027,11.204789283995916,43027.972626301,-2495.8805822292793,17.8357578060484,43054.24121604681,32464.69570962782,9.580107776680196,43078.30135639943,-3098.3392737916174,5.607712987075533,43311.47060678436,5216.412556998755,31.649183552535135,0.9912031597124552,131.0,98.0,72.0,266.0,338.0,33.0,866.0,867.0,33.0,16.0,17.0,0.4848484848484848,37.01453896067167,1246.530272157759,19.0,15.0,4.0,0.7894736842105263,630.7954890035617,5762.639158387365,23.0,11.0,12.0,0.4782608695652174,1552.392145682384,31876.094473327328,11.0,2.0,9.0,0.1818181818181818,841.601216436513,12162.630023015052,82.0,41.0,41.0,0.5,35.35930085227134,5385.435030666749,0.0,0.0,0.0,0.0,42883.0,42916.0,43014.0,43032.0,43043.0,43066.0,43076.0,43086.0,43272.0,43352.0,0.02798041592629137,-0.2527346434340002,0.04781785603559507,-0.27162978036507823,0.006778470925354722
43,43,45328.339045836205,1527.100704099527,13.07166984761439,45457.54796540086,-2501.6509825560693,14.16620696362967,45483.92447692051,32443.0744072401,9.53981745841307,45508.30135639943,-2979.0530507755584,5.278121962134874,45738.79204204979,5628.856385459037,34.48813418358219,0.992622474093686,133.0,97.0,71.0,265.0,336.0,36.0,2431.0,2429.0,36.0,17.0,19.0,0.4722222222222222,34.33549353536785,1474.8838382001677,18.0,15.0,3.0,0.8333333333333334,654.4837224586477,6318.103613255109,24.0,12.0,12.0,0.5,1568.8928449045163,31710.18379787184,10.0,2.0,8.0,0.2,828.6818143547115,11816.72873906134,83.0,41.0,42.0,0.4939759036144578,39.22302843737892,6001.048042136192,0.0,0.0,0.0,0.0,45311.0,45347.0,45444.0,45461.0,45472.0,45496.0,45506.0,45515.0,45699.0,45780.0,0.022484105627869632,-0.261620716487768,0.048358328351100946,-0.2781695391892987,0.0069682055734630825
44,44,47643.53415569612,2089.36981930273,51.255169471057464,47783.45674137511,-2293.9473942556456,7.140319203551727,47810.71354619322,32399.592961279897,9.429974217139906,47835.30135639943,-2720.665846638049,5.2321149754629745,48063.74298816593,5563.048503492322,34.00677559228998,0.9864473053371006,147.0,91.0,69.0,262.0,331.0,56.0,2327.0,2327.0,63.0,23.0,40.0,0.365079365079365,46.10052965382703,3253.074443462684,14.0,10.0,4.0,0.7142857142857143,549.2666102560237,4947.082924182862,23.0,12.0,11.0,0.5217391304347826,1571.8733481157926,31236.812544583765,10.0,3.0,7.0,0.3,798.8990961970576,11455.846082666802,82.0,41.0,41.0,0.5,36.096534011243875,5861.31058229126,0.0,0.0,0.0,0.0,47626.0,47682.0,47773.0,47787.0,47799.0,47822.0,47833.0,47842.0,48024.0,48104.0,0.022064322566510426,-0.23944167666244726,0.04851521900272966,-0.29364102070243736,0.00648862471513299
45,45,48484.43697520921,459.5600319018489,6.7923684992260975,48609.76360368446,-3196.849044443609,17.835757805756092,48638.239234487555,31278.26926854548,9.56979121121682,48662.87669549929,-3310.2116647089597,7.910759684502889,48896.103470627386,4527.485617052922,26.15627043188309,0.9805567624474864,122.0,99.0,78.0,258.0,336.0,23.0,830.0,828.0,23.0,11.0,12.0,0.4782608695652174,31.807907155353192,468.7378581475799,21.0,15.0,6.0,0.7142857142857143,499.79684601719015,2711.707974962007,23.0,11.0,12.0,0.4782608695652174,1522.458579407412,30550.026688162267,14.0,4.0,10.0,0.2857142857142857,741.0600306563706,11711.081104892146,69.0,34.0,35.0,0.4927536231884058,38.941890593605486,4582.234769875178,0.0,0.0,0.0,0.0,48473.0,48496.0,48595.0,48616.0,48627.0,48650.0,48660.0,48673.0,48862.0,48931.0,0.06921382397794464,-0.15634045870444802,0.048674642651614024,-0.22387088975518007,0.008601217957916771
46,46,53990.53775500236,1966.030966202449,18.86094601095392,54118.670606041895,-2535.3077648153585,8.093957776319627,54146.22296485799,32578.560196970077,9.509616101843838,54170.30135639943,-2618.3473584621097,4.864405828042026,54398.39671162478,5882.804862570129,37.385084934648766,0.9911279772208182,138.0,93.0,70.0,266.0,336.0,45.0,5505.0,5507.0,45.0,22.0,23.0,0.4888888888888889,31.592710618480904,1944.8871574614627,16.0,12.0,4.0,0.75,592.9552996655347,5411.36001524954,24.0,12.0,12.0,0.5,1571.1379665503423,32462.27771736451,9.0,2.0,7.0,0.2222222222222222,836.5660687683787,11608.591957851306,88.0,43.0,45.0,0.4886363636363636,38.94440981086082,6359.853534270677,0.0,0.0,0.0,0.0,53969.0,54014.0,54107.0,54123.0,54134.0,54158.0,54168.0,54177.0,54357.0,54443.0,0.01606928434067589,-0.23387902166927588,0.04822613267901458,-0.3195015611907723,0.0066200410723544646
47,47,54861.62238781372,1741.136831050238,13.83683877701609,54991.54796540086,-2761.0176915476773,12.554228368543848,55018.08597506392,32528.77786562939,9.575116348324702,55042.30135639943,-3318.5691635803555,5.77326904437474,55275.29536436115,5334.286236682431,31.88562873892397,0.9900076239925476,134.0,97.0,72.0,265.0,337.0,37.0,871.0,872.0,37.0,18.0,19.0,0.4864864864864865,41.424973169324254,1674.0258165800842,19.0,15.0,4.0,0.7894736842105263,655.1083192348354,6124.302914853408,23.0,11.0,12.0,0.4782608695652174,1587.4022381520626,32151.60651820029,12.0,3.0,9.0,0.25,851.6530034214221,12459.771197868004,81.0,40.0,41.0,0.4938271604938271,40.97241315032576,5638.007764292009,0.0,0.0,0.0,0.0,54844.0,54881.0,54978.0,54995.0,55007.0,55030.0,55040.0,55050.0,55236.0,55315.0,0.023791911371110957,-0.23727059817121893,0.04879993477496571,-0.25663259116847403,0.007680955114213716
48,48,57303.770184139765,1935.0612488358315,16.726707285264585,57431.85702794501,-2477.4461865968697,8.185103204123967,57459.24023201027,31894.27588651302,9.465347482022406,57483.30135639943,-2914.5473265912433,5.384264758203882,57711.726315698346,5946.69200986996,35.53072935326946,0.9919927118585088,137.0,95.0,71.0,263.0,334.0,42.0,2443.0,2441.0,42.0,21.0,21.0,0.5,33.12562597032426,1880.0301200423812,16.0,12.0,4.0,0.75,573.7441982172456,5191.736974321392,23.0,11.0,12.0,0.4782608695652174,1555.445585665508,31737.896574862487,10.0,2.0,8.0,0.2,828.6236594899274,11889.726076678086,86.0,43.0,43.0,0.5,41.14725180124787,6364.445644499227,0.0,0.0,0.0,0.0,57283.0,57325.0,57420.0,57436.0,57448.0,57471.0,57481.0,57491.0,57671.0,57754.0,0.017118644689026376,-0.23158694680079658,0.048768800746570695,-0.28430612600793065,0.006919351419739604
49,49,60543.79957205708,800.8413203317382,7.869763227311315,60670.86689842592,-3105.684888659667,17.8357578060484,60701.01559118751,32112.41403864176,9.609188846896751,60724.87669549929,-3760.505664948891,7.262924986494212,60960.691052278846,5302.433047266568,29.464106244596053,0.9839235579154072,125.0,101.0,78.0,263.0,341.0,24.0,3239.0,3242.0,25.0,13.0,12.0,0.52,38.409393573095805,761.7402637955281,22.0,14.0,8.0,0.6363636363636364,410.930037883028,1408.5165464779234,23.0,11.0,12.0,0.4782608695652174,1568.371206051548,30989.53475908931,13.0,3.0,10.0,0.2307692307692307,832.1219112275265,12864.87273909116,77.0,39.0,38.0,0.5064935064935064,38.00279210153433,5451.850697487333,0.0,0.0,0.0,0.0,60532.0,60556.0,60657.0,60679.0,60690.0,60713.0,60722.0,60735.0,60923.0,60998.0,0.04796130344171703,-0.1323154320592952,0.04884002816369654,-0.22127926012281007,0.007167047987739321
50,50,61514.30545633715,1482.620238484576,17.325481110902814,61638.830795581955,-2261.691339970124,7.29798768598241,61666.28041349017,32821.92208300085,9.48917685789295,61690.726017299574,-2463.5649061506538,4.727503503460043,61921.574164152655,6030.579370099716,39.93297629025138,0.9935359272479188,131.0,96.0,69.0,272.0,341.0,35.0,968.0,966.0,36.0,17.0,19.0,0.4722222222222222,47.584893950921455,1544.8956273455346,15.0,11.0,4.0,0.7333333333333333,583.1699581891975,5675.0150246886205,24.0,12.0,12.0,0.5,1571.2478934521328,32719.299323592437,9.0,3.0,6.0,0.3333333333333333,773.3743786740804,10707.423547815506,94.0,46.0,48.0,0.4893617021276595,41.331599255395304,6532.713968796121,0.0,0.0,0.0,0.0,61497.0,61532.0,61628.0,61643.0,61654.0,61678.0,61689.0,61697.0,61878.0,61969.0,0.03209513314047243,-0.2578468369591498,0.04787190370748928,-0.31392490481709534,0.0068536697253869135
51,51,64883.86144694083,1173.3669805622576,10.27578487748186,65010.54796540086,-2756.526312762457,13.372962597860957,65036.8459649986,31654.74206188538,9.600260428641493,65061.30135639943,-3131.3398382906516,5.946384164428419,65292.931586210965,6027.708780047468,32.864093962176774,0.9909982422178962,127.0,101.0,72.0,264.0,336.0,26.0,3370.0,3370.0,27.0,14.0,13.0,0.5185185185185185,47.524766604945185,1149.1188991862496,19.0,15.0,4.0,0.7894736842105263,655.6163849645604,6115.312696157429,24.0,12.0,12.0,0.5,1539.9331868329405,30879.65260586876,12.0,3.0,9.0,0.25,806.632695623565,11901.033596871945,82.0,41.0,41.0,0.5,41.35668524239439,6301.155164708483,0.0,0.0,0.0,0.0,64870.0,64896.0,64997.0,65014.0,65025.0,65049.0,65059.0,65069.0,65253.0,65333.0,0.04050290096127652,-0.23784151158982897,0.048647788183595164,-0.2575998573389891,0.006861095442980029
52,52,65803.93501260034,1326.9049617222197,12.308760807568362,65929.63257504936,-2525.1125057823338,9.78976246722325,65956.9888738237,32009.12193507788,9.52445787918432,65981.30135639943,-2928.6638849370156,5.4635167602252945,66214.18832924205,6157.129658670344,34.63043516696817,0.9931799035822548,128.0,99.0,72.0,268.0,340.0,29.0,921.0,920.0,29.0,15.0,14.0,0.5172413793103449,50.6177731288313,1341.9201175685068,17.0,13.0,4.0,0.7647058823529411,589.1172127883481,5403.218172352364,24.0,12.0,12.0,0.5,1560.3572542803267,31525.473228303912,10.0,2.0,8.0,0.2,818.5652723146702,11792.933248994805,85.0,42.0,43.0,0.4941176470588235,41.50212505178833,6478.511542237618,0.0,0.0,0.0,0.0,65789.0,65818.0,65917.0,65934.0,65945.0,65969.0,65979.0,65989.0,66173.0,66257.0,0.03814724836293728,-0.23330335240085748,0.04874726827699625,-0.2795012690001039,0.0067404987961145
53,53,69259.22969807762,1317.2346155998905,12.056850064972576,69384.81022055105,-2516.05124498719,9.89325520646997,69412.60799244152,31911.264214368744,9.519016191500835,69437.30135639943,-2827.8319788881417,5.503331759857941,69669.94827356409,6134.572701244328,33.44562756219682,0.99296075882406,129.0,99.0,71.0,267.0,338.0,30.0,3455.0,3456.0,30.0,15.0,15.0,0.5,47.36723953730659,1331.7039697024009,17.0,13.0,4.0,0.7647058823529411,551.4832276660377,4689.57880636682,23.0,12.0,11.0,0.5217391304347826,1552.2698548438468,30739.316572318945,11.0,3.0,8.0,0.2727272727272727,788.0814635020583,11439.964852513003,83.0,41.0,42.0,0.4939759036144578,42.93145799201836,6469.433473646143,0.0,0.0,0.0,0.0,69244.0,69274.0,69373.0,69389.0,69401.0,69424.0,69435.0,69444.0,69631.0,69711.0,0.035959607329127743,-0.21918600774319502,0.04864332056593682,-0.27868751375105366,0.006998280089387515
54,54,70211.45658647091,1476.0497265923336,14.27406662559524,70336.27508446034,-2452.455686670123,8.308597291016552,70363.90238970889,32373.320227141445,9.497787971711713,70388.30135639943,-2779.6651671451755,5.2943091855941455,70623.5475737992,6116.219032430971,35.998513547238815,0.9944669141856458,130.0,98.0,70.0,272.0,342.0,32.0,952.0,951.0,32.0,16.0,16.0,0.5,50.42168639796335,1542.325800895566,16.0,11.0,5.0,0.6875,540.025956384642,4639.281258377792,24.0,12.0,12.0,0.5,1569.8950531876385,31651.491174121868,10.0,2.0,8.0,0.2,813.8201259314279,11661.302414431271,87.0,44.0,43.0,0.5057471264367817,40.44151301249367,6478.345675956127,0.0,0.0,0.0,0.0,70195.0,70227.0,70325.0,70341.0,70352.0,70376.0,70386.0,70395.0,70581.0,70667.0,0.03415988329496787,-0.22019804856000247,0.04849348297217458,-0.29277631548955696,0.006612175397587039
55,55,72756.44711632088,1328.5955498407,10.599554418625845,72883.54796540085,-2715.806901619882,15.28779240518433,72909.47580575208,31999.811653260746,9.608171504011436,72933.87669549929,-3282.8687096517974,6.165290248408565,73167.6029602442,6120.96785614338,32.17302369685724,0.9911529034617323,126.0,99.0,73.0,265.0,338.0,27.0,2545.0,2546.0,27.0,13.0,14.0,0.4814814814814814,53.40254835286301,1359.2654470464695,20.0,17.0,3.0,0.85,674.2379543358327,6626.37690197092,23.0,11.0,12.0,0.4782608695652174,1546.217183909998,31999.525577828183,12.0,3.0,9.0,0.25,787.9611341771777,11832.710622576362,81.0,41.0,40.0,0.5061728395061729,45.2550775461413,6418.5736052934635,0.0,0.0,0.0,0.0,72743.0,72770.0,72869.0,72887.0,72898.0,72921.0,72931.0,72942.0,73128.0,73207.0,0.04019473673479189,-0.248264320240763,0.048319571398241036,-0.24002212816508095,0.007393451266162184
56,56,73700.48952903188,1444.1892626665954,13.446677331506882,73825.61074015261,-2558.605922383588,8.573715262933506,73853.2441516806,32394.18691187383,9.534308926562222,73877.30135639943,-2990.4359940248746,5.411295346098058,74113.10697610636,6293.579636448611,35.634872197291784,0.99390291832784,129.0,99.0,71.0,271.0,342.0,30.0,944.0,944.0,30.0,15.0,15.0,0.5,51.22678661217507,1495.898978683172,17.0,13.0,4.0,0.7647058823529411,588.1576223174973,5324.688509328012,24.0,12.0,12.0,0.5,1570.6979627354942,32259.95396207694,10.0,2.0,8.0,0.2,845.950650034524,12085.243341254807,87.0,43.0,44.0,0.4942528735632184,41.460664344878175,6660.434331622209,0.0,0.0,0.0,0.0,73685.0,73715.0,73814.0,73830.0,73841.0,73865.0,73875.0,73885.0,74072.0,74156.0,0.03547096487726848,-0.2298742519010398,0.048487031547001645,-0.28288538919568906,0.00658777146550479
57,57,75458.65084590702,1441.7664837583618,15.487683590368594,75581.83208821555,-2463.037546926628,8.20982634208403,75609.152609461,31781.768196267934,9.561504995582672,75633.30135639943,-2778.948432011549,5.312611292325239,75866.34809284839,6299.683142614623,34.961167623648734,0.9939534529489918,129.0,92.0,71.0,268.0,339.0,37.0,1757.0,1755.0,38.0,18.0,20.0,0.4736842105263157,40.12655427528998,1415.163757534012,16.0,12.0,4.0,0.75,582.5566381844044,5433.486914872607,24.0,12.0,12.0,0.5,1534.5466704510682,31549.73295167306,10.0,2.0,8.0,0.2,819.1800220113194,11608.71028637619,86.0,42.0,44.0,0.4883720930232558,42.22136128649254,6696.21979393274,0.0,0.0,0.0,0.0,75441.0,75478.0,75570.0,75586.0,75597.0,75621.0,75631.0,75641.0,75825.0,75909.0,0.027831521073155382,-0.2365195930168897,0.048283867057820486,-0.2947805769171304,0.006702140461777094
58,58,76347.96697701329,1178.761601672616,11.11812223655362,76474.54796540085,-2565.4011319222,15.287792405184232,76500.87293001711,32523.99197720956,9.6027981107291,76525.30135639943,-3175.2765823559757,5.868107999597052,76760.74718913519,6230.02384729895,33.25719123347533,0.9915408326526892,126.0,99.0,73.0,269.0,342.0,27.0,891.0,892.0,27.0,14.0,13.0,0.5185185185185185,45.98580425888096,1172.7447082450826,19.0,16.0,3.0,0.8421052631578947,658.0553365951758,6418.612254135623,24.0,12.0,12.0,0.5,1568.035275795753,31558.450160950335,12.0,3.0,9.0,0.25,826.1879633718696,12156.619523160623,82.0,41.0,41.0,0.5,43.91818063920867,6568.376512963913,0.0,0.0,0.0,0.0,76334.0,76361.0,76460.0,76478.0,76489.0,76513.0,76523.0,76533.0,76721.0,76802.0,0.039011963227873155,-0.2565116731285252,0.04821164870826797,-0.2601940152120099,0.0070494402133387596
59,59,77279.11971188535,1409.399115211837,14.411952301494129,77404.7386772033,-2518.1761391749083,9.319062226466032,77432.44769782196,32132.257439321787,9.521251966423916,77456.87669549929,-2803.9152682058257,5.345610747931505,77692.73601052848,6391.051960927941,34.944648395991216,0.9932741525846064,130.0,99.0,71.0,271.0,342.0,31.0,931.0,932.0,31.0,16.0,15.0,0.5161290322580645,49.56338200232476,1458.6664913222676,17.0,13.0,4.0,0.7647058823529411,565.7688643147562,4987.098397881791,23.0,11.0,12.0,0.4782608695652174,1556.6297885161453,32396.852638199613,10.0,3.0,7.0,0.3,778.2277503572435,11223.099288480138,85.0,42.0,43.0,0.4941176470588235,43.15512409694963,6754.089117615558,0.0,0.0,0.0,0.0,77263.0,77294.0,77393.0,77409.0,77421.0,77444.0,77454.0,77464.0,77652.0,77735.0,0.03516632121262204,-0.22467406291131523,0.04844445776819971,-0.2775503807770972,0.006752428921057273
60,60,78980.06874633611,1370.1234158134166,12.696135214741206,79104.85634002864,-2637.4271434630427,9.725134910301769,79131.99698592586,31547.55490782224,9.54830712740753,79156.30135639943,-2953.181279380032,5.566471092923894,79389.91057242715,6293.741360304395,33.14930915551685,0.9930868145171616,127.0,98.0,72.0,266.0,338.0,29.0,1701.0,1699.0,31.0,16.0,15.0,0.5161290322580645,48.442251109785325,1353.8683504079509,17.0,13.0,4.0,0.7647058823529411,587.8480908342324,5191.297038413234,24.0,12.0,12.0,0.5,1539.3184357061082,31129.756953176973,10.0,2.0,8.0,0.2,809.8390660798682,11709.228312714356,81.0,40.0,41.0,0.4938271604938271,47.95871295371405,6686.916605573481,0.0,0.0,0.0,0.0,78965.0,78994.0,79092.0,79109.0,79120.0,79144.0,79154.0,79164.0,79351.0,79430.0,0.035356122339552945,-0.22288694961346509,0.048793589240237224,-0.2742259920629998,0.007620064157100116
61,61,79847.80983477479,1311.2311918302844,11.880502067935522,79975.972626301,-2668.5418859240576,12.443052849689913,80002.51192478146,32167.10114833748,9.613018407999794,80026.87669549929,-3206.1123205903914,5.901057859689918,80261.74411368009,6308.722459882842,33.059190761623135,0.9915930803700328,129.0,100.0,73.0,267.0,340.0,29.0,869.0,871.0,29.0,15.0,14.0,0.5172413793103449,47.50900879443308,1293.0942749078845,18.0,14.0,4.0,0.7777777777777778,620.1728397582008,5658.735115771327,23.0,12.0,11.0,0.5217391304347826,1567.1574196903337,30793.36985911517,11.0,3.0,8.0,0.2727272727272727,797.6773636188185,11818.5935331296,82.0,41.0,41.0,0.5,39.74940810775609,6594.2721077280385,0.0,0.0,0.0,0.0,79833.0,79862.0,79962.0,79980.0,79991.0,80014.0,80024.0,80035.0,80222.0,80302.0,0.036232366260382766,-0.232401388574588,0.048719261722199994,-0.24879894521971388,0.006300706420439721
62,62,80792.03567451093,1370.3700728194888,13.55419599259592,80919.98173988836,-2530.1567979902684,8.44130523642177,80947.2593893693,32332.95521945999,9.526189307686034,80971.30135639943,-2886.1772641478824,5.293669483080122,81208.02024166046,6355.840298818612,35.120382796749304,0.9932270755635816,132.0,101.0,71.0,271.0,342.0,31.0,943.0,944.0,31.0,16.0,15.0,0.5161290322580645,48.08044121038585,1378.3857409924403,16.0,12.0,4.0,0.75,583.962071459396,5271.652330498473,23.0,11.0,12.0,0.4782608695652174,1567.8473354021744,32274.69673208446,10.0,2.0,8.0,0.2,842.1599748615746,11941.884699547662,85.0,42.0,43.0,0.4941176470588235,38.82887569815557,6684.665400361268,0.0,0.0,0.0,0.0,80776.0,80807.0,80908.0,80924.0,80936.0,80959.0,80969.0,80979.0,81167.0,81250.0,0.03508573498796717,-0.23080074401841166,0.04849069083727138,-0.2917908006978271,0.006109164779576489
63,63,82545.6919837307,1336.2465466007816,13.35088171323319,82672.20659595834,-2654.8179802995683,9.570639926022375,82699.45938369815,31593.311987293466,9.571787976760552,82723.87669549929,-2972.6248768186488,5.7247307885443295,82958.09717217,6300.646484780767,33.43358986093364,0.992899731178002,130.0,99.0,72.0,267.0,339.0,31.0,1753.0,1753.0,33.0,17.0,16.0,0.5151515151515151,43.709193729063294,1293.2569721894563,16.0,12.0,4.0,0.75,562.4286256644634,4719.905541411119,23.0,11.0,12.0,0.4782608695652174,1535.8185217442783,31924.213925682157,11.0,3.0,8.0,0.2727272727272727,774.1287392316448,11336.454889177372,83.0,41.0,42.0,0.4939759036144578,42.813033263930784,6611.054004004609,0.0,0.0,0.0,0.0,82530.0,82561.0,82660.0,82676.0,82688.0,82711.0,82721.0,82732.0,82918.0,82999.0,0.032710425961626,-0.21185204780065534,0.048612140517650386,-0.2604192494211143,0.0067950222834031095
64,64,83421.21137490326,1335.379845365235,13.032863051787496,83547.27745107647,-2572.4027827089817,9.586724805757104,83574.79866619718,32225.377206005873,9.523695903435634,83599.30135639943,-2926.231853952146,5.571119861323935,83834.3961696346,6374.930033072255,33.621469627266144,0.992490894288573,130.0,99.0,72.0,269.0,341.0,31.0,876.0,875.0,32.0,16.0,16.0,0.5,45.21789127123737,1333.219678598286,17.0,12.0,5.0,0.7058823529411765,545.6955698937019,4494.0329340240005,24.0,12.0,12.0,0.5,1570.2246073750298,31382.099200866374,11.0,3.0,8.0,0.2727272727272727,808.9945852592034,11766.76180363888,83.0,41.0,42.0,0.4939759036144578,42.242119452638626,6704.615910615195,0.0,0.0,0.0,0.0,83405.0,83436.0,83535.0,83552.0,83563.0,83587.0,83597.0,83607.0,83794.0,83876.0,0.033861445062374734,-0.21213457455485768,0.04872633754873118,-0.2764629139576147,0.006626287540960034
65,65,84335.60480983689,1423.6555492472137,12.723354082132142,84461.88259384592,-2629.3259051653117,10.719502289210135,84488.81324032099,31910.277750359863,9.565283686539829,84513.30135639943,-2995.3522821154293,5.608355330011095,84749.62645287334,6368.245221000571,34.02454801973596,0.993205619850806,129.0,98.0,72.0,271.0,343.0,31.0,914.0,914.0,31.0,16.0,15.0,0.5161290322580645,47.01777118468813,1381.99984242063,18.0,14.0,4.0,0.7777777777777778,600.6952998993042,5405.26453415251,24.0,12.0,12.0,0.5,1556.2984618068765,31179.45974181743,11.0,3.0,8.0,0.2727272727272727,809.7462990974643,11738.360785754652,85.0,43.0,42.0,0.5058823529411764,41.165380060203766,6663.306966676025,0.0,0.0,0.0,0.0,84320.0,84351.0,84449.0,84466.0,84477.0,84501.0,84511.0,84521.0,84708.0,84792.0,0.033026086408014715,-0.228459811208355,0.048771072253964494,-0.2703342454683131,0.006464163773790091
66,66,85992.41941850672,1334.2996066575145,12.930140260794277,86119.54796540085,-2710.544458903091,11.807107278234728,86145.85950630454,31792.133196850187,9.610355413136556,86170.30135639943,-3113.2663373086466,5.790022118347988,86404.61083657325,6348.868089687742,33.22768755078934,0.9928669867815536,129.0,99.0,72.0,267.0,339.0,30.0,1657.0,1657.0,30.0,15.0,15.0,0.5,47.908582980759505,1363.2767224991903,18.0,15.0,3.0,0.8333333333333334,657.32055570512,6400.652303125404,24.0,12.0,12.0,0.5,1549.5226452911263,31145.451098308946,12.0,3.0,9.0,0.25,813.8099057260949,11885.666518058217,83.0,42.0,41.0,0.5060240963855421,44.62835118450997,6698.873952922861,0.0,0.0,0.0,0.0,85977.0,86007.0,86106.0,86123.0,86134.0,86158.0,86168.0,86178.0,86364.0,86445.0,0.03590541640102318,-0.24250498955886005,0.048739184492490914,-0.26140066976396775,0.007029339805783385
67,67,86860.62916678617,1303.8694419103406,12.295873452775984,86987.1657190627,-2565.4701549506813,9.52105526178166,87014.8219629996,32303.722708417943,9.495117366169316,87039.30135639943,-3010.7467462535137,5.580762737374048,87273.98477981985,6383.580056754308,34.0447403643882,0.9924071035399732,129.0,101.0,72.0,269.0,341.0,28.0,868.0,869.0,29.0,15.0,14.0,0.5172413793103449,47.911748288933765,1278.622912066055,17.0,12.0,5.0,0.7058823529411765,543.8447838633579,4477.587538243994,24.0,12.0,12.0,0.5,1578.606372785009,31458.47513176608,11.0,3.0,8.0,0.2727272727272727,815.9650832399085,11890.756191559189,84.0,42.0,42.0,0.5,42.14875794449048,6725.453517537146,0.0,0.0,0.0,0.0,86846.0,86874.0,86975.0,86992.0,87003.0,87027.0,87037.0,87047.0,87233.0,87316.0,0.03674581729497145,-0.2119864005487964,0.048867630119102154,-0.27101750894699855,0.006602683379821315
68,68,90161.19606408972,1184.9989494767644,11.321549766106015,90289.54796540084,-2494.6515406743056,13.454688173356304,90315.54793573356,32631.63156807236,9.599859987047326,90339.87669549928,-3144.5500766691407,5.601541291895296,90575.03774337804,6461.511069020142,33.69205690399186,0.9916190696967402,128.0,100.0,73.0,268.0,341.0,28.0,3301.0,3301.0,29.0,15.0,14.0,0.5172413793103449,44.15178916672082,1179.7933584018117,19.0,16.0,3.0,0.8421052631578947,678.9828123957076,7061.342547442389,23.0,12.0,11.0,0.5217391304347826,1582.2478167122902,31237.19036042956,11.0,3.0,8.0,0.2727272727272727,809.7803296026482,11805.7137556796,82.0,40.0,42.0,0.4878048780487805,47.06150197928655,6864.589510023052,0.0,0.0,0.0,0.0,90147.0,90175.0,90275.0,90293.0,90304.0,90327.0,90337.0,90348.0,90536.0,90616.0,0.03725892684226936,-0.2721754126077978,0.04848816135385651,-0.2575186624028601,0.007283358563745864
69,69,92785.5873652972,1208.3118996165138,10.919229545378649,92912.1592125278,-2622.899375256203,9.514943300758745,92939.29501212043,31987.779386437393,9.541941329334504,92963.30135639945,-2979.5899450052502,5.467563576699266,93199.5259520208,6356.520558078087,33.19948449180578,0.9922956025594892,129.0,101.0,71.0,269.0,340.0,28.0,2624.0,2624.0,28.0,15.0,13.0,0.5357142857142857,45.70260411294296,1157.6386207335834,16.0,12.0,4.0,0.75,574.3568856159908,4978.766367391959,23.0,11.0,12.0,0.4782608695652174,1559.8679681826382,32040.63395129518,11.0,2.0,9.0,0.1818181818181818,838.2961755363024,12021.742955389118,82.0,42.0,40.0,0.5121951219512195,46.35102123554007,6730.157979954875,0.0,0.0,0.0,0.0,92771.0,92799.0,92900.0,92916.0,92928.0,92951.0,92961.0,92971.0,93160.0,93240.0,0.037823515706042254,-0.21897785749401388,0.048764496882956865,-0.28134615534649526,0.007291885680545087
70,70,93731.50815788424,1320.073596771505,11.999416767340298,93859.1565334154,-2584.8860905081383,9.621170879128687,93886.2756278819,32016.86567113678,9.597427041112471,93910.30135639945,-2849.882709357315,5.499701135250775,94148.1160492804,6320.902231284857,35.07849054579346,0.9929055522238546,131.0,101.0,71.0,273.0,344.0,30.0,947.0,947.0,31.0,16.0,15.0,0.5161290322580645,45.83614114360287,1262.6428720880508,17.0,13.0,4.0,0.7647058823529411,576.7642362330417,5119.017402817806,23.0,11.0,12.0,0.4782608695652174,1551.5550151677587,32076.16883312069,11.0,2.0,9.0,0.1818181818181818,829.3606093924227,11904.51283456938,87.0,43.0,44.0,0.4942528735632184,37.735001380865285,6583.9415359136165,0.0,0.0,0.0,0.0,93716.0,93746.0,93847.0,93863.0,93875.0,93898.0,93908.0,93918.0,94106.0,94191.0,0.034722413398543844,-0.223129459495703,0.048460552981814405,-0.29101569923186565,0.0059698758183758275
71,71,95439.27132200277,1333.7064567648756,10.892789058586596,95565.54796540084,-2682.8966775895137,11.250454529706868,95592.32730902924,31879.36781741301,9.581314484234438,95616.87669549928,-3060.2876963229437,5.846729100576591,95852.343984207,6175.8434055236885,33.424237739983184,0.992009367221073,127.0,99.0,73.0,268.0,341.0,28.0,1708.0,1706.0,28.0,14.0,14.0,0.5,52.13733350010486,1342.5756179333353,19.0,15.0,4.0,0.7894736842105263,630.9098098018044,5910.89887340416,23.0,11.0,12.0,0.4782608695652174,1552.6692619099008,32000.795929587857,11.0,3.0,8.0,0.2727272727272727,773.3466227309802,11460.959514482596,83.0,41.0,42.0,0.4939759036144578,41.604530247715594,6501.339576560573,0.0,0.0,0.0,0.0,95425.0,95453.0,95552.0,95569.0,95581.0,95604.0,95614.0,95625.0,95812.0,95893.0,0.03909206050225815,-0.235159935554676,0.048704518571469554,-0.2527038956697394,0.006736655629983171
72,72,96306.13996985824,1458.6922412246406,13.365610481983497,96431.76475204717,-2572.1377960448917,8.847517447813003,96459.2259548398,32286.501271005272,9.502137768005596,96483.30135639945,-2998.9879320762457,5.494578495462419,96719.16451162955,6364.320279660044,35.22553846820143,0.9936046652791196,130.0,99.0,71.0,270.0,341.0,31.0,866.0,866.0,31.0,16.0,15.0,0.5161290322580645,51.66097821608034,1474.036511938597,16.0,12.0,4.0,0.75,583.9966731221285,5212.377228178115,23.0,11.0,12.0,0.4782608695652174,1574.5255564785268,32143.228681509936,10.0,2.0,8.0,0.2,839.4911066791472,12111.355247068932,85.0,42.0,43.0,0.4941176470588235,39.456885996288385,6712.670765948539,0.0,0.0,0.0,0.0,96290.0,96321.0,96420.0,96436.0,96448.0,96471.0,96481.0,96491.0,96678.0,96761.0,0.03541595461747882,-0.22704719553521774,0.04876730195267461,-0.2799248031978423,0.006199701501885447
73,73,98745.48722703324,1302.941773480034,12.517520891403969,98871.88292131713,-2603.585718755595,10.10043962781237,98899.07875063951,31866.23509379335,9.55047121571964,98923.30135639945,-3046.368737485696,5.642512073652451,99157.85909348486,6514.8568831206885,33.36867121882446,0.9920458819255232,129.0,99.0,72.0,267.0,339.0,30.0,2439.0,2440.0,30.0,15.0,15.0,0.5,48.373037154857535,1342.126490352595,17.0,13.0,4.0,0.7647058823529411,583.4522606270323,5189.342590859662,24.0,12.0,12.0,0.5,1555.837551264572,31548.60329409148,11.0,2.0,9.0,0.1818181818181818,825.0290882754707,11955.437291512222,82.0,41.0,41.0,0.5,44.75731318957678,6890.867254772502,0.0,0.0,0.0,0.0,98730.0,98760.0,98859.0,98876.0,98887.0,98911.0,98921.0,98931.0,99118.0,99198.0,0.037126016019624376,-0.22409566023656716,0.04882401534681471,-0.2708237772149684,0.006870037821634776
74,74,99640.8736678629,1488.992438432295,14.422352041013614,99767.54371644324,-2541.817246488608,8.3424180853635,99794.88679221844,32214.463282197932,9.482014224831657,99819.30135639945,-2902.850199745809,5.4621459226484355,100055.54661069551,6567.513803568338,34.47431159283518,0.993119894170899,132.0,99.0,71.0,270.0,341.0,33.0,895.0,896.0,33.0,17.0,16.0,0.5151515151515151,48.813555000420045,1474.6630455653312,16.0,12.0,4.0,0.75,605.157788716815,5637.945781765789,24.0,12.0,12.0,0.5,1570.0154879468143,31477.028995686447,10.0,2.0,8.0,0.2,814.028201754893,11761.304758480936,84.0,43.0,41.0,0.5119047619047619,48.094532122325894,7027.167985613877,0.0,0.0,0.0,0.0,99624.0,99657.0,99756.0,99772.0,99783.0,99807.0,99817.0,99827.0,100015.0,100097.0,0.03278294351300671,-0.23808076271132786,0.04873635404673721,-0.2804237717213841,0.007323095704221377
75,75,101330.85264346856,1349.5865673583785,10.53176481022589,101458.54796540084,-2738.1665872911963,13.383685123728933,101484.7888958902,32166.562432199706,9.61667612823767,101509.30135639945,-3103.7882310263058,5.840736027877257,101743.57970575844,6473.668587689608,32.66537992244061,0.9915820049141262,128.0,101.0,72.0,266.0,338.0,27.0,1690.0,1690.0,27.0,14.0,13.0,0.5185185185185185,54.644008569797755,1324.8054004007654,19.0,16.0,3.0,0.8421052631578947,665.7070583557681,6414.656572538013,24.0,12.0,12.0,0.5,1559.612201981709,31303.58358042217,12.0,3.0,9.0,0.25,814.6670265282468,11927.039454159436,81.0,41.0,40.0,0.5061728395061729,44.07964858044206,6786.180034794959,0.0,0.0,0.0,0.0,101317.0,101344.0,101445.0,101462.0,101473.0,101497.0,101507.0,101517.0,101704.0,101783.0,0.040489443131280965,-0.2431214599745505,0.048485510544343705,-0.26247506784922214,0.006809067838947511
76,76,102228.63386624004,1340.5651160324342,11.352509317158496,102356.02586485705,-2550.12949549765,9.407385091351824,102383.29288273024,32378.504354779812,9.529536747460789,102407.30135639945,-3063.2279252333788,5.474091796617216,102644.41491916144,6566.74520892346,34.39386369603699,0.992144658047494,130.0,102.0,71.0,271.0,342.0,28.0,899.0,899.0,28.0,15.0,13.0,0.5357142857142857,51.06059797660237,1296.7412400908904,17.0,13.0,4.0,0.7647058823529411,577.3225194089423,5142.615925093915,23.0,11.0,12.0,0.4782608695652174,1578.3974801747047,32380.951023380407,11.0,2.0,9.0,0.1818181818181818,851.1479962511263,12215.425544438312,83.0,41.0,42.0,0.4939759036144578,47.57703660534995,6990.3544880397,0.0,0.0,0.0,0.0,102214.0,102242.0,102344.0,102360.0,102372.0,102395.0,102405.0,102415.0,102604.0,102686.0,0.03808886070952109,-0.22638949136827247,0.04874831347611944,-0.2778598318589955,0.007245147343420325
77,77,103941.84393910514,1294.9085710790496,12.398524848863296,104068.7498900835,-2681.690577915168,9.997935228611162,104095.90596149738,31725.988565859967,9.53877937078647,104120.30135639945,-2910.49323885798,5.493378779742054,104354.7546934844,6304.319038206967,33.48798613470369,0.9926316191704048,129.0,101.0,72.0,268.0,340.0,28.0,1713.0,1712.0,30.0,16.0,14.0,0.5333333333333333,47.36305289392202,1261.0242417574532,17.0,13.0,4.0,0.7647058823529411,596.4340807957105,5265.964005156182,24.0,12.0,12.0,0.5,1549.0446519471725,31178.557480213887,10.0,2.0,8.0,0.2,806.659671585246,11644.281991860063,82.0,41.0,41.0,0.5,43.057627284289175,6639.902983876693,0.0,0.0,0.0,0.0,103927.0,103955.0,104056.0,104073.0,104084.0,104108.0,104118.0,104128.0,104315.0,104396.0,0.03657636836433502,-0.2224097312745893,0.04882573315978827,-0.2771556589843731,0.006829861722311462
78,78,104773.8372693855,1240.2218389107545,10.7052810504408,104900.972626301,-2581.343282609164,13.15341468849904,104927.31942093222,32228.073240816462,9.597930306433751,104951.30135639945,-3254.433717838251,5.768421749776736,105187.69477452296,6200.18471352517,32.7894865830167,0.9920829467681692,127.0,101.0,72.0,269.0,341.0,26.0,832.0,832.0,27.0,14.0,13.0,0.5185185185185185,50.83371422946728,1230.4658623910836,19.0,15.0,4.0,0.7894736842105263,626.6245708739676,5902.0458956918155,23.0,11.0,12.0,0.4782608695652174,1567.7966929515678,32184.53667726836,11.0,2.0,9.0,0.1818181818181818,854.3383795349471,12423.816449840522,82.0,41.0,41.0,0.5,44.45476833118649,6538.903020952914,0.0,0.0,0.0,0.0,104760.0,104786.0,104887.0,104905.0,104916.0,104939.0,104949.0,104959.0,105148.0,105228.0,0.04098759805271034,-0.2427513516298342,0.04864692596534044,-0.26251521880815537,0.007169910314802757
79,79,105627.0958518298,1529.836622898796,14.463784962139966,105752.84480250656,-2539.06942075791,8.175586473410002,105780.11246837417,32285.73298579448,9.47957536720172,105804.30135639945,-2980.253481423585,5.491196609458499,106040.87246526271,6348.544704479975,34.48673273300294,0.9941264755300172,130.0,98.0,71.0,271.0,342.0,32.0,853.0,852.0,33.0,17.0,16.0,0.5151515151515151,49.87555777299292,1529.2167121066352,16.0,12.0,4.0,0.75,591.8625539255639,5377.652496889668,24.0,12.0,12.0,0.5,1575.1985300318995,31917.118082522626,10.0,2.0,8.0,0.2,832.2235297877392,12001.96035503706,85.0,42.0,43.0,0.4941176470588235,44.67824354228587,6721.8318797428965,0.0,0.0,0.0,0.0,105611.0,105643.0,105741.0,105757.0,105768.0,105792.0,105802.0,105812.0,106000.0,106083.0,0.03260188508135379,-0.23310215509936452,0.048789306741927684,-0.27924588796729094,0.007037556734972314
80,80,108103.51883255152,1252.6179329290717,10.648810325094018,108232.54796540084,-2494.9103526669014,15.287792405146073,108258.8752862649,32438.11301611213,9.58743161159584,108283.30135639945,-3150.734553220779,5.744297045093875,108520.3966668099,6204.79306543271,33.65063552319544,0.9912985550118146,129.0,103.0,72.0,271.0,343.0,26.0,2477.0,2479.0,27.0,14.0,13.0,0.5185185185185185,50.09920424790717,1203.957372642255,19.0,16.0,3.0,0.8421052631578947,655.1101667244553,6430.738136337437,24.0,12.0,12.0,0.5,1563.681383516854,31486.11472521143,12.0,3.0,9.0,0.25,826.3449311605139,12058.473834980568,85.0,42.0,43.0,0.4941176470588235,42.522063188223726,6524.049596017196,0.0,0.0,0.0,0.0,108090.0,108116.0,108219.0,108236.0,108247.0,108271.0,108281.0,108291.0,108480.0,108562.0,0.0399955987623115,-0.2625786397592138,0.04820506614364923,-0.2622705649118547,0.006853099328181757
81,81,108976.18100458702,1342.2512297576748,10.314371021697545,109104.972626301,-2550.7878635435577,14.065360504527527,109131.43651368289,32094.574601188295,9.5717645400381,109155.87669549928,-3095.483256204939,5.593346192337779,109392.92541970965,6095.388258651059,33.531968886108245,0.9923055889818422,128.0,102.0,72.0,271.0,343.0,26.0,873.0,873.0,26.0,13.0,13.0,0.5,57.58761619319625,1361.8452535582878,19.0,15.0,4.0,0.7894736842105263,613.9349746313775,5672.022564888495,23.0,11.0,12.0,0.4782608695652174,1552.105163066787,32201.173104790956,11.0,3.0,8.0,0.2727272727272727,789.2887136165281,11513.872002351683,83.0,41.0,42.0,0.4939759036144578,40.723005137612745,6362.653715994269,0.0,0.0,0.0,0.0,108963.0,108989.0,109091.0,109109.0,109120.0,109143.0,109153.0,109163.0,109353.0,109434.0,0.04290375372097287,-0.24068445024608917,0.04836035941754843,-0.25498077304549716,0.006680953437185141
82,82,110606.25764445707,1263.5872546555863,10.72607150741485,110732.972626301,-2672.7920468256166,13.565926210978764,110759.3973285274,32153.320368153138,9.605017795366638,110783.87669549928,-3181.6866960766465,5.820210706120942,111019.03474260036,6149.386582342373,32.809949118142406,0.9920903838026948,126.0,100.0,73.0,268.0,341.0,26.0,1630.0,1628.0,27.0,14.0,13.0,0.5185185185185185,51.56526954208889,1289.7868742610185,19.0,15.0,4.0,0.7894736842105263,624.3076634270104,5676.558833912684,23.0,11.0,12.0,0.4782608695652174,1556.2010363748398,32251.83033590861,11.0,3.0,8.0,0.2727272727272727,790.8360473462261,11659.143810772151,83.0,41.0,42.0,0.4939759036144578,40.18345261132156,6367.349162966033,0.0,0.0,0.0,0.0,110593.0,110619.0,110719.0,110737.0,110748.0,110771.0,110781.0,110792.0,110979.0,111060.0,0.04080863379406588,-0.2335788390901863,0.0483993882608842,-0.2485587434870347,0.006534546506916015
83,83,111454.89098545632,1326.4738320470185,11.09045789053074,111580.54796540084,-2502.843200285797,11.318340128096612,111607.26947586743,32264.93834855189,9.588020195121452,111631.30135639945,-3083.0472594474622,5.510520972127792,111867.1348351811,6121.33702942885,33.71241784315503,0.9920021905496316,126.0,99.0,72.0,269.0,341.0,27.0,848.0,848.0,27.0,14.0,13.0,0.5185185185185185,51.243114768823666,1308.0706611752405,18.0,15.0,3.0,0.8333333333333334,633.8663635590162,6256.106097722478,23.0,11.0,12.0,0.4782608695652174,1569.00823012055,32256.693161903015,11.0,2.0,9.0,0.1818181818181818,848.720434926039,12185.76091855374,84.0,42.0,42.0,0.5,40.449197937128154,6400.586456247375,0.0,0.0,0.0,0.0,111441.0,111468.0,111567.0,111584.0,111596.0,111619.0,111629.0,111639.0,111827.0,111908.0,0.038631078526249654,-0.2532585195455455,0.04862889286106353,-0.2752862228515255,0.006607902447237456
84,84,112329.64606176285,1193.4298838530808,10.868294329666076,112455.54796540084,-2686.1273165277344,11.427616961457732,112481.90959397932,31932.520922488904,9.593629196546654,112506.30135639945,-2922.765014540245,5.6187742764475,112742.65565087106,6090.314282053476,34.034007616379476,0.9920112774667972,126.0,99.0,72.0,270.0,342.0,27.0,875.0,874.0,28.0,15.0,13.0,0.5357142857142857,46.65746906936401,1161.7016586197287,18.0,15.0,3.0,0.8333333333333334,658.091763267971,6388.422124222735,24.0,12.0,12.0,0.5,1554.858417082897,31425.859615652153,11.0,2.0,9.0,0.1818181818181818,810.7912986741212,11736.35770729888,85.0,43.0,42.0,0.5058823529411764,42.707785204881475,6433.66290053478,0.0,0.0,0.0,0.0,112316.0,112343.0,112442.0,112459.0,112470.0,112494.0,112504.0,112514.0,112702.0,112784.0,0.03909527463710458,-0.2449964896372313,0.04869200339231179,-0.27740557131366234,0.007012410727428283
85,85,113942.41517896218,1256.9498685625808,12.319484549228818,114068.3703298176,-2539.4752321654564,10.265214732317055,114095.4829936738,32121.045634814454,9.54738648182204,114119.87669549928,-2970.215283729097,5.525678815172519,114353.94646166296,6200.954505357315,34.31949769374036,0.99313975268431,129.0,100.0,71.0,269.0,340.0,29.0,1612.0,1614.0,29.0,15.0,14.0,0.5172413793103449,46.64113922395563,1271.00259774758,17.0,13.0,4.0,0.7647058823529411,558.0459735000605,4817.731426763211,23.0,11.0,12.0,0.4782608695652174,1562.138173629524,32492.475482185477,11.0,3.0,8.0,0.2727272727272727,788.6726057381125,11436.79477492438,85.0,43.0,42.0,0.5058823529411764,39.38466320952169,6536.204457033795,0.0,0.0,0.0,0.0,113927.0,113956.0,114056.0,114072.0,114084.0,114107.0,114117.0,114127.0,114312.0,114396.0,0.03710660257062867,-0.2197485395532701,0.048632855586008626,-0.26552708487444593,0.0063513872219986955
86,86,114779.10402283196,1354.9735580460676,12.281003971538963,114905.39214570916,-2605.212453256465,9.673725985248044,114932.43069046822,32186.7475804106,9.526037651840838,114956.30135639945,-3086.3197976667498,5.386414455124083,115191.3538103368,6196.1221558971,34.71611103174705,0.992378408516993,129.0,100.0,71.0,270.0,341.0,29.0,837.0,837.0,30.0,15.0,15.0,0.5,48.67092564530408,1351.4565201781274,16.0,12.0,4.0,0.75,565.5983290233235,4825.631542621028,23.0,11.0,12.0,0.4782608695652174,1573.5791434231517,32451.028311922844,11.0,2.0,9.0,0.1818181818181818,858.8190588499657,12225.223876028947,86.0,42.0,44.0,0.4883720930232558,37.32599020520217,6462.1998058309555,0.0,0.0,0.0,0.0,114764.0,114793.0,114893.0,114909.0,114921.0,114944.0,114954.0,114964.0,115151.0,115234.0,0.03592020328093319,-0.2171025738481852,0.048889038555136856,-0.2782663868790366,0.006024088819759229
87,87,115635.71839940418,1389.4292157735867,13.474484806344709,115760.61331638075,-2512.3557957546727,9.249148291107844,115788.06334234816,31990.238142509057,9.51297606776921,115812.30135639945,-2922.1938357520016,5.481280189869924,116048.12602086694,6245.435026346453,34.8776055815137,0.9932919206020256,129.0,97.0,72.0,271.0,343.0,32.0,856.0,855.0,33.0,17.0,16.0,0.5151515151515151,44.2469393289397,1324.1129198270728,17.0,13.0,4.0,0.7647058823529411,585.4273427554862,5378.54830787147,24.0,12.0,12.0,0.5,1559.4945101818173,31614.94649113431,10.0,2.0,8.0,0.2,821.4220544234033,11818.754316858936,86.0,42.0,44.0,0.4883720930232558,31.918239382623657,6446.382872821163,0.0,0.0,0.0,0.0,115619.0,115651.0,115748.0,115765.0,115776.0,115800.0,115810.0,115820.0,116007.0,116091.0,0.03184540732742871,-0.23301928164184757,0.048749074740695356,-0.2810977301962645,0.005110651099239065
88,88,117200.1041915555,1397.1371937543422,13.042501720754574,117326.49857906866,-2633.7291065315976,8.978406601660955,117353.704817416,32001.88303051787,9.515034382080756,117377.87669549928,-2976.461593978548,5.494733911866347,117612.05778260516,6323.793843179423,34.04355495434506,0.9936227952992356,131.0,100.0,70.0,268.0,338.0,31.0,1564.0,1566.0,32.0,16.0,16.0,0.5,46.71905482896516,1377.5167309629087,17.0,12.0,5.0,0.7058823529411765,550.7829335255628,4528.391489001811,23.0,12.0,11.0,0.5217391304347826,1565.2096308853656,31004.099216437495,11.0,3.0,8.0,0.2727272727272727,797.5822195371413,11574.673192381582,83.0,41.0,42.0,0.4939759036144578,43.929206679330555,6685.996633991303,0.0,0.0,0.0,0.0,117184.0,117215.0,117315.0,117331.0,117342.0,117365.0,117375.0,117385.0,117572.0,117653.0,0.03343913184604528,-0.20912664562184158,0.0489099228752489,-0.2679632155008044,0.006946653823433973
89,89,118032.82065578036,1336.3065639488689,12.074154308887689,118160.54796540084,-2403.875351600778,15.287792396186113,118187.01328101262,32743.38148640881,9.574159952854002,118211.30135639945,-3169.4785087999103,5.5950896996188835,118446.5960714634,6146.240213655093,32.80738771769393,0.9915158719395032,129.0,100.0,72.0,268.0,340.0,29.0,833.0,833.0,29.0,15.0,14.0,0.5172413793103449,48.53923321086874,1303.611523084048,18.0,15.0,3.0,0.8333333333333334,649.8571311253132,6395.006110249156,23.0,11.0,12.0,0.4782608695652174,1576.5175917130618,32001.53613522271,11.0,2.0,9.0,0.1818181818181818,843.4562673876358,12229.180482346455,83.0,42.0,41.0,0.5060240963855421,42.01192690899937,6469.9080169601875,0.0,0.0,0.0,0.0,118018.0,118047.0,118147.0,118164.0,118176.0,118199.0,118209.0,118219.0,118406.0,118487.0,0.03632342646543042,-0.2703372829596024,0.048147671991893876,-0.26611831096056293,0.006835386423013786
90,90,118894.50948572122,1186.117794990954,10.523682839598392,119021.54796540084,-2645.4193256227695,15.287792405178076,119047.9204470642,32397.87845735543,9.56195484219788,119072.30135639945,-3271.818974232246,5.860151301335646,119308.95813732676,6121.625712689939,33.28492933180068,0.9908808079627672,127.0,100.0,72.0,270.0,342.0,27.0,863.0,861.0,28.0,15.0,13.0,0.5357142857142857,46.63382479938706,1142.6591283181222,19.0,15.0,4.0,0.7894736842105263,655.3775278588818,6142.941685246568,23.0,11.0,12.0,0.4782608695652174,1569.2909581551992,31515.464638866404,12.0,3.0,9.0,0.25,831.9266605481996,12223.74905887558,82.0,41.0,41.0,0.5,41.631252703777925,6445.81502229712,0.0,0.0,0.0,0.0,118881.0,118908.0,119008.0,119025.0,119037.0,119060.0,119070.0,119080.0,119269.0,119350.0,0.039316352048948656,-0.24774050809680107,0.04843807782725095,-0.2542703820413587,0.006800685742265757
91,91,120461.13086095924,1539.7514816603834,16.53420889453258,120588.39905706972,-2582.993116369453,8.147268707834675,120615.3931495963,32253.43629094538,9.525136501502477,120639.30135639945,-2838.21252235425,5.2557228146262585,120871.57839302882,6463.4361963006995,35.600474844720026,0.9942180949202484,133.0,98.0,70.0,267.0,337.0,35.0,1565.0,1568.0,35.0,17.0,18.0,0.4857142857142857,48.10448350778352,1596.4606854986305,15.0,11.0,4.0,0.7333333333333333,576.4943577294564,5045.411040891882,23.0,11.0,12.0,0.4782608695652174,1565.8393890151033,32443.81842645855,11.0,2.0,9.0,0.1818181818181818,845.2687410220807,11931.692422044438,86.0,43.0,43.0,0.5,47.330979541940906,6952.645968689249,0.0,0.0,0.0,0.0,120444.0,120479.0,120577.0,120592.0,120604.0,120627.0,120637.0,120647.0,120830.0,120914.0,0.03124171925193427,-0.22318849944894653,0.04854798648089124,-0.2978172826610406,0.007322881839389154
92,92,121281.2662472969,1248.4668467335514,9.92518396502977,121408.54796540084,-2530.396860610209,15.287792405184318,121435.33588500843,32669.191988750048,9.610419680687253,121459.30135639945,-3353.8094993236937,5.8022863215307785,121695.77211125952,6128.245294552248,32.7687571018409,0.9914949773477514,126.0,101.0,74.0,267.0,341.0,25.0,822.0,820.0,26.0,13.0,13.0,0.5,53.667106890958195,1262.1728880492155,20.0,16.0,4.0,0.8,629.7294312291843,5966.872370540033,23.0,11.0,12.0,0.4782608695652174,1577.3146776188803,32452.840175989797,11.0,2.0,9.0,0.1818181818181818,867.0677232189512,12624.465408787077,80.0,40.0,40.0,0.5,45.2292239458932,6498.696928339816,0.0,0.0,0.0,0.0,121268.0,121293.0,121394.0,121412.0,121424.0,121447.0,121457.0,121468.0,121657.0,121735.0,0.04298640931585095,-0.2488658759548588,0.04828141076038991,-0.2585321925392,0.007380452604614257
93,93,122120.0541405878,1349.0917042963788,10.774183527774316,122248.54796540084,-2712.5579123432976,13.167648331023768,122274.39437864408,32146.578375195404,9.600161142002191,122298.87669549928,-3093.445991363706,5.841083302088411,122534.3109352065,6036.847730338912,33.59754845732456,0.9921645462924656,129.0,102.0,72.0,268.0,340.0,27.0,839.0,839.0,27.0,14.0,13.0,0.5185185185185185,53.84205914324335,1353.4163451009138,19.0,16.0,3.0,0.8421052631578947,688.0524338377815,6895.849911271925,23.0,11.0,12.0,0.4782608695652174,1559.2078113335313,32305.285274816055,11.0,3.0,8.0,0.2727272727272727,784.4691980697105,11585.412591678563,83.0,41.0,42.0,0.4939759036144578,37.28518215471516,6301.864348992061,0.0,0.0,0.0,0.0,122106.0,122133.0,122235.0,122252.0,122263.0,122286.0,122296.0,122307.0,122495.0,122575.0,0.03990985858987604,-0.2536544678758189,0.048503072181910044,-0.25359072059437743,0.0061762667902544475
94,94,122897.4280519904,1258.3945836329865,11.494497572576964,123023.84462663926,-2705.123907915775,10.223758019609376,123050.88632147964,31873.234672414343,9.529561100566886,123075.30135639945,-2966.5744362517507,5.473568064967436,123307.66331979526,6129.985325138162,34.389068107736996,0.9932128520927416,128.0,100.0,72.0,266.0,338.0,28.0,776.0,776.0,28.0,14.0,14.0,0.5,49.06548834668376,1266.8671460121932,17.0,13.0,4.0,0.7647058823529411,599.7060316540077,5255.528248304312,24.0,12.0,12.0,0.5,1559.192057973445,31296.865922217537,10.0,2.0,8.0,0.2,813.0490584203434,11714.362571705344,84.0,42.0,42.0,0.5,42.77453997357976,6507.318070535068,0.0,0.0,0.0,0.0,122883.0,122911.0,123011.0,123028.0,123039.0,123063.0,123073.0,123083.0,123267.0,123349.0,0.03899054317687195,-0.2216926292725959,0.04891853851667258,-0.27407000090232897,0.006977918821137746
95,95,123694.1841802831,1215.62050124106,11.803688688620468,123820.54796540084,-2676.960211496521,12.992105927513316,123846.94016987635,32262.763570563595,9.555828287033446,123871.30135639945,-3167.474075852137,5.7298808897065046,124105.60179284804,6105.380665459929,32.84793879530712,0.9915568999879752,128.0,100.0,72.0,266.0,338.0,28.0,796.0,796.0,29.0,15.0,14.0,0.5172413793103449,46.25228233246026,1223.7378228573814,19.0,15.0,4.0,0.7894736842105263,654.0928168749248,6244.738423131033,23.0,11.0,12.0,0.4782608695652174,1573.9977455116236,31648.055930051545,12.0,3.0,9.0,0.25,829.0514399679304,12118.462365160673,81.0,41.0,40.0,0.5061728395061729,47.300552227823935,6501.423979039928,0.0,0.0,0.0,0.0,123679.0,123707.0,123807.0,123824.0,123836.0,123859.0,123869.0,123879.0,124066.0,124145.0,0.03804829079901174,-0.24434162826397124,0.04878682330077056,-0.2617389819504341,0.0077473551314200815
96,96,124520.88822334008,1534.5992983867056,14.423266006846353,124646.484056376,-2352.883103072078,8.035643800703154,124674.00912741096,32674.01931052971,9.454194865300968,124698.30135639945,-2806.914732584191,5.158748165058881,124933.07907962373,6330.771731551701,35.49203979411932,0.993894066961549,131.0,99.0,70.0,270.0,340.0,32.0,826.0,827.0,33.0,17.0,16.0,0.5151515151515151,51.58374068759057,1489.77170254876,16.0,11.0,5.0,0.6875,530.7083336947787,4631.880252577974,24.0,12.0,12.0,0.5,1587.5575325224208,32090.51019940719,10.0,2.0,8.0,0.2,829.9465590306835,11787.754268027447,86.0,43.0,43.0,0.5,42.20389070159724,6737.056677682237,0.0,0.0,0.0,0.0,124504.0,124536.0,124635.0,124651.0,124662.0,124686.0,124696.0,124705.0,124892.0,124975.0,0.03361381745828996,-0.22555660882678413,0.04858776379589167,-0.29567929135723753,0.006666468558842331
97,97,126119.8048901095,1220.361259792444,12.423886762440883,126246.43803296106,-2821.774480419171,11.114395522170293,126273.04215284204,32012.76308603823,9.628684499926733,126297.30135639945,-3154.3394581188477,5.688234991388578,126530.26792049316,5970.824711929624,33.26770782191347,0.992922671475337,129.0,98.0,72.0,266.0,338.0,31.0,1601.0,1599.0,32.0,16.0,16.0,0.5,40.73630728099286,1200.7211305700012,18.0,14.0,4.0,0.7777777777777778,592.9486352826665,5028.934019265029,24.0,12.0,12.0,0.5,1558.8814526220538,31723.06804191208,11.0,2.0,9.0,0.1818181818181818,834.6784852300121,12063.691790165702,83.0,41.0,42.0,0.4939759036144578,42.44559959491404,6294.981281116405,0.0,0.0,0.0,0.0,126104.0,126135.0,126233.0,126250.0,126261.0,126285.0,126295.0,126305.0,126491.0,126571.0,0.03338053134194148,-0.21013324749984438,0.048695623318498575,-0.264612764831528,0.00710883364405395
98,98,126903.2808290143,1394.9646836832203,12.678988560686284,127030.20399159633,-2615.7924212777293,9.313601071675611,127057.11481464052,32029.693661902245,9.528288093701637,127081.30135639945,-3153.6374450992143,5.843799211302707,127314.67607957138,6166.7426979280945,34.32102016934902,0.9929376595715588,130.0,100.0,71.0,268.0,339.0,30.0,783.0,784.0,30.0,15.0,15.0,0.5,50.27372574706873,1429.258647132027,16.0,12.0,4.0,0.75,585.4842783268173,5172.719797479122,24.0,12.0,12.0,0.5,1570.0982172965269,31739.566505993236,11.0,2.0,9.0,0.1818181818181818,832.0720682102937,12194.223481913585,86.0,43.0,43.0,0.5,40.82007756706607,6461.045121391173,0.0,0.0,0.0,0.0,126888.0,126918.0,127018.0,127034.0,127045.0,127069.0,127079.0,127089.0,127274.0,127357.0,0.036039425467265296,-0.22382673547193294,0.04902008223588107,-0.26384518914922905,0.0066193904248317064
99,99,127746.71535172516,1452.2321253909306,13.530355839112918,127872.35921962657,-2540.424021520304,8.752119849564895,127899.5150223052,32542.686005344473,9.48613413791637,127923.30135639945,-3010.804495421488,5.271867206149062,128158.53495295714,6269.006776957423,35.64805438852197,0.9936070912911408,130.0,99.0,70.0,270.0,340.0,31.0,843.0,843.0,33.0,17.0,16.0,0.5151515151515151,48.69924864438589,1409.026945310737,16.0,12.0,4.0,0.75,564.1178151075951,4924.957988860922,23.0,12.0,11.0,0.5217391304347826,1594.7982332385286,31122.026974089044,10.0,2.0,8.0,0.2,866.7492870606832,12278.885285852011,87.0,44.0,43.0,0.5057471264367817,41.67793354709417,6656.257762960584,0.0,0.0,0.0,0.0,127731.0,127762.0,127861.0,127876.0,127888.0,127911.0,127921.0,127931.0,128117.0,128201.0,0.03353406648491294,-0.22205655840476649,0.049006349167878015,-0.2878796309686476,0.006648251474266548
100,100,129321.99052406735,1354.4305658725957,12.481311745878504,129450.54796540084,-2842.600408787085,12.387471945835443,129476.47980546516,32099.47703437362,9.610376039409,129500.87669549928,-3112.3207117353472,5.7031787759943295,129733.57746741684,6118.476495376601,33.48321464888571,0.9924132074538948,131.0,100.0,72.0,265.0,337.0,31.0,1576.0,1577.0,31.0,16.0,15.0,0.5161290322580645,45.89220372695918,1326.7757500324906,19.0,16.0,3.0,0.8421052631578947,689.8270567399879,6739.994480807625,23.0,11.0,12.0,0.4782608695652174,1560.4224580668208,32487.480976295392,11.0,3.0,8.0,0.2727272727272727,793.3565115186109,11619.284171894207,83.0,42.0,41.0,0.5060240963855421,42.94998133910355,6459.408623933211,0.0,0.0,0.0,0.0,129306.0,129337.0,129437.0,129454.0,129465.0,129488.0,129498.0,129509.0,129694.0,129774.0,0.03388302426370081,-0.2426746491021338,0.04861208350515641,-0.254908341716576,0.007019718286334599
101,101,130103.29021481288,1314.3180257424626,11.351380264052636,130229.37146429296,-2635.4715684816447,9.546128697798794,130256.71187193328,32086.52235557389,9.522241668601875,130280.87669549928,-3052.9359084088096,5.515760950647891,130514.35009939226,6237.743963679032,34.04854963586113,0.993551182796575,128.0,101.0,72.0,266.0,338.0,27.0,781.0,780.0,28.0,14.0,14.0,0.5,51.604925301934905,1321.4858613604304,17.0,12.0,5.0,0.7058823529411765,550.0864855380077,4495.206127241081,24.0,12.0,12.0,0.5,1571.1171840393208,31092.230920293143,11.0,3.0,8.0,0.2727272727272727,805.2992339689569,11671.56981059849,84.0,42.0,42.0,0.5,45.6180875496586,6639.980746775678,0.0,0.0,0.0,0.0,130089.0,130116.0,130217.0,130234.0,130245.0,130269.0,130278.0,130289.0,130474.0,130555.0,0.03926365178837375,-0.20872412061531934,0.04896501922609869,-0.2637786242910939,0.007313235011773867
102,102,130960.45774592175,1465.8070334755676,12.972421832098924,131085.8169408188,-2568.9821719423867,8.804565346719984,131113.30400267424,32636.882049530996,9.491820876670731,131137.30135639946,-2970.071196535474,5.261603947373962,131372.80689934574,6184.635654205764,34.65005463309254,0.9938543966797015,129.0,98.0,71.0,269.0,340.0,31.0,856.0,857.0,33.0,16.0,17.0,0.4848484848484848,49.30804179934241,1477.9555305193762,16.0,12.0,4.0,0.75,583.1726261265482,5193.83343943941,23.0,11.0,12.0,0.4782608695652174,1589.6674734418216,32633.942818657964,10.0,2.0,8.0,0.2,855.2155453735021,12140.968209179378,84.0,42.0,42.0,0.5,43.18693764372747,6592.156268267283,0.0,0.0,0.0,0.0,130945.0,130976.0,131074.0,131090.0,131102.0,131125.0,131135.0,131145.0,131332.0,131414.0,0.03363883558562846,-0.22700532237855744,0.04870770041786714,-0.2879444595035611,0.006982939668298629
103,103,132541.51616247543,1379.9385963970462,13.342528613773114,132668.94795662913,-2660.891537132578,9.08501214168516,132696.1839249966,32096.200835859585,9.523916283265716,132720.30135639946,-2807.0769002104335,5.22746692016744,132952.3054931736,6201.892906251115,34.42932277760054,0.9939589766784914,131.0,100.0,71.0,265.0,336.0,31.0,1583.0,1582.0,33.0,17.0,16.0,0.5151515151515151,44.92323596715679,1335.5105880022752,17.0,13.0,4.0,0.7647058823529411,586.7980879078582,5133.21674156646,23.0,11.0,12.0,0.4782608695652174,1561.5388962684838,32015.59703536566,10.0,2.0,8.0,0.2,828.9771686590647,11736.267239886274,83.0,41.0,42.0,0.4939759036144578,47.09912755775576,6667.973859703357,0.0,0.0,0.0,0.0,132526.0,132557.0,132657.0,132673.0,132685.0,132708.0,132718.0,132728.0,132913.0,132993.0,0.032554518066564134,-0.22052687218517814,0.04865182967461524,-0.29531687165282866,0.00759431487607321
104,104,133353.14073791777,1437.7520274484184,14.381551092037808,133479.33127667723,-2568.708747710295,9.451751479924406,133506.7809950738,32309.155364715956,9.49784738093108,133530.87669549932,-3079.889002031381,5.423696083694792,133764.91594724913,6245.355459040045,34.882648680970185,0.9936709910609094,130.0,98.0,71.0,269.0,340.0,32.0,810.0,811.0,34.0,17.0,17.0,0.5,47.61711445694803,1443.7933401649304,17.0,12.0,5.0,0.7058823529411765,544.3816017464997,4528.286496414592,24.0,12.0,12.0,0.5,1583.472937394853,31408.600913351,11.0,3.0,8.0,0.2727272727272727,815.8615499480073,11773.692369887773,85.0,42.0,43.0,0.4941176470588235,42.24671952856734,6593.579857973218,0.0,0.0,0.0,0.0,133337.0,133369.0,133467.0,133484.0,133495.0,133519.0,133528.0,133538.0,133724.0,133807.0,0.03311914262534842,-0.21192811455629312,0.04901003816163283,-0.2648996601533027,0.006764502005632992
105,105,134224.06565133276,1581.273898512679,12.874374292953815,134348.51516277954,-2669.9303404086563,9.129934175878708,134376.08092109565,32339.1791793892,9.50886614468166,134400.30135639946,-2905.863086517098,5.385759583502344,134635.9202280087,6124.11877819706,35.33985242184254,0.9941256368334472,129.0,97.0,71.0,271.0,342.0,32.0,871.0,869.0,32.0,16.0,16.0,0.5,53.10311669942053,1568.8141263976725,17.0,13.0,4.0,0.7647058823529411,598.7568797930651,5307.0760320824775,24.0,12.0,12.0,0.5,1576.1432808982984,32007.64581820674,10.0,2.0,8.0,0.2,830.0425213644671,11895.225704092943,85.0,42.0,43.0,0.4941176470588235,46.37543867136977,6576.049745754104,0.0,0.0,0.0,0.0,134208.0,134240.0,134337.0,134353.0,134364.0,134388.0,134398.0,134408.0,134595.0,134679.0,0.033582491148034806,-0.22425936389839296,0.048737887630210024,-0.2856440570843747,0.007572589682041192
106,106,135033.50770376294,1248.682556354249,10.592323822739418,135161.9902420789,-2874.1162157657477,10.063994904331455,135188.54283581296,31932.884224190293,9.573084743968366,135212.30135639946,-3060.3741741151093,5.395318717132148,135446.41677118457,5946.942242553827,34.1824459492688,0.9924165173830468,129.0,103.0,71.0,269.0,340.0,26.0,811.0,813.0,27.0,14.0,13.0,0.5185185185185185,49.67627986327537,1193.8784385332783,17.0,13.0,4.0,0.7647058823529411,629.4459700360611,5534.665750708195,23.0,12.0,11.0,0.5217391304347826,1568.3712270689982,30781.635539340663,11.0,2.0,9.0,0.1818181818181818,858.0090710421803,12175.369306591268,84.0,41.0,43.0,0.4880952380952381,38.39135860111849,6205.416583466592,0.0,0.0,0.0,0.0,135020.0,135046.0,135149.0,135166.0,135177.0,135200.0,135210.0,135220.0,135406.0,135489.0,0.03978295332987922,-0.21900505156447145,0.04911461226170423,-0.28036083897821706,0.006455646790447369
107,107,135810.11966396507,1396.5067941999205,14.056930667579577,135936.37700429725,-2607.5926403593417,8.896199628057373,135963.50592703244,32170.46150552647,9.549341556931536,135987.30135639946,-2872.628384599733,5.252833466690815,136220.64475799748,6198.4052077912465,34.83929376234337,0.9944628957619376,131.0,98.0,71.0,267.0,338.0,33.0,774.0,775.0,35.0,17.0,18.0,0.4857142857142857,44.16836915049324,1358.643642755851,16.0,12.0,4.0,0.75,566.2648421739736,4873.457055878732,23.0,12.0,11.0,0.5217391304347826,1568.0520330264196,30838.425159061426,11.0,2.0,9.0,0.1818181818181818,851.8074071015653,12011.990065809536,84.0,42.0,42.0,0.5,44.19850829262162,6593.142096384541,0.0,0.0,0.0,0.0,135793.0,135826.0,135924.0,135940.0,135952.0,135975.0,135985.0,135995.0,136180.0,136262.0,0.031627750995510164,-0.21716000935481203,0.04874198129725458,-0.296525443969062,0.007130625832119712
108,108,136619.32726937887,1265.0872976004357,10.72817761700535,136747.54796540082,-2495.679371770876,12.548840894145089,136774.086896557,32600.01859937936,9.548824006475735,136798.30135639946,-3095.281094174586,5.438886664187754,137031.92251905045,6040.604016879728,33.867165056719855,0.9929243528760217,129.0,102.0,72.0,268.0,340.0,27.0,811.0,810.0,27.0,14.0,13.0,0.5185185185185185,51.663813070437165,1282.7333442840134,18.0,15.0,3.0,0.8333333333333334,647.3466007262848,6354.980118509651,23.0,11.0,12.0,0.4782608695652174,1584.8349475535558,32229.907516384745,10.0,2.0,8.0,0.2,846.457606806332,12155.749949990552,84.0,42.0,42.0,0.5,37.63147202638253,6281.45062402901,0.0,0.0,0.0,0.0,136605.0,136632.0,136734.0,136751.0,136763.0,136786.0,136796.0,136806.0,136991.0,137074.0,0.04083814071047184,-0.25938692608054964,0.04861454120715526,-0.2734671201266312,0.006229753170581285
109,109,137465.40207596452,1388.774148495059,12.178204645449274,137592.85752302626,-2555.979746404266,9.631150357337113,137620.2516898245,32412.484052526852,9.499199037546084,137644.30135639946,-2984.0624967384792,5.376743995627981,137879.13140052196,6096.164985610296,34.68573214289295,0.9931120787847414,130.0,102.0,71.0,269.0,340.0,28.0,846.0,847.0,29.0,15.0,14.0,0.5172413793103449,52.442264291898255,1419.1457572435752,17.0,13.0,4.0,0.7647058823529411,579.608630638061,5133.996419287032,23.0,11.0,12.0,0.4782608695652174,1582.5293345889218,32353.004304327373,10.0,2.0,8.0,0.2,845.8897811371124,12097.828196624883,86.0,43.0,43.0,0.5,40.90310411469936,6429.391355215501,0.0,0.0,0.0,0.0,137451.0,137479.0,137581.0,137597.0,137609.0,137632.0,137642.0,137652.0,137838.0,137921.0,0.03776154988824292,-0.2267657368777864,0.048824685328786116,-0.2834691907631469,0.006709645196816223
110,110,138282.70439135484,1340.1711766525534,9.415604776373812,138411.54796540082,-2747.070407080714,12.156784422098973,138437.86960862816,31928.63181160725,9.611228303769844,138462.30135639946,-3077.8654037343613,5.880140026429132,138696.6542036247,5899.2351066901165,33.05133727597553,0.9923446814182844,128.0,103.0,72.0,268.0,340.0,25.0,818.0,817.0,25.0,13.0,12.0,0.52,59.27434856868078,1311.1516493900017,18.0,15.0,3.0,0.8333333333333334,660.5309954159978,6350.8446093989205,24.0,12.0,12.0,0.5,1556.2548511007694,31302.834828828218,11.0,2.0,9.0,0.1818181818181818,812.1230949161442,11925.398410513928,84.0,42.0,42.0,0.5,36.97240739537535,6102.6531673445,0.0,0.0,0.0,0.0,138270.0,138295.0,138398.0,138415.0,138426.0,138450.0,138460.0,138470.0,138656.0,138738.0,0.04422893851271655,-0.2404492413858216,0.048741670494474885,-0.26385919732903157,0.006267322242072745
111,111,139072.28664235308,1458.8139646528557,13.656744609084765,139199.35640403774,-2615.40893868367,8.129791755631038,139226.7141622691,32189.832060285884,9.453034730922608,139251.30135639946,-2800.910022724566,5.109565842396831,139482.65791026963,6070.729516301004,35.37544915156448,0.9939512955439974,132.0,101.0,70.0,268.0,338.0,31.0,789.0,789.0,32.0,16.0,16.0,0.5,50.06545643261895,1484.169085488258,16.0,11.0,5.0,0.6875,555.4657167570955,4590.560702088094,24.0,12.0,12.0,0.5,1566.46784756873,31164.02025634271,10.0,3.0,7.0,0.3,806.7428521822992,11382.517303413866,86.0,43.0,43.0,0.5,38.56905813074051,6385.037991280626,0.0,0.0,0.0,0.0,139056.0,139087.0,139188.0,139204.0,139215.0,139239.0,139249.0,139258.0,139441.0,139526.0,0.03431928789119639,-0.21238197535436285,0.04866343647382228,-0.288028835498809,0.006353282258281419
112,112,139861.72922660527,1357.7328871687546,10.84414506536713,139988.3724427279,-2805.7398650063906,10.553621459754726,140015.24003802473,32137.976649838867,9.61485681076134,140039.30135639946,-3067.974184480277,5.580870942843698,140273.40481406575,6105.367342276437,32.449329776195526,0.9934561993991996,127.0,100.0,72.0,266.0,338.0,27.0,790.0,789.0,27.0,14.0,13.0,0.5185185185185185,54.66373022603943,1346.4204483040164,17.0,13.0,4.0,0.7647058823529411,585.4353091719536,4883.04836412286,23.0,11.0,12.0,0.4782608695652174,1563.9958107212146,32177.871196344007,11.0,2.0,9.0,0.1818181818181818,843.323403326552,12139.39688191806,80.0,39.0,41.0,0.4875,41.6379478764827,6439.024363643947,0.0,0.0,0.0,0.0,139848.0,139875.0,139975.0,139992.0,140004.0,140027.0,140037.0,140047.0,140235.0,140313.0,0.04026103421566837,-0.2086563036272859,0.04866503662510615,-0.2748795630656238,0.006819892324604606
113,113,140694.73551004156,1529.9933582546153,12.956725725533984,140821.33026632082,-2477.559357368995,8.755222521932756,140848.9222511975,32412.781032544088,9.491945760098956,140873.30135639946,-2972.2249034061574,5.426183680551407,141107.3276779909,6154.791857412262,34.7443919363742,0.9935304109493568,130.0,102.0,71.0,268.0,339.0,28.0,833.0,833.0,30.0,16.0,14.0,0.5333333333333333,55.9635696400135,1512.677672860444,16.0,11.0,5.0,0.6875,537.7687916077055,4547.507422628985,24.0,12.0,12.0,0.5,1578.3322225978416,31716.33492410963,10.0,2.0,8.0,0.2,825.69387438137,11887.848240132324,85.0,42.0,43.0,0.4941176470588235,42.28613844329069,6523.089076726758,0.0,0.0,0.0,0.0,140680.0,140708.0,140810.0,140826.0,140837.0,140861.0,140871.0,140881.0,141066.0,141149.0,0.036577655280710226,-0.21705586589004291,0.04869474856270788,-0.2778032959198775,0.006870441669341779
114,114,141601.8109378533,1555.3529628278716,12.258876724350904,141728.0786873471,-2594.8193415802584,9.2522849400316,141755.39085158976,32228.848466796808,9.556244468934448,141779.30135639946,-2955.851875572921,5.519854184384914,142016.5002345189,6101.616242771942,34.51182365143993,0.994121183286096,129.0,100.0,71.0,272.0,343.0,29.0,907.0,907.0,29.0,15.0,14.0,0.5172413793103449,56.48658426734961,1531.6274950431334,17.0,13.0,4.0,0.7647058823529411,571.8469215009831,5026.409275628263,23.0,11.0,12.0,0.4782608695652174,1568.3140522968863,32422.21137033127,11.0,2.0,9.0,0.1818181818181818,845.2189514951821,12154.121952805815,84.0,42.0,42.0,0.5,34.101601411333164,6325.4308277318705,0.0,0.0,0.0,0.0,141587.0,141616.0,141716.0,141732.0,141744.0,141767.0,141777.0,141787.0,141975.0,142059.0,0.036317534101486706,-0.22038024471974427,0.04866180850093399,-0.2859476682441527,0.0055889456259610535
115,115,142444.05615844871,1301.1937142467098,11.161356672876613,142572.54796540082,-2847.2678143831554,12.59756301928117,142598.5287427962,31896.853902627645,9.615199315986429,142622.87669549932,-3153.060641836541,5.780657997830567,142857.8830818347,5850.141042902805,33.004954190978026,0.9917188475575668,130.0,101.0,72.0,267.0,339.0,29.0,842.0,843.0,29.0,15.0,14.0,0.5172413793103449,48.29065064098099,1281.3754081194538,19.0,16.0,3.0,0.8421052631578947,683.0736899617418,6602.741929801289,23.0,12.0,11.0,0.5217391304347826,1556.388745877082,30655.973817756618,11.0,3.0,8.0,0.2727272727272727,792.5783811295538,11656.866748764747,83.0,42.0,41.0,0.5060240963855421,45.07808711562557,6215.7028192674,0.0,0.0,0.0,0.0,142429.0,142458.0,142559.0,142576.0,142587.0,142610.0,142620.0,142631.0,142818.0,142898.0,0.037112576023269166,-0.23990496661787536,0.04879442814731229,-0.2513679472615237,0.007705470139102509
116,116,143229.0810020542,1318.7376733403833,11.18248587716372,143357.54796540082,-2577.3594867096426,12.067872678139404,143383.80005984713,32183.420061211786,9.56734842071207,143408.30135639946,-3155.320147840968,5.465905560019497,143641.14766602166,6010.764461089586,34.0161486834237,0.9929209233631284,130.0,101.0,72.0,266.0,338.0,29.0,785.0,785.0,29.0,15.0,14.0,0.5172413793103449,48.62719384965655,1292.0333604177383,18.0,15.0,3.0,0.8333333333333334,663.4435444146067,6591.73850054789,24.0,12.0,12.0,0.5,1567.204941755414,31380.267674840667,11.0,3.0,8.0,0.2727272727272727,828.0299470555121,11886.33570097718,84.0,42.0,42.0,0.5,37.35061550196645,6273.7073453907,0.0,0.0,0.0,0.0,143214.0,143243.0,143344.0,143361.0,143372.0,143396.0,143406.0,143416.0,143601.0,143682.0,0.03687404616756197,-0.25741211027631405,0.04869603475251054,-0.26242343352134734,0.00621395427216521
117,117,144045.8809244501,1261.1922289896386,10.398438060865727,144173.54796540082,-2708.270174764338,13.370845595877729,144200.01351185844,32554.576501375417,9.631679442555772,144224.30135639946,-3140.8435691988775,5.740701985215397,144458.6599800947,5896.110293884912,33.658353252710825,0.9917994470847532,128.0,101.0,72.0,268.0,340.0,27.0,817.0,816.0,27.0,14.0,13.0,0.5185185185185185,49.87692533456997,1221.9612230102562,20.0,16.0,4.0,0.8,659.4198221551026,6306.556741878489,23.0,11.0,12.0,0.4782608695652174,1574.034884704842,32062.59491927209,11.0,2.0,9.0,0.1818181818181818,838.964939905282,12196.55552565426,84.0,42.0,42.0,0.5,41.55731610238612,6207.805907688326,0.0,0.0,0.0,0.0,144032.0,144059.0,144160.0,144177.0,144189.0,144212.0,144222.0,144232.0,144418.0,144500.0,0.03954744105466553,-0.24348376624296075,0.04835064847605496,-0.26711452557927723,0.007048259620497067
118,118,144930.29161885433,1312.3350425434896,10.896118583740096,145057.65109276213,-2633.1641404002,9.614532707127736,145084.83666683562,32402.62559228786,9.52427893054438,145108.87669549932,-3160.3547878976046,5.5759484672189465,145345.4226223139,6028.967397730348,35.13984676214047,0.9916892172143108,129.0,102.0,72.0,270.0,342.0,27.0,884.0,885.0,27.0,14.0,13.0,0.5185185185185185,52.707823310840695,1327.2985937020385,17.0,13.0,4.0,0.7647058823529411,609.7902111202943,5562.520355903742,24.0,12.0,12.0,0.5,1589.1303205203014,31607.538342164444,11.0,3.0,8.0,0.2727272727272727,823.8745182034359,11963.347614528468,87.0,43.0,44.0,0.4942528735632184,44.08862227768426,6388.214688119382,0.0,0.0,0.0,0.0,144916.0,144943.0,145045.0,145062.0,145073.0,145097.0,145106.0,145117.0,145304.0,145387.0,0.04016338938011251,-0.2315807821337016,0.04904325780619858,-0.2606905153049321,0.0073127982570086155
119,119,145822.44431735214,1237.321109219736,10.409837872269096,145950.54796540082,-2705.3495565357557,15.287766305672667,145976.60605114582,32348.34462848957,9.616838571576762,146000.87669549932,-3125.8610258682343,5.830189204298213,146238.80008909255,5780.99507257296,33.44093860975232,0.992111908271577,127.0,100.0,73.0,272.0,345.0,27.0,893.0,892.0,27.0,13.0,14.0,0.4814814814814814,49.036170949062694,1241.1181969959264,19.0,16.0,3.0,0.8421052631578947,677.7991723935995,6554.783186644767,24.0,12.0,12.0,0.5,1561.7716082858456,30959.180862814916,11.0,3.0,8.0,0.2727272727272727,798.9411465149697,11788.015034912542,84.0,42.0,42.0,0.5,40.39495256855662,6044.780224158752,0.0,0.0,0.0,0.0,145809.0,145836.0,145936.0,145954.0,145965.0,145989.0,145998.0,146009.0,146198.0,146281.0,0.03963091762007138,-0.2505403306408701,0.04827979997809145,-0.25559074440715324,0.006987543158478761
120,120,146637.40277526202,1212.188438094941,10.775526794576404,146766.54796540082,-2795.1362409226217,15.287792405184318,146792.54739958953,32232.077068243132,9.656846907929486,146816.87669549932,-3227.091398729379,5.966115846679269,147051.60685545902,5771.730465674462,32.71708390384534,0.9908083522734218,129.0,101.0,73.0,267.0,340.0,28.0,814.0,816.0,28.0,14.0,14.0,0.5,45.52084774436518,1224.8637488945683,20.0,17.0,3.0,0.85,678.4920039304154,6617.243999149875,24.0,12.0,12.0,0.5,1554.1875980182074,30748.45427771695,12.0,3.0,9.0,0.25,799.0305092559812,11839.034463952532,83.0,42.0,41.0,0.5060240963855421,40.423807439348096,6018.314924851648,0.0,0.0,0.0,0.0,146623.0,146651.0,146752.0,146770.0,146781.0,146805.0,146814.0,146825.0,147012.0,147092.0,0.03755261666734351,-0.24274022639642712,0.048218661016713724,-0.24760083013781017,0.0070037586958982025
121,121,147472.39503634698,1150.9927007219094,11.006830687477576,147600.54796540082,-2774.3510638423168,15.287792405183902,147626.85739516965,32587.121784577364,9.617748168726592,147651.30135639946,-3289.0301742245965,6.116144228911736,147887.38754205755,5930.110792032639,32.359730778836685,0.9903414386823092,128.0,100.0,74.0,268.0,342.0,28.0,835.0,834.0,28.0,14.0,14.0,0.5,43.50589206697128,1153.5571588643986,21.0,17.0,4.0,0.8095238095238095,662.6478816611366,6302.369140256311,24.0,12.0,12.0,0.5,1575.37506088435,31602.61800149273,12.0,3.0,9.0,0.25,829.3645126258049,12322.074318707037,81.0,40.0,41.0,0.4938271604938271,39.85247598444885,6173.243439536137,0.0,0.0,0.0,0.0,147458.0,147486.0,147586.0,147604.0,147615.0,147639.0,147649.0,147660.0,147848.0,147928.0,0.037798582075876004,-0.23884788421239211,0.04834348584998181,-0.25216080993277334,0.006720359430382376
122,122,148330.87061727975,1387.8581793802268,12.575077229800538,148459.54796540082,-2403.029335676576,13.179359732265343,148485.80674452404,32790.67808763128,9.578596616823106,148510.30135639946,-2980.4250975476966,5.440136249085472,148745.95056851686,6300.3222318533835,34.75450120149043,0.992763436413737,130.0,101.0,71.0,271.0,342.0,29.0,858.0,859.0,29.0,15.0,14.0,0.5172413793103449,50.49402229606516,1383.1028523104662,19.0,16.0,3.0,0.8421052631578947,663.6235058236184,6867.916334420862,24.0,12.0,12.0,0.5,1585.822475481812,31904.56079025376,10.0,2.0,8.0,0.2,826.8823814803532,11917.159025140443,86.0,43.0,43.0,0.5,41.38012404507169,6636.958686333659,0.0,0.0,0.0,0.0,148316.0,148345.0,148446.0,148463.0,148474.0,148498.0,148508.0,148517.0,148705.0,148788.0,0.03638269604651837,-0.2761612169985325,0.04836199090618953,-0.277437732678038,0.0065679377216391645
123,123,149171.2694756743,1064.1969485104105,10.49796246813762,149298.54796540082,-2750.8119781451023,14.65403122979799,149324.65059197624,32102.985987601245,9.611332110890642,149348.87669549932,-3191.5273885331753,5.945042295443696,149583.17643541167,6096.330094986698,33.567278378267495,0.9903068458520432,127.0,99.0,73.0,268.0,341.0,28.0,841.0,839.0,28.0,14.0,14.0,0.5,41.11383667132949,1063.308245075872,19.0,16.0,3.0,0.8421052631578947,669.4952568878629,6459.106291486649,24.0,12.0,12.0,0.5,1558.2299997105426,30862.383559034777,12.0,3.0,9.0,0.25,800.2846391449868,11842.765268607423,86.0,43.0,43.0,0.5,36.00685643138616,6286.006676658939,0.0,0.0,0.0,0.0,149157.0,149185.0,149284.0,149302.0,149313.0,149337.0,149346.0,149357.0,149543.0,149625.0,0.03863367276976109,-0.2433809588612122,0.048538475527240964,-0.25075286585987827,0.005906316729961245
124,124,149971.88588238548,1177.82173718527,9.842279956932693,150101.54796540082,-2776.196709763423,13.51805152210239,150127.62915776626,32220.335585867128,9.588786160997168,150151.87669549932,-3102.8628232873643,5.599201550153677,150385.75194726826,6088.186485429995,32.33812151781867,0.9917953800544356,129.0,104.0,72.0,266.0,338.0,25.0,801.0,803.0,27.0,14.0,13.0,0.5185185185185185,48.83162172677233,1145.108257975424,19.0,16.0,3.0,0.8421052631578947,678.1929327927281,6507.692829196899,24.0,12.0,12.0,0.5,1567.8529767381517,31075.70800534605,11.0,3.0,8.0,0.2727272727272727,803.6561210486143,11716.223462638436,81.0,41.0,40.0,0.5061728395061729,43.52274668156618,6389.069935544867,0.0,0.0,0.0,0.0,149959.0,149984.0,150088.0,150105.0,150116.0,150140.0,150149.0,150160.0,150346.0,150426.0,0.041459263473493844,-0.24428850103007332,0.04866035527655591,-0.25900472138731917,0.007148721016631649
125,125,150846.10415387098,1183.209667050317,10.16575739096088,150975.54796540082,-2657.5216664325685,15.28779240518434,151001.83151372892,32760.579274470692,9.589483884597644,151026.30135639946,-3312.1022881540334,5.9475009480347625,151263.00530842145,6150.0114735036,32.16652070638429,0.9908164423369732,128.0,103.0,73.0,269.0,342.0,25.0,875.0,874.0,25.0,13.0,12.0,0.52,52.01283537997654,1195.7996342468666,20.0,17.0,3.0,0.85,663.5222471522997,6450.639091251363,24.0,12.0,12.0,0.5,1584.6068755408912,31701.76552194792,12.0,3.0,9.0,0.25,835.2336653866446,12332.597481246214,80.0,40.0,40.0,0.5,44.203250688004545,6447.411981356128,0.0,0.0,0.0,0.0,150833.0,150858.0,150961.0,150979.0,150990.0,151014.0,151024.0,151034.0,151224.0,151303.0,0.043959102793372166,-0.24967707903695308,0.048369317961838555,-0.25217628947448767,0.007187507027986468
126,126,151784.27605099388,1502.270269267398,15.509747009699929,151912.54796540082,-2255.3532495099935,7.018484809050794,151939.48927531065,32971.333648566535,9.470182091682982,151963.7260172996,-2521.5281650866336,4.786688544487772,152200.8626022976,6406.760155377067,35.87292825424427,0.9940734127158404,134.0,101.0,68.0,274.0,342.0,33.0,936.0,938.0,35.0,17.0,18.0,0.4857142857142857,49.98846492032854,1567.8390783859008,15.0,12.0,3.0,0.8,635.1447462108058,6595.969793120261,23.0,11.0,12.0,0.4782608695652174,1584.8870868526294,33226.72422784404,8.0,2.0,6.0,0.25,787.9742025266265,10997.95240129617,88.0,44.0,44.0,0.5,44.34600107017377,6827.512317450399,0.0,0.0,0.0,0.0,151768.0,151801.0,151902.0,151916.0,151928.0,151951.0,151962.0,151970.0,152159.0,152244.0,0.0332752807154375,-0.2816165256368596,0.048068637554839526,-0.3124986718121999,0.006921751399255214
127,127,152655.71432857914,1146.3576690798282,9.382653598304753,152784.54796540082,-2927.664990047573,15.28779240518434,152810.41188193817,32313.102069177912,9.597264809286711,152834.87669549932,-3173.3366686410136,5.772505876350173,153071.72246095058,5941.418853868702,32.596468177793966,0.9902485624330788,127.0,101.0,73.0,269.0,342.0,26.0,874.0,871.0,26.0,13.0,13.0,0.5,46.90007743818928,1104.7414958847585,20.0,17.0,3.0,0.85,694.06637631723,6526.988798465469,23.0,11.0,12.0,0.4782608695652174,1559.080519667746,32301.414949087335,11.0,3.0,8.0,0.2727272727272727,790.3769291637843,11652.230298097013,83.0,42.0,41.0,0.5060240963855421,36.8006310528974,6170.043401730889,0.0,0.0,0.0,0.0,152643.0,152669.0,152770.0,152788.0,152799.0,152822.0,152832.0,152843.0,153031.0,153112.0,0.04091225513921461,-0.2370716522131693,0.048249175097146935,-0.24906809824948845,0.006193912928548203
128,128,153503.68642887467,1158.5682923001812,9.964263202576667,153632.54796540082,-2617.4687827451944,14.31588931585244,153659.01496670104,32362.115913145048,9.587161720175937,153683.30135639946,-3086.1738760836984,5.678484006811162,153918.9882145175,6207.335572675861,33.597525823027425,0.9902892757747797,129.0,103.0,72.0,269.0,341.0,26.0,847.0,848.0,26.0,14.0,12.0,0.5384615384615384,48.433341696070705,1125.7366201442633,19.0,15.0,4.0,0.7894736842105263,650.1510896342625,6177.0232371924885,23.0,11.0,12.0,0.4782608695652174,1564.838225911855,31790.545123277756,11.0,2.0,9.0,0.1818181818181818,829.7479322253881,12080.69300009124,84.0,42.0,42.0,0.5,42.79665697828029,6543.980620927399,0.0,0.0,0.0,0.0,153490.0,153516.0,153619.0,153636.0,153648.0,153671.0,153681.0,153691.0,153879.0,153960.0,0.04180447714472906,-0.24838924304280935,0.048354014617327266,-0.26885974852406047,0.006894529299602774
129,129,154385.207502476,1406.436766742416,13.136161414544006,154513.2040470048,-2619.032674906513,9.165337075200735,154540.8934551929,32591.498363565257,9.486221049908078,154565.30135639946,-2910.9195089867685,5.344137014155078,154802.08769703624,6194.036717049183,34.748540679331,0.9923274618613924,131.0,101.0,71.0,272.0,343.0,30.0,881.0,882.0,30.0,15.0,15.0,0.5,50.01995701929871,1439.7576211531932,17.0,12.0,5.0,0.7058823529411765,546.4621356508628,4439.517222547335,24.0,12.0,12.0,0.5,1589.5509115667871,31900.905820803655,10.0,2.0,8.0,0.2,825.5455251781299,11836.441484459,86.0,43.0,43.0,0.5,41.162617197443254,6531.555607163695,0.0,0.0,0.0,0.0,154370.0,154400.0,154501.0,154518.0,154529.0,154553.0,154563.0,154572.0,154761.0,154844.0,0.0355650237551417,-0.20865036961418165,0.04877194947697712,-0.28360300675764316,0.006645523602425945
130,130,155277.57691416188,1208.286568451036,10.766681750410491,155405.97262630097,-2739.585107852237,13.04359220060218,155432.52503012848,32251.33850199747,9.585211860444062,155456.87669549932,-3102.7150846662694,5.642434115694488,155694.8239363189,6123.805462821373,34.02412671534838,0.9909861575538276,128.0,101.0,73.0,272.0,345.0,27.0,893.0,892.0,27.0,14.0,13.0,0.5185185185185185,47.81155053571171,1174.0504529422178,19.0,15.0,4.0,0.7894736842105263,618.9958922290391,5535.395244803668,23.0,12.0,11.0,0.5217391304347826,1571.3880757217491,30930.225259623538,11.0,3.0,8.0,0.2727272727272727,797.8928429804805,11668.766025468847,87.0,44.0,43.0,0.5057471264367817,38.44692341969546,6374.376678348049,0.0,0.0,0.0,0.0,155264.0,155291.0,155392.0,155410.0,155421.0,155444.0,155454.0,155465.0,155653.0,155737.0,0.03956971117952902,-0.22594512229419866,0.04872318944605744,-0.25715955903385906,0.006278273151084409
131,131,156089.820628775,1267.2940063746798,11.677096960312785,156215.97262630097,-2684.9113811855973,11.605848619927349,156242.45034327716,32143.356586209757,9.595983180556836,156266.87669549932,-3037.3247601139883,5.548126262319279,156501.29050648265,6080.799095943926,33.91025104382495,0.993045826352018,128.0,100.0,71.0,269.0,340.0,28.0,811.0,810.0,29.0,15.0,14.0,0.5172413793103449,46.35350631208211,1228.618055882047,18.0,14.0,4.0,0.7777777777777778,627.3644372140559,5765.949491214125,23.0,11.0,12.0,0.4782608695652174,1560.7103806761847,32494.27805708814,11.0,3.0,8.0,0.2727272727272727,791.1346578805019,11499.78778518781,85.0,42.0,43.0,0.4941176470588235,41.8362611124731,6389.694481151713,0.0,0.0,0.0,0.0,156075.0,156103.0,156203.0,156220.0,156231.0,156254.0,156264.0,156274.0,156461.0,156543.0,0.03657675809947573,-0.2336629959596751,0.04855467961133112,-0.2604708815697441,0.006880059750761892
132,132,156868.99958508884,1516.8627438778608,14.461387078713328,156994.9180397133,-2579.934572832568,9.334752104313129,157022.480645263,32088.324181354343,9.52266318434732,157046.87669549932,-2826.627281804719,5.3993458102988265,157280.74205748725,6192.93246518676,34.39513668642384,0.9940237080396164,130.0,98.0,71.0,268.0,339.0,32.0,780.0,780.0,32.0,16.0,16.0,0.5,50.210301511712615,1547.174429239372,17.0,13.0,4.0,0.7647058823529411,564.6890703658341,4869.28231034013,23.0,11.0,12.0,0.4782608695652174,1557.7821103807153,32434.96469990827,10.0,3.0,7.0,0.3,779.1615260305196,11278.563103429644,85.0,43.0,42.0,0.5058823529411764,40.68116994478605,6521.824857038412,0.0,0.0,0.0,0.0,156853.0,156885.0,156983.0,156999.0,157011.0,157034.0,157044.0,157054.0,157240.0,157322.0,0.03310141389810257,-0.21887728328933914,0.04854669572572756,-0.2756506070135457,0.006568967153036639
133,133,157686.14857735415,1355.5351101046276,12.031126155288572,157813.2585492434,-2621.727756997789,9.952072901483294,157840.93960019405,32485.129615662547,9.505436047347496,157865.30135639946,-2933.887831674184,5.367767046077008,158100.03160066993,6418.101954936059,34.44437245616149,0.9917295219170073,130.0,101.0,71.0,269.0,340.0,29.0,816.0,818.0,30.0,15.0,15.0,0.5,49.78125113383703,1342.6185139434265,17.0,12.0,5.0,0.7058823529411765,538.8978152213651,4314.2303426052895,24.0,12.0,12.0,0.5,1585.2941636423152,31910.620122970104,10.0,2.0,8.0,0.2,827.6709317205642,11867.77181935374,83.0,41.0,42.0,0.4939759036144578,45.83408609737814,6849.488458682421,0.0,0.0,0.0,0.0,157671.0,157700.0,157801.0,157818.0,157829.0,157853.0,157863.0,157872.0,158060.0,158141.0,0.03672442769113862,-0.20555063880411117,0.04880061069166777,-0.28210721718296394,0.007141377064309158
134,134,158547.5563577443,1102.3923974315396,11.02015030419037,158675.07072712015,-2697.404295880219,10.045778500391451,158702.21725995184,32096.23280484893,9.536931579423996,158726.30135639946,-2997.6149576832017,5.353110436419116,158962.0425594765,6156.516156904583,33.64172744608262,0.9916308840523756,130.0,102.0,71.0,269.0,340.0,28.0,861.0,862.0,28.0,15.0,13.0,0.5357142857142857,40.86375577780782,1047.776134496507,17.0,13.0,4.0,0.7647058823529411,582.3235763677949,4952.627435402979,23.0,11.0,12.0,0.4782608695652174,1566.3571406500728,32060.3158195189,10.0,2.0,8.0,0.2,840.8926553559033,11969.90303409493,83.0,41.0,42.0,0.4939759036144578,43.32059796556926,6511.029533846196,0.0,0.0,0.0,0.0,158533.0,158561.0,158663.0,158679.0,158691.0,158714.0,158724.0,158734.0,158922.0,159003.0,0.03706824890394395,-0.21588294244848108,0.04880189990438491,-0.28052056959503996,0.007036544185299483
135,135,159349.85264642976,1242.8873817029787,12.597397971219868,159476.97262630097,-2694.30898213289,11.63037941264352,159503.6129703761,32156.26820673063,9.629736491977535,159527.87669549932,-3185.8175642206875,5.608385128547135,159761.11458177745,6323.231303600176,33.60662313159918,0.991942779080835,129.0,98.0,73.0,266.0,339.0,31.0,803.0,801.0,32.0,16.0,16.0,0.5,42.06670804522801,1218.7818097213476,18.0,14.0,4.0,0.7777777777777778,618.2806367351628,5654.426755696995,24.0,12.0,12.0,0.5,1565.4521269241932,31053.084484621133,11.0,3.0,8.0,0.2727272727272727,810.9377041429876,11753.363585595758,82.0,40.0,42.0,0.4878048780487805,46.81218675793619,6735.622716424792,0.0,0.0,0.0,0.0,159334.0,159365.0,159463.0,159481.0,159492.0,159516.0,159525.0,159536.0,159722.0,159802.0,0.03384595311249284,-0.22947651543874328,0.04868264304987133,-0.25454618407860985,0.007403206447830454
136,136,160168.3370392002,1313.657208235765,11.88029848417105,160296.6094448557,-2579.6922375653703,9.99142105190322,160323.93946273066,32290.626211647064,9.535098384520488,160348.30135639946,-2910.08247680016,5.333473984361049,160581.5342490071,6625.5415857127355,34.310791339281295,0.9917774269782867,130.0,102.0,72.0,267.0,339.0,28.0,820.0,820.0,28.0,14.0,14.0,0.5,51.28038334045993,1349.3983373872888,17.0,13.0,4.0,0.7647058823529411,599.1962862485374,5471.360827854635,24.0,12.0,12.0,0.5,1571.889269416958,31752.82201028059,10.0,2.0,8.0,0.2,824.953937944179,11758.240368882854,84.0,42.0,42.0,0.5,43.39040748906082,6997.353293870694,0.0,0.0,0.0,0.0,160154.0,160182.0,160284.0,160301.0,160312.0,160336.0,160346.0,160356.0,160541.0,160623.0,0.03903635059356864,-0.23227433006273623,0.04867942972409701,-0.2834812911733257,0.006548960100503715
