Unnamed: 0,cycle,p_center,p_height,p_width,q_center,q_height,q_width,r_center,r_height,r_width,s_center,s_height,s_width,t_center,t_height,t_width,r_squared,pr_interval,pr_segment,qrs_duration,st_segment,qt_interval,p_duration,pp_interval,rr_interval,fwhm_p,rise_time_p,decay_time_p,rise_decay_symmetry_p,sharpness_deriv_p,sharpness_diff_p,fwhm_q,rise_time_q,decay_time_q,rise_decay_symmetry_q,sharpness_deriv_q,sharpness_diff_q,fwhm_r,rise_time_r,decay_time_r,rise_decay_symmetry_r,sharpness_deriv_r,sharpness_diff_r,fwhm_s,rise_time_s,decay_time_s,rise_decay_symmetry_s,sharpness_deriv_s,sharpness_diff_s,fwhm_t,rise_time_t,decay_time_t,rise_decay_symmetry_t,sharpness_deriv_t,sharpness_diff_t,Average_Heart_Rate,SDNN,RMSSD,NN50,p_on,p_off,q_on,q_off,r_on,r_off,s_on,s_off,t_on,t_off,sharpness_deriv_p_norm,sharpness_deriv_q_norm,sharpness_deriv_r_norm,sharpness_deriv_s_norm,sharpness_deriv_t_norm
0,0,0.0,0.0,0.0,0.0,0.0,0.0,0.0,0.0,0.0,0.0,0.0,0.0,0.0,0.0,0.0,0.0,0.0,0.0,0.0,0.0,0.0,0.0,0.0,0.0,0.0,0.0,0.0,0.0,0.0,0.0,0.0,0.0,0.0,0.0,0.0,0.0,0.0,0.0,0.0,0.0,0.0,0.0,0.0,0.0,0.0,0.0,0.0,0.0,0.0,0.0,0.0,0.0,0.0,0.0,70.4910135215194,86.41111311280642,127.6492441176583,13.0,,,,,,,,,,,,,,,
1,1,1114.770227845294,3390.4082168590303,48.50015758352509,1169.1549254154847,-2890.7235849066537,35.6715156120968,1280.4717700874237,47328.03766133912,15.113030041408452,1444.2561832913857,-4098.540693496455,96.65184532067056,1587.73982700432,4668.888138358406,76.4389620259217,0.9818464918481656,98.0,16.0,354.0,111.0,465.0,82.0,,,82.0,63.0,19.0,0.7682926829268293,45.37450154623453,2728.714093167753,86.0,19.0,67.0,0.2209302325581395,19.420725049740213,1301.313405658258,37.0,18.0,19.0,0.4864864864864865,1157.63739610876,46094.06209181045,183.0,123.0,60.0,0.6721311475409836,14.304603918315358,3359.9284198235778,75.0,45.0,30.0,0.6,53.73115008456201,3574.556299005357,0.0,0.0,0.0,0.0,1052.0,1134.0,1150.0,1236.0,1262.0,1299.0,1320.0,1504.0,1545.0,1615.0,0.013383197138505859,-0.006718291970613074,0.024459864666106786,-0.003490170035645574,0.011508339564428724
2,2,1920.0350392719376,3865.268059098923,29.002942678205027,2029.685079606336,-2009.862804096774,82.11050988151212,2096.046776047984,48183.77440119352,15.33539447256059,2239.0904116588067,-3748.945126817202,86.20645475635048,2391.8892613666794,4697.508932887385,35.974610786794834,0.9878887907139532,88.0,16.0,358.0,107.0,465.0,72.0,814.0,816.0,74.0,46.0,28.0,0.6216216216216216,48.81694176324634,3522.209025489743,91.0,66.0,25.0,0.7252747252747253,14.662799287645308,1690.2794226990568,37.0,18.0,19.0,0.4864864864864865,1148.616648570693,45055.903368825675,189.0,106.0,83.0,0.5608465608465608,11.81203114978704,3629.1795972900527,65.0,28.0,37.0,0.4307692307692308,51.52848424158959,4447.105069713558,0.0,0.0,0.0,0.0,1876.0,1948.0,1964.0,2055.0,2078.0,2115.0,2133.0,2322.0,2364.0,2429.0,0.012629639398056811,-0.007295422979995256,0.0238382456095478,-0.0031507612808980424,0.010969321182305222
3,3,2769.960342180057,3113.567443166143,21.506927438951504,2875.356103797408,-1903.371750739398,45.86337721555302,2941.9743910457614,48583.496473050254,15.291443138547905,3060.531872450718,-4250.059856916756,97.74236327546016,3238.388540453591,4490.9425773708435,31.36617321041211,0.9903675079214844,64.0,16.0,360.0,102.0,462.0,48.0,849.0,846.0,49.0,24.0,25.0,0.4897959183673469,40.670381767405395,3086.754118128937,91.0,64.0,27.0,0.7032967032967034,14.072939321222778,2101.6268373096927,37.0,18.0,19.0,0.4864864864864865,1157.8041737389028,45043.453801430915,194.0,83.0,111.0,0.4278350515463917,13.10531497040174,4092.169506949789,61.0,26.0,35.0,0.4262295081967213,42.63949660323512,4003.1064166372144,0.0,0.0,0.0,0.0,2747.0,2795.0,2811.0,2901.0,2924.0,2961.0,2978.0,3171.0,3212.0,3273.0,0.013062309556412965,-0.0073936892862657535,0.02383122372390691,-0.0030835600936475064,0.009494553953570654
4,4,3640.799447306495,3879.6178479748296,27.3491290122354,3710.164242193952,-1308.1721070897695,72.1004256792723,3814.1579856955423,49644.0965587447,15.33221042775124,3902.712453305328,-3467.961277259214,94.2747198319701,4113.237027847032,4346.303835095296,29.259256601215533,0.9912386449073032,70.0,20.0,355.0,105.0,460.0,50.0,871.0,872.0,52.0,26.0,26.0,0.5,39.86933513283713,3234.968171676668,89.0,26.0,63.0,0.2921348314606741,15.812886013529717,1810.801011649722,37.0,18.0,19.0,0.4864864864864865,1169.7933043627054,46346.84208749924,192.0,53.0,139.0,0.2760416666666667,11.398811234202034,3193.983441167135,63.0,30.0,33.0,0.4761904761904761,42.80162253622714,4098.62309652194,0.0,0.0,0.0,0.0,3616.0,3666.0,3686.0,3772.0,3796.0,3833.0,3850.0,4041.0,4083.0,4146.0,0.010276614010745679,-0.012087771882484118,0.02356359336660441,-0.0032868911509907916,0.009847821082045611
5,5,4519.295324776154,3857.304036007793,26.295007805296493,4567.082121096977,-1893.677441325667,53.50727341814519,4693.219046271739,49482.02769160859,15.062261395316035,4804.743523021435,-4120.377245769469,112.47553299285713,4988.875297556495,4462.043996376846,28.81360992667193,0.9939831176096868,64.0,14.0,372.0,94.0,466.0,50.0,874.0,880.0,50.0,28.0,22.0,0.56,34.54322991161751,2462.8155330721065,99.0,13.0,86.0,0.1313131313131313,53.57582851774253,2672.7403400879793,37.0,18.0,19.0,0.4864864864864865,1185.9007888017495,46239.96899025228,200.0,77.0,123.0,0.385,13.69249884102219,3681.401666014528,56.0,24.0,32.0,0.4285714285714285,47.60052910129402,3701.3384388717327,0.0,0.0,0.0,0.0,4491.0,4541.0,4555.0,4653.0,4675.0,4712.0,4728.0,4927.0,4966.0,5021.0,0.008955277984093998,-0.02829195054477537,0.023966293301332525,-0.0033231177691510514,0.010667875336940958
6,6,5354.894646878078,2810.671780275983,23.56056214854398,5467.315166104176,-1724.702398719184,73.89099662505764,5525.793954793129,49793.87031525226,15.290357402690816,5663.111770998907,-3881.4040140723937,87.23025246170181,5823.016236038899,4715.508248295163,31.980581914942498,0.989503660127818,56.0,14.0,365.0,100.0,465.0,42.0,839.0,832.0,43.0,19.0,24.0,0.4418604651162791,44.191142540575555,2637.614014944472,93.0,75.0,18.0,0.8064516129032258,23.541421120680283,1234.5219424789168,37.0,18.0,19.0,0.4864864864864865,1180.171783092119,46027.98754475961,194.0,100.0,94.0,0.5154639175257731,13.641454461828168,3839.431509446236,61.0,27.0,34.0,0.4426229508196721,46.31684822087939,4306.842375983864,0.0,0.0,0.0,0.0,5336.0,5378.0,5392.0,5484.0,5508.0,5545.0,5563.0,5757.0,5796.0,5857.0,0.015722626473389352,-0.013649555504858607,0.023701145856312823,-0.0035145670000777548,0.00982223883027343
7,7,6146.223643142939,3921.9912634415,21.38612160611572,6253.164487904463,-1696.312251825971,67.34572276159243,6311.783572629253,48416.57845353871,15.242688315581276,6455.445128907779,-4022.772152213772,89.8191256003441,6608.97492452783,5155.878882905289,38.3693204031899,0.9840703329931204,59.0,17.0,355.0,105.0,460.0,42.0,789.0,786.0,43.0,21.0,22.0,0.4883720930232558,67.82788466261611,3752.69940819597,87.0,69.0,18.0,0.7931034482758621,23.128162833454113,1312.95666253309,37.0,18.0,19.0,0.4864864864864865,1188.2598289998673,44810.227324832886,190.0,105.0,85.0,0.5526315789473685,7.992193119551939,3691.9623884936886,65.0,29.0,36.0,0.4461538461538462,52.735167316744565,4782.450117124075,0.0,0.0,0.0,0.0,6126.0,6168.0,6185.0,6271.0,6294.0,6330.0,6350.0,6540.0,6580.0,6645.0,0.017294246750335175,-0.013634378227568734,0.024542416398551165,-0.001986737706522542,0.010228162552769043
8,8,6904.418560860427,4039.003266182555,28.680777803844332,6978.917878903023,-1320.8306577074504,53.50727341814519,7070.59613654958,47686.14255889273,15.00649416249748,7235.612881454554,-4603.611213319827,81.34378242088975,7383.013809704751,4465.633274950309,84.08285822851387,0.9804074857656776,65.0,20.0,353.0,104.0,457.0,45.0,759.0,759.0,46.0,21.0,25.0,0.4565217391304347,71.25193951597129,4448.981895402933,79.0,31.0,48.0,0.3924050632911392,12.341970760460162,937.4036415023276,36.0,18.0,18.0,0.5,1195.7476003583763,44940.02768951362,189.0,123.0,66.0,0.6507936507936508,10.28763189566674,3313.881214039721,80.0,50.0,30.0,0.625,68.61844059358314,3452.8723758386873,0.0,0.0,0.0,0.0,6884.0,6929.0,6949.0,7026.0,7053.0,7089.0,7112.0,7302.0,7336.0,7406.0,0.017640971007016473,-0.009344097737617607,0.02507536857026377,-0.0022346873832223475,0.01536589244318247
9,9,7680.056567839362,3860.728476482528,20.41035543857439,7786.164487904463,-1745.199447725365,65.71232972316814,7844.649954249554,47885.384997802976,15.214401182902323,8012.134000739271,-5160.459993726439,93.71292090894472,8147.65218910232,4847.182298614369,73.89099662505764,0.9829521875999904,55.0,15.0,357.0,104.0,461.0,40.0,774.0,774.0,40.0,19.0,21.0,0.475,74.97206886251352,3705.6794426762226,88.0,70.0,18.0,0.7954545454545454,23.49443850384749,1298.7482413920548,36.0,18.0,18.0,0.5,1180.7468710521,44094.878789534414,189.0,128.0,61.0,0.6772486772486772,12.005210912198224,4042.7187774487247,66.0,36.0,30.0,0.5454545454545454,49.28644858559686,4010.295402607996,0.0,0.0,0.0,0.0,7661.0,7701.0,7716.0,7804.0,7827.0,7863.0,7884.0,8073.0,8113.0,8177.0,0.01941915089838689,-0.013462322907831172,0.024657771282537953,-0.0023263838740718726,0.010168061679810566
10,10,8460.032581641413,3951.2706856358,20.068490369488448,8566.739827004318,-1717.3991456281667,65.72274890349087,8625.736763936642,48023.10810843569,15.215050478820238,8795.360946010424,-4709.502874832823,91.6660354129005,8927.720363399787,4824.66574304828,76.4389620259217,0.9858945224392148,56.0,17.0,355.0,108.0,463.0,39.0,780.0,781.0,41.0,20.0,21.0,0.4878048780487805,78.92549006961958,3765.8620753473406,87.0,70.0,17.0,0.8045977011494253,22.91153784451485,1175.8614988535485,37.0,18.0,19.0,0.4864864864864865,1184.8279061646729,44689.07464429238,187.0,130.0,57.0,0.6951871657754011,10.527735073396464,3565.9251291684627,66.0,34.0,32.0,0.5151515151515151,47.13200837713177,4419.939150483566,0.0,0.0,0.0,0.0,8441.0,8480.0,8497.0,8584.0,8608.0,8644.0,8665.0,8852.0,8894.0,8960.0,0.019974711010445408,-0.01334083454206831,0.024672037126154837,-0.002235423855383075,0.009768968647215178
11,11,9239.77834143412,3667.85995963271,15.649315667166436,9344.054747397986,-1753.5844714189593,35.6715156120968,9405.140331319346,49105.805797317706,15.091578491693967,9562.377121716292,-4668.27499977342,98.6639901097093,9710.78494871313,4639.332526761224,68.79506582332952,0.9859380440883864,55.0,16.0,357.0,104.0,461.0,39.0,780.0,779.0,39.0,19.0,20.0,0.4871794871794871,77.47175729728244,3613.022385160022,88.0,68.0,20.0,0.7727272727272727,22.153793203946375,1495.2101322468577,37.0,18.0,19.0,0.4864864864864865,1233.6334567931733,46934.879519268645,189.0,118.0,71.0,0.6243386243386243,11.785573603641902,3798.6863053036145,63.0,36.0,27.0,0.5714285714285714,49.90027251659482,3765.7997749027295,0.0,0.0,0.0,0.0,9221.0,9260.0,9276.0,9364.0,9387.0,9424.0,9444.0,9633.0,9675.0,9737.0,0.021121787131982067,-0.012633433726759707,0.02512194712545696,-0.0025246099692528673,0.010755916336833657
12,12,10011.632493289168,4167.656330417925,18.521582868682657,10113.86313150504,-1637.9951355914652,68.68929172619359,10176.734323716431,54769.56039050005,15.096558827538328,10344.1609414452,-4632.74018321264,95.53085097297388,10487.315166099435,4644.022694775257,73.89099662505764,0.9860348713657676,55.0,14.0,362.0,101.0,463.0,41.0,772.0,772.0,41.0,21.0,20.0,0.5121951219512195,73.30340881946782,3630.52025265014,90.0,69.0,21.0,0.7666666666666667,20.53883705226552,1193.037168829043,37.0,18.0,19.0,0.4864864864864865,1300.1612544267994,50924.34513739862,193.0,129.0,64.0,0.6683937823834197,10.046514927200615,3764.6447701472175,67.0,42.0,25.0,0.6268656716417911,55.373317623314506,3376.6140336936696,0.0,0.0,0.0,0.0,9991.0,10032.0,10046.0,10134.0,10159.0,10196.0,10215.0,10408.0,10446.0,10509.0,0.017588640475093367,-0.012539009796783757,0.02373875643983289,-0.0021685901928205514,0.01192356740323687
13,13,10773.385521113569,4077.499927143682,22.292203225925153,10882.89050520403,-1881.1097496827192,71.3430312241936,10941.978485360003,57194.67613513428,15.196959753149889,11111.965742220777,-4921.068623056406,93.73787610544647,11247.616522503598,5116.878723712513,63.69913502160143,0.9842757895167796,57.0,13.0,364.0,103.0,467.0,44.0,764.0,766.0,45.0,21.0,24.0,0.4666666666666667,61.62121490700862,3910.5299529936274,91.0,74.0,17.0,0.8131868131868132,29.49259912745382,1223.0195328243783,37.0,18.0,19.0,0.4864864864864865,1306.931035718708,53674.65681807933,195.0,133.0,62.0,0.6820512820512821,13.293973973987082,4281.523193491034,69.0,37.0,32.0,0.5362318840579711,46.396225626889965,3588.9188395767364,0.0,0.0,0.0,0.0,10753.0,10797.0,10810.0,10899.0,10924.0,10961.0,10979.0,11174.0,11212.0,11277.0,0.015112499327541308,-0.0156782979474899,0.022850571487297393,-0.0027014404781314314,0.009067290458122785
14,14,11551.931442897265,3996.433213119601,30.29343252683142,11656.13711420547,-1700.804298317827,76.3306519923256,11722.44126092646,53525.90065924798,15.42990730256306,11896.447085547505,-4810.322612973318,92.52037388487342,12029.89050520403,5434.588593014907,71.3430312241936,0.9849353339026652,89.0,14.0,357.0,115.0,472.0,75.0,781.0,780.0,77.0,50.0,27.0,0.6493506493506493,50.48035834038801,3847.7445999655065,86.0,63.0,23.0,0.7325581395348837,15.008920286521167,1123.9880537260583,38.0,18.0,20.0,0.4736842105263157,1193.0770140461782,51231.975574753415,190.0,136.0,54.0,0.7157894736842105,15.31366070304542,3880.792270633865,82.0,41.0,41.0,0.5,43.39050505874835,3949.9933670014702,0.0,0.0,0.0,0.0,11504.0,11579.0,11593.0,11678.0,11704.0,11742.0,11760.0,11950.0,11990.0,12065.0,0.01263135292106714,-0.008824601573129651,0.02228971393945229,-0.003183499722398008,0.007984137955634452
15,15,12362.52727565338,4331.376242431605,26.726081504146368,12462.411096905902,-1653.554382060195,90.98751939522968,12535.10579020095,49469.31791483,15.488584110479485,12689.211106686322,-3889.130152814485,91.07807276095404,12831.98421211821,4817.401337915138,49.7496052956532,0.9887935586340486,62.0,16.0,352.0,114.0,466.0,46.0,808.0,812.0,46.0,21.0,25.0,0.4565217391304347,61.85173452358734,4003.0064148983097,91.0,59.0,32.0,0.6483516483516484,11.090541782082376,1351.673971100994,38.0,18.0,20.0,0.4736842105263157,1125.6355931857556,46371.57691256429,183.0,116.0,67.0,0.6338797814207651,17.73101150912735,3820.5957111402167,68.0,30.0,38.0,0.4411764705882353,50.70189660890116,4563.637090431139,0.0,0.0,0.0,0.0,12342.0,12388.0,12404.0,12493.0,12517.0,12555.0,12573.0,12756.0,12802.0,12870.0,0.014279926531818489,-0.0067070922507335125,0.02275421696987479,-0.0045591201148914426,0.010524740010730305
16,16,13197.102721834515,4207.287618454713,23.07163257131066,13304.411096905902,-2211.419926378845,80.18747240041296,13368.768896728405,48312.25018517556,15.49382219458598,13504.63666659022,-3859.435014370495,87.81605868864904,13665.155975339409,4508.7274448992075,35.10695172352587,0.990253121079468,58.0,17.0,359.0,105.0,464.0,41.0,832.0,834.0,41.0,19.0,22.0,0.4634146341463415,74.25559064842395,3774.504400272811,93.0,69.0,24.0,0.7419354838709677,14.537386070589951,1900.077809775542,37.0,18.0,19.0,0.4864864864864865,1116.2830581944763,44088.78191541653,189.0,99.0,90.0,0.5238095238095238,14.764310245983172,3848.747541866371,62.0,27.0,35.0,0.4354838709677419,48.36847701726718,4298.078296026546,0.0,0.0,0.0,0.0,13178.0,13219.0,13236.0,13328.0,13351.0,13388.0,13406.0,13595.0,13638.0,13700.0,0.017649278438372405,-0.006573779089706687,0.023105590278156903,-0.0038255107783933887,0.010727744714750319
17,17,14044.87087609936,4768.908444169689,26.766884675591538,14148.685079606335,-2167.921921561451,106.58765796896932,14217.18849145075,48538.64887417235,15.340984660889314,14355.74038762053,-3298.5585414613465,88.1244359932976,14513.389063457107,4540.2989351653705,32.775793931190414,0.9909382503721246,59.0,17.0,358.0,104.0,462.0,42.0,851.0,848.0,43.0,19.0,24.0,0.4418604651162791,68.5018979136119,4116.89267450051,91.0,63.0,28.0,0.6923076923076923,10.04514461776054,1880.1072827518703,37.0,18.0,19.0,0.4864864864864865,1158.960137508451,45384.47578619727,192.0,103.0,89.0,0.5364583333333334,14.83686650461638,3330.7682123017316,62.0,27.0,35.0,0.4354838709677419,48.10100577336041,4256.039432489933,0.0,0.0,0.0,0.0,14027.0,14069.0,14086.0,14177.0,14199.0,14236.0,14253.0,14444.0,14486.0,14548.0,0.014364271974514436,-0.004633536160991213,0.02387705806382961,-0.004497984897986156,0.01059423761744191
18,18,14906.198290352895,4469.778774308796,24.551589763339475,14971.040937693231,-1528.653053243921,119.75437384061055,15080.493075289176,49587.145435990955,15.435675454716105,15171.561775105614,-3678.632200250531,99.37065063369822,15377.821064510634,4240.144171511696,27.33344001115546,0.9922153425818592,53.0,15.0,366.0,99.0,465.0,38.0,861.0,864.0,40.0,16.0,24.0,0.4,74.90973566521262,3778.6446342963623,96.0,27.0,69.0,0.28125,15.56216592713244,2266.894716550628,36.0,17.0,19.0,0.4722222222222222,1190.438389125078,46376.301169531645,195.0,56.0,139.0,0.2871794871794871,10.219903850688842,3640.9068149812706,58.0,27.0,31.0,0.4655172413793103,50.913382430546186,3967.251129182581,0.0,0.0,0.0,0.0,14891.0,14929.0,14944.0,15040.0,15063.0,15099.0,15116.0,15310.0,15351.0,15409.0,0.016759159557465264,-0.010180312592257813,0.024006995737670418,-0.002778180392699445,0.012007464928343356
19,19,15750.669926708855,4330.867036352121,23.666255259140748,15856.959062306769,-1962.143538935337,79.90476644087114,15925.095867848851,51086.161680435325,15.198533212542078,16051.659797708326,-3830.526965828868,89.48066434079152,16219.637213108768,4693.240843635718,30.984956343429435,0.9926535859482016,61.0,16.0,360.0,103.0,463.0,45.0,845.0,844.0,46.0,23.0,23.0,0.5,66.46282598069189,3937.988109296867,96.0,68.0,28.0,0.7083333333333334,14.9928125283991,1770.001858317434,37.0,18.0,19.0,0.4864864864864865,1229.8010838466332,47668.202001537495,190.0,91.0,99.0,0.4789473684210526,13.35763126180503,3836.724399661524,61.0,27.0,34.0,0.4426229508196721,57.47485817673023,4480.014411992184,0.0,0.0,0.0,0.0,15729.0,15774.0,15790.0,15884.0,15907.0,15944.0,15961.0,16150.0,16194.0,16253.0,0.015346309508655192,-0.0076410375851168515,0.024073076610052212,-0.0034871523894662473,0.012246304865148603
20,20,16590.557452025612,3221.485697137366,18.759578532225863,16688.232799296693,-2095.333113833665,58.60320421987331,16761.787222939816,57113.784308452145,15.047864358845317,16885.71076826384,-4672.786681576369,95.38148759262164,17058.054245801362,4648.946560520556,29.18230328837413,0.9913755929640552,54.0,15.0,371.0,94.0,465.0,39.0,836.0,837.0,39.0,20.0,19.0,0.5128205128205128,63.92343442685718,2702.5966509586033,96.0,63.0,33.0,0.65625,14.10790552925323,2474.3774389746222,37.0,18.0,19.0,0.4864864864864865,1328.5738298083045,52577.17994678903,201.0,90.0,111.0,0.4477611940298507,18.863798420279817,4299.206866081181,57.0,25.0,32.0,0.4385964912280701,53.31404913322807,4086.1903374777185,0.0,0.0,0.0,0.0,16571.0,16610.0,16625.0,16721.0,16744.0,16781.0,16796.0,16996.0,17033.0,17090.0,0.019842842848459632,-0.006733013207356378,0.02326187707389741,-0.004036948336343935,0.011467984937916417
21,21,17391.08212109698,4647.041647187134,30.3871369267836,17488.863131505037,-1149.669019666402,71.73848064994216,17567.780454258896,54593.14090430781,15.355546559503296,17738.86861105134,-4605.246425450838,91.8817973649454,17868.288447242805,5158.88040606847,76.4389620259217,0.988020094662308,87.0,18.0,352.0,113.0,465.0,69.0,807.0,806.0,74.0,44.0,30.0,0.5945945945945946,61.03115866069347,5002.399874701181,83.0,51.0,32.0,0.6144578313253012,13.333696348993378,795.3736321611707,38.0,19.0,19.0,0.5,1210.9462906177582,51280.6753294185,170.0,118.0,52.0,0.6941176470588235,9.722434134015566,3446.563602349043,70.0,34.0,36.0,0.4857142857142857,53.08579331125539,4861.844471936706,0.0,0.0,0.0,0.0,17352.0,17421.0,17439.0,17521.0,17549.0,17587.0,17621.0,17791.0,17834.0,17904.0,0.013133335849838097,-0.011597856531667176,0.022181290003818143,-0.0021111647968031968,0.010290177157200573
22,22,18228.041683602685,4548.689148515746,24.475966290465593,18337.712453305325,-1868.8063054930356,80.50743734966503,18400.18854322723,50119.85204257227,15.594724607657197,18536.866243656397,-3737.585273303831,91.57133590707711,18697.21629924581,5075.950513445987,36.97760350594547,0.9890344618008948,62.0,17.0,358.0,106.0,464.0,45.0,834.0,832.0,46.0,22.0,24.0,0.4782608695652174,72.30087434989284,4325.9266106469795,90.0,69.0,21.0,0.7666666666666667,17.08030617591586,1615.104658212275,38.0,18.0,20.0,0.4736842105263157,1118.5973945826388,46760.554851431625,191.0,101.0,90.0,0.5287958115183246,12.770671584189222,3727.518579888533,65.0,29.0,36.0,0.4461538461538462,48.1373000200964,4682.805297687404,0.0,0.0,0.0,0.0,18207.0,18252.0,18269.0,18359.0,18382.0,18420.0,18436.0,18627.0,18668.0,18733.0,0.01589488135795889,-0.009139687791993869,0.02231844965608621,-0.0034168241392123775,0.00948340609164385
23,23,19080.033894924785,4057.415260620433,22.43749056050182,19193.46584430389,-2028.8969485434704,68.79506582332952,19249.813328198536,49038.08018183365,15.519104042136336,19377.56610270584,-3910.3590798900505,93.21351868294332,19545.9740309092,4800.388883957908,32.76834008741023,0.99028581086988,65.0,21.0,355.0,102.0,457.0,44.0,850.0,850.0,44.0,22.0,22.0,0.5,65.35164017346442,3779.179897685096,87.0,71.0,16.0,0.8160919540229885,35.6865941672201,1578.0743260125198,37.0,18.0,19.0,0.4864864864864865,1125.2945054118036,44743.968046666414,193.0,92.0,101.0,0.4766839378238341,13.219182864378793,3751.003175098916,62.0,28.0,34.0,0.4516129032258064,50.36803835481253,4385.445354053383,0.0,0.0,0.0,0.0,19058.0,19102.0,19123.0,19209.0,19232.0,19269.0,19286.0,19478.0,19518.0,19580.0,0.016106717201894508,-0.017589160549942782,0.022947360525518153,-0.003380554725104806,0.010492491248601556
24,24,19961.860031236796,3940.4752322387585,21.652209199133154,20054.53415569611,-1308.65997669194,61.78431473617261,20133.747623613817,49751.584770194786,15.406913429242325,20221.712453305325,-4288.48701579847,94.2747198319701,20431.32099762602,4308.725174830256,26.822095258837553,0.990025070627732,67.0,24.0,355.0,100.0,455.0,43.0,880.0,884.0,43.0,22.0,21.0,0.5116279069767442,68.98835307309095,3629.056315716869,88.0,49.0,39.0,0.5568181818181818,16.723469939521145,2325.869032901606,37.0,18.0,19.0,0.4864864864864865,1146.7346334107865,44790.08373908345,194.0,53.0,141.0,0.2731958762886597,11.884103781791676,3880.437130078611,59.0,28.0,31.0,0.4745762711864407,45.089813978110506,4032.464624837884,0.0,0.0,0.0,0.0,19940.0,19983.0,20007.0,20093.0,20116.0,20153.0,20169.0,20362.0,20403.0,20462.0,0.017507622560006705,-0.012779079545012988,0.023049208155028925,-0.0027711646876885754,0.010464769078683892
25,25,20849.966852020934,4432.696375663008,24.515485421177072,20916.136868494963,-1348.2956134326898,70.23680880212197,21022.86742566057,49812.55646077971,15.319622822594978,21110.712453305325,-3725.467374665318,94.2747198319701,21321.94636158124,4383.589097648631,29.104186189493777,0.990525615073945,67.0,24.0,355.0,102.0,457.0,43.0,888.0,889.0,43.0,21.0,22.0,0.4883720930232558,73.72310914252934,3947.151873250517,88.0,22.0,66.0,0.25,27.030269948076175,2114.020027320066,37.0,18.0,19.0,0.4864864864864865,1169.1001470411384,45689.65797326979,194.0,53.0,141.0,0.2731958762886597,15.220557041620092,3344.492431218386,62.0,31.0,31.0,0.5,52.017551179606215,4220.42777193581,0.0,0.0,0.0,0.0,20829.0,20872.0,20896.0,20981.0,21005.0,21042.0,21058.0,21251.0,21292.0,21353.0,0.016631662287382002,-0.02004773261796686,0.02346998889650721,-0.004085542969756231,0.011866429544573093
26,26,21732.379341181575,4151.699134182766,20.50821369525484,21827.95881659626,-1462.8434469980746,57.269061039294634,21906.695531300014,54701.64572724016,15.344643130526256,21991.863131505037,-4334.341546268528,89.17878903024199,22205.53571865519,4188.737420928452,26.113688955087355,0.9885614853487824,61.0,18.0,364.0,101.0,465.0,43.0,884.0,884.0,44.0,21.0,23.0,0.4772727272727273,69.68400229919575,3967.275693262473,93.0,56.0,37.0,0.6021505376344086,9.40178650681349,2083.2880080211244,37.0,18.0,19.0,0.4864864864864865,1254.769227988885,49504.302892357104,196.0,51.0,145.0,0.2602040816326531,15.743435193230864,3835.1939044634087,60.0,29.0,31.0,0.4833333333333333,42.760289861994565,3800.700488214172,0.0,0.0,0.0,0.0,21711.0,21754.0,21772.0,21865.0,21889.0,21926.0,21942.0,22136.0,22177.0,22237.0,0.01678445379759258,-0.006427062667647076,0.022938418237827145,-0.0036322553322509906,0.01020839588758862
27,27,22598.327513822624,4959.105303400905,26.429705895384817,22668.187784985323,-2081.876249168845,111.16204103062512,22772.681994414834,57011.26579946768,15.144645106524926,22891.054993108493,-3957.880242565044,103.1618751397013,23070.18345734067,4604.93603753914,30.347589823713587,0.9927730379977606,59.0,18.0,365.0,98.0,463.0,41.0,866.0,866.0,43.0,19.0,24.0,0.4418604651162791,67.84667239437574,3714.151141839978,94.0,30.0,64.0,0.3191489361702128,24.23143455249436,2778.762736122416,37.0,18.0,19.0,0.4864864864864865,1297.9250741090195,51600.01374868636,199.0,84.0,115.0,0.4221105527638191,16.313995083238282,3816.2089083865576,57.0,25.0,32.0,0.4385964912280701,51.05232784490245,4027.4259829196617,0.0,0.0,0.0,0.0,22580.0,22621.0,22639.0,22732.0,22755.0,22791.0,22807.0,23004.0,23045.0,23102.0,0.013681232448895,-0.01163922906665003,0.02276611571253937,-0.00412190215049696,0.011086435822067274
28,28,23476.393125957587,4227.595628415304,22.16732113510605,23554.287546694675,-1316.2174032078844,57.95343784294489,23648.301725079666,50842.79003674033,15.597954191397404,23738.561775105612,-4257.704224337075,99.37065063369822,23948.096646478785,4459.56411107572,28.087102050739027,0.9896688591176726,63.0,19.0,363.0,99.0,462.0,44.0,876.0,875.0,44.0,22.0,22.0,0.5,65.26182152226691,3738.1224908007935,91.0,38.0,53.0,0.4175824175824176,11.997202282123052,2129.6433762271786,38.0,18.0,20.0,0.4736842105263157,1132.5631318247736,47125.02356303389,198.0,56.0,142.0,0.2828282828282828,11.745565374420677,3901.246891241909,60.0,29.0,31.0,0.4833333333333333,48.693854291677354,4065.6288651002296,0.0,0.0,0.0,0.0,23454.0,23498.0,23517.0,23607.0,23630.0,23668.0,23683.0,23880.0,23919.0,23979.0,0.015437101193788967,-0.009114909324921153,0.022275786419398973,-0.0027586616532174596,0.010918971692937856
29,29,24347.9466005535,4364.342383322963,21.92559659763244,24431.98619029525,-1236.0826636055174,67.82105649352334,24519.835147506095,50315.24062657854,15.476789403388596,24613.4110969059,-4012.618920123494,104.46658143542416,24817.99444546138,4496.023523664382,28.90895651484348,0.991112184693489,64.0,21.0,360.0,100.0,460.0,43.0,872.0,872.0,43.0,22.0,21.0,0.5116279069767442,72.34656825231477,3843.0171782538687,90.0,43.0,47.0,0.4777777777777778,11.729942835737113,2161.1150257711715,37.0,18.0,19.0,0.4864864864864865,1153.5998670227966,45717.74420199705,195.0,58.0,137.0,0.2974358974358974,11.855900176233778,3843.8822831940865,59.0,27.0,32.0,0.4576271186440678,50.88627867327931,4094.069347245177,0.0,0.0,0.0,0.0,24326.0,24369.0,24390.0,24479.0,24502.0,24539.0,24555.0,24750.0,24791.0,24850.0,0.01657673983800301,-0.00948961034816406,0.02292744410355495,-0.002954653908642014,0.011318063263113357
30,30,25222.267745381916,4350.466872545071,22.712788311170947,25309.410851195396,-1208.3738722278088,81.53489282764981,25395.333545744277,50468.73224160179,15.382502063356402,25493.685079606337,-3888.004134776668,110.72957154441268,25692.986204254437,4569.909642077593,30.024624250011012,0.9913054028131452,63.0,22.0,359.0,101.0,460.0,41.0,874.0,876.0,41.0,20.0,21.0,0.4878048780487805,77.08578413062901,3873.059642775962,91.0,45.0,46.0,0.4945054945054945,13.875733268132498,2273.208267089291,37.0,18.0,19.0,0.4864864864864865,1189.318629332785,47002.32404358455,194.0,63.0,131.0,0.3247422680412371,10.907044328791653,3858.188629544797,58.0,26.0,32.0,0.4482758620689655,50.977147190735714,4057.6698683944055,0.0,0.0,0.0,0.0,25202.0,25243.0,25265.0,25355.0,25377.0,25414.0,25431.0,25624.0,25667.0,25725.0,0.01771896819100084,-0.01148298021584215,0.02356545481743684,-0.002805306771984225,0.011154957358754308
31,31,26102.86994471436,4376.91101835416,23.042899387217854,26180.86288579453,-1289.913783017732,68.1307948198697,26276.619140683688,50424.2153403731,15.323726537985785,26368.98643600576,-4107.891951406243,101.91861603456228,26575.10390403934,4389.320533445069,28.56259387971644,0.990954580495842,66.0,23.0,356.0,104.0,460.0,43.0,881.0,881.0,43.0,22.0,21.0,0.5116279069767442,72.18572174678704,3840.3274489037058,90.0,35.0,55.0,0.3888888888888889,15.928790751113116,2311.9766496923003,36.0,18.0,18.0,0.5,1180.432069589677,45400.46361112213,192.0,57.0,135.0,0.296875,17.833054667390147,3812.858131085607,59.0,27.0,32.0,0.4576271186440678,48.1418869130146,4086.440498668994,0.0,0.0,0.0,0.0,26081.0,26124.0,26147.0,26235.0,26259.0,26295.0,26312.0,26503.0,26548.0,26607.0,0.01649238959715724,-0.012348725132503022,0.02341002356946032,-0.004341169358479696,0.01096795883239569
32,32,26982.120749546862,4787.992871351653,24.733455888770408,27051.46559859338,-1582.71922224881,83.23955996823368,27157.609012534904,51450.00345870724,15.198713429171942,27262.80838410705,-3840.486012726156,105.61408433622675,27454.77337000433,4731.232334775433,29.997864529634523,0.9918429973189288,59.0,17.0,364.0,101.0,465.0,42.0,881.0,881.0,43.0,20.0,23.0,0.4651162790697674,71.275942786012,4083.4293720319497,95.0,29.0,66.0,0.3052631578947368,16.381910783483825,2216.6960348728844,36.0,18.0,18.0,0.5,1221.559716813031,46616.93369437376,194.0,70.0,124.0,0.3608247422680412,17.267878046818048,3560.7932760237704,58.0,26.0,32.0,0.4482758620689655,50.31810420903809,4271.23735740421,0.0,0.0,0.0,0.0,26963.0,27005.0,27022.0,27117.0,27140.0,27176.0,27193.0,27386.0,27429.0,27487.0,0.014886392837483645,-0.01035048450363012,0.023742655679186316,-0.00449627416675852,0.010635306120815653
33,33,27844.543120764138,4182.5782162833975,20.3299915904687,27947.657460196835,-1691.4415012197403,56.055238819009254,28020.286628998012,56152.90054446721,15.153218348578982,28139.527245358713,-4247.8799360269795,99.37116180702358,28317.55451222701,4786.6550334848325,29.562042013131,0.9925821621614616,59.0,14.0,370.0,98.0,468.0,45.0,862.0,863.0,45.0,22.0,23.0,0.4888888888888889,67.72553660314601,4020.189324250288,97.0,66.0,31.0,0.6804123711340206,13.328570682951067,1966.2008954056016,37.0,18.0,19.0,0.4864864864864865,1308.0298400783956,53041.263379901,198.0,85.0,113.0,0.4292929292929293,11.252910723706494,3900.8820541982113,58.0,26.0,32.0,0.4482758620689655,48.93129859706984,4180.648260746813,0.0,0.0,0.0,0.0,27823.0,27868.0,27882.0,27979.0,28002.0,28039.0,28055.0,28252.0,28292.0,28350.0,0.016192294106893317,-0.007880006889590627,0.023294074346926624,-0.0026490651556011924,0.010222440985358901
34,34,28690.496020490576,4731.386650859029,24.328443487930187,28797.959062306763,-1745.342967129192,79.83299057911049,28868.16688001257,58713.47503175577,15.116197804399402,29003.45444370417,-4055.4599482413905,93.50104458612196,29168.42513672948,5008.1785328181,36.024534030044585,0.9915648033714888,63.0,15.0,369.0,103.0,472.0,48.0,849.0,848.0,49.0,23.0,26.0,0.4693877551020408,61.534714145116794,4455.648117450947,96.0,68.0,28.0,0.7083333333333334,11.04539022210644,1692.8679371237577,37.0,18.0,19.0,0.4864864864864865,1346.8798426063292,55386.252975151954,197.0,100.0,97.0,0.5076142131979695,14.195797183815314,3911.8353137722847,64.0,29.0,35.0,0.453125,58.18666525470459,4586.715027882881,0.0,0.0,0.0,0.0,28668.0,28716.0,28731.0,28826.0,28850.0,28887.0,28903.0,29100.0,29139.0,29203.0,0.013005640562887536,-0.006328492697497918,0.02293987609961522,-0.0035004160724041128,0.011618328874143186
35,35,29537.29665862767,4750.15079913122,25.466652242012827,29638.685079606337,-2362.7926691301395,102.6214028779352,29712.823708493943,52774.427393221304,15.5172728440264,29850.73863598256,-4240.10851063212,92.17058395885203,30011.309872165715,4851.279768022387,33.889309403175744,0.9913882089659372,57.0,15.0,368.0,102.0,470.0,42.0,847.0,844.0,43.0,19.0,24.0,0.4418604651162791,68.07457049812116,3834.4247854614423,96.0,63.0,33.0,0.65625,12.716025593764062,2223.5985648122924,38.0,19.0,19.0,0.5,1166.4507782370065,47909.57121565303,196.0,103.0,93.0,0.5255102040816326,17.31160948639214,4295.581218017602,61.0,26.0,35.0,0.4262295081967213,54.28119450498231,4322.303269908456,0.0,0.0,0.0,0.0,29519.0,29561.0,29576.0,29672.0,29694.0,29732.0,29748.0,29944.0,29985.0,30046.0,0.014331033555939251,-0.005381777995123651,0.022102575733239184,-0.004082822277539144,0.01118904641673756
36,36,30388.92338404077,4590.550013713463,24.488826224154053,30491.260418706188,-1900.570394648516,82.82583052087635,30561.861900476684,49642.81997233315,15.476809618697237,30691.784268917723,-3849.198761487882,91.6102547330423,30858.784340840095,4867.434402336657,33.11016065602214,0.9901873320212428,62.0,18.0,359.0,104.0,463.0,44.0,849.0,849.0,45.0,22.0,23.0,0.4888888888888889,70.24451787980044,4170.529404529121,91.0,61.0,30.0,0.6703296703296703,13.093629752072138,1839.1397870086776,37.0,18.0,19.0,0.4864864864864865,1143.9803351696878,45606.29948956973,191.0,94.0,97.0,0.4921465968586387,16.37717779022338,3793.115118803381,63.0,29.0,34.0,0.4603174603174603,44.77301633616827,4450.480330590051,0.0,0.0,0.0,0.0,30368.0,30412.0,30430.0,30521.0,30544.0,30581.0,30598.0,30789.0,30830.0,30893.0,0.015301982914891954,-0.006889315854303635,0.023044225445034126,-0.004254697874809897,0.009198483766863826
37,37,31252.17684797331,4840.516798952681,25.85695797092241,31332.889923037623,-1845.250426144029,99.75644318332712,31425.893526454827,49757.25553221214,15.36332925077916,31547.479654008635,-3738.628398578486,97.82973398383358,31722.15185985203,4721.45635619575,31.438870790362177,0.9921382054697132,62.0,19.0,360.0,102.0,462.0,43.0,864.0,864.0,44.0,20.0,24.0,0.4545454545454545,69.52301504214373,4024.239342388262,91.0,39.0,52.0,0.4285714285714285,13.402254057568957,2227.1580306251217,37.0,18.0,19.0,0.4864864864864865,1170.0176781357725,45669.441233480866,193.0,85.0,108.0,0.4404145077720207,12.412445900664531,3621.754441529853,61.0,27.0,34.0,0.4426229508196721,51.21302453206248,4293.38444157503,0.0,0.0,0.0,0.0,31232.0,31275.0,31294.0,31385.0,31408.0,31445.0,31462.0,31654.0,31695.0,31756.0,0.014362725702591526,-0.0072631085015248,0.023514513926080984,-0.003320053393213413,0.010846870259609193
38,38,32122.97453363207,4638.259634483788,25.733482305458608,32221.53145767829,-2137.2846357921007,101.91861603456228,32297.348615399504,49850.71944811918,15.291228661858687,32422.75363670907,-3666.166679358524,94.78486065389978,32593.07398980588,4652.359727888861,30.83121957229095,0.992723577388416,63.0,22.0,356.0,104.0,460.0,41.0,869.0,872.0,41.0,19.0,22.0,0.4634146341463415,73.71561692354864,3794.699535264864,90.0,55.0,35.0,0.6111111111111112,13.266066250392154,2342.3866541511397,37.0,18.0,19.0,0.4864864864864865,1194.003087593752,46648.6240733765,193.0,90.0,103.0,0.466321243523316,16.536243889213075,3477.1805261995487,60.0,26.0,34.0,0.4333333333333333,52.3652393651063,4360.858958308596,0.0,0.0,0.0,0.0,32104.0,32145.0,32167.0,32257.0,32279.0,32316.0,32333.0,32523.0,32567.0,32627.0,0.01589294751322233,-0.006206972168438204,0.023951571829096255,-0.0045104997495930685,0.0112556299228539
39,39,33005.58654711559,4344.670474452065,20.883744583973137,33084.86288579454,-1447.4402212876366,58.2547185466356,33179.36483951464,50558.23849444306,15.209937387752602,33271.9864360046,-3921.9114507191553,101.91861602847872,33475.90335641292,4600.337809578482,29.74982731504341,0.9919610366063788,60.0,18.0,361.0,104.0,465.0,42.0,884.0,882.0,42.0,22.0,20.0,0.5238095238095238,74.14285073164473,3745.086402934462,95.0,41.0,54.0,0.431578947368421,12.18248678999721,2146.7018858954925,37.0,18.0,19.0,0.4864864864864865,1218.2537137471488,47523.117093189685,192.0,57.0,135.0,0.296875,15.408648518386054,3558.2957096012233,61.0,28.0,33.0,0.4590163934426229,50.037059021994445,4383.937793181636,0.0,0.0,0.0,0.0,32984.0,33026.0,33044.0,33139.0,33162.0,33198.0,33215.0,33405.0,33448.0,33509.0,0.017065241464830627,-0.00841657334847288,0.024096047449933388,-0.003928861911341877,0.010876822766756606
40,40,33867.036302418775,4907.3238116297425,23.33388550541411,33947.43822489439,-2127.85205067973,98.72178377127368,34044.63808659702,56137.9564363969,15.172974057024232,34160.2056713082,-4169.728516308387,101.60050083770874,34340.49814291631,4754.748402852143,28.81032947103536,0.993007997456036,55.0,15.0,373.0,96.0,469.0,40.0,860.0,865.0,40.0,18.0,22.0,0.45,71.86396340390269,3710.8564952819825,100.0,43.0,57.0,0.43,11.45561223871564,2637.7748054040017,36.0,18.0,18.0,0.5,1311.24597883188,50649.8961202239,199.0,81.0,118.0,0.4070351758793969,17.872092853621872,4144.966059463974,57.0,24.0,33.0,0.4210526315789473,54.68794310535433,4245.796813954492,0.0,0.0,0.0,0.0,33849.0,33889.0,33904.0,34003.0,34027.0,34063.0,34079.0,34277.0,34316.0,34373.0,0.014644226907055552,-0.005383650726588914,0.023357565220912407,-0.004286152631693319,0.011501753294148999
41,41,34711.9245590386,4617.108166548824,24.209849080128503,34810.83575780604,-1921.0610222026264,77.94485511241744,34889.101232212044,57816.2697073902,15.158225320955578,35013.52526818356,-4281.124485921527,93.54484083652622,35187.2861090697,4849.53222984613,33.228310473183164,0.9919116662182832,61.0,14.0,367.0,102.0,469.0,47.0,848.0,845.0,49.0,24.0,25.0,0.4897959183673469,60.88034477249862,4187.474358318218,99.0,61.0,38.0,0.6161616161616161,13.170676559740544,1907.7096784949267,37.0,18.0,19.0,0.4864864864864865,1321.0548337485436,53841.95132394893,194.0,90.0,104.0,0.4639175257731959,17.12989842563778,4241.4960213976865,60.0,27.0,33.0,0.45,46.812783155946846,4444.558137189519,0.0,0.0,0.0,0.0,34690.0,34737.0,34751.0,34848.0,34871.0,34908.0,34924.0,35118.0,35160.0,35220.0,0.013185817307374281,-0.006855938675305312,0.022849188306932288,-0.004001261463423788,0.009653051250559926
42,42,35557.530562541404,4454.642685649484,23.485973587397265,35671.5891488046,-1849.471900322796,81.53489282764981,35732.303423875775,51211.54871729789,15.541402179899393,35869.55687911634,-3871.756018438374,90.11201429268534,36030.74800893846,5113.738154013472,36.52292086182108,0.9901816658625952,60.0,16.0,362.0,108.0,470.0,44.0,845.0,842.0,46.0,22.0,24.0,0.4782608695652174,74.19370653490863,4243.696136212133,94.0,76.0,18.0,0.8085106382978723,24.852548880294943,1385.47702347861,38.0,18.0,20.0,0.4736842105263157,1156.9087891196343,48157.06980177791,191.0,101.0,90.0,0.5287958115183246,15.384362264406567,3808.2551145552575,66.0,30.0,36.0,0.4545454545454545,48.47571546624887,4629.949892939809,0.0,0.0,0.0,0.0,35537.0,35581.0,35597.0,35690.0,35714.0,35752.0,35769.0,35959.0,36001.0,36067.0,0.016655366495257125,-0.01343764610641412,0.022590779191351842,-0.00397348443216514,0.009479506772986243
43,43,36406.30807494564,4525.0475514574255,21.756028631437683,36476.616522503595,-2003.0773386430449,63.69913502160143,36578.35750146531,49236.98184806536,15.3184141999051,36695.75047424597,-4462.133189533295,98.59246329797476,36873.524642485776,4913.521898196372,31.06978022637506,0.9915577236931336,54.0,15.0,365.0,102.0,467.0,39.0,845.0,847.0,40.0,20.0,20.0,0.5,77.75281438958496,3632.931289723352,98.0,36.0,62.0,0.3673469387755102,10.785832049479811,2181.0104751472454,37.0,18.0,19.0,0.4864864864864865,1171.7787829725908,46216.33120108151,192.0,81.0,111.0,0.421875,10.28616172182416,4272.39219230351,62.0,27.0,35.0,0.4354838709677419,49.64740612226576,4368.86154298515,0.0,0.0,0.0,0.0,36387.0,36426.0,36441.0,36539.0,36560.0,36597.0,36615.0,36806.0,36847.0,36908.0,0.01718276183960594,-0.005384630858430316,0.023798753274285694,-0.0023052117193525577,0.010104240329220889
44,44,37257.35295001494,4855.129560579274,25.699346459863342,37352.46729421967,-2156.1085363870047,101.91861603456228,37433.1655156794,49631.94708997341,15.276877394796378,37562.67566636864,-3696.347620068844,90.24337635705255,37728.02250667121,4743.522032156289,32.32639170943514,0.992712567270622,59.0,16.0,361.0,106.0,467.0,43.0,856.0,854.0,45.0,20.0,25.0,0.4444444444444444,66.87488687082121,4081.130658911083,96.0,55.0,41.0,0.5729166666666666,12.697480868358616,2089.369328976588,37.0,18.0,19.0,0.4864864864864865,1185.1500234961425,46233.92141008735,190.0,94.0,96.0,0.4947368421052631,14.245703350740284,3608.185550473699,64.0,28.0,36.0,0.4375,53.57389532504429,4463.699979304153,0.0,0.0,0.0,0.0,37238.0,37281.0,37297.0,37393.0,37415.0,37452.0,37469.0,37658.0,37700.0,37764.0,0.013774068443776454,-0.005889073139905938,0.023878773511498308,-0.0038539944872595503,0.011294117527412623
45,45,38109.87575587268,4637.710915377725,26.131765268379812,38214.534401406614,-2196.170147618471,116.0964119992085,38289.1306795685,52180.207644441645,15.18701441931032,38427.72145864488,-3505.7477964968134,87.4963531963654,38583.19701523807,4913.017561378032,30.711578690324053,0.9930842987392337,55.0,15.0,366.0,102.0,468.0,40.0,852.0,856.0,42.0,17.0,25.0,0.4047619047619047,72.20594241881321,3902.002613696568,101.0,67.0,34.0,0.6633663366336634,15.184371384755815,1936.5008773981456,37.0,18.0,19.0,0.4864864864864865,1256.2027677779902,48830.691758337714,191.0,103.0,88.0,0.5392670157068062,17.062820843837986,3505.7818511986507,59.0,25.0,34.0,0.423728813559322,60.68190926906691,4727.068287973223,0.0,0.0,0.0,0.0,38094.0,38134.0,38149.0,38248.0,38271.0,38308.0,38325.0,38515.0,38558.0,38617.0,0.0155693064393886,-0.006914023215014447,0.024074315233427474,-0.004867098785853432,0.012351250226764199
46,46,38945.72296993827,4773.958662411696,24.538612496139507,39055.986436005755,-1838.916509342794,77.04441391993953,39122.17789318228,56984.86798632296,15.215895640279015,39257.811006479526,-4128.477025242844,88.84215340006779,39418.284996343515,5179.48200273714,34.499872396023015,0.9911468627237114,66.0,18.0,360.0,102.0,462.0,48.0,835.0,834.0,49.0,24.0,25.0,0.4897959183673469,63.724020036519114,4575.795302954053,93.0,69.0,24.0,0.7419354838709677,19.833801372640224,1493.7979392809427,37.0,18.0,19.0,0.4864864864864865,1316.604965821607,53745.156441858795,191.0,100.0,91.0,0.5235602094240838,13.774133977510456,3946.117719595372,60.0,27.0,33.0,0.45,55.38991250454901,4917.732601264122,0.0,0.0,0.0,0.0,38923.0,38971.0,38989.0,39079.0,39104.0,39141.0,39159.0,39349.0,39391.0,39451.0,0.013348255513449958,-0.010785591010724342,0.02310446636706446,-0.0033363717160810012,0.010694102706656333
47,47,39807.17625975832,4262.525716843229,22.59228454418445,39878.16424219396,-1749.6531546899062,58.556014549889674,39978.72912337092,52819.38717928595,15.516677474097458,40066.71245330532,-4447.416024847096,94.2747198319701,40278.43375075569,4566.2332299262225,28.518172240664033,0.991125751701954,60.0,17.0,365.0,100.0,465.0,43.0,858.0,856.0,43.0,22.0,21.0,0.5116279069767442,69.46001967382695,3506.709735367733,93.0,33.0,60.0,0.3548387096774194,15.830098072258956,2500.7393397568444,38.0,19.0,19.0,0.5,1182.8807510616984,47616.63872738887,196.0,53.0,143.0,0.2704081632653061,12.260168870316615,3983.165198255127,61.0,29.0,32.0,0.4754098360655737,52.199363449090725,4289.491245521611,0.0,0.0,0.0,0.0,39785.0,39828.0,39845.0,39938.0,39960.0,39998.0,40014.0,40210.0,40249.0,40310.0,0.016295507473270597,-0.009047563529849749,0.022394821565169275,-0.002756694854230131,0.011431602553059717
48,48,40679.361309681495,4810.040520048525,27.309142815129903,40752.452712753926,-1789.3977914561349,99.1619903918896,40854.523846125296,50093.1152488024,15.4071694241842,40972.63033220835,-3695.98275251366,100.96600813404226,41151.21751345407,4913.102328277365,31.18446646917251,0.9918066386100104,63.0,20.0,362.0,100.0,462.0,43.0,875.0,876.0,45.0,20.0,25.0,0.4444444444444444,66.69966905115037,4003.288472779565,92.0,30.0,62.0,0.3260869565217391,19.947341417974357,2267.0187718121488,38.0,19.0,19.0,0.5,1148.2190872734016,45066.1130221433,196.0,83.0,113.0,0.423469387755102,19.80887390354125,3336.3588663221676,62.0,28.0,34.0,0.4516129032258064,49.83137608505505,4393.681837847551,0.0,0.0,0.0,0.0,40660.0,40703.0,40723.0,40813.0,40836.0,40873.0,40890.0,41085.0,41123.0,41185.0,0.013866758247283431,-0.011147516507071393,0.02292169455963018,-0.005359568815646966,0.010142547977934535
49,49,41557.510638682885,4606.989913913476,24.678096529916427,41621.5889030941,-1649.0446521776626,87.67777895552094,41731.332316330416,50112.64398712354,15.440560901855635,41825.4110969059,-4427.08566762391,104.46658143542632,42028.129088684575,4506.2890884927,28.260030092218745,0.9919064148895356,60.0,19.0,363.0,99.0,462.0,41.0,878.0,876.0,41.0,20.0,21.0,0.4878048780487805,70.10271286869246,3560.201600068956,97.0,26.0,71.0,0.268041237113402,25.077822292822898,2614.3890074402852,37.0,18.0,19.0,0.4864864864864865,1186.0622890584334,46224.62326142043,195.0,58.0,137.0,0.2974358974358974,13.49145968449202,4197.410045698753,59.0,27.0,32.0,0.4576271186440678,40.30256012488029,3945.5724870929776,0.0,0.0,0.0,0.0,41538.0,41579.0,41598.0,41692.0,41713.0,41750.0,41767.0,41961.0,42001.0,42060.0,0.015216597860780353,-0.015207485291381362,0.02366792479285652,-0.0030474810512833624,0.008943625083396727
50,50,42435.83078062656,4264.619325996072,20.39699567895352,42512.013563994245,-1670.722325441182,54.3628406392037,42609.37700425152,49616.49767791962,15.255934192606514,42700.56177510561,-4157.029148143869,99.37065063369822,42906.72351656719,4541.431406182082,28.094009226927582,0.9922187691301708,57.0,16.0,365.0,102.0,467.0,41.0,877.0,879.0,41.0,21.0,20.0,0.5121951219512195,76.36475199498103,3632.1690781720736,98.0,40.0,58.0,0.4081632653061224,17.3783222207157,2387.0904006712517,37.0,18.0,19.0,0.4864864864864865,1195.393095439767,46482.71922069267,193.0,56.0,137.0,0.2901554404145077,15.885634103013642,3795.1908981707543,60.0,28.0,32.0,0.4666666666666667,47.64510456336504,4194.480912590534,0.0,0.0,0.0,0.0,42415.0,42456.0,42472.0,42569.0,42592.0,42628.0,42645.0,42837.0,42879.0,42939.0,0.017906581140661317,-0.010401681928878675,0.024092653681433502,-0.003821391079277528,0.01049120867453982
51,51,43290.25740651548,4660.031023046195,22.62963460682558,43354.19161589296,-1896.406569348096,55.50457084974513,43463.821800562226,52097.628304766935,15.248500755761889,43550.28779240518,-4371.756311659622,91.72675443110604,43760.42991027215,4854.992234039132,27.803790835407305,0.9912013338914109,57.0,15.0,365.0,100.0,465.0,42.0,855.0,854.0,43.0,22.0,21.0,0.5116279069767442,75.16483384750843,3920.1002934811095,98.0,28.0,70.0,0.2857142857142857,16.014227754547854,2349.6663902344567,36.0,18.0,18.0,0.5,1245.7392773751164,47432.70137441056,192.0,51.0,141.0,0.265625,13.072166207415435,3889.4061584304313,60.0,29.0,31.0,0.4833333333333333,64.8687710210027,4760.08920966625,0.0,0.0,0.0,0.0,43269.0,43311.0,43326.0,43424.0,43446.0,43482.0,43499.0,43691.0,43731.0,43791.0,0.016129685290887673,-0.008444511853833572,0.02391163125675591,-0.002990140638111856,0.013361251242833574
52,52,44139.258544058976,5032.946785571876,25.63968448402877,44242.534401406614,-2796.0831840017013,117.20640843974662,44315.45429829267,58088.53329772628,15.10646981483824,44460.46243131173,-4244.978771818962,89.49686949371794,44611.05660530526,4959.539248140438,29.924976018123417,0.9925303396840388,55.0,14.0,371.0,95.0,466.0,41.0,848.0,852.0,42.0,18.0,24.0,0.4285714285714285,67.07602679720779,3708.6059102729023,99.0,67.0,32.0,0.6767676767676768,13.124492727872637,2542.4613619115785,36.0,17.0,19.0,0.4722222222222222,1352.2999462092516,54670.382506357986,200.0,110.0,90.0,0.55,22.290742175782604,4144.439991229903,55.0,23.0,32.0,0.4181818181818181,69.32204203034829,4485.864593534721,0.0,0.0,0.0,0.0,44122.0,44163.0,44177.0,44274.0,44298.0,44334.0,44350.0,44548.0,44589.0,44643.0,0.013327386450716502,-0.0046938849326682444,0.023279980909109713,-0.005251084486868019,0.013977516571996147
53,53,45004.7297455801,4163.532914004416,20.7771178284482,45091.835512095546,-1476.9753739305845,65.16339371480105,45176.60211604873,54250.42760455111,15.4827167071286,45267.986436005755,-4532.140574473791,101.91861603456228,45475.6612106579,4828.5249467501935,29.270751224262305,0.9920769919060244,62.0,19.0,363.0,101.0,464.0,43.0,864.0,861.0,43.0,23.0,20.0,0.5348837209302325,63.857076596364365,3352.2467436894876,92.0,48.0,44.0,0.5217391304347826,12.640105150127026,2499.992679546103,38.0,19.0,19.0,0.5,1198.3160718505978,48352.63238370727,197.0,57.0,140.0,0.2893401015228426,14.10255215752468,4097.276217733351,62.0,29.0,33.0,0.4677419354838709,48.96523752674563,4281.41438581643,0.0,0.0,0.0,0.0,44982.0,45025.0,45044.0,45136.0,45158.0,45196.0,45211.0,45407.0,45447.0,45508.0,0.015337233526262125,-0.008558101491217612,0.022088601413163243,-0.0031116758021483195,0.01014082728509073
54,54,45882.409422406105,4350.258130967087,23.577121540939483,45950.31492039367,-1648.6188777137274,60.05458268274155,46054.71438037541,50468.072110143024,15.509701837362734,46142.71245330532,-4430.474353421562,94.2747198319701,46354.54349707722,4406.5207017878765,27.45357979682045,0.9903819537241384,63.0,21.0,363.0,98.0,461.0,42.0,879.0,878.0,43.0,22.0,21.0,0.5116279069767442,72.25788040393269,3688.671744125736,92.0,28.0,64.0,0.3043478260869565,18.925660584093286,2385.303124244287,38.0,19.0,19.0,0.5,1149.2048505644589,45428.65384289865,197.0,53.0,144.0,0.2690355329949238,9.028470027403213,3943.851655415827,59.0,29.0,30.0,0.4915254237288136,53.742575967336265,4028.6065111862586,0.0,0.0,0.0,0.0,45861.0,45903.0,45924.0,46013.0,46037.0,46074.0,46090.0,46287.0,46326.0,46385.0,0.016610021343232192,-0.011479706340824524,0.02277092828226923,-0.0020378111477906908,0.012196147392551919
55,55,46754.49410805631,4380.336753444796,21.788596014863575,46845.68483389583,-2134.49850923237,73.89099662505764,46927.38075723042,49829.434162156285,15.23474879188709,47052.58974288632,-4446.387354864167,99.58879604470133,47223.734053561246,4740.849660504083,29.4472365940844,0.9916128670179672,59.0,18.0,369.0,95.0,464.0,41.0,872.0,873.0,42.0,21.0,21.0,0.5,71.35116937554817,3570.867359023676,96.0,54.0,42.0,0.5625,14.137536604465597,2490.1283574300824,36.0,17.0,19.0,0.4722222222222222,1195.9793303544875,46703.23019715892,202.0,91.0,111.0,0.4504950495049505,20.27160553377671,3766.9028089041367,57.0,24.0,33.0,0.4210526315789473,48.33644992369832,4027.125261535331,0.0,0.0,0.0,0.0,46734.0,46775.0,46793.0,46887.0,46910.0,46946.0,46963.0,47162.0,47200.0,47257.0,0.01628896895185878,-0.006623352765680723,0.024001463200695784,-0.004559118204490304,0.01019573565607622
56,56,47616.581832003234,4785.616196708897,25.892528798505182,47726.26041870619,-2149.206979379289,108.34577825131628,47791.24415753817,49795.33098103917,15.197655006977042,47930.57558481036,-3487.115528232182,89.18218046937656,48088.22377973611,4960.22669001216,31.844270229161044,0.9923318465896164,61.0,18.0,362.0,102.0,464.0,43.0,865.0,864.0,44.0,21.0,23.0,0.4772727272727273,70.32351053537081,3989.131605902474,93.0,68.0,25.0,0.7311827956989247,13.493961038157469,1875.534326467929,37.0,18.0,19.0,0.4864864864864865,1212.9256398898312,46733.65283697502,196.0,104.0,92.0,0.5306122448979592,17.308911762256837,3324.503897839613,61.0,27.0,34.0,0.4426229508196721,51.38431405231638,4593.8522980152875,0.0,0.0,0.0,0.0,47597.0,47640.0,47658.0,47751.0,47773.0,47810.0,47828.0,48020.0,48061.0,48122.0,0.014694766075000499,-0.006278576780936497,0.024358220258676126,-0.004963676030266687,0.010359267280219889
57,57,48490.35889183536,4261.392680604367,19.415590895433045,48563.16424219396,-1704.238197827984,53.63775703340213,48662.44377130259,49861.19008548441,15.242692247342127,48754.98643600574,-4480.9874465192115,101.91861603453322,48959.56299715217,4499.0413166478,27.526864652043304,0.9922286987821648,55.0,16.0,366.0,100.0,466.0,39.0,869.0,871.0,39.0,20.0,19.0,0.5128205128205128,79.95262517035115,3517.616730643773,98.0,38.0,60.0,0.3877551020408163,10.848419726238124,2575.8504255541884,36.0,17.0,19.0,0.4722222222222222,1216.6186331789463,46668.342102701776,193.0,57.0,136.0,0.2953367875647668,15.28355253745946,4243.552306745584,58.0,27.0,31.0,0.4655172413793103,49.476711369310095,4078.311280408575,0.0,0.0,0.0,0.0,48470.0,48509.0,48525.0,48623.0,48645.0,48681.0,48698.0,48891.0,48934.0,48991.0,0.018762088162927047,-0.006365553676747891,0.02440011221338915,-0.0034107554908085224,0.010997167593511855
58,58,49349.97342817363,4154.472436230479,18.516729309597093,49444.53415569612,-2209.292350517904,68.79506582332836,49522.9984790908,51784.348569730966,15.195567345087753,49640.2056713082,-4300.79515200244,98.00957085109395,49817.762346669784,4936.779245468571,28.77302416848985,0.993643231950956,53.0,14.0,367.0,102.0,469.0,39.0,862.0,860.0,39.0,20.0,19.0,0.5128205128205128,73.13382653801173,3206.5840963156083,100.0,62.0,38.0,0.62,12.70396399299604,2521.592130844639,37.0,18.0,19.0,0.4864864864864865,1258.1069890855665,47770.165812734864,192.0,81.0,111.0,0.421875,14.373571133295291,4197.474129509505,60.0,26.0,34.0,0.4333333333333333,50.38898906317021,4341.8681546402695,0.0,0.0,0.0,0.0,49330.0,49369.0,49383.0,49483.0,49505.0,49541.0,49559.0,49750.0,49792.0,49852.0,0.017603637443884216,-0.005750241243544779,0.024295120511006223,-0.003342072948208889,0.01020685482532399
59,59,50191.21726554156,4590.926947898833,23.332239346833283,50306.71245330532,-2360.5336885284382,94.2747198319701,50368.20449367691,56854.56958718411,15.181159779155877,50509.28640946188,-4082.629410149733,87.56210931542924,50663.886842331085,5013.4920059330725,30.528609251172117,0.9910855171896786,57.0,13.0,371.0,98.0,469.0,44.0,843.0,846.0,45.0,21.0,24.0,0.4666666666666667,60.68472813883211,3844.471837386286,100.0,79.0,21.0,0.79,21.140946620302028,2001.8880812343032,37.0,18.0,19.0,0.4864864864864865,1327.6153526241987,53281.9396998175,196.0,106.0,90.0,0.5408163265306123,13.235842531233994,3978.012590681713,58.0,25.0,33.0,0.4310344827586206,65.03931937520402,4610.114822044244,0.0,0.0,0.0,0.0,50171.0,50215.0,50228.0,50328.0,50350.0,50387.0,50403.0,50599.0,50639.0,50697.0,0.013218404219349686,-0.008956002925542376,0.023351075599796003,-0.0032419897084777433,0.012972857899889959
60,60,51032.90715688694,4719.244597036266,24.356508127153372,51140.534401406614,-2202.884588304752,101.97768013725666,51208.50964943457,55352.066182676805,15.325824696606237,51349.31722684475,-3791.060928016522,88.81105297981888,51505.96826061606,5085.970703771974,36.63260991495167,0.9926891980768806,57.0,13.0,364.0,108.0,472.0,44.0,843.0,840.0,45.0,21.0,24.0,0.4666666666666667,60.23305468055199,3837.3332847656648,98.0,71.0,27.0,0.7244897959183674,11.615045744631766,1901.2215610405815,38.0,19.0,19.0,0.5,1245.3304550703358,50046.59673324252,190.0,105.0,85.0,0.5526315789473685,13.32081975346088,3899.219035987482,66.0,30.0,36.0,0.4545454545454545,52.856728875270555,4721.813100611516,0.0,0.0,0.0,0.0,51013.0,51057.0,51070.0,51167.0,51190.0,51228.0,51244.0,51434.0,51477.0,51542.0,0.012763283072544908,-0.005272652869013996,0.02249835536329228,-0.0035137445708186793,0.010392653035942528
61,61,51883.99316862207,4719.86593047583,25.201495162033204,51988.10974050647,-2352.491441182488,92.83120488101504,52058.26329751195,49680.74983593011,15.522892646421925,52195.14658696146,-4148.199543347593,89.20042058925938,52352.29704846343,5163.34889885764,31.336741706230573,0.9912079074008008,60.0,16.0,362.0,100.0,462.0,44.0,849.0,849.0,44.0,20.0,24.0,0.4545454545454545,63.46379957340617,3960.101030698846,95.0,65.0,30.0,0.6842105263157895,11.754862004176584,2191.2690889693904,37.0,18.0,19.0,0.4864864864864865,1154.7793720984191,46259.85596973453,191.0,100.0,91.0,0.5235602094240838,19.214663247721575,4203.74268930812,60.0,26.0,34.0,0.4333333333333333,56.39748977568102,4766.077303737387,0.0,0.0,0.0,0.0,51864.0,51908.0,51924.0,52018.0,52040.0,52077.0,52095.0,52286.0,52326.0,52386.0,0.01344610217922188,-0.0049967714221599725,0.023244000461185865,-0.0046320489279586,0.010922657151477527
62,62,52743.78498208951,4104.227761117176,22.522068493030684,52829.4108511954,-1150.0331297402518,53.31339920404566,52916.63555898064,49031.23485375437,15.414492835387868,53010.986436005755,-3666.174458421847,101.91861603456228,53213.594949825194,5281.369014914455,31.636438684583844,0.9911650330858638,64.0,20.0,357.0,105.0,462.0,44.0,858.0,859.0,44.0,22.0,22.0,0.5,72.27257195492794,4054.14043589786,89.0,43.0,46.0,0.4831460674157303,15.64822267679092,1898.7652011193895,36.0,18.0,18.0,0.5,1169.2702858334949,44624.100630341774,189.0,57.0,132.0,0.3015873015873015,14.126753395196284,3346.653024356636,66.0,32.0,34.0,0.4848484848484848,53.66873298129676,4855.319309215432,0.0,0.0,0.0,0.0,52722.0,52766.0,52786.0,52875.0,52899.0,52935.0,52954.0,53143.0,53182.0,53248.0,0.017609298548103787,-0.013606758163849812,0.023847457428332802,-0.0038532681833360794,0.01016189795292425
63,63,53614.45739481219,4309.244570853225,21.73956555706349,53677.89025949353,-1443.65524673521,48.91677282068029,53786.13366022872,49183.90201844589,15.166084696537704,53888.534401406614,-3705.9188467056256,108.34382530012704,54080.840761241,5420.832261859752,30.82912270920175,0.992562378215526,60.0,18.0,360.0,102.0,462.0,42.0,870.0,869.0,43.0,22.0,21.0,0.5116279069767442,72.08747089609788,3736.4383970011904,94.0,27.0,67.0,0.2872340425531915,18.673111535769856,2077.37839712838,37.0,18.0,19.0,0.4864864864864865,1205.4602770756542,46058.033247265404,191.0,67.0,124.0,0.3507853403141361,11.704863670539789,3488.657572501849,62.0,28.0,34.0,0.4516129032258064,58.04112006930125,4988.920754494274,0.0,0.0,0.0,0.0,53592.0,53634.0,53652.0,53744.0,53768.0,53805.0,53823.0,54012.0,54053.0,54114.0,0.016728563373655223,-0.01293460580564413,0.024509244439848615,-0.003158424173520373,0.010707049631044808
64,64,54472.783438463135,4556.911541274972,23.43610078612174,54568.89720187836,-1797.205593630236,74.19505024016783,54648.03359780083,53923.30353488987,15.144846145153911,54770.904314908774,-3888.0715144165097,94.3886743794818,54943.16993141289,5307.991382288244,31.66556679982691,0.9936578392598756,63.0,17.0,360.0,104.0,464.0,46.0,863.0,863.0,47.0,24.0,23.0,0.5106382978723404,61.6233761575279,4003.335894038143,94.0,56.0,38.0,0.5957446808510638,15.5356449826929,1917.5429543524,37.0,18.0,19.0,0.4864864864864865,1290.1568542075731,50386.03912038405,190.0,87.0,103.0,0.4578947368421052,14.70230290801422,3669.0511977230335,62.0,28.0,34.0,0.4516129032258064,59.56356535811674,5037.611647866535,0.0,0.0,0.0,0.0,54450.0,54496.0,54513.0,54606.0,54630.0,54667.0,54684.0,54873.0,54915.0,54977.0,0.013523057360092267,-0.00864433375778223,0.02392577549283133,-0.00378138695584683,0.01122148870792613
65,65,55336.01684282694,4853.915588248329,26.149712776658593,55439.312930497545,-2415.99155173415,112.11047763801852,55511.788709809174,58311.09122220142,15.191091145910988,55652.531148051705,-4061.76769144838,91.81530278100736,55808.730816793985,5010.983262574666,31.110904390186104,0.9923567567290472,60.0,18.0,366.0,98.0,464.0,42.0,861.0,863.0,43.0,20.0,23.0,0.4651162790697674,68.12107422659697,3781.462748232301,95.0,63.0,32.0,0.6631578947368421,14.784361879181144,2304.795284820498,37.0,18.0,19.0,0.4864864864864865,1314.1519093707102,53313.516126333896,201.0,107.0,94.0,0.5323383084577115,23.1703620044287,3623.300605071873,58.0,25.0,33.0,0.4310344827586206,55.553063013731965,4473.351088342813,0.0,0.0,0.0,0.0,55317.0,55359.0,55377.0,55471.0,55494.0,55531.0,55546.0,55743.0,55784.0,55841.0,0.014034251932918422,-0.006119376480670732,0.022536911620517894,-0.005704502020933259,0.011086259941963677
66,66,56211.681571726906,4092.6222995372777,22.650414204942564,56288.86288579454,-1540.2166565221871,60.47302908438552,56383.63489455199,53196.65680362724,15.512828290858094,56471.71245330532,-4491.707998312826,94.2747198319701,56684.555146286984,4683.582686465695,28.849637224825035,0.9909715530671288,63.0,20.0,362.0,102.0,464.0,43.0,873.0,872.0,44.0,23.0,21.0,0.5227272727272727,67.35126615529711,3465.623556172889,91.0,37.0,54.0,0.4065934065934066,17.343438001620637,2438.8548500267684,38.0,19.0,19.0,0.5,1181.5418993854132,47652.40046695369,195.0,53.0,142.0,0.2717948717948718,15.22663732432017,4066.193944136907,62.0,30.0,32.0,0.4838709677419355,54.19953708202623,4209.299488030904,0.0,0.0,0.0,0.0,56189.0,56232.0,56252.0,56343.0,56365.0,56403.0,56419.0,56614.0,56655.0,56716.0,0.016456751008494485,-0.011260388548700779,0.022210829972774706,-0.0033899437207493438,0.011572238756165967
67,67,57093.09236707775,3872.782093874552,20.98882688697728,57187.10949479597,-1270.7044143080973,71.3430312241936,57266.80594781427,50677.76157476158,15.358117613458132,57368.95906230676,-4371.593610434585,112.82082820644406,57564.54949660399,4860.53821586702,30.16995211783713,0.9925325403203564,64.0,23.0,361.0,100.0,461.0,41.0,881.0,883.0,41.0,21.0,20.0,0.5121951219512195,69.59018622790363,3264.0387007071045,91.0,51.0,40.0,0.5604395604395604,18.43656933342948,2671.460447903196,37.0,18.0,19.0,0.4864864864864865,1176.106847935915,45689.29809746728,199.0,68.0,131.0,0.3417085427135678,22.43619266025186,3918.526323273337,58.0,26.0,32.0,0.4482758620689655,54.42652033086157,4167.532969783437,0.0,0.0,0.0,0.0,57072.0,57113.0,57136.0,57227.0,57249.0,57285.0,57302.0,57497.0,57539.0,57597.0,0.01796904254901717,-0.014508936244994672,0.0232075532026189,-0.005132268609483454,0.011197632425394479
68,68,57991.62216224403,3954.710545507933,20.726037517243267,58085.10949479597,-1432.8288689087856,56.145274572327736,58166.16780170881,50674.237537771965,15.293509632600744,58253.28779240518,-4061.124550908593,91.72675443110604,58466.617474512444,4349.064078917695,26.79105631751903,0.989719359808134,63.0,21.0,363.0,101.0,464.0,42.0,899.0,899.0,43.0,22.0,21.0,0.5116279069767442,68.36952199323459,3679.9390555593377,91.0,51.0,40.0,0.5604395604395604,12.192920387936123,2117.5169521474704,37.0,18.0,19.0,0.4864864864864865,1205.7097325320403,47103.77002642467,197.0,52.0,145.0,0.2639593908629442,18.217265887344062,3500.1659735246512,60.0,29.0,31.0,0.4833333333333333,47.98985879865395,4002.534026893889,0.0,0.0,0.0,0.0,57971.0,58013.0,58034.0,58125.0,58148.0,58185.0,58202.0,58397.0,58438.0,58498.0,0.017288122912280896,-0.00850968364227754,0.023793347292760326,-0.004485768820675131,0.011034525573280739
69,69,58871.73776496814,3980.5398502727794,19.240919994270246,58969.95881659626,-1555.9562834416492,58.309638725746595,59046.74168965419,50361.12678768523,15.372534455876838,59134.71245330532,-4256.023663176595,94.2747198319701,59346.54273876028,4476.687402367352,26.556767855032685,0.9905641292622712,59.0,18.0,368.0,100.0,468.0,41.0,880.0,881.0,41.0,21.0,20.0,0.5121951219512195,69.21766096323918,3564.6992795130545,97.0,60.0,37.0,0.6185567010309279,11.999578447109798,2228.83249518991,36.0,18.0,18.0,0.5,1195.6300795091995,45547.65802492483,197.0,53.0,144.0,0.2690355329949238,11.550148273192432,3809.517890476843,60.0,29.0,31.0,0.4833333333333333,49.31602583670039,4101.968594483161,0.0,0.0,0.0,0.0,58851.0,58892.0,58910.0,59007.0,59029.0,59065.0,59082.0,59278.0,59318.0,59378.0,0.017389013442107814,-0.007712028014416769,0.023741130426842755,-0.0027138355392910753,0.01101618706068715
70,70,59730.17048031209,4352.68162750586,24.171292650555937,59829.62703401214,-2005.0542254286163,81.22615505727515,59908.824542398914,50634.80487748754,15.192322836455554,60033.32897580892,-3940.181118300869,95.4759682760026,60205.06445287634,4953.573180996151,30.595548803445247,0.9935714121916318,59.0,15.0,369.0,101.0,470.0,44.0,861.0,862.0,45.0,21.0,24.0,0.4666666666666667,60.910835173053165,3831.7330748675186,99.0,61.0,38.0,0.6161616161616161,13.374467767125196,2147.8663439012253,36.0,18.0,18.0,0.5,1224.672245014835,46471.06154205751,194.0,88.0,106.0,0.4536082474226804,12.67719810575442,3640.627493820517,61.0,27.0,34.0,0.4426229508196721,52.90859585150403,4597.710557484087,0.0,0.0,0.0,0.0,59710.0,59754.0,59769.0,59868.0,59891.0,59927.0,59945.0,60138.0,60178.0,60239.0,0.013993864101647109,-0.006670377088812231,0.024186372357471644,-0.0032174150692903247,0.010680895167650323
71,71,60560.50678199713,4364.771350309246,27.10420008421978,60680.89050519657,-1565.6854252134938,71.3430312241936,60741.02967313203,55337.6874899548,15.204647882446428,60878.298222211226,-3493.2357319714324,86.41166717543051,61039.52397779217,5486.1163811063525,36.24206496870727,0.9881840304167998,73.0,16.0,361.0,110.0,471.0,57.0,835.0,832.0,70.0,41.0,29.0,0.5857142857142857,65.27238870026726,4684.312206030023,94.0,77.0,17.0,0.8191489361702128,23.79174719130991,936.3607546804546,37.0,18.0,19.0,0.4864864864864865,1300.2462018496965,52291.50092621917,173.0,85.0,88.0,0.4913294797687861,11.2912629786254,3374.681980693067,68.0,32.0,36.0,0.4705882352941176,56.22719160569723,5257.013107100661,0.0,0.0,0.0,0.0,60532.0,60589.0,60605.0,60697.0,60723.0,60760.0,60793.0,60966.0,61008.0,61076.0,0.014954366096552268,-0.01519573907259545,0.023496576398963624,-0.0032323220775750785,0.010248997232238486
72,72,61389.239610807876,4318.975168142632,23.121800912353503,61507.73982700431,-2205.1108531565433,76.4389620259217,61566.24893346241,57864.47957322437,15.22856983745196,61713.19181700276,-4168.060681083096,87.4773755433846,61863.60838791058,5233.68439636946,37.240614182579705,0.9905733790431672,63.0,15.0,366.0,103.0,469.0,48.0,821.0,826.0,48.0,23.0,25.0,0.4791666666666667,46.25605930777956,3794.0712376787696,97.0,80.0,17.0,0.8247422680412371,30.783726515948,1455.0397912259143,37.0,18.0,19.0,0.4864864864864865,1318.3516441722898,54687.822439734555,194.0,111.0,83.0,0.5721649484536082,13.17800568697712,4067.963690223238,62.0,28.0,34.0,0.4516129032258064,52.78143965528094,4850.941566169532,0.0,0.0,0.0,0.0,61366.0,61414.0,61429.0,61525.0,61548.0,61585.0,61602.0,61795.0,61836.0,61898.0,0.01070996185599092,-0.013960171876113219,0.022783435604980893,-0.00316166358776541,0.010084948892198152
73,73,62226.65724875154,4266.7482368145575,24.248084929955223,62343.46584430388,-1821.6038414668872,68.79506582332952,62401.71531831291,53671.05459502638,15.497253150525676,62536.16938442454,-4024.392227888524,93.42317770298344,62701.15388372115,5354.303673515406,40.41531108817898,0.989796061603444,65.0,17.0,358.0,110.0,468.0,48.0,841.0,835.0,49.0,24.0,25.0,0.4897959183673469,61.36324513594485,4253.295395201892,91.0,74.0,17.0,0.8131868131868132,32.26630701891237,1375.6079253048815,38.0,19.0,19.0,0.5,1183.5366506417772,49103.509987232035,189.0,98.0,91.0,0.5185185185185185,12.67658162577427,3830.924153817591,69.0,32.0,37.0,0.463768115942029,53.434134366145464,4923.6411866828,0.0,0.0,0.0,0.0,62204.0,62252.0,62269.0,62359.0,62383.0,62421.0,62438.0,62627.0,62669.0,62737.0,0.014381735628666256,-0.0177131307501686,0.022051674959102704,-0.0031499369116974184,0.009979660778385194
74,74,63090.36296486776,4516.822131091152,27.354873979427087,63165.16424219396,-1682.0710874472811,96.67762914846308,63265.144535055806,49776.185132245315,15.536484975669978,63375.08236680748,-3960.425001028849,105.06706381143309,63562.05838925083,5174.948251051145,32.04985764555572,0.9923011998444232,66.0,22.0,356.0,104.0,460.0,44.0,863.0,863.0,44.0,20.0,24.0,0.4545454545454545,64.85591022716682,3760.770608808294,93.0,32.0,61.0,0.3440860215053763,24.636648393693395,2437.459067779251,37.0,18.0,19.0,0.4864864864864865,1144.1915249039691,45774.54899072658,192.0,74.0,118.0,0.3854166666666667,16.498696076002414,3912.0085653630977,63.0,29.0,34.0,0.4603174603174603,50.85837072697356,4635.936604615922,0.0,0.0,0.0,0.0,63070.0,63114.0,63136.0,63225.0,63247.0,63284.0,63301.0,63492.0,63533.0,63596.0,0.014358747886204507,-0.01464661545968434,0.022986725918510677,-0.004165890295035594,0.00982780276433549
75,75,63982.822951814,4550.952329281175,24.474742415686,64046.43822489439,-1635.993848213419,99.37065063369822,64157.156378046544,49995.05670554159,15.358614778825167,64258.95906230676,-3923.608090921449,113.85496606550352,64452.432187312625,4883.371481917794,27.83305317726998,0.9932188862382816,60.0,20.0,364.0,95.0,459.0,40.0,891.0,892.0,40.0,19.0,21.0,0.475,69.43179655093097,3369.6708550128183,95.0,24.0,71.0,0.2526315789473684,29.34421736028186,2722.719919993464,37.0,18.0,19.0,0.4864864864864865,1190.399913054746,46058.42911734823,198.0,67.0,131.0,0.3383838383838384,22.02847684461285,3616.317649415142,55.0,24.0,31.0,0.4363636363636363,53.58201571013838,4258.999847068931,0.0,0.0,0.0,0.0,63964.0,64004.0,64024.0,64116.0,64139.0,64176.0,64192.0,64388.0,64428.0,64483.0,0.01525654226351735,-0.017936630625064457,0.023810352292745755,-0.005614341782907151,0.010972340709393603
76,76,64858.912579394055,4325.976476118668,20.94204602484258,64947.835512095546,-1415.6117026207005,78.98692742678539,65031.986170768825,49549.38688409403,15.281845622297244,65129.68507960633,-3702.947184832882,112.11047762656426,65327.22530223206,5074.687278354577,29.458495781858986,0.9935692643000732,58.0,18.0,362.0,102.0,464.0,40.0,876.0,875.0,40.0,20.0,20.0,0.5,72.54087172892656,3545.1486199443007,95.0,51.0,44.0,0.5368421052631579,10.02365179902828,2380.420624969472,37.0,18.0,19.0,0.4864864864864865,1197.6369697915902,45458.46531322815,192.0,63.0,129.0,0.328125,13.64532276270808,3750.262634411977,61.0,27.0,34.0,0.4426229508196721,48.27687903733966,4584.51778571708,0.0,0.0,0.0,0.0,64839.0,64879.0,64897.0,64992.0,65014.0,65050.0,65067.0,65259.0,65300.0,65361.0,0.016768669947556287,-0.007080791844593856,0.024170570921353756,-0.003684989842306894,0.009513271732675717
77,77,65723.29091968609,4658.850162294583,23.670564039274907,65801.16424219396,-1948.6343006908376,87.22287598752467,65901.40332868272,53629.73120886456,15.213248282761512,66013.93168860776,-4330.222485451544,102.95252213599422,66197.61223028641,5080.59232155834,29.3879422016917,0.9924284754677474,55.0,16.0,370.0,99.0,469.0,39.0,866.0,870.0,40.0,18.0,22.0,0.45,78.51874329021975,3825.09094428774,101.0,41.0,60.0,0.4059405940594059,14.53790322573659,2474.462719537203,36.0,17.0,19.0,0.4722222222222222,1289.9292141799976,50321.07434437988,195.0,77.0,118.0,0.3948717948717948,20.815938259991285,4038.1875088661022,58.0,26.0,32.0,0.4482758620689655,54.09343095063555,4586.729518604887,0.0,0.0,0.0,0.0,65706.0,65745.0,65761.0,65861.0,65884.0,65920.0,65937.0,66131.0,66172.0,66230.0,0.016853674309101965,-0.007460560055102466,0.024052501944421132,-0.004807129040119206,0.010647071744194542
78,78,66564.35610379743,4014.716199266548,22.378343504595673,66674.35610379743,-1564.6905827967178,45.86337721555302,66743.29313259364,56848.14934750506,15.141423812489714,66869.5456112707,-3942.8527568488776,97.9645236697206,67041.79165425793,5293.484789389684,34.50087471653771,0.9913920962084484,64.0,15.0,369.0,102.0,471.0,49.0,845.0,842.0,53.0,26.0,27.0,0.490566037735849,55.934843727068014,4238.5535866703685,95.0,69.0,26.0,0.7263157894736842,14.354866571479352,1729.8984301151888,37.0,18.0,19.0,0.4864864864864865,1312.7455474003184,54211.02013709703,196.0,91.0,105.0,0.4642857142857143,11.842702521118584,3701.020507006179,64.0,30.0,34.0,0.46875,51.87737452494251,4738.362736023486,0.0,0.0,0.0,0.0,66541.0,66590.0,66605.0,66700.0,66725.0,66762.0,66779.0,66974.0,67012.0,67076.0,0.01393245274405369,-0.009174252551467112,0.02309214217996231,-0.003003587313918173,0.009800231149983855
79,79,67401.66860783624,4550.160959157972,28.319608663683297,67514.28779240517,-1352.901726240302,78.55263820026974,67579.844928066,50405.77903120387,15.545209915110776,67726.237293613,-3431.9205782383083,94.99930468202297,67882.00417205706,5444.253511149016,50.18747651469459,0.98811975476053,71.0,19.0,354.0,114.0,468.0,52.0,838.0,836.0,71.0,42.0,29.0,0.5915492957746479,66.30074015515692,4808.743242521432,88.0,66.0,22.0,0.75,12.070313057112177,1054.5601228153262,38.0,19.0,19.0,0.5,1146.024691573301,46992.63540364576,185.0,108.0,77.0,0.5837837837837838,13.194008866469842,3142.61833640607,73.0,37.0,36.0,0.5068493150684932,47.94744913026031,5083.756164778928,0.0,0.0,0.0,0.0,67378.0,67430.0,67449.0,67535.0,67561.0,67599.0,67618.0,67803.0,67845.0,67917.0,0.014571075781773262,-0.008921795887315065,0.022735978167579763,-0.00384449714545628,0.008806983185494782
80,80,68242.50925932042,4113.112954164339,22.627398475624357,68360.31516610416,-2023.6839379660987,73.89099662505764,68417.59752416058,49098.45858615679,15.371437519201772,68553.12930884644,-4013.737972557634,90.07664697217383,68714.72961378269,5124.647927038358,33.34584795541122,0.9893997308195784,60.0,16.0,365.0,102.0,467.0,44.0,837.0,838.0,44.0,21.0,23.0,0.4772727272727273,68.50330937455028,3919.1219928759233,95.0,78.0,17.0,0.8210526315789474,31.197575773740617,1521.2339018252424,37.0,18.0,19.0,0.4864864864864865,1166.5094434125156,44538.80559344954,194.0,99.0,95.0,0.5103092783505154,11.882913897535309,4001.966788776667,63.0,29.0,34.0,0.4603174603174603,51.13812901712557,4674.204367167102,0.0,0.0,0.0,0.0,68222.0,68266.0,68282.0,68377.0,68400.0,68436.0,68454.0,68647.0,68686.0,68749.0,0.016654857315599323,-0.015416229376755198,0.023758575666190274,-0.0029605604498300817,0.00997885703470743
81,81,69085.31767484943,4431.256134390245,24.27048729856155,69158.80446420236,-1602.9902672376793,55.670555351866355,69259.8134280889,48340.68209456325,15.18625449119002,69381.0675467553,-3626.1994023518487,94.28367978728622,69555.93160982204,5186.7062236864585,33.70540640385268,0.9899064086997382,62.0,17.0,360.0,106.0,466.0,45.0,844.0,842.0,47.0,23.0,24.0,0.4893617021276595,67.70341961470575,4191.9179343602555,92.0,34.0,58.0,0.3695652173913043,17.54729270446781,1733.2461884916534,37.0,18.0,19.0,0.4864864864864865,1171.4497446763332,45050.12505801897,188.0,84.0,104.0,0.4468085106382978,11.17574228173183,3457.419213326893,65.0,30.0,35.0,0.4615384615384615,46.35868918150205,4879.185362188825,0.0,0.0,0.0,0.0,69063.0,69108.0,69125.0,69216.0,69242.0,69279.0,69297.0,69485.0,69526.0,69591.0,0.015278606688805624,-0.010946599653849321,0.024233206771571043,-0.0030819436665516973,0.008937982446314946
82,82,69932.31091978974,4654.799728757059,23.48341898457303,70015.58914880459,-2122.5268228145915,74.97513793302393,70106.872381085,48892.37486319282,15.168077664651584,70231.89244184007,-3968.411462811603,92.8353645702218,70401.84992869568,5068.430773368537,31.253191155014207,0.9918358949177676,56.0,16.0,364.0,102.0,466.0,40.0,846.0,847.0,41.0,19.0,22.0,0.4634146341463415,81.81049318597584,4051.452119739252,98.0,47.0,51.0,0.4795918367346938,15.288455410677336,2195.338368923895,36.0,18.0,18.0,0.5,1202.061311352429,45236.39214485507,191.0,89.0,102.0,0.4659685863874345,13.9359722040171,3827.308518999437,61.0,27.0,34.0,0.4426229508196721,50.088693612225626,4644.308024697087,0.0,0.0,0.0,0.0,69914.0,69954.0,69970.0,70067.0,70089.0,70125.0,70144.0,70334.0,70375.0,70436.0,0.017575513008767227,-0.007202950392119886,0.024585864661226864,-0.0035117256198387054,0.009882485497367482
83,83,70777.00711442035,4319.177345737589,24.848242720879952,70880.26041868448,-1593.2783334588942,72.92580790327547,70955.77592102948,53101.53153952835,15.127622895564803,71084.12892874458,-3866.8717903203697,92.63674572509294,71252.06750117961,5341.1719947335705,33.89956246248329,0.9917360425189304,64.0,16.0,362.0,107.0,469.0,48.0,846.0,849.0,49.0,23.0,26.0,0.4693877551020408,59.867788643077986,4244.860866653712,98.0,63.0,35.0,0.6428571428571429,14.971750934684648,1456.56355001818,37.0,18.0,19.0,0.4864864864864865,1270.0799726042658,49180.0267382429,189.0,92.0,97.0,0.4867724867724867,16.111620217726976,3762.132420025597,65.0,29.0,36.0,0.4461538461538462,45.742454796337306,4931.580484544928,0.0,0.0,0.0,0.0,70755.0,70803.0,70819.0,70914.0,70938.0,70975.0,70992.0,71181.0,71223.0,71288.0,0.013860923933155682,-0.00939682076902536,0.023917953697038447,-0.004166577298491743,0.008564123162751482
84,84,71612.93144289727,4783.202855328514,26.698342308262955,71700.83551209555,-1609.141015926841,63.99176648449227,71791.00549974326,58019.378966014025,15.076533930434255,71926.5437440353,-3795.122348003494,92.56872713388871,72087.70504483324,5365.193354344741,38.21038529673472,0.990873759358614,73.0,13.0,361.0,107.0,468.0,60.0,838.0,836.0,67.0,40.0,27.0,0.5970149253731343,59.08777463921027,4652.530235287786,94.0,49.0,45.0,0.5212765957446809,12.178449886049126,1598.7833714073142,37.0,18.0,19.0,0.4864864864864865,1328.5872352331014,54860.06320263407,174.0,86.0,88.0,0.4942528735632184,13.747038832940444,3658.91865957784,64.0,31.0,33.0,0.484375,60.39962317921718,5100.036861670786,0.0,0.0,0.0,0.0,71580.0,71640.0,71653.0,71745.0,71773.0,71810.0,71843.0,72014.0,72057.0,72121.0,0.012353181837852887,-0.007568292502341395,0.02289902544478022,-0.0036222913446182755,0.01125767874335889
85,85,72451.46756017434,4678.518510560714,30.98016421204982,72566.43847060489,-1368.4469609720709,79.70191927470718,72631.2983066696,58511.707931623736,15.167798730697102,72774.35636852962,-3853.3853163990166,96.7875480462465,72933.85283543372,5320.679372569887,46.592232698618794,0.9891827999161824,104.0,29.0,349.0,107.0,456.0,75.0,839.0,841.0,76.0,45.0,31.0,0.5921052631578947,51.97022241867298,4860.350238856718,77.0,56.0,21.0,0.7272727272727273,17.567444382317277,1223.0897318082004,38.0,18.0,20.0,0.4736842105263157,1257.7917091557026,55556.49605230529,179.0,92.0,87.0,0.5139664804469274,14.127643454295958,3658.587113263468,69.0,36.0,33.0,0.5217391304347826,51.55720569710475,4671.228581609866,0.0,0.0,0.0,0.0,72407.0,72482.0,72511.0,72586.0,72613.0,72651.0,72682.0,72860.0,72898.0,72967.0,0.011108264785393448,-0.012837504765137783,0.021496410780309932,-0.0036662939971697983,0.009689966654052043
86,86,73337.62630349249,3911.334114520794,24.14022183815416,73462.21923530243,-736.0874884349946,43.31541181468896,73515.26544130131,55319.96785712741,15.385249029814291,73623.29374234557,-3603.455162964531,107.5264856762857,73814.40506920194,5339.889420696133,34.95487039197569,0.9897001111377136,101.0,51.0,328.0,103.0,431.0,50.0,883.0,883.0,50.0,23.0,27.0,0.46,61.65042320763726,4312.58333090437,60.0,50.0,10.0,0.8333333333333334,68.40699391486423,551.1167675252221,38.0,18.0,20.0,0.4736842105263157,1195.2470231730765,52046.872904862226,196.0,73.0,123.0,0.3724489795918367,26.118384513379805,2995.869838011281,65.0,32.0,33.0,0.4923076923076923,56.6506193959879,4785.534965000616,0.0,0.0,0.0,0.0,73315.0,73365.0,73416.0,73472.0,73497.0,73535.0,73551.0,73744.0,73782.0,73847.0,0.01576199358136156,-0.09293323822186579,0.021606068648846496,-0.00724815027027905,0.010608949911289111
87,87,74255.54145762762,3971.4726116369184,22.62338045933581,74345.83551209555,-1141.24787427875,58.583169880063615,74431.61269360052,52789.172098071555,15.282899526061255,74517.28779240517,-4034.9560035486543,91.72675443110604,74733.37613401543,4461.346267597702,28.749749470866497,0.988947424024469,72.0,27.0,358.0,101.0,459.0,45.0,914.0,916.0,45.0,23.0,22.0,0.5111111111111111,70.66280369477593,3806.411355593883,87.0,43.0,44.0,0.4942528735632184,18.18056125695519,2117.9295933791454,38.0,19.0,19.0,0.5,1180.1787127535215,47637.14659172077,198.0,51.0,147.0,0.2575757575757575,23.33280624230019,3162.914337224584,62.0,31.0,31.0,0.5,53.27167195859829,4202.4273935985675,0.0,0.0,0.0,0.0,74233.0,74278.0,74305.0,74390.0,74413.0,74451.0,74466.0,74663.0,74702.0,74764.0,0.01779259499051434,-0.015930422887705274,0.022356454284999758,-0.005782666830017355,0.011940716717172338
88,88,75155.89731169153,3924.652119321378,21.762078754840296,75254.38347749642,-1045.0021876797543,60.26465367978856,75331.69039796201,50436.255205063775,15.25472145619136,75419.71245330531,-3764.350067846898,94.2747198319701,75631.35998167645,4581.388374347028,28.18108934662928,0.99034890417889,74.0,31.0,352.0,102.0,454.0,43.0,903.0,900.0,44.0,22.0,22.0,0.5,72.37293144598183,3893.796342779993,84.0,47.0,37.0,0.5595238095238095,15.657040749129996,1947.331646140527,37.0,18.0,19.0,0.4864864864864865,1166.3231672989575,45772.63539021655,197.0,54.0,143.0,0.2741116751269035,19.20639523070616,3148.417238194137,64.0,31.0,33.0,0.484375,43.42053609344384,4264.6274006637595,0.0,0.0,0.0,0.0,75135.0,75178.0,75209.0,75290.0,75314.0,75350.0,75367.0,75561.0,75601.0,75663.0,0.018440597853166162,-0.01498278274794212,0.023124697949063022,-0.005102180956749242,0.009477593372474658
89,89,76062.55447511082,4075.819474280077,23.42600018161354,76155.68483389584,-1166.8785848167583,57.77149378473049,76238.19148338967,50135.457802742334,15.205904894848905,76327.13711420546,-4066.30062524854,96.82268523283416,76538.89298472475,4607.223084845267,28.35702521027561,0.9897045762395706,77.0,33.0,350.0,103.0,453.0,44.0,906.0,907.0,45.0,23.0,22.0,0.5111111111111111,72.68063065127156,4034.681469126445,83.0,41.0,42.0,0.4939759036144578,15.496817521825944,2223.728927678304,37.0,18.0,19.0,0.4864864864864865,1193.4155600148908,46540.511805285154,198.0,54.0,144.0,0.2727272727272727,25.813676898232295,3277.1618185392463,62.0,30.0,32.0,0.4838709677419355,48.97783522354533,4290.375576451499,0.0,0.0,0.0,0.0,76041.0,76085.0,76118.0,76197.0,76220.0,76257.0,76273.0,76468.0,76509.0,76571.0,0.017832151573422994,-0.013280574108967385,0.023803822929280457,-0.006348196869151678,0.01063066283563524
90,90,76963.89344034171,4193.085571050302,23.65145668713336,77040.32437435875,-1469.0456728454176,57.739048491366,77137.762037984,50149.51510794218,15.12324235382081,77225.71245330531,-4133.34683498093,94.2747198319701,77438.45963544934,4506.278643102034,26.92831489570121,0.9899714837160436,69.0,26.0,359.0,99.0,458.0,43.0,901.0,899.0,43.0,22.0,21.0,0.5116279069767442,72.22650379844792,3860.0014314214905,89.0,31.0,58.0,0.348314606741573,25.780986669034174,2431.5699301935165,36.0,18.0,18.0,0.5,1202.235557183994,45640.45676513728,199.0,54.0,145.0,0.271356783919598,21.348383403961847,3516.169119046762,58.0,27.0,31.0,0.4655172413793103,51.722144274466594,4288.211825172226,0.0,0.0,0.0,0.0,76942.0,76985.0,77011.0,77097.0,77120.0,77156.0,77173.0,77370.0,77411.0,77469.0,0.0172251442463065,-0.017549479329052157,0.023973024556594284,-0.0051649145973641335,0.011477795398569069
91,91,77850.77268671861,4337.07105169802,21.685270591272257,77924.73958129382,-1538.5901597984898,52.51186032860481,78026.0079163891,53326.57061043057,15.064029739015316,78116.5617751056,-3994.255574257548,99.37065063369822,78325.01976399918,4939.763478449628,28.947080160500285,0.992270378482692,59.0,16.0,365.0,105.0,470.0,43.0,888.0,888.0,44.0,23.0,21.0,0.5227272727272727,64.35857160747138,3802.0622321090023,98.0,37.0,61.0,0.3775510204081632,11.84679673387969,2092.399882014374,37.0,18.0,19.0,0.4864864864864865,1275.63634486591,49404.66978559347,193.0,56.0,137.0,0.2901554404145077,15.841209839972878,3676.699818980555,62.0,29.0,33.0,0.4677419354838709,49.494322504215475,4632.783313780605,0.0,0.0,0.0,0.0,77829.0,77872.0,77888.0,77986.0,78008.0,78045.0,78061.0,78253.0,78296.0,78358.0,0.014839178524011995,-0.007699774146112616,0.023921214701483128,-0.0039659980553240996,0.010019573350048239
92,92,78698.6389611888,4345.634409584755,20.65879307460187,78792.10949479598,-2073.3905812233447,71.3430312241936,78874.84060074744,57414.91898391863,15.060686684209928,79004.13887615649,-4391.334549108022,94.338339060059,79172.35501859753,5094.4641848422325,31.1583215342993,0.9918573983723312,55.0,15.0,374.0,96.0,470.0,40.0,848.0,849.0,40.0,20.0,20.0,0.5,74.97113313026506,3614.27186091198,98.0,58.0,40.0,0.5918367346938775,9.324520259847423,2277.9066123745806,37.0,18.0,19.0,0.4864864864864865,1333.189660750162,53135.31280727417,198.0,94.0,104.0,0.4747474747474747,10.134325101024782,4304.764285152383,57.0,25.0,32.0,0.4385964912280701,56.87629187984819,4627.7124163273165,0.0,0.0,0.0,0.0,78679.0,78719.0,78734.0,78832.0,78857.0,78894.0,78910.0,79108.0,79147.0,79204.0,0.017252057136906942,-0.004497232863065172,0.023220265470087584,-0.0023078007352191577,0.011164332462886783
93,93,79537.35610379743,4769.137058371784,26.398281340294837,79638.4110969059,-1649.4904668625406,73.45440931599173,79713.95517076635,55780.20145946001,15.238801401602291,79850.14014087971,-4141.330047242585,93.88462487131224,80014.96294159698,5118.021469048827,40.02906740172291,0.9903117613724386,70.0,17.0,363.0,106.0,469.0,53.0,842.0,839.0,58.0,31.0,27.0,0.5344827586206896,61.616897136693005,4630.850578758074,90.0,58.0,32.0,0.6444444444444445,11.729708092207026,1606.448675151752,37.0,18.0,19.0,0.4864864864864865,1261.2870766580354,52041.35906026079,194.0,100.0,94.0,0.5154639175257731,15.95528734728047,4092.995251034427,66.0,32.0,34.0,0.4848484848484848,43.219787585461226,4573.515823286565,0.0,0.0,0.0,0.0,79510.0,79563.0,79580.0,79670.0,79696.0,79733.0,79750.0,79943.0,79983.0,80049.0,0.012919925844557176,-0.007111109962652797,0.022611733978313342,-0.003852696395908834,0.008444628035820554
94,94,80386.3159418991,4622.528213622508,27.314486597769484,80489.98643600574,-1500.564694461974,78.82004109126873,80560.75865202505,50333.62254063952,15.518731940016275,80691.62372381966,-3322.1925151691757,94.98464126256412,80861.81055134138,5217.652796716323,38.91730112507475,0.98996103322712,71.0,20.0,355.0,109.0,464.0,51.0,847.0,847.0,53.0,25.0,28.0,0.4716981132075472,59.80394505437924,4536.802690740813,86.0,58.0,28.0,0.6744186046511628,12.464479374810724,1407.7899185193362,38.0,19.0,19.0,0.5,1132.3208675164365,46415.45402294876,190.0,94.0,96.0,0.4947368421052631,19.39945532546541,3171.0197897581807,69.0,34.0,35.0,0.4927536231884058,47.03584467978041,4787.942203151007,0.0,0.0,0.0,0.0,80362.0,80413.0,80433.0,80518.0,80542.0,80580.0,80598.0,80788.0,80829.0,80897.0,0.012937497034228604,-0.008306525817122367,0.022496311816265505,-0.005839353149128847,0.009014751749940498
95,95,81259.29228263597,4479.848739229633,23.518602193497713,81324.31492039368,-1673.5045671945122,73.01340659060773,81432.35878288881,49459.030023412626,15.414600642656442,81522.13711420546,-4304.725988034337,96.82268523283416,81731.42759826721,4581.365026104788,27.921371629316425,0.9918856588731404,60.0,19.0,363.0,101.0,464.0,41.0,871.0,872.0,41.0,20.0,21.0,0.4878048780487805,69.2831659344241,3577.870190994524,95.0,26.0,69.0,0.2736842105263158,23.68949002036361,2519.899964435308,37.0,18.0,19.0,0.4864864864864865,1164.6643302809005,45881.00204046389,195.0,54.0,141.0,0.2769230769230769,13.208567270250054,3980.950448982566,60.0,28.0,32.0,0.4666666666666667,54.09647955683593,4344.133707996431,0.0,0.0,0.0,0.0,81239.0,81280.0,81299.0,81392.0,81414.0,81451.0,81468.0,81662.0,81704.0,81763.0,0.015465514566980275,-0.014155617190861345,0.02354806250202599,-0.00306838746692945,0.011807939172843068
96,96,82129.0292431961,4049.764187228117,19.7093578270632,82217.83551209555,-1587.2210366926845,57.97585870129821,82301.49387221545,49292.19402368598,15.316590663521666,82392.5617751056,-4276.651654927701,99.37065063369822,82599.28297663764,4573.584436377133,26.924748056389273,0.9912935151700484,58.0,17.0,365.0,100.0,465.0,41.0,868.0,869.0,41.0,21.0,20.0,0.5121951219512195,70.50601894020916,3510.873117738275,96.0,52.0,44.0,0.5416666666666666,9.540102315295478,2417.796615656638,36.0,17.0,19.0,0.4722222222222222,1193.9510269430696,46160.50565075169,194.0,56.0,138.0,0.2886597938144329,11.475876826821832,3925.538683035953,59.0,27.0,32.0,0.4576271186440678,48.78814923969391,4200.061242482374,0.0,0.0,0.0,0.0,82108.0,82149.0,82166.0,82262.0,82284.0,82320.0,82337.0,82531.0,82572.0,82631.0,0.017409907263876364,-0.006010569476305788,0.024221908774629708,-0.002683378903118972,0.010667376959665447
97,97,82992.63365109106,4386.180939288034,22.240812110479105,83063.31492039368,-1481.1754259815468,50.30624144234074,83167.7243111091,49192.05132719638,15.229510261986109,83255.28779240517,-3901.158670063103,91.72675443110604,83467.174813965,4749.4137574645765,29.771404004569995,0.9915128975415342,60.0,17.0,363.0,107.0,470.0,43.0,864.0,866.0,44.0,23.0,21.0,0.5227272727272727,76.988971111121,4077.330174247905,97.0,33.0,64.0,0.3402061855670103,12.978949977577122,1853.6629827986928,36.0,18.0,18.0,0.5,1191.458910616896,44994.24013601367,191.0,51.0,140.0,0.2670157068062827,13.64905091842244,3455.486592254549,66.0,32.0,34.0,0.4848484848484848,44.842094110035454,4544.993958261453,0.0,0.0,0.0,0.0,82971.0,83014.0,83031.0,83126.0,83150.0,83186.0,83204.0,83394.0,83435.0,83501.0,0.01755262087377952,-0.008762601478468506,0.024220557559025486,-0.0034987171947563106,0.009441606143401986
98,98,83838.86633439882,3587.9904773438484,18.541072327086127,83940.2327992967,-2365.381263518917,58.60320421987331,84013.80617120344,52628.179538372045,15.037810373326725,84138.36488149973,-4417.421343227562,92.52523683669116,84308.59286984042,5065.381500346187,29.051155275596457,0.9929497444614804,55.0,16.0,369.0,97.0,466.0,39.0,842.0,846.0,39.0,20.0,19.0,0.5128205128205128,68.74412885620268,3019.75493202352,101.0,67.0,34.0,0.6633663366336634,13.116620401722685,2413.402299147956,36.0,18.0,18.0,0.5,1282.0104942161,48557.590918090646,193.0,88.0,105.0,0.4559585492227979,13.595621334732916,4188.374020552693,55.0,24.0,31.0,0.4363636363636363,68.18742784054733,4765.324726481095,0.0,0.0,0.0,0.0,83819.0,83858.0,83874.0,83973.0,83996.0,84032.0,84050.0,84243.0,84285.0,84340.0,0.019159507052842913,-0.005545245751295681,0.024359772757888493,-0.003077727995219799,0.01346145948452
99,99,84664.21269126209,4609.657443104921,25.13167453356178,84765.26041870618,-2152.052714485441,86.11577929602022,84840.78226875814,57200.82381149839,15.09184797256654,84983.70519841561,-4395.7381807979145,88.67481018724304,85138.71447554206,5138.832869215142,36.106487821410624,0.9900510761132512,62.0,15.0,367.0,101.0,468.0,47.0,834.0,827.0,48.0,23.0,25.0,0.4791666666666667,57.53541359765146,3912.838656086103,97.0,62.0,35.0,0.6391752577319587,13.998560677890964,1861.879530820519,37.0,18.0,19.0,0.4864864864864865,1322.50767029175,52748.66683166845,195.0,107.0,88.0,0.5487179487179488,14.509396363123477,4313.007412887217,60.0,27.0,33.0,0.45,49.2637631163585,4647.522497191049,0.0,0.0,0.0,0.0,84642.0,84689.0,84704.0,84800.0,84823.0,84860.0,84877.0,85071.0,85112.0,85172.0,0.012481494407727054,-0.00650474804063433,0.023120430479287996,-0.0033007872094169472,0.00958656651619857
100,100,85497.58707601558,4080.818905025252,26.905324806096225,85609.83575780604,-1903.6221293201716,84.55046530622536,85675.65620890378,51119.975476060856,15.451650181124975,85816.66198418976,-3772.2257336235953,88.89623732174854,85974.32982529337,5243.362604122832,36.855349329806856,0.9902985926399738,65.0,16.0,363.0,107.0,470.0,49.0,834.0,835.0,50.0,24.0,26.0,0.48,56.182798131973975,3799.184936028718,94.0,70.0,24.0,0.7446808510638298,15.618505517649693,1647.9363767500715,38.0,19.0,19.0,0.5,1148.0357571998054,46702.829725529526,190.0,104.0,86.0,0.5473684210526316,15.95030773299286,3847.098036516745,65.0,29.0,36.0,0.4461538461538462,51.73290571844451,4889.867357116802,0.0,0.0,0.0,0.0,85475.0,85524.0,85540.0,85634.0,85657.0,85695.0,85713.0,85903.0,85945.0,86010.0,0.01376753035102554,-0.00820462489749866,0.022457674255681577,-0.00422835452046795,0.009866360506474828
101,101,86321.97301679167,4379.848594091825,25.18329297007553,86440.31516610416,-1890.128883400112,73.89099662505764,86498.77039972875,48513.154194546034,15.346879531315318,86641.3128646536,-3707.1541742295817,86.66050888982642,86795.670906809,5364.101228959047,38.71525407747774,0.9884756173995436,62.0,17.0,358.0,111.0,469.0,45.0,823.0,823.0,48.0,22.0,26.0,0.4583333333333333,71.67995609266637,4575.973326897334,93.0,76.0,17.0,0.8172043010752689,28.15102469943695,1280.0696662737937,37.0,18.0,19.0,0.4864864864864865,1156.9717872631352,44842.43465489415,186.0,104.0,82.0,0.5591397849462365,10.605518061669985,3672.799858473024,69.0,32.0,37.0,0.463768115942029,45.94911444614918,5063.529554115998,0.0,0.0,0.0,0.0,86302.0,86347.0,86364.0,86457.0,86481.0,86518.0,86537.0,86722.0,86764.0,86833.0,0.016365852506718768,-0.014893706427466829,0.023848620162347737,-0.0028608246550398775,0.008566041632116259
102,102,87170.68484393414,4288.164530652323,20.901081418172833,87287.03608286504,-2125.681026464767,78.98692742678575,87345.15965017582,48879.44041103238,15.222377603856978,87480.35240617253,-3766.83573542419,86.41626925681786,87640.95815746291,5026.709819068104,31.91950068640845,0.9923169518089002,57.0,16.0,363.0,104.0,467.0,41.0,844.0,847.0,41.0,20.0,21.0,0.4878048780487805,75.67127548047432,3801.5457736217368,97.0,79.0,18.0,0.8144329896907216,26.175438972022057,1634.5953354822384,37.0,18.0,19.0,0.4864864864864865,1192.067209350468,45764.828016152016,190.0,98.0,92.0,0.5157894736842106,17.628903837974818,3688.754315395172,61.0,27.0,34.0,0.4426229508196721,58.59356092240101,4820.740102605789,0.0,0.0,0.0,0.0,87151.0,87192.0,87208.0,87305.0,87327.0,87364.0,87382.0,87571.0,87614.0,87675.0,0.017646541997063503,-0.012313907235440017,0.024387906230641118,-0.004680029891452008,0.011656443883061387
103,103,88019.8285866296,4169.008551101082,20.023148245303148,88118.80813839656,-2085.788242099031,61.15116962073736,88192.6022649818,48824.46568631572,15.11628836405501,88313.4529168527,-4282.896432101604,95.51512644071512,88488.4339863487,4961.007141319904,30.691669863548775,0.992053526083777,59.0,18.0,363.0,101.0,464.0,41.0,851.0,847.0,41.0,21.0,20.0,0.5121951219512195,76.20263622068364,3678.979100872045,95.0,61.0,34.0,0.6421052631578947,10.941955985567514,2345.427241492991,36.0,18.0,18.0,0.5,1198.9135013249563,44332.80695497614,192.0,84.0,108.0,0.4375,11.259751155444034,4189.8789842416645,60.0,26.0,34.0,0.4333333333333333,53.37804080479778,4526.373526381237,0.0,0.0,0.0,0.0,87999.0,88040.0,88058.0,88153.0,88175.0,88211.0,88229.0,88421.0,88462.0,88522.0,0.01827835929973271,-0.005245957266762654,0.02455558877034433,-0.0026290038374612084,0.010759517026334344
104,104,88884.99972524149,4141.757955901802,22.821654650194,88960.01356399426,-1164.376948505806,53.72972432149503,89057.4267157573,49450.992343614176,15.158076183481905,89149.98643600574,-4016.792062391962,101.91861603456228,89355.14960878056,4831.696052515913,29.68341452631719,0.991283175626222,66.0,24.0,354.0,103.0,457.0,42.0,865.0,865.0,42.0,21.0,21.0,0.5,70.47489118185528,3899.588487054248,89.0,32.0,57.0,0.3595505617977528,20.42727071646547,2136.3941086882905,36.0,17.0,19.0,0.4722222222222222,1221.4957195890515,46643.543758498214,192.0,57.0,135.0,0.296875,16.414750165624387,3809.253342313397,60.0,28.0,32.0,0.4666666666666667,53.77424095161464,4581.083665949327,0.0,0.0,0.0,0.0,88864.0,88906.0,88930.0,89017.0,89040.0,89076.0,89093.0,89284.0,89327.0,89387.0,0.017015695251199316,-0.017543520371713722,0.024701136654678046,-0.004086532215424056,0.011129475109183213
105,105,89765.86674668218,4714.726153890377,23.74955873451166,89829.86288579454,-1631.945273062242,74.59688395394103,89939.70082678867,50064.699497604066,15.087875104916296,90029.13711420546,-4083.350047550449,96.82268523283416,90238.31348442276,4564.602199057442,27.607317850524957,0.9921222073624124,62.0,21.0,361.0,100.0,461.0,41.0,881.0,882.0,42.0,21.0,21.0,0.5,77.63433050195464,3866.0074797775137,95.0,24.0,71.0,0.2526315789473684,24.40302321354768,2442.976232060608,36.0,18.0,18.0,0.5,1227.2779979015438,45375.99539843382,194.0,54.0,140.0,0.2783505154639175,14.725074316888673,3752.5846339485465,58.0,27.0,31.0,0.4655172413793103,53.31742271099041,4322.543162332562,0.0,0.0,0.0,0.0,89746.0,89787.0,89808.0,89900.0,89922.0,89958.0,89975.0,90169.0,90211.0,90269.0,0.01646634989349155,-0.014953334291509024,0.024513839296294537,-0.00360612588815942,0.011680628538013691
106,106,90631.56577281594,4770.178633708075,26.2328378304605,90713.01356399426,-2254.0628782370977,101.91861603456228,90810.3360229384,52602.64971929737,14.974229861841506,90939.91302339367,-4205.02492687149,95.2097591921292,91106.75597037784,5015.210432363749,30.105855019919066,0.9933501005699592,55.0,16.0,370.0,100.0,470.0,39.0,869.0,871.0,40.0,17.0,23.0,0.425,76.3476956108013,3794.371712521725,101.0,43.0,58.0,0.4257425742574257,16.711299576459865,2489.824436375656,36.0,17.0,19.0,0.4722222222222222,1295.170867771723,49438.30815799957,198.0,95.0,103.0,0.4797979797979798,18.82191091862046,3739.789667708522,59.0,26.0,33.0,0.4406779661016949,49.39705978057136,4434.674688462878,0.0,0.0,0.0,0.0,90615.0,90654.0,90670.0,90770.0,90793.0,90829.0,90846.0,91040.0,91081.0,91140.0,0.016005206822087666,-0.007413856879418453,0.024621779980345503,-0.004476052162816508,0.009849449080303045
107,107,91471.8375582281,4129.4925197239345,22.500728240710032,91569.53415569612,-2010.6187391154976,68.79506582332952,91649.12363136344,57164.178138797826,15.013464493026907,91777.18156952328,-4244.898169925762,92.49466819849948,91947.5580310646,4871.205147275014,34.06030884696231,0.9918044497170564,61.0,16.0,365.0,105.0,470.0,45.0,834.0,839.0,45.0,22.0,23.0,0.4888888888888889,57.76296278314905,3549.3330574045567,98.0,60.0,38.0,0.6122448979591837,18.080160532175196,2056.541277236994,37.0,18.0,19.0,0.4864864864864865,1350.4691591499018,53713.45682121195,191.0,92.0,99.0,0.4816753926701571,18.2681766739957,4201.080576740875,61.0,28.0,33.0,0.4590163934426229,52.580447512067686,4536.482483087454,0.0,0.0,0.0,0.0,91450.0,91495.0,91511.0,91608.0,91631.0,91668.0,91685.0,91876.0,91920.0,91981.0,0.013987908322209681,-0.008992336627743229,0.023624395611371987,-0.004303560637431071,0.010794135316079135
108,108,92295.03720127308,4532.447138507572,26.47657064610273,92403.10974050646,-1506.5112025882645,76.99547532067191,92473.49270264144,56099.24756252542,15.244050564133437,92616.97895044013,-4075.5973778422176,90.0675496899945,92773.02137402828,5225.970249677768,39.587459517663525,0.9915602320829712,68.0,17.0,362.0,107.0,469.0,51.0,831.0,824.0,55.0,27.0,28.0,0.4909090909090909,61.44723082418686,4564.310007430484,92.0,65.0,27.0,0.7065217391304348,11.520437662534793,1255.340072697517,38.0,18.0,20.0,0.4736842105263157,1281.2422553543076,53958.39485072301,179.0,94.0,85.0,0.5251396648044693,16.31552208538184,4085.6844120739215,65.0,30.0,35.0,0.4615384615384615,53.760032135774146,4811.8912102441245,0.0,0.0,0.0,0.0,92271.0,92322.0,92339.0,92429.0,92455.0,92493.0,92526.0,92701.0,92743.0,92808.0,0.013557186426319796,-0.007647097242119463,0.022838849200718762,-0.004003222245181619,0.01028709111749899
109,109,93137.36429658715,4639.467655599016,25.19957288102685,93241.26041870618,-1544.3392349992912,75.12927009664536,93311.82462168673,50970.79863505431,15.46536051918654,93441.26245881165,-3819.197771430496,94.42872915526326,93612.1912415396,5168.67112416081,39.111894488045,0.98883627152542,65.0,17.0,357.0,110.0,467.0,48.0,839.0,838.0,49.0,23.0,26.0,0.4693877551020408,69.50923814221406,4674.260756932047,91.0,62.0,29.0,0.6813186813186813,10.881080326803051,1530.0181254284705,38.0,19.0,19.0,0.5,1143.968367982531,46947.72205857664,190.0,93.0,97.0,0.4894736842105263,13.27316463314534,3710.6998231336142,66.0,31.0,35.0,0.4696969696969697,50.66162343832045,4807.650214344514,0.0,0.0,0.0,0.0,93115.0,93163.0,93180.0,93269.0,93293.0,93331.0,93348.0,93537.0,93581.0,93647.0,0.014982158148754138,-0.0070457837761326095,0.022443602976936407,-0.0034753802833765854,0.009801672851945269
110,110,94003.0540187448,4331.006496222613,21.811081260864235,94063.73958129382,-1667.2121847982216,55.150172870293986,94175.1549869026,49559.14792713675,15.30924167126207,94268.4110969059,-4480.554278211366,104.46658143542632,94472.45973048378,4635.107839232104,27.563518197554743,0.9910526516514347,57.0,16.0,368.0,96.0,464.0,41.0,864.0,864.0,42.0,22.0,20.0,0.5238095238095238,66.97181468965034,3327.435911985965,97.0,26.0,71.0,0.268041237113402,19.323266634491727,2536.5330121763996,37.0,18.0,19.0,0.4864864864864865,1177.247483163095,45680.38943570298,197.0,58.0,139.0,0.2944162436548223,14.427486032572052,4121.201996852715,56.0,25.0,31.0,0.4464285714285714,53.35814831062139,4228.990848233558,0.0,0.0,0.0,0.0,93982.0,94023.0,94039.0,94135.0,94157.0,94194.0,94210.0,94407.0,94447.0,94503.0,0.015463337390064261,-0.011590166393145916,0.023754393132301575,-0.003220022599152954,0.011511738272622628
111,111,94863.749311639,4304.055217531344,22.779200530209767,94931.89025949356,-1680.2945682783647,55.72360581473849,95035.8335260957,49159.89449847426,15.24646205635326,95126.13711420546,-4354.14809644524,96.82268523279323,95334.00015029473,4649.155297754174,27.779620063537088,0.9912672097682405,62.0,21.0,361.0,101.0,462.0,41.0,859.0,860.0,41.0,22.0,19.0,0.5365853658536586,74.5277029523697,3554.604941126998,93.0,29.0,64.0,0.3118279569892473,22.741925933422415,2456.7970942794127,36.0,18.0,18.0,0.5,1187.1132667223458,44709.88502172361,196.0,55.0,141.0,0.2806122448979591,15.884265849579666,3928.9057169160424,60.0,28.0,32.0,0.4666666666666667,50.30187839307555,4321.868960916736,0.0,0.0,0.0,0.0,94842.0,94883.0,94904.0,94996.0,95018.0,95054.0,95072.0,95265.0,95306.0,95366.0,0.01731569396433445,-0.01353448756114463,0.024148002733390513,-0.003648076615158704,0.010819573701350529
112,112,95737.63258931183,4464.206744945889,21.69223271057801,95802.61627679312,-1971.090381205892,63.87246774815799,95910.99291118694,49782.21487400689,15.181772146474902,96000.13711420546,-4296.160824587426,96.82268523283416,96208.3579352147,4590.193446278956,26.79171336845305,0.9929477545252045,56.0,16.0,367.0,100.0,467.0,40.0,875.0,876.0,40.0,21.0,19.0,0.525,67.49243287076789,3253.9838919632643,99.0,31.0,68.0,0.3131313131313131,14.59587283591527,2664.4119123875007,36.0,18.0,18.0,0.5,1208.9054366123862,45658.39476608934,194.0,54.0,140.0,0.2783505154639175,10.742159808091856,3929.541629059892,59.0,27.0,32.0,0.4576271186440678,52.11946760215254,4253.659069174472,0.0,0.0,0.0,0.0,95717.0,95757.0,95773.0,95871.0,95893.0,95929.0,95946.0,96140.0,96181.0,96240.0,0.015118572397476623,-0.007404973904334955,0.024283882098697057,-0.0025004091435807596,0.011354525296619738
113,113,96589.40635291,3646.650854940353,17.389345894481593,96700.78076469756,-1335.8429626816849,43.31541181468893,96764.74044872182,49852.03720050092,15.331455151586304,96856.5617751056,-4321.740470044314,99.37065063368397,97061.54998433804,4704.862000560964,27.948318302109083,0.9912551851034253,56.0,15.0,366.0,101.0,467.0,41.0,852.0,853.0,41.0,19.0,22.0,0.4634146341463415,69.89557495889622,3675.404573768733,99.0,75.0,24.0,0.7575757575757576,15.178609364028809,1952.3828306267671,36.0,18.0,18.0,0.5,1213.986086611779,45290.115377123824,192.0,56.0,136.0,0.2916666666666667,10.045733244852014,4034.9703320222425,58.0,27.0,31.0,0.4655172413793103,51.84833926777501,4322.427012793397,0.0,0.0,0.0,0.0,96570.0,96611.0,96626.0,96725.0,96747.0,96783.0,96801.0,96992.0,97035.0,97093.0,0.019167059786983496,-0.011362570143393185,0.02435178489756043,-0.002324464718435304,0.01102016153961436
114,114,97422.24998233072,3934.9868410151335,25.231517468991825,97532.5344014066,-1997.874855767635,82.45597556462799,97600.10773527784,49373.42152425134,15.114867170993444,97735.48843698407,-3516.3750270206056,83.54885727644266,97896.82375857457,5223.576219353531,34.20170763941201,0.9924364142374827,60.0,17.0,356.0,113.0,469.0,43.0,836.0,836.0,46.0,21.0,25.0,0.4565217391304347,63.96849837354457,3710.624640605944,97.0,71.0,26.0,0.7319587628865979,10.684677877411756,1774.2434762158234,37.0,18.0,19.0,0.4864864864864865,1230.0644960041418,46547.23142646222,182.0,97.0,85.0,0.532967032967033,11.562576843121647,3668.5796630991063,63.0,28.0,35.0,0.4444444444444444,54.07627331996676,5167.824270314961,0.0,0.0,0.0,0.0,97403.0,97446.0,97463.0,97559.0,97582.0,97619.0,97638.0,97819.0,97869.0,97932.0,0.016256343657058383,-0.005348021597331945,0.02491349511598981,-0.003288209236578079,0.010352346945682976
115,115,98245.56434652118,4284.096732129851,25.326755887998637,98340.13711420546,-1946.055586628397,75.42648842848888,98423.36995936956,53387.85809144531,15.09559823960225,98553.25318317198,-4134.88693827552,89.94003727470229,98720.42117558386,5260.782850093405,33.80138038927892,0.9908339052686744,62.0,16.0,361.0,109.0,470.0,46.0,824.0,823.0,48.0,23.0,25.0,0.4791666666666667,56.68741344278681,3838.875687641016,97.0,55.0,42.0,0.5670103092783505,14.909959624073917,1785.6348071964603,37.0,18.0,19.0,0.4864864864864865,1299.0806859831011,50810.45282199075,189.0,93.0,96.0,0.492063492063492,15.833623816252809,3830.637503110401,64.0,28.0,36.0,0.4375,55.966304062523946,5028.738057244228,0.0,0.0,0.0,0.0,98224.0,98270.0,98286.0,98382.0,98406.0,98442.0,98460.0,98647.0,98692.0,98756.0,0.013232057301050834,-0.0076616309043391175,0.024332886398213856,-0.0038292761211159787,0.010638398439412923
116,116,99072.72743883968,4650.251410417309,28.399846516790845,99182.26041870618,-1550.0628022061032,76.07878977065131,99251.05056654048,57156.51204380462,15.163245089817792,99396.75578521444,-3890.349049778025,90.63547022542478,99550.77529717267,5235.076714841673,41.26126611099491,0.9899281615877552,75.0,14.0,361.0,107.0,468.0,61.0,829.0,828.0,71.0,41.0,30.0,0.5774647887323944,55.41900588210944,4763.298791699333,92.0,66.0,26.0,0.717391304347826,13.293766767432952,1179.330600355579,37.0,18.0,19.0,0.4864864864864865,1310.5415907399076,54049.898552114806,176.0,94.0,82.0,0.5340909090909091,18.568216037133393,3995.917485300113,65.0,31.0,34.0,0.4769230769230769,52.65503591614679,4850.760900750906,0.0,0.0,0.0,0.0,99042.0,99103.0,99117.0,99207.0,99233.0,99270.0,99304.0,99478.0,99520.0,99585.0,0.011917421444776508,-0.008576276231203536,0.022928998706840464,-0.0047728920463300985,0.010058121166948222
117,117,99925.0304963842,4651.990880934886,25.814917401363303,100029.26041870618,-1834.44618296292,90.65074955824268,100098.8652104098,52719.039163771246,15.355995364054063,100236.34062640212,-3890.8118779249608,91.33630422592717,100398.33106566918,5116.11029866758,35.83103628571491,0.9906856446707916,65.0,18.0,359.0,106.0,465.0,47.0,850.0,847.0,48.0,23.0,25.0,0.4791666666666667,60.93291498199542,4157.38714357964,89.0,61.0,28.0,0.6853932584269663,11.260069451281728,1750.9335108051105,37.0,18.0,19.0,0.4864864864864865,1191.7824888766777,48676.527867339595,193.0,101.0,92.0,0.5233160621761658,14.21941126300526,3739.235346279321,65.0,30.0,35.0,0.4615384615384615,48.1025445137209,4659.306724769414,0.0,0.0,0.0,0.0,99903.0,99950.0,99968.0,100057.0,100081.0,100118.0,100135.0,100327.0,100368.0,100433.0,0.013098244717485354,-0.006138130164764463,0.02260630140041846,-0.003654612895493864,0.009402171123294301
118,118,100796.27305161682,3974.3323571085825,21.928968251595325,100885.2601729957,-1429.8171342274482,58.495508225747955,100969.12455699556,50088.76357036485,15.41239410446015,101062.4110969059,-4247.840149290146,104.46658143542632,101268.25307713434,4714.908541494888,29.979738902637003,0.9918847987203706,66.0,23.0,359.0,102.0,461.0,43.0,869.0,871.0,44.0,23.0,21.0,0.5227272727272727,66.07953802342054,3575.541233817364,91.0,47.0,44.0,0.5164835164835165,16.311968141991187,2476.8524633829093,37.0,18.0,19.0,0.4864864864864865,1166.1121287486556,46107.36208206494,196.0,58.0,138.0,0.2959183673469387,15.06633911841048,3910.969793771468,61.0,28.0,33.0,0.4590163934426229,51.461830974880286,4297.946342128797,0.0,0.0,0.0,0.0,100774.0,100817.0,100840.0,100928.0,100951.0,100988.0,101004.0,101199.0,101240.0,101301.0,0.016626575758121778,-0.011408429617683097,0.02328091263643387,-0.00354682346531524,0.010914703969753787
119,119,101677.22822048856,4369.365548240552,24.141098455608994,101757.28754669469,-1254.3593291721274,94.274719831941,101851.2014560272,49956.81755055606,15.309997473202678,101947.26041870618,-3831.083207452886,109.56251223715444,102149.7092011777,4707.016811454894,28.43418412787567,0.9921349596571126,65.0,23.0,361.0,98.0,459.0,42.0,882.0,882.0,42.0,20.0,22.0,0.4761904761904761,69.11335599406469,3766.808371580141,90.0,36.0,54.0,0.4,14.384946049003869,2301.755443736928,37.0,18.0,19.0,0.4864864864864865,1201.6338793709472,46316.51720861989,197.0,61.0,136.0,0.3096446700507614,18.41451625608679,3760.4377841565665,58.0,27.0,31.0,0.4655172413793103,50.009810034303094,4149.509871840707,0.0,0.0,0.0,0.0,101657.0,101699.0,101722.0,101810.0,101833.0,101870.0,101886.0,102083.0,102123.0,102181.0,0.015817709740924543,-0.01146796273959064,0.02405345132633598,-0.004806608277330988,0.010624523352582958
120,120,102556.60425528724,4663.552862571183,25.058697305555324,102627.89025949354,-1495.9689142707084,101.98698615853624,102732.20215081993,49920.25074755088,15.214307238772228,102833.95906230676,-3963.7961686791928,111.08467993499212,103029.467804907,4872.735456768772,30.282970717115063,0.9930112373094852,60.0,19.0,363.0,100.0,463.0,41.0,879.0,881.0,42.0,19.0,23.0,0.4523809523809524,73.21495517348343,3867.688380301154,96.0,31.0,65.0,0.3229166666666667,19.96988646845491,2561.091285107919,36.0,17.0,19.0,0.4722222222222222,1214.755738614979,46125.89058037984,196.0,67.0,129.0,0.3418367346938775,15.608333354549268,3841.260731429299,58.0,26.0,32.0,0.4482758620689655,48.78769879643835,4351.39195077812,0.0,0.0,0.0,0.0,102538.0,102579.0,102598.0,102692.0,102715.0,102750.0,102767.0,102961.0,103003.0,103061.0,0.01569939428822458,-0.013349131975907614,0.02433392702208283,-0.003937723508055724,0.010012384055996065
121,121,103430.17490973348,4531.539566717424,22.52462169222505,103488.28754669469,-1816.8169279419187,54.449471848144746,103601.95394127088,49744.80431641241,15.170753418805738,103690.71245330531,-4170.137815058774,94.2747198319701,103901.15906119102,4654.164042106137,27.53604703278448,0.9917517640852476,59.0,17.0,364.0,101.0,465.0,42.0,871.0,869.0,42.0,22.0,20.0,0.5238095238095238,73.9140539195781,3549.708373969037,95.0,22.0,73.0,0.231578947368421,24.382038415215582,2414.0814927755646,36.0,18.0,18.0,0.5,1212.3048766825384,45833.198447701216,193.0,53.0,140.0,0.2746113989637305,8.074380400045083,3839.902537276282,60.0,29.0,31.0,0.4833333333333333,55.159979654666266,4473.3023823385665,0.0,0.0,0.0,0.0,103408.0,103450.0,103467.0,103561.0,103584.0,103620.0,103638.0,103831.0,103872.0,103932.0,0.01631102472600063,-0.01342019553001162,0.024370482371815463,-0.0019362382631307072,0.011851748059508635
122,122,104291.7034634871,4518.01180242845,21.45074975339727,104350.1642422186,-1864.5237244489124,49.08004210228585,104466.80276853096,54348.2597519623,15.054804021665817,104558.98643600574,-4447.50748621255,101.91861603455943,104765.07469937266,4954.181518936418,28.35300665823831,0.9927217569629296,57.0,15.0,369.0,101.0,470.0,42.0,861.0,865.0,42.0,23.0,19.0,0.5476190476190477,69.55491355339092,3464.5370492779566,101.0,25.0,76.0,0.2475247524752475,16.449008662220354,2448.790422476402,36.0,18.0,18.0,0.5,1302.3142633520845,49622.2468471012,196.0,58.0,138.0,0.2959183673469387,15.002302109246648,4001.839250180766,57.0,26.0,31.0,0.4561403508771929,59.67205931969508,4654.575788555292,0.0,0.0,0.0,0.0,104269.0,104311.0,104326.0,104426.0,104449.0,104485.0,104502.0,104695.0,104739.0,104796.0,0.015395026970935503,-0.008822096735230388,0.023962391239308507,-0.0033731932224407447,0.012044786629559287
123,123,105128.24352940332,4597.621994863413,24.767108218734705,105236.95906230676,-2502.103523016222,112.52558473782776,105304.60114294468,55892.67152761466,15.122926366636609,105449.52291401984,-3925.120906157167,87.02938835097467,105602.1683998061,5072.056147475358,32.78986547637354,0.993608021456832,56.0,15.0,368.0,101.0,469.0,41.0,840.0,838.0,41.0,18.0,23.0,0.4390243902439024,60.770564429183985,3493.8093060484957,98.0,71.0,27.0,0.7244897959183674,15.774130058830208,2259.8784581191503,36.0,18.0,18.0,0.5,1295.306465916471,50748.16087573856,194.0,110.0,84.0,0.5670103092783505,12.773572781460068,4144.51879868403,59.0,26.0,33.0,0.4406779661016949,54.11015906201637,4745.657447601674,0.0,0.0,0.0,0.0,105110.0,105151.0,105166.0,105264.0,105287.0,105323.0,105340.0,105534.0,105576.0,105635.0,0.013217825322977507,-0.006304347487515184,0.023174889131511712,-0.0032543132012628497,0.010668288656258268
124,124,105968.82123516494,4320.4025045074995,23.478205357997023,106077.82534390768,-1983.9492155714593,73.89099662505764,106143.17824999974,49883.93842866538,15.400489470727576,106276.5333513595,-3933.435326717251,91.25179114691733,106442.39351187451,5169.762497391917,34.84229964031747,0.9907735498032672,62.0,18.0,362.0,106.0,468.0,44.0,841.0,838.0,45.0,22.0,23.0,0.4888888888888889,70.26075489114588,4127.5045472414495,93.0,69.0,24.0,0.7419354838709677,18.38923572798308,1770.4055536027902,37.0,18.0,19.0,0.4864864864864865,1171.0994608325666,46718.00719273112,193.0,97.0,96.0,0.5025906735751295,12.363483556327356,3832.425770997204,65.0,29.0,36.0,0.4461538461538462,52.340143422377,4830.242155584127,0.0,0.0,0.0,0.0,105948.0,105992.0,106010.0,106102.0,106125.0,106162.0,106180.0,106372.0,106413.0,106478.0,0.01626254841252463,-0.009269005266692889,0.02347648356809783,-0.003143177027050707,0.01012428393930707
125,125,106821.38641362844,4143.202785302086,19.776329776781715,106904.56152939513,-1625.2020956190495,50.8376070736282,106993.52128751816,49391.42034745935,15.350344611037048,107079.86313150504,-4337.395327108987,89.17878903024199,107293.85896703812,4569.851596135249,27.979554172979064,0.9899856467518492,58.0,16.0,366.0,101.0,467.0,42.0,851.0,851.0,42.0,21.0,21.0,0.5,76.22819953858132,3883.93104871013,95.0,47.0,48.0,0.4947368421052631,13.357813979439983,2224.54383463182,37.0,19.0,18.0,0.5135135135135135,1177.091761146046,44236.60612283206,194.0,50.0,144.0,0.2577319587628865,11.100307195670666,3829.7366347929938,62.0,31.0,31.0,0.5,46.152108746576005,4267.361616468237,0.0,0.0,0.0,0.0,106800.0,106842.0,106858.0,106953.0,106976.0,107012.0,107030.0,107224.0,107263.0,107325.0,0.018398375239802176,-0.008219171028297197,0.023831907502668014,-0.0025592103920740327,0.010099257662022795
126,126,107668.26922346395,4493.501885266901,24.00184883489219,107777.5344014066,-2266.079896888434,101.74464101900573,107843.9419840692,48958.63715675802,15.172080442854956,107984.5777135134,-3881.633059626253,87.05034620579745,108140.93105187602,5053.994133996398,31.26211415625257,0.9927619897937092,55.0,15.0,368.0,100.0,468.0,40.0,849.0,850.0,41.0,18.0,23.0,0.4390243902439024,71.75478904712601,3798.1635205670686,98.0,72.0,26.0,0.7346938775510204,12.863307389737344,2055.9724277870923,36.0,18.0,18.0,0.5,1199.890882630032,45204.53480521153,195.0,105.0,90.0,0.5384615384615384,13.6788722232183,3859.5333566140753,61.0,27.0,34.0,0.4426229508196721,53.187925261775824,4682.601191138358,0.0,0.0,0.0,0.0,107651.0,107691.0,107706.0,107804.0,107826.0,107862.0,107881.0,108074.0,108115.0,108174.0,0.015968567696030684,-0.005676458013417804,0.02450825742530712,-0.003523999309851144,0.010523938859366656
127,127,108508.45385449615,4279.129637726931,25.316847895717164,108619.10974050646,-2283.4804241699007,88.47724599458806,108685.7563890601,49794.94418946084,15.202156246394372,108820.97947615216,-3803.9703371620935,84.76520021484731,108982.01710890431,5223.671625516085,31.690184919369425,0.9924337930959442,58.0,16.0,362.0,105.0,467.0,42.0,840.0,842.0,45.0,20.0,25.0,0.4444444444444444,63.8161233603569,3828.857813080115,99.0,72.0,27.0,0.7272727272727273,15.998216593849309,1951.027209581564,36.0,18.0,18.0,0.5,1215.299991929569,45707.050614616775,187.0,98.0,89.0,0.5240641711229946,14.268349428823088,3954.9141326037866,61.0,28.0,33.0,0.4590163934426229,56.86256101015022,5135.299913379228,0.0,0.0,0.0,0.0,108490.0,108532.0,108548.0,108645.0,108668.0,108704.0,108723.0,108910.0,108955.0,109015.0,0.01491334190899997,-0.007006066890047914,0.024406092058373845,-0.0037509097506443277,0.010885554278028023
128,128,109335.2486404914,4533.4339651451855,27.455848327371804,109418.7085434231,-1585.384849576321,61.128714024963024,109513.9911755741,54239.61480899861,15.02798401385986,109645.1234610199,-3882.7386023186023,92.2478962404567,109812.7380721819,5408.357241723647,36.89380943839091,0.9913207787457836,78.0,17.0,362.0,105.0,467.0,61.0,829.0,828.0,68.0,40.0,28.0,0.5882352941176471,60.4288423299638,4462.95046963182,92.0,40.0,52.0,0.4347826086956521,20.464263050150233,1769.5672714187183,37.0,18.0,19.0,0.4864864864864865,1305.9186143095153,51310.90360465614,190.0,94.0,96.0,0.4947368421052631,17.782682056628133,3890.6583572539025,63.0,30.0,33.0,0.4761904761904761,55.181054731748254,5218.235106166296,0.0,0.0,0.0,0.0,109301.0,109362.0,109379.0,109471.0,109496.0,109533.0,109551.0,109741.0,109783.0,109846.0,0.013329595797482524,-0.012908072797352083,0.024076841601995618,-0.0045799328458550085,0.010202923413794687
129,129,110171.52008389012,4749.431426330144,23.768949353841304,110281.98643600574,-2287.0306761730412,86.33339150983673,110345.44841263854,57698.077510867406,15.153965205584432,110482.20487575392,-4459.604067806207,89.08584312742207,110644.753746367,4918.688895211302,34.88636173978305,0.990476815767589,62.0,14.0,365.0,103.0,468.0,48.0,833.0,832.0,48.0,24.0,24.0,0.5,50.6820672906887,3903.975035706522,96.0,73.0,23.0,0.7604166666666666,17.884925411547314,1992.0344055346195,37.0,18.0,19.0,0.4864864864864865,1339.2536542886712,54586.077894503025,194.0,101.0,93.0,0.520618556701031,14.610129558037835,4648.772629504796,61.0,28.0,33.0,0.4590163934426229,48.84836085236863,4420.55300609204,0.0,0.0,0.0,0.0,110148.0,110196.0,110210.0,110305.0,110327.0,110364.0,110381.0,110575.0,110617.0,110678.0,0.010671186241307713,-0.007820151079684996,0.02321140863032089,-0.0032761046352764965,0.009931175134887272
130,130,111034.51365618464,4770.3389692317605,27.94249012770037,111110.01360178742,-1538.558350935725,92.68850282613585,111208.65039133489,53128.342158138505,15.306170976583973,111328.05499310848,-3808.811498068555,100.897005782051,111510.19438951473,4949.170190936575,35.41764981220054,0.9906870155564212,71.0,23.0,357.0,103.0,460.0,48.0,864.0,863.0,48.0,23.0,25.0,0.4791666666666667,59.37767832474813,4072.2780053854312,86.0,29.0,57.0,0.3372093023255814,23.04598069516951,2145.963955909735,38.0,19.0,19.0,0.5,1199.9582299927358,48343.118944477246,196.0,84.0,112.0,0.4285714285714285,15.970454849013883,3600.2207639849953,63.0,30.0,33.0,0.4761904761904761,49.27728375770736,4392.761553289061,0.0,0.0,0.0,0.0,111012.0,111060.0,111083.0,111167.0,111190.0,111228.0,111244.0,111440.0,111480.0,111543.0,0.012447266055458237,-0.014978944855197294,0.02258602812075361,-0.004193028417686853,0.00995667593891779
131,131,111916.57600697724,4177.323778930043,21.553115956540356,111987.16424219396,-1364.0695063652245,46.38804521783011,112089.77862777324,49509.36300047216,15.270800112087638,112179.13711420546,-3679.7032339207385,96.8226852328341,112390.14344277028,4601.162909055319,29.388081929576444,0.99078755922709,59.0,16.0,364.0,104.0,468.0,43.0,877.0,881.0,43.0,22.0,21.0,0.5116279069767442,76.48146483760799,3903.451618788976,94.0,33.0,61.0,0.351063829787234,14.62874774377154,1875.238373449004,37.0,18.0,19.0,0.4864864864864865,1153.4628595592403,45392.3737291822,194.0,54.0,140.0,0.2783505154639175,12.014441859169194,3275.198317277616,62.0,30.0,32.0,0.4838709677419355,51.00309333794929,4335.103489667962,0.0,0.0,0.0,0.0,111895.0,111938.0,111954.0,112047.0,112072.0,112109.0,112125.0,112318.0,112360.0,112422.0,0.018308723212543877,-0.010724341886911697,0.023297873162864968,-0.0032650572873420985,0.011084826672312047
132,132,112777.09523812916,4039.6014728620794,19.205992469667347,112887.35610379744,-494.18841416794504,45.86337721555302,112950.59483226578,49560.22983291516,15.40416118593527,113023.54771969037,-4762.328926272533,145.6306350826737,113247.76458613553,4948.1073164166455,30.157351995161623,0.9929302047570722,53.0,17.0,370.0,95.0,465.0,36.0,864.0,861.0,37.0,18.0,19.0,0.4864864864864865,73.0438837959903,3024.420443147312,101.0,75.0,26.0,0.7425742574257426,19.136617511057526,3031.223171867265,36.0,18.0,18.0,0.5,1184.3307785405516,43544.292783444835,199.0,39.0,160.0,0.1959798994974874,24.791575608189625,4796.174567034455,54.0,24.0,30.0,0.4444444444444444,52.99101433971891,3835.404523438453,0.0,0.0,0.0,0.0,112760.0,112796.0,112813.0,112913.0,112933.0,112969.0,112985.0,113183.0,113224.0,113278.0,0.018081952956670824,-0.03872332285101718,0.023896797543783477,-0.00520576717652175,0.010709350252753675
133,133,113634.97640707353,4310.983543635037,21.638904387762302,113708.16424219396,-1498.070391692536,55.54633322861736,113809.45211757196,48977.160346774996,15.126216976177782,113919.65770590732,-3749.3837259973,100.64833915748804,114107.39181883264,5168.0933794159155,32.19848746940598,0.9924933491471856,58.0,16.0,364.0,106.0,470.0,42.0,858.0,859.0,42.0,21.0,21.0,0.5,72.96676883980012,3892.6013132604185,97.0,36.0,61.0,0.3711340206185567,11.01278291176512,1824.4172596521507,36.0,17.0,19.0,0.4722222222222222,1215.3318230065609,46778.4018347406,190.0,74.0,116.0,0.3894736842105263,12.047966877268088,3571.8979048086517,64.0,29.0,35.0,0.453125,51.50616997195702,4817.336807114857,0.0,0.0,0.0,0.0,113614.0,113656.0,113672.0,113768.0,113792.0,113828.0,113847.0,114036.0,114079.0,114142.0,0.016925782272477496,-0.007351312043036081,0.0248142565718714,-0.0032133192433013626,0.009966184081948248
