Unnamed: 0,cycle,p_center,p_height,p_width,q_center,q_height,q_width,r_center,r_height,r_width,s_center,s_height,s_width,t_center,t_height,t_width,r_squared,pr_interval,pr_segment,qrs_duration,st_segment,qt_interval,p_duration,pp_interval,rr_interval,fwhm_p,rise_time_p,decay_time_p,rise_decay_symmetry_p,sharpness_deriv_p,sharpness_diff_p,fwhm_q,rise_time_q,decay_time_q,rise_decay_symmetry_q,sharpness_deriv_q,sharpness_diff_q,fwhm_r,rise_time_r,decay_time_r,rise_decay_symmetry_r,sharpness_deriv_r,sharpness_diff_r,fwhm_s,rise_time_s,decay_time_s,rise_decay_symmetry_s,sharpness_deriv_s,sharpness_diff_s,fwhm_t,rise_time_t,decay_time_t,rise_decay_symmetry_t,sharpness_deriv_t,sharpness_diff_t,Average_Heart_Rate,SDNN,RMSSD,NN50,p_on,p_off,q_on,q_off,r_on,r_off,s_on,s_off,t_on,t_off,sharpness_deriv_p_norm,sharpness_deriv_q_norm,sharpness_deriv_r_norm,sharpness_deriv_s_norm,sharpness_deriv_t_norm
0,0,,,,,,,,,,,,,,,,,,,,,,,,,,,,,,,,,,,,,,,,,,,,,,,,,,,,,,,43.77977018706224,243.66946207074025,325.6894517382493,424.0,,,,,,,,,,,,,,,
1,1,2314.6045023326137,2727.530594283175,22.098809801882233,2421.0273736989925,-2222.90395015181,17.8357578060484,2501.2197993619575,42666.440936323896,9.90333159139324,2522.0273736989925,-10978.612963536274,7.033410330822276,2802.109494795968,8162.632333748363,34.94249619034383,0.964015037649944,127.0,69.0,117.0,308.0,425.0,58.0,,,59.0,26.0,33.0,0.4406779661016949,139.63711527856248,2972.76343064663,20.0,4.0,16.0,0.2,213.29857290753168,1495.8618829760985,21.0,11.0,10.0,0.5238095238095238,2425.956662995311,37364.712506623706,16.0,4.0,12.0,0.25,1610.980460936476,24127.51902080825,93.0,49.0,44.0,0.5268817204301075,138.26025635024786,7739.955803965647,,,,,2290.0,2348.0,2417.0,2437.0,2490.0,2511.0,2518.0,2534.0,2756.0,2842.0,0.05119543501042218,-0.0959549209910598,0.056858660102815914,-0.14673806848707507,0.01693819477555194
2,2,3543.602718101852,4254.537095047785,20.38372320683155,3705.0067958230848,-1852.2102270792564,1.4933094300397227,3738.102024868058,46178.33585505684,9.483269729908052,3761.87669549928,-6634.563613172606,7.230315563463119,4032.879925143745,8613.162852495463,41.48290140487598,0.9705883099532217,163.0,144.0,67.0,308.0,375.0,19.0,1231.0,1237.0,51.0,37.0,14.0,0.7254901960784313,232.50857215750543,3445.7165788471184,5.0,3.0,2.0,0.6,642.6268376613664,4254.79306777923,22.0,11.0,11.0,0.5,2536.816909013956,42140.86872048472,12.0,5.0,7.0,0.4166666666666667,1234.334317476863,18173.785365700853,103.0,46.0,57.0,0.4466019417475728,185.29579031051173,9563.468180451517,,,,,3539.0,3558.0,3702.0,3707.0,3727.0,3749.0,3757.0,3769.0,3993.0,4077.0,0.05464955809837497,-0.3469513494020181,0.0549352171757865,-0.18604604453956122,0.021513094955220382
3,3,4985.671269901583,2714.698299151829,22.520293630741023,5128.301356399425,-1924.859684351012,10.191861603456228,5183.677395646687,42415.089831236844,9.790189963633368,5205.452034599137,-10466.215619242405,7.328558328823185,5480.3992392079435,7083.34182932669,34.55195370786115,0.9669952809283684,149.0,104.0,96.0,308.0,404.0,45.0,1434.0,1445.0,50.0,20.0,30.0,0.4,184.90116990594984,2776.853601143017,35.0,28.0,7.0,0.8,219.7163800835239,1617.4259846833093,22.0,12.0,10.0,0.5454545454545454,2342.325502186315,37272.80685680839,15.0,4.0,11.0,0.2666666666666666,1591.821198528425,24082.04657541641,85.0,41.0,44.0,0.4823529411764706,249.8036159895447,8162.297317064038,,,,,4970.0,5015.0,5119.0,5134.0,5172.0,5194.0,5202.0,5215.0,5441.0,5523.0,0.06811113042054055,-0.11414669955935189,0.05522387224702506,-0.15209138206572212,0.03526635054591032
4,4,6353.452034599137,3017.0389211226675,15.28779240518434,6479.876695499281,-2349.0264015180906,12.739827004320285,6541.0676857447625,43123.55334607686,10.17814702317039,6559.876695499281,-14212.118495586808,7.456720940822827,6836.871216373383,7370.797949683128,33.57624430270279,0.9626958413320704,158.0,115.0,98.0,303.0,401.0,43.0,1375.0,1358.0,50.0,37.0,13.0,0.74,188.11813575795213,2015.074438894202,39.0,30.0,9.0,0.7692307692307693,180.11629463615307,2050.9546181674714,21.0,12.0,9.0,0.5714285714285714,2495.917346669018,36057.51721650793,18.0,3.0,15.0,0.1666666666666666,1745.925553194441,28058.91452998516,85.0,44.0,41.0,0.5176470588235295,101.19167867683446,7797.977806454544,,,,,6319.0,6362.0,6477.0,6489.0,6529.0,6550.0,6557.0,6575.0,6802.0,6878.0,0.06235190883382826,-0.076676998828004,0.057878285832307995,-0.12284766368480471,0.013728727794144012
5,5,7820.781004969579,3855.36952850815,17.8357578060484,7943.602712798849,-1191.7760488958263,20.383723206912453,8025.232856171696,45479.5659872418,9.4742464004018,8048.876695499281,-7159.002310365654,7.112988480266904,8322.806968646595,8497.006314140837,38.554785628507695,0.9682899705259296,136.0,102.0,125.0,313.0,438.0,34.0,1466.0,1484.0,51.0,26.0,25.0,0.5098039215686274,202.0450735056483,4245.687731225143,27.0,13.0,14.0,0.4814814814814814,122.3702711017201,1727.5671956727658,21.0,10.0,11.0,0.4761904761904761,2482.818505762122,41600.86051860984,13.0,6.0,7.0,0.4615384615384615,1280.3370840258642,18611.90130275069,97.0,48.0,49.0,0.4948453608247423,200.84104532377083,9023.536674237805,,,,,7795.0,7829.0,7931.0,7955.0,8015.0,8036.0,8043.0,8056.0,8285.0,8369.0,0.05240614991939059,-0.1026789145620903,0.05459195689023544,-0.17884294885225,0.023636683073840765
6,6,9247.45203459914,2735.9798199591937,15.28779240518434,9409.14792316675,-2875.944028756778,4.549349815392472,9446.445692489142,44404.82805743459,9.443262876941857,9468.027373698991,-9709.472662452436,7.70577346603446,9744.54152145724,7622.130949363504,34.462260356649075,0.967284113538615,164.0,147.0,76.0,309.0,385.0,17.0,1428.0,1421.0,39.0,29.0,10.0,0.7435897435897436,198.5245324897903,2333.8190528655723,13.0,6.0,7.0,0.4615384615384615,392.56426067119264,432.48510469553344,22.0,11.0,11.0,0.5,2502.174922958119,39731.28761483489,16.0,4.0,12.0,0.25,1554.3493986986457,23685.764208451677,78.0,35.0,43.0,0.4487179487179487,134.67823200099252,7967.517510159569,,,,,9239.0,9256.0,9403.0,9416.0,9435.0,9456.0,9464.0,9479.0,9711.0,9788.0,0.07256067133300392,-0.13649927006433832,0.056349163647739564,-0.16008587208958117,0.01766936738501442
7,7,10571.957630666851,3127.2404754627823,23.745870544577727,10692.301356399426,-2192.142187954897,10.191861603456228,10769.030037347437,43100.02687629704,9.299696204377884,10791.027373698991,-10080.794142385454,7.315004090491576,11065.899902569754,7700.370306844319,35.63967147746497,0.9673654528675476,126.0,86.0,114.0,308.0,422.0,40.0,1329.0,1323.0,45.0,15.0,30.0,0.3333333333333333,114.67044365215244,4117.134643584684,13.0,6.0,7.0,0.4615384615384615,194.6693518736132,2508.6333569966077,21.0,11.0,10.0,0.5238095238095238,2487.6410486866816,37364.62797387669,15.0,5.0,10.0,0.3333333333333333,1505.323598252667,23114.751366955716,84.0,37.0,47.0,0.4404761904761904,104.33174938298043,8089.003593161292,,,,,10561.0,10601.0,10687.0,10698.0,10758.0,10779.0,10786.0,10801.0,11030.0,11109.0,0.03666825258623036,-0.08880325051142098,0.05771785376901391,-0.14932589407052974,0.013548926249721687
8,8,12007.60271279885,3372.1799700201987,20.383723206912453,12120.45203459914,-1725.5403960472788,15.28779240518434,12201.670007256742,45534.063177189695,9.86111229222342,12223.45203459914,-9305.597563060475,6.86842587998018,12505.958816596258,8618.042188144735,38.2198552089771,0.967692711603176,140.0,98.0,116.0,310.0,426.0,42.0,1432.0,1432.0,45.0,33.0,12.0,0.7333333333333333,188.1674687880205,2390.2189721596023,15.0,3.0,12.0,0.2,176.52626857999817,1655.2343248413763,22.0,12.0,10.0,0.5454545454545454,2466.8688614751304,41103.73541495476,15.0,4.0,11.0,0.2666666666666666,1613.5000642598343,24079.300159657323,112.0,64.0,48.0,0.5714285714285714,174.42860891148095,7227.675518301343,,,,,11977.0,12019.0,12117.0,12130.0,12190.0,12212.0,12220.0,12233.0,12455.0,12543.0,0.05579994853800564,-0.10230202027397883,0.054176339411566264,-0.17339026895648146,0.02023993444258497
9,9,13444.123304500716,3450.45080033836,12.739827004320285,13593.178051898703,-1198.5703552050804,22.93168860777651,13661.856069510774,45905.57469305028,9.775755111397402,13683.876695499284,-8336.562080550808,6.945020115718416,13959.310244970797,8479.78157950787,36.64991183483196,0.9685789495766652,151.0,139.0,105.0,310.0,415.0,12.0,1431.0,1460.0,43.0,9.0,34.0,0.2093023255813953,248.66208641350755,4192.876058640637,33.0,16.0,17.0,0.4848484848484848,108.23313414309004,1368.6492350238225,21.0,11.0,10.0,0.5238095238095238,2501.810626491186,42710.10130425014,14.0,4.0,10.0,0.2857142857142857,1500.4706429137243,21679.300850239146,84.0,39.0,45.0,0.4642857142857143,144.1681912860621,9707.659337949251,,,,,13437.0,13449.0,13588.0,13609.0,13651.0,13672.0,13681.0,13693.0,13922.0,14003.0,0.0720665503733956,-0.090301861441059,0.05449905906242667,-0.17998674134681023,0.017001403860974096
10,10,14880.778610598456,3282.4222564066886,20.236986091837583,15013.60271279885,-1823.561667212455,20.383723206912453,15081.691633927056,43132.78975016029,9.960001839625315,15102.45203459914,-10669.702080791276,7.546579236605016,15385.50678199712,8153.533046768163,36.82275072376129,0.9715802433424628,157.0,101.0,107.0,298.0,405.0,56.0,1432.0,1421.0,61.0,31.0,30.0,0.5081967213114754,171.7900381530788,2800.5060533279634,31.0,5.0,26.0,0.1612903225806451,134.13986750838652,1738.9233365608395,22.0,12.0,10.0,0.5454545454545454,2355.83676707274,36479.46252670204,18.0,3.0,15.0,0.1666666666666666,1623.0714975073265,25184.70866407181,87.0,50.0,37.0,0.5747126436781609,280.45039319047805,9280.40810840138,,,,,14852.0,14908.0,15009.0,15034.0,15070.0,15092.0,15099.0,15116.0,15343.0,15414.0,0.052336361605450375,-0.07355927135353547,0.054618233152053074,-0.15211966418718956,0.03439618035296256
11,11,16316.876695499284,3482.610917282553,12.739827004320285,16448.69864360057,-1570.1542650471918,10.191861603456228,16504.02818244204,45520.9716932932,9.832943145497149,16525.027373698995,-10100.954066184384,6.728206607810169,16806.95881659626,8543.006069197545,37.4078277179728,0.9574344615689028,165.0,119.0,92.0,309.0,401.0,46.0,1445.0,1422.0,49.0,41.0,8.0,0.8367346938775511,163.37216447396858,2808.094151595166,10.0,8.0,2.0,0.8,192.3481841975997,2223.6361117118554,21.0,11.0,10.0,0.5238095238095238,2586.7422048803433,41211.50036033853,15.0,4.0,11.0,0.2666666666666666,1676.3700172490155,23776.919746312407,93.0,54.0,39.0,0.5806451612903226,126.47205914634311,9002.25183579558,,,,,16278.0,16324.0,16443.0,16451.0,16493.0,16514.0,16521.0,16535.0,16762.0,16844.0,0.04691082878745647,-0.12250273013258259,0.05682528532802517,-0.16596155237069216,0.014804163560453
12,12,17842.42641508749,3478.170749868976,15.28779240518434,18006.83963813827,-2103.519423501741,3.3458100449868216,18041.638141718,45481.36849856618,9.635766442796308,18064.876695499283,-7235.840688152527,6.897976930020267,18339.412092225495,8369.015533721229,36.933926200563945,0.96765552755053,170.0,156.0,70.0,308.0,378.0,14.0,1522.0,1537.0,24.0,9.0,15.0,0.375,223.85331989082533,3978.9066092361977,8.0,4.0,4.0,0.5,516.7845096880748,2743.1057298878086,22.0,12.0,10.0,0.5454545454545454,2460.560137381607,41228.60914199508,12.0,4.0,8.0,0.3333333333333333,1348.829276363958,19151.905382768706,89.0,45.0,44.0,0.5056179775280899,118.76975840663349,8619.913272797283,,,,,17833.0,17847.0,18003.0,18011.0,18031.0,18052.0,18062.0,18073.0,18298.0,18381.0,0.06435949698537886,-0.24567612921195686,0.05410039800053899,-0.18640947672776145,0.014191604487776984
13,13,19296.45203459914,3130.7093959834715,15.28779240518434,19413.876695499283,-1755.2901056341552,12.739827004320285,19486.528036120104,42764.03739364816,9.617952270802313,19506.45203459914,-10569.77536944383,7.100375574029054,19784.48657446896,8033.861436186444,37.21788500585696,0.969754847885132,138.0,104.0,110.0,310.0,420.0,34.0,1458.0,1445.0,52.0,34.0,18.0,0.6538461538461539,181.67703447465504,2089.813900244999,14.0,6.0,8.0,0.4285714285714285,167.92938292590168,1404.9649458086194,21.0,12.0,9.0,0.5714285714285714,2461.424177937384,36956.717559403834,17.0,3.0,14.0,0.1764705882352941,1683.4091892943522,25773.880637031776,101.0,54.0,47.0,0.5346534653465347,113.5078220591811,7778.304175231363,,,,,19271.0,19305.0,19409.0,19421.0,19475.0,19496.0,19503.0,19519.0,19745.0,19829.0,0.05803062868362573,-0.09567044352775621,0.05755827391318726,-0.15926631649721912,0.014128675601487794
14,14,20693.923975616523,3337.496052681722,24.581674481100094,20816.69864360057,-1794.133537752611,10.191861603456228,20891.852697737224,44535.68019918962,9.8507404559529,20913.027373698995,-10824.468755074338,6.483503541799281,21189.906157089143,8628.505029741393,36.19750700776399,0.9746060091859872,149.0,78.0,117.0,309.0,426.0,71.0,1393.0,1406.0,73.0,37.0,36.0,0.5068493150684932,116.26856918551614,3078.2899668477357,55.0,52.0,3.0,0.9454545454545454,156.70412529415324,1499.6432576084574,22.0,12.0,10.0,0.5454545454545454,2498.6187962551207,39127.259420347225,14.0,4.0,10.0,0.2857142857142857,1639.2990500969042,24424.78515555631,86.0,43.0,43.0,0.5,144.9127662299413,9180.527623861475,,,,,20657.0,20728.0,20806.0,20819.0,20880.0,20902.0,20909.0,20923.0,21150.0,21232.0,0.03483706567745385,-0.08734250934880011,0.056103752880383446,-0.1514438340753145,0.016794655126287215
15,15,22205.69864360057,2425.4437571747976,10.191861603456228,22355.054747397982,-1882.1435824238904,30.322753169675632,22432.846365997146,45729.32401844787,9.706629292522878,22455.027373698995,-8895.866643672785,7.352364041276968,22732.423491037043,8527.563347415318,34.416909630564,0.9639117031411598,147.0,137.0,118.0,311.0,429.0,10.0,1512.0,1540.0,53.0,6.0,47.0,0.1132075471698113,205.78751562867663,3415.5558301699193,56.0,10.0,46.0,0.1785714285714285,140.94937053477628,1763.422027947099,21.0,11.0,10.0,0.5238095238095238,2550.452856184248,41991.88748847808,15.0,4.0,11.0,0.2666666666666666,1497.387900597824,21674.73559218674,95.0,44.0,51.0,0.4631578947368421,118.0936710730888,8358.21412061448,,,,,22200.0,22210.0,22347.0,22383.0,22422.0,22443.0,22451.0,22465.0,22693.0,22776.0,0.08484530511991001,-0.07488768224221064,0.055772809043828385,-0.16832400490882427,0.013848465999244986
16,16,23727.45203459914,3236.594511672576,15.28779240518434,23847.511605913685,-2100.4394563158585,20.383723206912453,23921.3746028234,43650.41637592329,9.618441821928103,23941.45203459914,-10580.767258973345,7.612560977901419,24221.260172995684,8292.40109945608,36.28386110671566,0.9698784617157872,138.0,100.0,119.0,309.0,428.0,38.0,1526.0,1489.0,48.0,32.0,16.0,0.6666666666666666,165.00981302290828,2499.136748104187,19.0,12.0,7.0,0.631578947368421,215.59651441335316,3111.824528642366,21.0,11.0,10.0,0.5238095238095238,2463.008956884973,38387.697209910664,18.0,3.0,15.0,0.1666666666666666,1674.8649991334746,26165.270937907495,88.0,44.0,44.0,0.5,136.50767254301692,9203.973923843903,,,,,23698.0,23736.0,23836.0,23854.0,23910.0,23931.0,23938.0,23955.0,24178.0,24264.0,0.050982541195015524,-0.10264352717478772,0.05642578379260364,-0.15829334094019068,0.016461778790701626
17,17,25132.78211671301,2493.7891243013487,21.984656516182007,25298.876695499283,-2921.6631190989106,5.0026857121946025,25337.809004160084,44295.25017741174,9.442592947952551,25359.602712798853,-9704.286118490289,7.826097864797331,25639.808138396547,8663.773626070046,33.566315639931396,0.958295983136487,180.0,135.0,78.0,303.0,381.0,45.0,1409.0,1416.0,49.0,22.0,27.0,0.4489795918367347,99.24585018661134,2241.4077372381807,14.0,7.0,7.0,0.5,394.8961982096278,1029.6791841332588,21.0,11.0,10.0,0.5238095238095238,2543.0395177980186,39213.729465576114,16.0,5.0,11.0,0.3125,1440.4928378439065,22448.563401429517,83.0,43.0,40.0,0.5180722891566265,196.61586086065347,8212.548024926637,,,,,25113.0,25158.0,25293.0,25306.0,25327.0,25348.0,25355.0,25371.0,25602.0,25674.0,0.03979721028513817,-0.1351614413134052,0.05741111084399825,-0.1484388259224169,0.022694021029014345
18,18,26779.178051898707,2647.050178296753,22.93168860777651,26902.178051898707,-1473.5426852996543,17.354049796308836,26966.18872811227,46386.8034914882,9.493432413237413,26988.45203459914,-7978.706235948846,6.978050429899076,27264.546652181813,8890.334197977629,35.65552967310289,0.9656656810896443,140.0,86.0,120.0,307.0,427.0,54.0,1644.0,1629.0,74.0,55.0,19.0,0.7432432432432432,142.27400786207812,2228.456088987205,38.0,24.0,14.0,0.631578947368421,116.95503687733476,571.3652194373896,22.0,11.0,11.0,0.5,2537.300380278682,42841.26404159922,15.0,4.0,11.0,0.2666666666666666,1549.1175486291677,21807.015607966663,77.0,37.0,40.0,0.4805194805194805,171.8544553555389,10185.570546361436,,,,,26738.0,26792.0,26878.0,26915.0,26956.0,26976.0,26985.0,26998.0,27228.0,27305.0,0.0537481340658319,-0.07936996874546,0.05469875458748234,-0.1941564838732207,0.019330483143663185
19,19,28269.756546303943,2252.760776767343,16.229264500300634,28435.45203459914,-3143.6601894757205,7.6856539869035405,28473.49655032108,42298.755057520895,9.796919598340384,28493.45203459914,-11230.651214043426,7.798889981069402,28774.00423909726,7511.741289411595,33.0667325265868,0.9606239333176976,179.0,139.0,78.0,311.0,389.0,40.0,1484.0,1507.0,44.0,24.0,20.0,0.5454545454545454,137.80836124061747,1886.038021955912,18.0,8.0,10.0,0.4444444444444444,405.7393560936354,1083.0127985370536,21.0,11.0,10.0,0.5238095238095238,2418.3029649068026,37636.15300447121,19.0,3.0,16.0,0.1578947368421052,1659.367161350406,26339.72871685455,93.0,49.0,44.0,0.5268817204301075,123.70094463771385,7896.910742775952,,,,,28249.0,28289.0,28428.0,28444.0,28462.0,28483.0,28490.0,28506.0,28735.0,28817.0,0.06117310042940694,-0.12906590777589802,0.057171965501543014,-0.1477534231742004,0.016467679046944853
20,20,29706.602712798853,3135.84972570373,20.233086405872093,29832.876695499283,-1835.2036725519604,12.739827004320285,29893.39804854578,45870.89090189989,9.490779901471065,29916.45203459914,-8186.0914023888145,6.973769670844229,30193.684833895823,9134.42910735442,37.164747635423026,0.9649653316142176,116.0,98.0,109.0,310.0,419.0,18.0,1443.0,1421.0,49.0,31.0,18.0,0.6326530612244898,199.33862750779323,3270.579767665222,26.0,18.0,8.0,0.6923076923076923,133.24121745526156,1577.066446895597,22.0,11.0,11.0,0.5,2496.822653082002,41342.24404165868,15.0,5.0,10.0,0.3333333333333333,1500.159092972678,20805.08523604864,93.0,48.0,45.0,0.5161290322580645,149.55009514697673,9121.845409087884,,,,,29700.0,29718.0,29816.0,29840.0,29883.0,29904.0,29911.0,29925.0,30155.0,30235.0,0.06356765946845834,-0.07260295925082892,0.054431527358423035,-0.18325706606878478,0.01637213375782502
21,21,31244.027373698995,2923.8816403868022,17.8357578060484,31349.602712798853,-1912.9692162892889,20.383723206912453,31433.60462196713,46485.28292282044,9.32529823395259,31457.30135639943,-6369.284110214914,7.2371888600556975,31732.643859203163,8603.970129307578,36.87972192943573,0.9628681679447608,135.0,88.0,121.0,318.0,439.0,47.0,1537.0,1539.0,51.0,40.0,11.0,0.7843137254901961,162.4441186749702,1916.270680721107,46.0,35.0,11.0,0.7608695652173914,163.47833351669925,1559.0043341993596,21.0,11.0,10.0,0.5238095238095238,2542.2628648673026,42345.74648370601,11.0,5.0,6.0,0.4545454545454545,1320.7804982899484,19550.916369479623,90.0,40.0,50.0,0.4444444444444444,121.09960287158113,8973.804746101312,,,,,31207.0,31254.0,31342.0,31361.0,31423.0,31444.0,31452.0,31463.0,31694.0,31781.0,0.0555576930444696,-0.08545790079874303,0.05468962873880372,-0.20736718215658026,0.014074851615195795
22,22,32669.123304500717,3060.034203608398,12.739827004320285,32803.972626300936,-2528.652012334315,17.8357578060484,32879.2597411118,43149.670364486694,9.6331182662833,32899.45203459914,-10564.77082962586,8.873263409299934,33178.09472835613,7580.286970251428,34.462464333335824,0.9602049100069998,132.0,105.0,120.0,302.0,422.0,27.0,1420.0,1446.0,27.0,7.0,20.0,0.2592592592592592,268.92845187578837,4849.599547191666,18.0,11.0,7.0,0.6111111111111112,240.71114040923055,2870.345098801573,21.0,11.0,10.0,0.5238095238095238,2386.212466315458,37111.931214828466,20.0,3.0,17.0,0.15,1639.3344085180256,25969.4234620141,83.0,40.0,43.0,0.4819277108433735,136.3546990377975,8561.331916623014,,,,,32662.0,32689.0,32794.0,32811.0,32868.0,32889.0,32896.0,32914.0,33146.0,33216.0,0.08788413265402963,-0.09519346245947818,0.05530082724060329,-0.1551698976679157,0.017988065567031534
23,23,34132.32873009842,2727.5464058193406,23.481770450543895,34273.30135639943,-2362.039929257573,4.155753371270425,34309.331328377935,46059.50807645106,9.44632681505423,34332.45203459914,-7577.174437592803,7.075608512249613,34609.20405625059,8933.772797304162,37.72166286527574,0.9649973100950552,183.0,118.0,75.0,309.0,384.0,65.0,1470.0,1431.0,72.0,55.0,17.0,0.7638888888888888,153.80939043464355,2164.843725514948,13.0,7.0,6.0,0.5384615384615384,437.2624124740408,889.2769664785378,22.0,11.0,11.0,0.5,2495.350862125438,41431.60934949477,14.0,5.0,9.0,0.3571428571428571,1458.021262081341,21311.272343087338,94.0,49.0,45.0,0.5212765957446809,151.33900391110515,9305.515161621592,,,,,34083.0,34148.0,34266.0,34279.0,34298.0,34320.0,34327.0,34341.0,34575.0,34650.0,0.056391117711685645,-0.18512066923927037,0.05417667201272698,-0.1924228185704196,0.016940099926961754
24,24,35639.8783353107,2759.1480104083735,23.339086082045817,35800.48488071449,-2672.221495315383,3.753628073878065,35837.5994365343,46782.36784072724,9.267198001139503,35861.87669549929,-6525.84519702483,7.01295261169952,36137.1092461544,8404.484362960584,36.342199240838006,0.9664380620492286,180.0,121.0,75.0,312.0,387.0,59.0,1506.0,1527.0,59.0,26.0,33.0,0.4406779661016949,116.720682560698,2219.039023041605,13.0,6.0,7.0,0.4615384615384615,452.645296263724,643.0606328230845,21.0,11.0,10.0,0.5238095238095238,2529.6084253897197,41990.777256361434,12.0,5.0,7.0,0.4166666666666667,1229.5590466489589,17573.49503069176,97.0,50.0,47.0,0.5154639175257731,185.3884178610029,8022.327466457185,,,,,35614.0,35673.0,35794.0,35807.0,35827.0,35848.0,35857.0,35869.0,36093.0,36181.0,0.04230316101941284,-0.1693891382347037,0.05407183394397415,-0.1884137624364001,0.022058273875554875
25,25,37051.50210234835,2823.9000409020564,12.739827004320285,37179.62111602644,-2874.271439389729,15.28779240518434,37254.04157328852,43743.76988621046,9.522252875971471,37273.45203459914,-11853.154584065283,8.13136485774101,37554.55601759955,7857.211351246639,34.22750620149431,0.96738806030123,127.0,114.0,116.0,301.0,417.0,13.0,1410.0,1416.0,13.0,7.0,6.0,0.5384615384615384,280.1641848504956,4255.8412736361015,22.0,9.0,13.0,0.4090909090909091,240.91485862044968,2474.1001560940213,20.0,11.0,9.0,0.55,2506.5236906991627,36780.779955313774,19.0,3.0,16.0,0.1578947368421052,1742.0556458451288,27891.015465844455,92.0,47.0,45.0,0.5108695652173914,249.36180975504857,7655.536868233528,,,,,37045.0,37058.0,37172.0,37193.0,37243.0,37263.0,37270.0,37288.0,37517.0,37589.0,0.09921179248292405,-0.08381771301029287,0.057300129760633756,-0.14696979048826805,0.031736680942849316
26,26,38500.50887358761,2675.061340808675,21.958282119153484,38617.17805190826,-2140.0798324282728,22.93168860763501,38699.41889316298,45695.49740518133,9.767366954571813,38720.027373699,-10848.977492840928,6.829184476891343,39009.08212109698,8825.911594906254,34.06197505773592,0.9635659722960688,126.0,67.0,129.0,308.0,437.0,59.0,1444.0,1446.0,62.0,26.0,36.0,0.4193548387096774,142.2533531744087,1629.1482004296688,73.0,26.0,47.0,0.3561643835616438,172.42403548872983,1487.0816019093288,22.0,11.0,11.0,0.5,2572.5791631283364,41454.73998496534,15.0,4.0,11.0,0.2666666666666666,1670.189483196487,25727.405750493475,95.0,64.0,31.0,0.6736842105263158,147.29468344208806,7720.091936797622,,,,,38476.0,38535.0,38602.0,38630.0,38688.0,38709.0,38716.0,38731.0,38963.0,39039.0,0.05317760419333236,-0.08056897358501172,0.056298307474745554,-0.15394902278105185,0.01668889177715048
27,27,40005.14266284856,3217.041620856088,25.807592108727174,40142.8254366152,-2084.5879360864647,2.9312103530029026,40203.944168765454,46383.674428385915,9.531513722250311,40226.45203459914,-7186.660351741011,7.1658314034009205,40504.57390076214,8847.363674892846,38.687376166493515,0.9747496699630857,157.0,99.0,97.0,315.0,412.0,58.0,1505.0,1504.0,79.0,41.0,38.0,0.5189873417721519,164.67715845075307,3005.633760122479,9.0,5.0,4.0,0.5555555555555556,213.4226156788299,2244.933107521737,21.0,11.0,10.0,0.5238095238095238,2497.05560981837,42684.803809726174,14.0,4.0,10.0,0.2857142857142857,1435.0761084915844,21936.26149117318,92.0,46.0,46.0,0.5,183.460145862244,8490.952588886415,,,,,39981.0,40039.0,40138.0,40147.0,40193.0,40214.0,40222.0,40235.0,40460.0,40550.0,0.05118900463803474,-0.10238120061248285,0.05383479512115194,-0.19968609037491644,0.020736137069042315
28,28,41408.52059170187,3097.281839412488,26.568161991334133,41537.84932180029,-1332.4052921926157,5.095930801728113,41613.801430158375,41157.30355613636,10.090858432003824,41634.027373699,-10817.508300564494,7.05562195728019,41913.68483389583,8243.864153071501,39.93239098460518,0.96422194842564,151.0,119.0,111.0,309.0,420.0,32.0,1401.0,1411.0,69.0,28.0,41.0,0.4057971014492754,123.5583956846164,2741.4934737873627,11.0,3.0,8.0,0.2727272727272727,160.4287015983546,948.0607980451296,21.0,11.0,10.0,0.5238095238095238,2316.12133537922,35078.40889260022,17.0,4.0,13.0,0.2352941176470588,1588.5463167902092,23840.19863901614,102.0,53.0,49.0,0.5196078431372549,154.7816206477259,8371.701143797338,,,,,41384.0,41416.0,41535.0,41546.0,41603.0,41624.0,41630.0,41646.0,41876.0,41955.0,0.03989252579870282,-0.12040533202502669,0.05627485610713429,-0.14684955838742583,0.01877537254056489
29,29,42849.36991350215,3105.0693345020336,26.1729355406601,43000.726017299574,-1670.0119662183747,7.64389620259217,43056.80827727546,45843.57035257126,9.522995126355482,43078.45203459914,-9575.4574243207,6.777261196088315,43354.54694207556,8951.456600512194,37.2771753648745,0.9717170577214505,164.0,104.0,95.0,311.0,406.0,60.0,1440.0,1443.0,82.0,38.0,44.0,0.4634146341463415,172.51290792500015,2496.33836299678,13.0,9.0,4.0,0.6923076923076923,227.31000249428232,2360.645084040483,21.0,11.0,10.0,0.5238095238095238,2599.099833981186,41056.288448531384,14.0,4.0,10.0,0.2857142857142857,1686.7163342943436,24625.606747181144,84.0,40.0,44.0,0.4761904761904761,161.21875922082927,9041.34352691366,,,,,42828.0,42888.0,42992.0,43005.0,43046.0,43067.0,43074.0,43087.0,43316.0,43398.0,0.055558472079228594,-0.1361127986459941,0.05669496974149633,-0.1761499487231026,0.01801033802829413
30,30,44412.97302704047,3484.6329515119387,25.155725149650888,44575.78645507279,-1782.2183362142182,2.9620965791758302,44612.39008549564,45698.11451233449,9.411945914214254,44635.87669549929,-6413.544209388169,6.836479977924623,44911.98838344545,9036.09088187923,37.82255281256373,0.9670519142544994,178.0,133.0,72.0,314.0,386.0,45.0,1572.0,1555.0,54.0,20.0,34.0,0.3703703703703703,188.49794348265783,4257.672101256651,10.0,6.0,4.0,0.6,441.0708884037935,3076.3897317556557,22.0,11.0,11.0,0.5,2499.137017644636,43046.41849116566,13.0,6.0,7.0,0.4615384615384615,1234.7897632111328,17755.57397724538,91.0,42.0,49.0,0.4615384615384615,166.58018045252047,10196.743833321956,,,,,44393.0,44438.0,44571.0,44580.0,44602.0,44623.0,44630.0,44643.0,44872.0,44957.0,0.054094059863857666,-0.24748420518482303,0.05468796785850077,-0.1925284558580953,0.018434982851553268
31,31,45838.8373116414,3189.2842388635268,24.244745909908513,46001.87669549929,-1960.9299771658316,4.668968389420427,46040.58105392505,45412.85546807799,9.866415542952772,46062.45203459914,-8780.52963464769,7.300667710826936,46339.493953541045,9265.038476001391,36.75569585533274,0.9747216078315356,183.0,115.0,81.0,309.0,390.0,68.0,1418.0,1428.0,69.0,31.0,38.0,0.4492753623188406,93.70186275508225,2966.234726753198,17.0,10.0,7.0,0.5882352941176471,311.34403861807135,984.4238303506556,22.0,12.0,10.0,0.5454545454545454,2514.447738180116,41282.99033622876,15.0,3.0,12.0,0.2,1552.2846397958374,23073.698400973415,94.0,49.0,45.0,0.5212765957446809,166.36726013413082,8375.639407619674,,,,,45809.0,45877.0,45992.0,46009.0,46029.0,46051.0,46059.0,46073.0,46297.0,46382.0,0.029380216919289725,-0.15877366466091902,0.05536863322650112,-0.1767871306612954,0.017956456475066
32,32,47166.972626301,3393.939066158374,17.8357578060484,47337.726017299574,-2189.4355882613577,4.698411823788947,47373.19587711517,43052.631506545,9.373498671330744,47397.45203459914,-7282.769777578142,7.6814329737916065,47681.08212109698,8518.599416746458,36.757004063272376,0.963492276570737,166.0,118.0,83.0,305.0,388.0,48.0,1331.0,1334.0,50.0,11.0,39.0,0.22,152.51088588936128,4207.747221924213,20.0,16.0,4.0,0.8,412.42697623364774,2350.571051824183,23.0,12.0,11.0,0.5217391304347826,2332.7075487036823,37280.4098760883,15.0,6.0,9.0,0.4,1262.4358217057293,18306.21061971407,100.0,59.0,41.0,0.59,269.2772717775839,7163.414724596301,,,,,47157.0,47205.0,47323.0,47342.0,47362.0,47384.0,47392.0,47406.0,47641.0,47711.0,0.044936247503697686,-0.18837136769168814,0.05418269376516639,-0.17334556223271796,0.0316105099681316
33,33,48543.753390998565,3368.888136717512,25.257043674335545,48664.48850787126,-1392.627392308537,3.785540342618215,48736.14086051888,47144.96446837959,9.294737324380677,48761.30135639943,-5552.186357667175,7.264270363197138,49034.347553338506,9230.73555925392,39.49945551166365,0.9695545309357696,129.0,102.0,107.0,310.0,417.0,27.0,1384.0,1362.0,59.0,40.0,19.0,0.6779661016949152,218.98180745900055,2960.5366765121853,8.0,4.0,4.0,0.5,143.52299681336322,1721.5137437960236,22.0,11.0,11.0,0.5,2536.9517483484765,43858.57850172762,13.0,6.0,7.0,0.4615384615384615,1133.0436926266964,15815.383049756298,91.0,43.0,48.0,0.4725274725274725,144.43615308577156,9922.078623474616,,,,,48531.0,48558.0,48660.0,48668.0,48726.0,48747.0,48755.0,48767.0,48996.0,49077.0,0.0650012106582934,-0.10305915107374655,0.05381172256583256,-0.20407162505668483,0.0156473069950501
34,34,49995.60271279886,3055.6521190555004,20.383723206912453,50112.60271279886,-1472.2836596278305,20.383723206912453,50188.9657578085,46855.134018675424,9.460221966342838,50211.87669549929,-7132.140545305956,7.020429584255024,50488.01191509654,8825.059903691852,36.93106380472278,0.968186728419392,146.0,101.0,111.0,309.0,420.0,45.0,1451.0,1453.0,67.0,35.0,32.0,0.5223880597014925,196.2871454506535,1916.639535167761,28.0,7.0,21.0,0.25,118.68593167794194,1340.4320867355214,22.0,11.0,11.0,0.5,2573.1302481358225,42708.484080580936,13.0,5.0,8.0,0.3846153846153846,1369.0558638495631,20053.460567271137,92.0,51.0,41.0,0.5543478260869565,146.1923156128068,9978.2732358452,,,,,49962.0,50007.0,50108.0,50131.0,50178.0,50199.0,50207.0,50219.0,50456.0,50528.0,0.06423739935137829,-0.08061349516569641,0.05491671941670745,-0.19195581679200252,0.016565589039418203
35,35,51366.90406919828,2551.096162597032,20.340489147097728,51529.956320562815,-3535.938966643732,4.480188965207742,51565.62805230819,41927.28547631941,9.845146076102944,51584.87669549929,-12086.941037742616,7.310149983354579,51870.10949479597,8221.029532639697,35.74588139137784,0.9662214251118264,165.0,137.0,74.0,311.0,385.0,28.0,1373.0,1376.0,53.0,27.0,26.0,0.5094339622641509,169.1247654457915,2155.5457421300675,12.0,6.0,6.0,0.5,494.2758342068393,952.2197485756788,21.0,12.0,9.0,0.5714285714285714,2403.9217866373565,35547.68353925065,18.0,3.0,15.0,0.1666666666666666,1653.9168661279257,26853.92572307912,85.0,44.0,41.0,0.5176470588235295,162.01787666915135,7952.200490625763,,,,,51360.0,51388.0,51525.0,51536.0,51554.0,51575.0,51582.0,51599.0,51829.0,51910.0,0.06629493937759735,-0.13978630255487684,0.05733549785843147,-0.13683502392900024,0.019707735634070748
36,36,52731.972626301,3555.2035401900757,17.8357578060484,52845.753390998565,-1414.4661324379508,25.47965400864057,52933.88879271075,45501.01562566768,9.705273691931382,52955.45203459914,-9743.988954564487,6.563557942820535,53232.11025720954,8841.515223451903,36.29447053818455,0.966551541604173,115.0,98.0,130.0,311.0,441.0,17.0,1357.0,1368.0,67.0,27.0,40.0,0.4029850746268656,212.21878421235832,3286.6321685579564,31.0,14.0,17.0,0.4516129032258064,136.82332788126575,1244.6691929988122,21.0,11.0,10.0,0.5238095238095238,2583.137585620508,41963.421737537006,14.0,4.0,10.0,0.2857142857142857,1661.727316294233,24438.777800801057,91.0,46.0,45.0,0.5054945054945055,205.84522756440813,9013.024994377723,,,,,52719.0,52736.0,52834.0,52860.0,52923.0,52944.0,52951.0,52964.0,53192.0,53275.0,0.059692442869533215,-0.09673142731628313,0.05677098741864849,-0.17053871099841625,0.023281668623768095
37,37,54228.12330450071,2774.7738511974094,12.739827004320285,54359.60271279886,-2579.10855316521,20.383723206912453,54441.33542629711,45578.42348509052,9.311456200583054,54464.45203459914,-7094.04748460816,7.788678864893857,54742.08797723044,8284.687104806682,33.199129996136975,0.9595324709470412,119.0,98.0,133.0,307.0,440.0,21.0,1497.0,1508.0,45.0,8.0,37.0,0.1777777777777777,152.0582948695169,2618.404801170313,32.0,20.0,12.0,0.625,158.52401904845937,2147.0221007074924,21.0,10.0,11.0,0.4761904761904761,2527.819719841377,41858.23924076623,15.0,5.0,10.0,0.3333333333333333,1334.9065002635862,20396.67490321844,78.0,39.0,39.0,0.5,205.18168709156055,9353.849249478862,,,,,54221.0,54242.0,54340.0,54371.0,54431.0,54451.0,54459.0,54473.0,54707.0,54780.0,0.05480024788466944,-0.06146465562836074,0.05546088536099257,-0.18817276077724476,0.024766377353287905
38,38,55667.50678199713,3444.4385410259165,19.09201735655825,55824.30135639943,-2485.808703576033,5.423335573056336,55860.64883647315,44227.32543137183,9.53352638162852,55882.178051898714,-8869.65477590629,7.250765052964499,56165.53415569612,8149.473052934393,36.04198028874577,0.968621730988349,164.0,112.0,87.0,309.0,396.0,52.0,1450.0,1419.0,57.0,28.0,29.0,0.4912280701754385,162.1304608510947,3439.175577760934,24.0,17.0,7.0,0.7083333333333334,400.95513340732697,1855.1063744513451,21.0,11.0,10.0,0.5238095238095238,2513.59403915211,39310.56743012903,18.0,5.0,13.0,0.2777777777777778,1499.655599078823,22901.912180450006,80.0,41.0,39.0,0.5125,153.65694719019345,9334.795581572596,,,,,55644.0,55696.0,55808.0,55830.0,55850.0,55871.0,55877.0,55895.0,56126.0,56204.0,0.04707021446891736,-0.16129766253956757,0.056833507670557414,-0.16907711032367548,0.018854832231743616
39,39,57017.39728720114,3377.4979298810804,20.383723206912453,57149.477919465375,-1827.4739187721352,12.739827004320285,57222.95396006983,45723.42609501366,9.41311107215718,57245.027373699,-8911.392293077397,6.71754999825409,57522.15256432471,8658.779859753418,38.87308787881445,0.969177601356522,136.0,86.0,113.0,313.0,426.0,50.0,1338.0,1363.0,51.0,11.0,40.0,0.2156862745098039,181.0011444757724,4645.967955269704,12.0,7.0,5.0,0.5833333333333334,229.3710629655147,2671.5901770772534,21.0,11.0,10.0,0.5238095238095238,2573.0373540653372,40919.497319194204,15.0,5.0,10.0,0.3333333333333333,1549.9399098580664,22115.515792886203,98.0,42.0,56.0,0.4285714285714285,183.14408043015465,9272.933280182611,,,,,57006.0,57056.0,57142.0,57154.0,57212.0,57233.0,57240.0,57255.0,57484.0,57568.0,0.05359030508188804,-0.1255126328257682,0.05627394038055119,-0.173927918206687,0.021151257266791186
40,40,58444.52059170187,2806.041091571656,24.56197261557375,58566.78076469755,-1685.068509883081,27.24829793277587,58652.50400877162,46281.212015186546,9.25246870652733,58676.87669549929,-7164.469185560162,6.952130300691056,58961.65746019684,8492.44094099431,35.488688032053815,0.963478122853108,128.0,80.0,130.0,309.0,439.0,48.0,1425.0,1429.0,50.0,21.0,29.0,0.42,154.81917200425366,3120.6314669941767,39.0,14.0,25.0,0.358974358974359,111.72582665323498,2080.2388758143434,21.0,11.0,10.0,0.5238095238095238,2529.350567806426,41566.658364037656,13.0,6.0,7.0,0.4615384615384615,1254.0700849157697,17856.492961549877,94.0,55.0,39.0,0.5851063829787234,163.31983423242124,8101.118233595522,,,,,58426.0,58474.0,58554.0,58591.0,58642.0,58663.0,58671.0,58684.0,58916.0,58993.0,0.05517352275035283,-0.06630343276724524,0.054651778933024794,-0.17504019522385855,0.01923120047194576
41,41,59843.09593080172,2255.0914495432676,20.34853298202748,59966.60271280348,-2845.753981770633,20.383723206912453,60046.366977475045,42799.41625276627,9.652571280530344,60068.60271279886,-10197.832229486328,8.018366966617542,60351.808138396555,7382.536529376748,33.524300712505834,0.9634724259919336,136.0,85.0,118.0,306.0,424.0,51.0,1399.0,1394.0,53.0,18.0,35.0,0.3396226415094339,111.59799633335474,2541.9966914848733,69.0,40.0,29.0,0.5797101449275363,164.8133835107769,1762.2195099667183,23.0,12.0,11.0,0.5217391304347826,2377.493727038459,37013.71878187312,17.0,6.0,11.0,0.3529411764705882,1459.1692950813554,21978.217163482044,83.0,40.0,43.0,0.4819277108433735,124.04559781094264,7165.78328510788,,,,,59826.0,59877.0,59962.0,59995.0,60035.0,60056.0,60064.0,60080.0,60315.0,60386.0,0.049487126722048067,-0.05791554173921589,0.05554967649552448,-0.14308622286041028,0.016802571489804043
42,42,61150.84188795476,3694.946959190407,25.73910419821997,61271.69864360057,-952.7143069806812,10.191861603456228,61346.59105629116,44689.27810721496,9.817022745401472,61367.45203459914,-9960.614377511403,7.055640197039383,61645.10662538863,8883.732708287696,40.19585801116072,0.9746815792554412,142.0,77.0,112.0,310.0,422.0,65.0,1308.0,1300.0,66.0,28.0,38.0,0.4242424242424242,133.15816291123002,3396.0229366459307,13.0,7.0,6.0,0.5384615384615384,151.06180506919802,1184.0214982104212,21.0,11.0,10.0,0.5238095238095238,2554.991394247752,40207.9217859441,15.0,3.0,12.0,0.2,1668.79575090734,24443.787584723963,95.0,47.0,48.0,0.4947368421052631,187.27981519503655,10036.583684828332,,,,,61124.0,61189.0,61266.0,61275.0,61336.0,61356.0,61364.0,61378.0,61601.0,61688.0,0.03603790917215387,-0.15855939599347404,0.05717235772119702,-0.1675394396027485,0.02108120779234183
43,43,62529.90406919828,3078.026523392362,23.94001440393898,62639.726017299574,-1899.5614034056523,7.64389620259217,62724.106388788234,45505.74058578478,9.621259932211412,62745.45203459914,-7949.540358590602,7.227429522993568,63023.23268647247,8783.284432393217,37.16004039562821,0.9706011498955042,115.0,86.0,119.0,311.0,430.0,29.0,1389.0,1377.0,57.0,22.0,35.0,0.3859649122807017,209.34183091291,2525.8068007489674,15.0,2.0,13.0,0.1333333333333333,166.99074097638643,843.9294917081606,21.0,11.0,10.0,0.5238095238095238,2537.423003252137,42639.65231194187,17.0,4.0,13.0,0.2352941176470588,1546.7208326313985,22464.21996646413,84.0,38.0,46.0,0.4523809523809524,175.0439175500414,10128.196768673026,,,,,62523.0,62552.0,62638.0,62652.0,62714.0,62734.0,62742.0,62757.0,62988.0,63068.0,0.06801170468219023,-0.08791015687989606,0.055760503413162445,-0.19456732878397778,0.01992920972756731
44,44,63920.246609001435,2645.6397060272534,22.22212132601651,64038.356103797414,-1907.7844379539824,29.790216188444997,64118.79664562133,43961.96448896063,9.578874206027995,64140.027373699,-10065.567362049973,7.437381082763737,64417.02155888112,7909.688250221574,33.84140767382321,0.968697640258694,122.0,83.0,124.0,305.0,429.0,39.0,1381.0,1396.0,50.0,19.0,31.0,0.38,180.1100297591828,3160.5752268367414,72.0,40.0,32.0,0.5555555555555556,112.50204190052668,2148.4715936514203,21.0,11.0,10.0,0.5238095238095238,2510.580749980045,38130.658938225504,16.0,4.0,12.0,0.25,1545.880363474877,24558.03911959984,77.0,37.0,40.0,0.4805194805194805,154.0775819095118,8889.06143091956,,,,,63906.0,63945.0,64028.0,64070.0,64108.0,64129.0,64136.0,64152.0,64381.0,64457.0,0.06807806420082789,-0.05896999664237765,0.05710802006153482,-0.1535810459431509,0.019479602360459102
45,45,65213.246609001435,3115.3867581902255,23.21751020813059,65340.87669549929,-2162.6081853193796,12.739827004320285,65420.17765778864,43308.13064774527,10.82113318908122,65437.87669549929,-17441.325575903873,6.7928838808394865,65716.39268086577,8741.42451683539,37.69481379099003,0.9726452721992292,136.0,99.0,116.0,313.0,429.0,37.0,1293.0,1300.0,44.0,15.0,29.0,0.3409090909090909,174.54495158190736,3980.4995359429768,14.0,7.0,7.0,0.5,262.5094638353845,2041.4968382194477,21.0,12.0,9.0,0.5714285714285714,2524.8353574436355,36271.713241177094,17.0,3.0,14.0,0.1764705882352941,1849.43706144929,29139.4610531787,98.0,49.0,49.0,0.5,147.13412027491682,9298.352446495988,,,,,65199.0,65236.0,65335.0,65348.0,65408.0,65429.0,65435.0,65451.0,65677.0,65764.0,0.05602673604586517,-0.12138558691185959,0.05829933824620262,-0.10603764337754158,0.016831824148517957
46,46,66735.30135639943,2966.1311467045666,10.191861603456228,66886.30135639943,-2607.115832657587,4.399902884500788,66922.53558798254,44467.20425406823,9.731879898113691,66945.027373699,-8437.863866329679,7.243990637526383,67232.08212109699,8680.287005496399,32.34012737882516,0.9546415136216482,146.0,133.0,81.0,307.0,388.0,13.0,1528.0,1503.0,39.0,32.0,7.0,0.8205128205128205,185.36200231057657,2546.103178048258,18.0,12.0,6.0,0.6666666666666666,439.31895479358224,1735.019298751061,22.0,12.0,10.0,0.5454545454545454,2468.809304294331,39661.82126846664,15.0,5.0,10.0,0.3333333333333333,1436.7978516400674,21017.77102337392,93.0,57.0,36.0,0.6129032258064516,179.7155648395032,7310.764084794339,,,,,66728.0,66741.0,66874.0,66892.0,66912.0,66933.0,66940.0,66955.0,67189.0,67262.0,0.06249285454438439,-0.16850764714422317,0.05551977790617371,-0.17027980948749877,0.020703873584560793
47,47,68164.12330450071,2863.7135889877386,12.739827004320285,68327.87669549929,-1589.267151491682,12.739827004320285,68384.28719315551,44214.693439220944,9.06365787248988,68407.45203459915,-7571.23276755908,7.4769536212843475,68683.09992607753,8148.311695029902,35.27322688607602,0.9627154763360156,167.0,154.0,92.0,309.0,401.0,13.0,1425.0,1462.0,14.0,7.0,7.0,0.5,221.1611674206309,4065.9343686142615,11.0,4.0,7.0,0.3636363636363636,172.4519153916013,1160.7770391014046,22.0,11.0,11.0,0.5,2454.8731667927027,39401.54527894032,15.0,6.0,9.0,0.4,1348.4637812936044,20270.21355311252,81.0,38.0,43.0,0.4691358024691358,192.21710978560577,9191.386221154116,,,,,68157.0,68170.0,68324.0,68335.0,68374.0,68394.0,68402.0,68416.0,68646.0,68725.0,0.07722880118706517,-0.1085103377551964,0.0555216597886686,-0.17810359589939553,0.023589808168832008
48,48,69516.12330450071,2248.614189404419,12.739827004320285,69703.30135639943,-2298.681578998924,4.191331950111984,69740.68346740822,44473.692293852255,9.887272470510442,69760.45203459915,-12172.449074246526,6.689804547237292,70039.2031073189,8869.083836324467,36.98004179118525,0.959168446148571,185.0,175.0,78.0,310.0,388.0,10.0,1352.0,1356.0,12.0,9.0,3.0,0.75,230.11337973713373,3557.1239731649484,15.0,9.0,6.0,0.6,414.9167634113425,2314.5200636782565,20.0,11.0,9.0,0.55,2626.3858040438513,39261.83867429258,15.0,3.0,12.0,0.2,1802.4991818765957,27659.266919030804,79.0,35.0,44.0,0.4430379746835443,203.86562681779623,9921.31830706003,,,,,69509.0,69519.0,69694.0,69709.0,69730.0,69750.0,69757.0,69772.0,70007.0,70082.0,0.10233564335822451,-0.18050206135642274,0.05905481799645642,-0.14808024012934062,0.022986097615047732
49,49,70994.52059170186,3187.4038240575064,26.797011586941295,71121.66252836004,-2523.3489418110676,3.615905763453669,71197.5894044663,46155.479618885365,9.335573506814791,71222.87669549929,-5452.947581553212,8.043034894882593,71500.56152939513,9001.341263790902,36.93746518833031,0.9668803751036802,141.0,96.0,113.0,319.0,432.0,45.0,1475.0,1457.0,81.0,34.0,47.0,0.419753086419753,115.54295251097922,3345.426081806872,11.0,5.0,6.0,0.4545454545454545,272.1818715818409,1863.6866196132469,21.0,11.0,10.0,0.5238095238095238,2536.7031505684977,42190.05040332209,10.0,3.0,7.0,0.3,1049.1428289342423,15003.507000000907,95.0,46.0,49.0,0.4842105263157895,185.32565264798205,9739.9859349842,,,,,70976.0,71021.0,71117.0,71128.0,71187.0,71208.0,71220.0,71230.0,71460.0,71549.0,0.036249863176701334,-0.10786533208779657,0.0549599564670228,-0.19239921404771793,0.020588670867693823
50,50,72410.69864360057,3234.09781050613,10.191861603456228,72514.75339099858,-2076.270305599009,25.47965400864057,72596.52933127597,43985.381158158845,9.434139683466183,72620.027373699,-8075.386654954111,7.763947337587464,72896.01338109774,7762.860096011442,35.746376478039025,0.9576210199520292,104.0,79.0,121.0,307.0,428.0,25.0,1420.0,1399.0,34.0,10.0,24.0,0.2941176470588235,203.95100663678113,3351.3664499883216,40.0,25.0,15.0,0.625,165.5077775201921,1675.420570681169,21.0,11.0,10.0,0.5238095238095238,2452.208509411113,38542.36933715412,15.0,5.0,10.0,0.3333333333333333,1294.5767112824915,19493.37477051444,91.0,37.0,54.0,0.4065934065934066,160.2458567583254,8133.9815190311265,,,,,72405.0,72430.0,72509.0,72529.0,72586.0,72607.0,72615.0,72630.0,72860.0,72937.0,0.0630627206061103,-0.07971398380734569,0.05575053449221397,-0.16031142118604202,0.020642631037581075
51,51,73667.69864360057,2821.166816569342,10.191861599301136,73812.87669549929,-2724.0885307718336,12.739827004295444,73872.64051680588,42334.250540430825,9.79330185922629,73892.027373699,-12866.448725624725,7.480008881319037,74181.93144289727,7669.415318673375,30.90811742863046,0.9559901316066916,142.0,131.0,104.0,304.0,408.0,11.0,1257.0,1276.0,23.0,10.0,13.0,0.4347826086956521,265.05108706671615,3245.6251616263007,20.0,13.0,7.0,0.65,196.31492420406735,2508.4925035751903,21.0,12.0,9.0,0.5714285714285714,2475.1733809831044,35224.75762863681,18.0,4.0,14.0,0.2222222222222222,1699.711179576091,27112.211408927276,75.0,45.0,30.0,0.6,186.45132444841408,6945.726698795834,,,,,73659.0,73670.0,73801.0,73820.0,73861.0,73882.0,73888.0,73905.0,74141.0,74209.0,0.09395087362789467,-0.07206627904580039,0.058467395770222017,-0.13210414278424462,0.02431102198813582
52,52,75030.63008649785,2911.694813737279,24.70151263040495,75135.17805189872,-1764.116546616156,22.93168860777651,75214.07137956782,46321.88049215072,9.057049651057168,75238.30135639943,-6493.26417821991,7.43376989442064,75515.83551209555,8525.872628377552,38.17917287978196,0.9657000742711888,133.0,77.0,115.0,316.0,431.0,56.0,1371.0,1342.0,71.0,49.0,22.0,0.6901408450704225,114.0809068284956,2250.967941114239,20.0,7.0,13.0,0.35,124.47460018102832,1677.945008260448,22.0,11.0,11.0,0.5,2572.283879352619,41574.96598884229,13.0,7.0,6.0,0.5384615384615384,1318.4185301872792,18683.251346970443,102.0,58.0,44.0,0.5686274509803921,146.78808708726956,9610.985913569555,,,,,74996.0,75052.0,75129.0,75148.0,75204.0,75224.0,75232.0,75244.0,75469.0,75560.0,0.03918024179260329,-0.07055917049232918,0.05553064452529069,-0.20304403055239867,0.017216781611151383
53,53,76441.51815244608,2985.0909573813733,26.664972844787005,76560.87669549929,-1690.7714806198885,12.739827004320285,76640.3435978313,45894.503482493565,9.600752328447586,76662.45203459915,-8295.254800370385,7.185931808206996,76938.90470434859,8469.85962161304,36.64059967421861,0.9722830392237364,146.0,77.0,115.0,306.0,421.0,69.0,1411.0,1426.0,71.0,32.0,39.0,0.4507042253521127,132.98573771963834,2365.9890735634067,12.0,5.0,7.0,0.4166666666666667,134.83624704677035,1337.8669623595808,22.0,11.0,11.0,0.5,2509.692669646431,42500.57229617149,15.0,4.0,11.0,0.2666666666666666,1572.1014933425854,22678.44265666074,90.0,47.0,43.0,0.5222222222222223,146.81225499635002,9213.865416661749,,,,,76411.0,76480.0,76557.0,76568.0,76630.0,76651.0,76659.0,76672.0,76894.0,76978.0,0.044549978415497966,-0.07974835664801684,0.054683948604079616,-0.18951816805824828,0.01733349329919477
54,54,77740.87669549929,3991.082125265805,12.739827004320285,77899.15940044227,-2461.883394026204,3.924648548782392,77933.8322017279,41344.698446556504,10.65375927881297,77952.87669549929,-14187.653101763324,6.8514614925288075,78235.68483389584,7821.247241381096,38.20598387415019,0.9631651866923748,156.0,142.0,71.0,312.0,383.0,14.0,1295.0,1293.0,64.0,32.0,32.0,0.5,238.12685529600532,2806.8261599759253,9.0,5.0,4.0,0.5555555555555556,527.6477348956923,2707.3915234730975,21.0,12.0,9.0,0.5714285714285714,2334.07943410457,34821.03237309134,17.0,3.0,14.0,0.1764705882352941,1719.5003138701743,26289.812353205292,95.0,53.0,42.0,0.5578947368421052,136.77938991321625,8319.513147998005,,,,,77738.0,77752.0,77894.0,77903.0,77922.0,77943.0,77950.0,77965.0,78189.0,78277.0,0.05966473448103905,-0.2143268589308646,0.05645414096130551,-0.12119695213413871,0.017488181320945352
55,55,79059.39728720114,3639.7750352664166,20.383723206912453,79188.23536647117,-1531.8657899680557,12.739827004320285,79265.76551855062,45311.85080999959,9.78216637450877,79287.87669549929,-9019.81864654384,7.253979220932017,79562.51298943158,9123.3497963218,39.47686219702312,0.969856120009296,131.0,98.0,118.0,314.0,432.0,33.0,1313.0,1333.0,59.0,23.0,36.0,0.3898305084745763,175.75920149113165,3859.1555522944377,15.0,9.0,6.0,0.6,162.85880123414907,2339.3145120183935,21.0,11.0,10.0,0.5238095238095238,2535.2851830920335,41499.86642609707,14.0,4.0,10.0,0.2857142857142857,1517.2783067670396,21801.777711222472,103.0,54.0,49.0,0.5242718446601942,181.42490855067524,9967.160203892538,,,,,79048.0,79081.0,79179.0,79194.0,79255.0,79276.0,79285.0,79297.0,79514.0,79611.0,0.0482884793120921,-0.10631401412622786,0.05595192290252989,-0.168216054692898,0.019885777987359327
56,56,80555.20542559771,3446.4776317079527,27.417096926849872,80684.90782223281,-2109.3080376673965,3.701167458083227,80742.21440701977,46079.158412780955,9.393358968731109,80765.45203459915,-7102.8225185876645,6.952583522884161,81045.2327992967,9016.330083114855,37.11182021895805,0.9687183863639144,172.0,102.0,94.0,304.0,398.0,70.0,1506.0,1476.0,72.0,48.0,24.0,0.6666666666666666,93.42900918871432,2978.6918837895455,9.0,5.0,4.0,0.5555555555555556,260.2444715383974,1234.0394490704923,22.0,11.0,11.0,0.5,2533.7823578066186,42382.40365975671,14.0,5.0,9.0,0.3571428571428571,1426.7684973698629,20101.810523760418,91.0,47.0,44.0,0.5164835164835165,245.77286614928835,9933.323500052622,,,,,80508.0,80578.0,80680.0,80689.0,80731.0,80753.0,80760.0,80774.0,81014.0,81078.0,0.027108549415541746,-0.12337907355920943,0.05498760057874288,-0.20087345469158133,0.027258636705143967
57,57,81897.75339099858,2919.594139751695,24.641142059682252,82008.20542559771,-1719.3453925478186,29.393910256422412,82091.56275253235,42940.41868791336,9.203691575243427,82114.027373699,-9909.172350216888,7.031441176257843,82391.13107132594,7780.490301036689,37.020881511834205,0.9661617806890204,119.0,87.0,125.0,306.0,431.0,32.0,1340.0,1350.0,55.0,20.0,35.0,0.3636363636363636,155.78421627333472,2445.6150273555104,36.0,11.0,25.0,0.3055555555555556,167.17849696039988,2342.8328079290663,22.0,12.0,10.0,0.5454545454545454,2508.2425448814315,36418.14164057021,16.0,6.0,10.0,0.375,1566.2519239534836,21770.54674321825,73.0,34.0,39.0,0.4657534246575342,308.70012656535295,10049.271870672532,,,,,81880.0,81912.0,81999.0,82031.0,82081.0,82102.0,82108.0,82124.0,82358.0,82430.0,0.0533581754231716,-0.09723380635735196,0.058412158556512585,-0.1580608216910469,0.0396761790865829
58,58,83286.45222264787,3057.573974010998,22.98611611420272,83401.027373699,-1875.928862431777,17.8357578060484,83481.83761755648,44490.28043934321,9.394892597373076,83505.87669549929,-7455.106014225794,7.322584319481896,83782.83551209555,8582.012885728833,35.3717582217405,0.9683245206878528,109.0,57.0,136.0,314.0,450.0,52.0,1380.0,1390.0,65.0,30.0,35.0,0.4615384615384615,185.02209631644337,2541.0879159413976,32.0,23.0,9.0,0.71875,156.2099613813869,1786.8757964741044,21.0,11.0,10.0,0.5238095238095238,2468.707433690906,40475.04691315786,13.0,6.0,7.0,0.4615384615384615,1242.422386330083,18234.153292761992,100.0,54.0,46.0,0.54,167.52118930459156,8072.771393258449,,,,,83268.0,83320.0,83377.0,83411.0,83471.0,83492.0,83500.0,83513.0,83744.0,83827.0,0.06051271298392398,-0.0832707276431,0.05548869122226981,-0.16665388580112733,0.01952003469759003
59,59,84707.94838429458,3475.8838763470003,23.10276518091308,84828.20822039324,-1374.0469452369823,12.739827004320285,84906.08115711721,44604.85068120612,9.644366490995225,84928.027373699,-8990.68756775145,7.150747685545026,85202.8171271553,8450.829369553008,39.43424388867444,0.9726696439093632,133.0,99.0,115.0,318.0,433.0,34.0,1428.0,1424.0,43.0,25.0,18.0,0.5813953488372093,191.86155403120756,4133.2858564234975,12.0,5.0,7.0,0.4166666666666667,164.20587503548774,1944.2171074961057,21.0,11.0,10.0,0.5238095238095238,2458.646032589105,40295.20696308445,15.0,4.0,11.0,0.2666666666666666,1508.8528867253117,21934.164292359237,99.0,45.0,54.0,0.4545454545454545,144.88895119638627,8256.270411066092,,,,,84690.0,84724.0,84823.0,84835.0,84895.0,84916.0,84924.0,84938.0,85159.0,85256.0,0.055197918243703105,-0.11950528735913539,0.05512059776101963,-0.16782397067576804,0.017144938663463977
60,60,86028.75339099858,3251.2151521728124,23.16013016332123,86156.45203459915,-1546.3544765826668,15.28779240249189,86217.31267825124,42343.76915015195,10.92647529540943,86234.30135639943,-17149.783640056303,7.0120596030535,86517.95881659626,8530.851712323773,37.73392736567179,0.9713387485202604,160.0,109.0,98.0,305.0,403.0,51.0,1323.0,1310.0,66.0,38.0,28.0,0.5757575757575758,148.496980061903,2728.186363004025,14.0,4.0,10.0,0.2857142857142857,215.36396125228788,1229.765820504793,21.0,12.0,9.0,0.5714285714285714,2433.4963954583795,35362.311442295235,19.0,2.0,17.0,0.1052631578947368,1710.778570844161,27394.81210574657,92.0,54.0,38.0,0.5869565217391305,129.4420049567428,9268.41253335608,,,,,85992.0,86043.0,86152.0,86165.0,86205.0,86226.0,86232.0,86250.0,86479.0,86555.0,0.04567430118017914,-0.1392720521159074,0.05746999958433428,-0.09975511101191621,0.015173397606917643
61,61,87421.972626301,3523.9557499879165,17.8357578060484,87570.27398270041,-1431.3954993592208,7.64389620259217,87628.87076539721,46013.93461601707,9.36124611599956,87652.45203459915,-7236.226313270454,7.577627364416222,87936.65746019685,8894.176039524706,35.54651837880442,0.9641781942154616,164.0,140.0,95.0,307.0,402.0,24.0,1386.0,1413.0,73.0,27.0,46.0,0.3698630136986301,178.09524530400387,2759.142304661336,17.0,4.0,13.0,0.2352941176470588,141.43816461144618,1614.330326550336,21.0,11.0,10.0,0.5238095238095238,2548.765823585533,41970.69537793138,14.0,5.0,9.0,0.3571428571428571,1370.57522605545,19867.106059130987,75.0,43.0,32.0,0.5733333333333334,197.00608166180828,9326.894965701593,,,,,87402.0,87426.0,87566.0,87583.0,87618.0,87639.0,87648.0,87661.0,87895.0,87968.0,0.05053844541169807,-0.09881137999578904,0.05539117323599466,-0.1894046933747724,0.02215000926295316
62,62,88881.32873009844,3108.4529511291753,23.075238384787465,89006.30135639943,-1853.253088106327,10.191861603456228,89066.36987352601,44617.13652854071,9.637326254061804,89085.87669549929,-10840.47718680208,7.296697917864271,89375.93144289727,8109.179890090099,34.683764094110245,0.9680729481057234,161.0,107.0,94.0,305.0,399.0,54.0,1467.0,1437.0,69.0,48.0,21.0,0.6956521739130435,156.6318425020888,2169.2179791968124,14.0,3.0,11.0,0.2142857142857142,180.27076794162195,1469.8343339122202,21.0,11.0,10.0,0.5238095238095238,2509.8732362733954,39896.25316998918,16.0,3.0,13.0,0.1875,1661.4975978413204,25709.087057155702,83.0,54.0,29.0,0.6506024096385542,160.36804726555616,7860.261016335408,,,,,88843.0,88897.0,89004.0,89015.0,89055.0,89076.0,89083.0,89098.0,89323.0,89403.0,0.05038900217073924,-0.09727261165706433,0.05625357052369057,-0.15326793915162135,0.019776111695528602
63,63,90205.027373699,3068.321194478916,17.496980552660833,90318.7260172996,-2485.568107054748,7.64389620259217,90398.63437999714,43321.117381588345,10.178322091178886,90416.87669549928,-15053.857076753067,7.133955704899523,90698.13247851678,8261.959043285819,33.87499262351921,0.9729039828337432,93.0,64.0,151.0,305.0,456.0,29.0,1322.0,1332.0,38.0,25.0,13.0,0.6578947368421053,205.6706946254953,2042.7688030040845,43.0,39.0,4.0,0.9069767441860463,178.7625523134533,2153.77192395924,21.0,12.0,9.0,0.5714285714285714,2560.3912290944313,36487.74145705374,17.0,3.0,14.0,0.1764705882352941,1809.602245362333,28635.45801515193,73.0,36.0,37.0,0.4931506849315068,223.1232152805657,9833.743980116416,,,,,90186.0,90215.0,90279.0,90323.0,90387.0,90408.0,90414.0,90430.0,90662.0,90735.0,0.06703036663683566,-0.07192019876907595,0.059102612856025,-0.12020854430435725,0.027006090699746264
64,64,91681.75339099858,3685.887584384233,25.47965385209585,91784.12330450072,-1560.412511327845,5.9583518170359495,91866.67791116449,45810.17956428206,9.726668712270758,91889.45203459916,-7815.403357724471,6.694574577856628,92165.46252161254,8849.094547409777,40.61259493597718,0.9735492150736154,133.0,81.0,121.0,311.0,432.0,52.0,1478.0,1468.0,53.0,39.0,14.0,0.7358490566037735,201.5054765550962,3677.513399594493,16.0,7.0,9.0,0.4375,180.3105419592604,892.3037678046016,22.0,11.0,11.0,0.5,2493.6253107349153,41814.65802400788,15.0,5.0,10.0,0.3333333333333333,1506.5733752326655,21107.786660877508,99.0,47.0,52.0,0.4747474747474747,218.57987503882268,10641.822081451855,,,,,91644.0,91696.0,91777.0,91793.0,91856.0,91877.0,91885.0,91898.0,92119.0,92209.0,0.05466945801841644,-0.11555312499117541,0.05443386894469152,-0.1927697530471823,0.024700818130912988
65,65,93101.17805189872,2994.93033597728,21.028613261015437,93235.45203463057,-1790.734091172761,15.287792405180706,93292.67043218974,43237.95806661598,9.848844688083792,93311.87669549928,-11234.963966752655,6.774745744728682,93591.88830470714,7889.703698082204,36.06263495474743,0.967736093946693,133.0,115.0,99.0,307.0,406.0,18.0,1419.0,1426.0,19.0,5.0,14.0,0.2631578947368421,219.29794327377516,2976.602748593026,16.0,7.0,9.0,0.4375,193.75011394400772,2749.304262466376,20.0,11.0,9.0,0.55,2509.258443474612,37897.0913670167,19.0,3.0,16.0,0.1578947368421052,1653.2517229710306,26603.72738457221,88.0,43.0,45.0,0.4886363636363636,116.30920179050668,8275.380686440734,,,,,93096.0,93114.0,93229.0,93244.0,93282.0,93302.0,93309.0,93328.0,93554.0,93635.0,0.07322305318404534,-0.10819591523893968,0.058033694366617414,-0.14715238320865617,0.014741897318498618
66,66,94451.1307095955,3177.9238035487188,21.091279848633235,94589.12330450072,-2017.7693198588224,12.739827004320285,94646.04883563698,45031.249708843214,9.6641096107736,94667.027373699,-10728.116636878309,6.714970004191754,94942.85377080018,8777.345797629978,37.78111822497458,0.9688126245114456,148.0,104.0,95.0,310.0,405.0,44.0,1344.0,1354.0,44.0,17.0,27.0,0.3863636363636363,110.2253739916871,3527.1294988450845,13.0,7.0,6.0,0.5384615384615384,250.07635431646733,2663.248212173846,21.0,11.0,10.0,0.5238095238095238,2542.0865514112024,39730.42394040471,15.0,4.0,11.0,0.2666666666666666,1659.1258955134738,24798.213340339866,96.0,48.0,48.0,0.5,139.29048594822143,9217.951369412402,,,,,94434.0,94478.0,94582.0,94594.0,94635.0,94656.0,94663.0,94677.0,94900.0,94987.0,0.03468471266321767,-0.12393703871657859,0.056451610111810616,-0.15465211198489076,0.015869317349423793
67,67,95876.74026797512,3305.1386450496125,28.497973033825858,95995.7260172996,-1415.661114206339,7.643896072991418,96076.93604698374,46231.9836230009,9.555186602958598,96100.87669549928,-7131.33039100728,6.761117375263546,96375.70858223556,9268.117277317642,39.23365504507685,0.973982416054347,131.0,83.0,121.0,312.0,433.0,48.0,1431.0,1431.0,67.0,38.0,29.0,0.5671641791044776,168.59305541481442,3607.205979012662,13.0,9.0,4.0,0.6923076923076923,123.09769726787482,1701.8321205593788,22.0,11.0,11.0,0.5,2463.6965416989065,42727.752836812215,14.0,6.0,8.0,0.4285714285714285,1300.160537145519,17806.709160806553,78.0,34.0,44.0,0.4358974358974359,225.5038480623113,11260.694124957658,,,,,95856.0,95904.0,95987.0,96000.0,96066.0,96088.0,96095.0,96108.0,96342.0,96420.0,0.05100937464978378,-0.08695421244009162,0.053289873127424954,-0.18231668789108998,0.02433113881868963
68,68,97320.96029945614,3244.9476418680997,20.49628705403358,97466.69864360055,-1969.3971158643328,10.191861603456228,97520.68890600395,43424.30867556824,9.675578530483836,97540.45203459916,-11545.077489424377,6.896997536873036,97824.38347749642,8162.495319920198,36.691636422262015,0.9706019956810612,164.0,113.0,91.0,308.0,399.0,51.0,1441.0,1443.0,51.0,24.0,27.0,0.4705882352941176,129.44549174546046,3206.370736007021,12.0,6.0,6.0,0.5,226.963742530701,2818.7174935336234,20.0,11.0,9.0,0.55,2535.752021307924,37658.87594377481,16.0,3.0,13.0,0.1875,1765.5979274318388,26301.33384749921,97.0,54.0,43.0,0.5567010309278351,155.92729488824267,7502.663042366754,,,,,97297.0,97348.0,97461.0,97472.0,97510.0,97530.0,97537.0,97552.0,97776.0,97860.0,0.0398913961123081,-0.11524529039999672,0.058394758572969774,-0.15293079921284006,0.01910289547213696
69,69,98698.917878903,4128.748582219708,32.06503936973904,98867.84932180028,-1952.201159114978,2.112019674121824,98901.67633169788,45303.281964843416,10.74297794754862,98920.30135639945,-14506.654968895711,6.031495857157546,99205.95881659626,9482.41497320194,40.04603587700976,0.9689750349163292,196.0,125.0,65.0,313.0,378.0,71.0,1369.0,1381.0,72.0,30.0,42.0,0.4166666666666667,113.0392702242645,4285.056591916196,6.0,4.0,2.0,0.6666666666666666,585.8102309170929,4711.267633041209,22.0,12.0,10.0,0.5454545454545454,2607.0735770629417,39829.54250249491,13.0,2.0,11.0,0.1538461538461538,1844.0125713827515,27202.519609265128,95.0,56.0,39.0,0.5894736842105263,110.0337907175074,9640.668335448428,,,,,98669.0,98740.0,98865.0,98870.0,98890.0,98911.0,98918.0,98930.0,99162.0,99243.0,0.027378579240950548,-0.30007677650527953,0.057547123828381834,-0.12711493968365356,0.011603983903728287
70,70,100239.52059170186,2557.472506381047,21.508090904278305,100403.7260172996,-2210.5253643379756,4.092832440753015,100439.12919838456,45698.11404644684,9.38480778458133,100461.45203459916,-8842.395193803126,7.336949122707316,100741.92046166232,8329.555919391436,32.16685208901946,0.9686372665835424,170.0,134.0,79.0,310.0,389.0,36.0,1544.0,1538.0,40.0,20.0,20.0,0.5,113.8392137783602,2481.5020384668687,18.0,13.0,5.0,0.7222222222222222,458.2348688419568,2369.8173438150816,21.0,11.0,10.0,0.5238095238095238,2560.5696990005877,41557.41062283868,15.0,4.0,11.0,0.2666666666666666,1565.7910294824642,23226.735246149314,73.0,35.0,38.0,0.4794520547945205,117.40353733142324,9281.788706230249,,,,,100221.0,100257.0,100391.0,100408.0,100428.0,100449.0,100457.0,100470.0,100707.0,100780.0,0.04451239006258114,-0.20729681560527688,0.05603228387933176,-0.17707770294860745,0.014094813513179564
71,71,101698.12330450072,2824.3530125673565,12.739827004320285,101834.68556980038,-2382.5449286063217,22.93168860777651,101907.30020222144,43431.71513422889,9.671028015902364,101928.027373699,-10460.356250693249,7.866004685275975,102218.082121097,7513.481284506506,32.8608544257066,0.9602776185138324,128.0,76.0,122.0,307.0,429.0,52.0,1462.0,1468.0,53.0,7.0,46.0,0.1320754716981132,200.6662771451171,2785.1688802390754,76.0,33.0,43.0,0.4342105263157895,188.35479563349944,1341.8935479547813,21.0,11.0,10.0,0.5238095238095238,2504.604695724165,38527.90589268917,17.0,4.0,13.0,0.2352941176470588,1547.592348161761,24834.64499306278,75.0,43.0,32.0,0.5733333333333334,172.07451684113133,7931.394002862135,,,,,101691.0,101743.0,101819.0,101840.0,101897.0,101917.0,101924.0,101941.0,102177.0,102248.0,0.0710485821893454,-0.07905613588730025,0.05766764420846612,-0.14794834048402472,0.022902102277936716
72,72,103100.87669549928,3292.7668162334508,12.739827004320285,103206.87669549928,-2388.131735881518,12.739827004320285,103286.83406200286,44219.02989590774,9.897266653390778,103305.87669549928,-13080.509534249795,6.514732719735179,103595.65746019685,8108.845341150808,35.6347038486222,0.9622110903764748,113.0,77.0,132.0,310.0,442.0,36.0,1407.0,1379.0,38.0,30.0,8.0,0.7894736842105263,177.8551856736685,2638.537230692614,30.0,23.0,7.0,0.7666666666666667,156.9443386905583,2100.9114322968153,20.0,11.0,9.0,0.55,2561.3775307701417,38303.582423823,15.0,3.0,12.0,0.2,1786.7779387262085,27491.23303809688,89.0,55.0,34.0,0.6179775280898876,133.20005737472565,8557.988520947727,,,,,103072.0,103108.0,103185.0,103214.0,103276.0,103296.0,103303.0,103317.0,103544.0,103627.0,0.0540139024715739,-0.06571845946874715,0.057924778919837515,-0.1365984967212277,0.01642651348876533
73,73,104569.54796540084,3985.648100909385,15.28779240518434,104698.7260172996,-1624.9784813961162,7.64389620259217,104778.16083051394,45430.890522150774,9.967936957140797,104799.45203459916,-9179.431387887154,6.504159984888653,105077.41670869208,9189.279781003886,38.29062971123416,0.9711306043393008,136.0,94.0,111.0,315.0,426.0,42.0,1464.0,1492.0,44.0,10.0,34.0,0.2272727272727272,233.9599885656241,4315.6028529736095,12.0,3.0,9.0,0.25,143.4660534387697,1529.8338258723102,22.0,11.0,11.0,0.5,2478.8932124888306,42185.96775003753,13.0,3.0,10.0,0.2307692307692307,1620.07994604352,23490.953922990153,88.0,41.0,47.0,0.4659090909090909,152.59728668450597,10482.305685893423,,,,,104561.0,104603.0,104697.0,104708.0,104767.0,104789.0,104796.0,104808.0,105039.0,105123.0,0.058700613461645706,-0.08828797124470808,0.054564046268919045,-0.1764902288154056,0.01660601160495251
74,74,106052.59335855926,2933.768619589451,20.684364740335607,106184.32873009844,-1228.4620807090107,28.027619408950585,106245.994636319,43698.59882318498,9.535200420591266,106267.60271279886,-8857.548822750508,7.840581053744232,106545.60582578612,8121.782871642991,35.73997443869411,0.971348040132404,122.0,86.0,125.0,304.0,429.0,36.0,1488.0,1468.0,39.0,21.0,18.0,0.5384615384615384,137.52302808277278,3181.449868881642,78.0,62.0,16.0,0.7948717948717948,93.59044802234558,928.8652671902056,21.0,11.0,10.0,0.5238095238095238,2450.5507450735618,38726.880720534085,17.0,5.0,12.0,0.2941176470588235,1378.861011498992,22015.4887852523,90.0,47.0,43.0,0.5222222222222223,242.86114099873373,8662.451815593,,,,,106033.0,106069.0,106155.0,106200.0,106235.0,106256.0,106263.0,106280.0,106512.0,106584.0,0.046875894426199716,-0.07618505242614372,0.0560784741631895,-0.15567072099646845,0.029902441968336475
75,75,107396.972626301,3201.3452631929804,17.8357578060484,107569.27368627729,-1865.0358874373171,3.264928537324682,107605.08074589747,44510.596050602035,9.610647423082844,107626.027373699,-10056.190598738453,6.771114239479951,107904.50612749884,8940.39566849369,37.29963036442024,0.9674161806816206,178.0,128.0,72.0,311.0,383.0,50.0,1339.0,1359.0,53.0,12.0,41.0,0.2264150943396226,179.06548216792007,3752.844193469924,9.0,4.0,5.0,0.4444444444444444,403.1524383288779,2857.9596653532944,21.0,11.0,10.0,0.5238095238095238,2541.513716166349,40022.918218161096,15.0,4.0,11.0,0.2666666666666666,1598.3667360252034,24587.774853175953,83.0,40.0,43.0,0.4819277108433735,103.73423839390762,9767.173118259358,,,,,107387.0,107437.0,107565.0,107574.0,107594.0,107615.0,107622.0,107637.0,107867.0,107948.0,0.05593444862904992,-0.21616336771022462,0.05709907171939507,-0.15894356022107597,0.011602868848352117
76,76,108923.73642783526,3476.003357046899,25.322618036522233,109044.30135639945,-1315.0671059694305,10.191861603456228,109123.25357031502,46044.96946674075,9.69953798315881,109145.027373699,-8834.34899182109,6.806199872945368,109430.50678199712,8959.537988290227,35.331602740334574,0.9712150546189142,136.0,94.0,116.0,304.0,420.0,42.0,1535.0,1518.0,59.0,23.0,36.0,0.3898305084745763,169.72911003780817,3028.453302089884,12.0,5.0,7.0,0.4166666666666667,172.83253682048755,1308.7763109004368,22.0,11.0,11.0,0.5,2548.5866704532727,42898.16387944021,14.0,4.0,10.0,0.2857142857142857,1551.679660480146,22569.4966518918,83.0,50.0,33.0,0.6024096385542169,175.20088977170988,8362.66411424473,,,,,108903.0,108945.0,109039.0,109050.0,109112.0,109134.0,109141.0,109155.0,109388.0,109459.0,0.048828810735673335,-0.13142488017224052,0.05534994810441063,-0.17564165304276558,0.01955467904714403
77,77,110406.027373699,2104.8292061246957,17.055958649036672,110529.60271279897,-2484.1326570131705,20.383723206305493,110587.53780553608,44096.76210080787,9.333885848291247,110608.60271279886,-10859.98635819981,7.793239869677571,110892.35610379744,8016.181640734884,30.51595540882176,0.962538869465136,126.0,109.0,95.0,298.0,393.0,17.0,1480.0,1464.0,46.0,35.0,11.0,0.7608695652173914,180.48017860682,1868.887900433822,31.0,5.0,26.0,0.1612903225806451,152.29064249899977,2697.0423694655083,20.0,11.0,9.0,0.55,2565.9452884467046,38170.28457110646,16.0,5.0,11.0,0.3125,1565.8271745581235,24511.330344829512,74.0,41.0,33.0,0.5540540540540541,215.72275676085047,8288.776363315374,,,,,110399.0,110416.0,110525.0,110556.0,110577.0,110597.0,110604.0,110620.0,110855.0,110918.0,0.08574575936216265,-0.061305358258165014,0.05818897275452556,-0.1441831621985279,0.02691091175686908
78,78,111873.20542559771,3457.025735075128,28.948154235254176,111986.17805189872,-1153.135889042533,16.460820064564007,112068.5067728947,46207.964453223554,9.755136699774043,112090.45203459916,-8222.094658575346,6.6404686205101155,112366.506813041,9197.881403504138,41.484736668760114,0.9732574346137556,115.0,68.0,135.0,317.0,452.0,47.0,1471.0,1481.0,52.0,28.0,24.0,0.5384615384615384,169.72465761912414,3195.9212750295433,38.0,23.0,15.0,0.6052631578947368,108.03301475140644,72.37347945613487,22.0,12.0,10.0,0.5454545454545454,2592.327297026892,41455.49358163617,13.0,4.0,9.0,0.3076923076923077,1545.1297674834022,22421.00220990456,96.0,45.0,51.0,0.46875,166.92134881106702,10258.15379865059,,,,,111849.0,111896.0,111964.0,111999.0,112058.0,112079.0,112086.0,112099.0,112323.0,112416.0,0.049095572502423294,-0.0936862825777697,0.05610130910767801,-0.18792410348522173,0.018147803987500277
79,79,113416.21923530244,2966.540014061163,23.698052406610188,113566.4520346014,-1696.7156593938794,15.287376181335455,113624.2322615091,45380.27279988496,9.469940806729896,113647.45203459916,-6935.045268610452,6.730485498623173,113927.80813839928,8923.01227539057,34.62117329191587,0.9675431311444468,165.0,109.0,99.0,306.0,405.0,56.0,1529.0,1556.0,58.0,25.0,33.0,0.4310344827586206,115.7700467723077,3163.7275700493883,19.0,10.0,9.0,0.5263157894736842,166.1804503992766,1581.4718435678117,22.0,11.0,11.0,0.5,2461.0655985004714,42246.00772931619,14.0,5.0,9.0,0.3571428571428571,1411.3088587834325,19414.212807125765,93.0,53.0,40.0,0.5698924731182796,206.11104489147695,9204.160508216915,,,,,113392.0,113448.0,113557.0,113575.0,113613.0,113635.0,113643.0,113656.0,113894.0,113962.0,0.039025277334391886,-0.09794242746521331,0.05423205826357902,-0.20350391441153648,0.02309881893359328
80,80,114835.92078384894,3069.910205677785,23.939088309236773,114967.60271279886,-1915.1518277184257,20.383723206912453,115035.0989702363,43717.019362686515,9.650022595557438,115057.027373699,-9531.401001841068,7.187839615889889,115335.2601729957,7910.224928813355,36.0797289914324,0.9712760133055264,146.0,112.0,104.0,311.0,415.0,34.0,1426.0,1411.0,34.0,19.0,15.0,0.5588235294117647,168.1643130270282,3160.284713849761,25.0,5.0,20.0,0.2,140.87619619021808,2159.1792975199087,22.0,11.0,11.0,0.5,2441.649696069279,39008.422008105525,15.0,5.0,10.0,0.3333333333333333,1504.898090433161,23092.24230743399,92.0,45.0,47.0,0.4891304347826087,133.40563430324627,8772.89160993346,,,,,114817.0,114851.0,114963.0,114987.0,115024.0,115045.0,115053.0,115067.0,115291.0,115378.0,0.05477825140162375,-0.07355876132183622,0.05585123898344459,-0.15788844579537445,0.01686496092131466
81,81,116186.45203459916,3413.9574509406875,15.28779240518434,116311.69864360055,-2019.141670354894,10.191861603456228,116367.61293634838,45375.0764288311,9.767820099747135,116387.45203459916,-10706.53710935391,6.462605108572005,116667.68483389592,8914.144264378756,36.65349072927405,0.970584775354949,153.0,111.0,93.0,310.0,403.0,42.0,1354.0,1332.0,45.0,35.0,10.0,0.7777777777777778,187.22891307051543,2835.1114658665874,14.0,6.0,8.0,0.4285714285714285,124.88965488168532,2174.337692529098,21.0,11.0,10.0,0.5238095238095238,2583.84183002309,39981.45401884407,15.0,3.0,12.0,0.2,1722.4539837230195,26420.939312158785,89.0,47.0,42.0,0.5280898876404494,145.57733241840634,10100.481775163124,,,,,116153.0,116195.0,116306.0,116320.0,116357.0,116378.0,116384.0,116399.0,116622.0,116709.0,0.05484219289813529,-0.06185284406503983,0.056944076646917335,-0.16087871980737584,0.01633104963312504
82,82,117595.12330450072,3384.4240225331714,12.739827004320285,117725.64858818312,-2009.79783633114,20.383723206912453,117805.47315788598,46151.599130797025,9.388414677687363,117829.87669549928,-5979.011685002234,7.616320817848531,118118.65746019685,8699.239203169589,35.38590370166162,0.9593124526234328,132.0,115.0,117.0,313.0,430.0,17.0,1404.0,1438.0,20.0,8.0,12.0,0.4,245.04879232986113,4815.3969376855275,18.0,6.0,12.0,0.3333333333333333,189.3046986590499,2207.038419521358,22.0,11.0,11.0,0.5,2443.566635806996,42877.04554536706,12.0,5.0,7.0,0.4166666666666667,1146.5641844406225,16802.17853607886,88.0,54.0,34.0,0.6136363636363636,206.90238899751287,7684.632013083068,,,,,117588.0,117605.0,117720.0,117738.0,117795.0,117816.0,117825.0,117837.0,118067.0,118150.0,0.07240487323643542,-0.0941909157413679,0.052946521503659034,-0.19176483419770973,0.02378396365076701
83,83,119090.87669549928,2601.984856122576,12.73982700432025,119209.12330450072,-2962.181789529254,12.739827004320285,119285.01086449104,43157.31107614849,9.765788081079638,119307.027373699,-9182.121737791676,8.864161186757203,119586.49647850016,7790.985366517397,32.509017222604214,0.9645010136522622,127.0,100.0,123.0,302.0,425.0,27.0,1500.0,1480.0,28.0,21.0,7.0,0.75,175.09773068185143,2156.9879885987466,42.0,13.0,29.0,0.3095238095238095,188.0417217415612,3277.225381289156,22.0,12.0,10.0,0.5454545454545454,2361.7626892067306,38205.68590450134,19.0,4.0,15.0,0.2105263157894736,1400.8436555754802,22608.09295225296,87.0,45.0,42.0,0.5172413793103449,175.228181451353,7510.346782154715,,,,,119071.0,119098.0,119198.0,119212.0,119274.0,119295.0,119303.0,119321.0,119552.0,119623.0,0.06729390844448589,-0.06348081755355216,0.054724509713766495,-0.15256208701850502,0.022491144984614537
84,84,120544.87669549928,3862.1358523408976,12.739827004320285,120692.6714228866,-2146.3010184741856,2.603417730818377,120726.4710554196,45408.00730281209,9.57600403770934,120747.87669549928,-9525.521790490273,6.043304028904637,121024.35192117751,9203.0659387056,37.96524405898606,0.9636962881182258,193.0,137.0,66.0,312.0,378.0,56.0,1454.0,1441.0,61.0,53.0,8.0,0.8688524590163934,200.60514990598816,2509.7181452152945,7.0,4.0,3.0,0.5714285714285714,545.4387237003643,3537.5683552396604,22.0,11.0,11.0,0.5,2522.0494551107913,41463.76804477539,12.0,4.0,8.0,0.3333333333333333,1648.761008026752,23041.55126643023,83.0,40.0,43.0,0.4819277108433735,95.6491116444593,10017.60525063916,,,,,120496.0,120552.0,120689.0,120696.0,120716.0,120737.0,120744.0,120755.0,120984.0,121067.0,0.051941505316131856,-0.254129648639928,0.05554195404991054,-0.17308878655579574,0.010393178999422905
85,85,122007.21923530224,3280.256230731664,23.467748914058255,122135.69864360055,-1707.543258924629,10.191861603456228,122207.63476330454,45507.16413111248,9.451200403425847,122231.87669549928,-6302.262650452563,7.328890479127126,122511.2601729957,9081.128062422658,36.798488018761944,0.9722099672704528,145.0,94.0,111.0,315.0,426.0,51.0,1453.0,1482.0,52.0,24.0,28.0,0.4615384615384615,97.9660144252883,2836.20873580799,12.0,9.0,3.0,0.75,190.55173530197777,1996.51704761276,21.0,11.0,10.0,0.5238095238095238,2484.6049294427357,41619.75240862838,11.0,4.0,7.0,0.3636363636363636,1188.2736190206858,17079.442114878522,85.0,42.0,43.0,0.4941176470588235,145.18722343841017,9854.67180039186,,,,,121983.0,122034.0,122128.0,122138.0,122197.0,122218.0,122228.0,122239.0,122469.0,122554.0,0.029865354269424525,-0.11159408952367204,0.05459810508701977,-0.18854714329231523,0.01598779605797974
86,86,123402.6492362375,2579.7730272456643,7.64389620259217,123555.45203459916,-2550.226430057609,15.28779240518434,123613.38571991069,43499.53609461161,9.408755307833257,123636.027373699,-8727.834122475462,8.078381543416922,123922.082121097,8102.464886995608,31.308522567486257,0.9562675248682302,156.0,147.0,94.0,306.0,400.0,9.0,1402.0,1405.0,11.0,8.0,3.0,0.7272727272727273,254.13618157206884,3560.68993781962,32.0,3.0,29.0,0.09375,222.07842881764591,2794.3604252031646,22.0,11.0,11.0,0.5,2422.227882782774,38447.744273223856,16.0,5.0,11.0,0.3125,1401.9768952241827,21545.125178607912,80.0,48.0,32.0,0.6,168.12692505044623,7378.076573590375,,,,,123396.0,123405.0,123552.0,123583.0,123602.0,123624.0,123632.0,123646.0,123881.0,123952.0,0.09851106236404114,-0.08708184739996959,0.055683993445686905,-0.1606328529564838,0.020750096099803977
87,87,124722.12920236084,3330.3539476206793,23.134723186925168,124839.45203459916,-1527.0773710553924,15.28779240517848,124915.24583245529,42718.89032982903,10.03798644254162,124933.87669549928,-13375.673908436436,6.784370079724699,125213.7697052611,8434.523083455239,38.22734582458384,0.9734463078250594,126.0,83.0,117.0,314.0,431.0,43.0,1325.0,1302.0,49.0,20.0,29.0,0.4081632653061224,149.29655281720974,3311.248553062951,20.0,11.0,9.0,0.55,165.53779694038056,103.99219189853363,21.0,11.0,10.0,0.5238095238095238,2454.282526005528,36575.920943984056,16.0,3.0,13.0,0.1875,1758.5600480521273,26645.667639089923,98.0,48.0,50.0,0.4897959183673469,114.19808914760868,8696.996115655264,,,,,124704.0,124747.0,124830.0,124848.0,124904.0,124925.0,124931.0,124947.0,125176.0,125261.0,0.04482903474084861,-0.10840170909347849,0.05745192599939312,-0.1314745006562212,0.013539365298746322
88,88,126052.972626301,3367.81710056613,17.8357578060484,126227.2263517979,-2015.385438768987,2.2791424632133577,126262.05769629232,45243.08294617044,9.857717866325675,126283.45203459916,-9132.768014121666,6.636226280020223,126561.68483389584,9231.922963197156,37.191504107090786,0.9672099836789588,180.0,121.0,70.0,310.0,380.0,59.0,1323.0,1347.0,60.0,11.0,49.0,0.1833333333333333,208.97626831723696,4401.619523064355,8.0,4.0,4.0,0.5,473.02075609703934,3274.5446834893446,21.0,11.0,10.0,0.5238095238095238,2514.7399492160157,42360.17741880636,13.0,3.0,10.0,0.2307692307692307,1592.2379272466412,23471.994533527584,84.0,40.0,44.0,0.4761904761904761,167.72308247235466,10108.92585342997,,,,,126043.0,126102.0,126223.0,126231.0,126251.0,126272.0,126280.0,126293.0,126526.0,126603.0,0.06205095528557891,-0.23470485942677252,0.05558286008510995,-0.1743434109773315,0.01816772985877144
89,89,127256.35610379744,2839.839310987936,21.22759472409549,127387.69864360055,-2006.603530316983,10.191861603456228,127438.63806785086,45170.02273547016,9.320646185588757,127463.027373699,-6285.75428933289,9.369193766459675,127741.2327992967,8883.973953370283,33.74033266413178,0.9649790096232624,148.0,100.0,91.0,301.0,392.0,48.0,1214.0,1176.0,63.0,33.0,30.0,0.5238095238095238,110.92462353851766,2467.051921836157,28.0,8.0,20.0,0.2857142857142857,185.07465754473077,2924.6203753903283,21.0,11.0,10.0,0.5238095238095238,2500.182234857484,40155.49030230336,20.0,7.0,13.0,0.35,1092.222293789281,16526.61649997728,79.0,41.0,38.0,0.5189873417721519,185.34938691900268,9069.006314349075,,,,,127234.0,127282.0,127382.0,127391.0,127428.0,127449.0,127456.0,127473.0,127705.0,127774.0,0.039060176084374544,-0.09223279773433596,0.055350475458011986,-0.17376153179306011,0.02086334200120964
90,90,128390.17805189957,3376.355774095486,20.709049713684536,128548.30135671009,-2246.897055816013,4.033528176564046,128585.02329252256,45319.14971094952,9.556048885424472,128607.87669549928,-8218.146115315058,7.0422436489573474,128890.38347749642,8930.441732769272,36.29477826711745,0.9653809421581993,171.0,138.0,74.0,311.0,385.0,33.0,1130.0,1147.0,37.0,22.0,15.0,0.5945945945945946,188.7738086230808,2738.849610280414,13.0,7.0,6.0,0.5384615384615384,434.2507021353998,1757.7962081956794,21.0,11.0,10.0,0.5238095238095238,2521.68953378629,41791.01950043843,13.0,5.0,8.0,0.3846153846153846,1408.4235434383677,20877.726955456423,92.0,56.0,36.0,0.6086956521739131,116.69643853645069,8770.568152065887,,,,,128370.0,128403.0,128541.0,128554.0,128574.0,128595.0,128604.0,128615.0,128837.0,128926.0,0.05591052047044795,-0.1932668437173645,0.05564291364400924,-0.1713797155314235,0.01306726386313523
91,91,129882.12330450072,3199.7339450235604,12.739827004320285,130024.54796540084,-1889.256821302952,15.28779240518434,130101.46968103969,45040.49953088941,9.554469999809594,130123.45203459916,-8158.516779881535,6.960778521064404,130402.18467164828,8235.542088795077,35.04108971241076,0.9685573144684706,141.0,121.0,116.0,310.0,426.0,20.0,1486.0,1516.0,46.0,7.0,39.0,0.1521739130434782,170.7725327289034,3328.7958394478637,19.0,13.0,6.0,0.6842105263157895,171.97926865440215,1857.224026094833,22.0,11.0,11.0,0.5,2458.3253927405067,41575.19756546739,14.0,4.0,10.0,0.2857142857142857,1526.404444083213,22665.006476868297,96.0,50.0,46.0,0.5208333333333334,146.83434226529505,7187.505446101714,,,,,129875.0,129895.0,130016.0,130028.0,130091.0,130112.0,130120.0,130132.0,130367.0,130442.0,0.05337085384692694,-0.09103011655969265,0.054580331442695314,-0.187093375581116,0.01782934756232641
92,92,131302.17805189872,3341.5108720425037,22.931688607714083,131416.2739827004,-2061.8648731287253,4.533965798190913,131492.42817024348,43755.36408766698,9.78990358504731,131513.87669549932,-9411.322745924264,7.161445419073668,131791.83551209557,8430.857603641345,39.08840876759361,0.9715413631136064,142.0,97.0,112.0,312.0,424.0,45.0,1426.0,1391.0,58.0,33.0,25.0,0.5689655172413793,168.88391171580128,2743.6766883792666,17.0,4.0,13.0,0.2352941176470588,242.0286523725572,1861.781278520953,22.0,11.0,11.0,0.5,2408.117277173334,39956.25478520046,14.0,3.0,11.0,0.2142857142857142,1511.701173130918,22886.10493236314,102.0,51.0,51.0,0.5,182.20446570561307,8404.31996238252,,,,,131270.0,131315.0,131412.0,131429.0,131481.0,131503.0,131511.0,131524.0,131755.0,131836.0,0.0505411827711848,-0.11738337246383021,0.05503593279097164,-0.1606257923505584,0.02161161702303188
93,93,132728.15128426105,3508.1267331146028,22.93168860777651,132876.60271279886,-1075.4077330489283,20.383723206912453,132934.3765222774,44615.0987957965,9.894097143594063,132955.45203459918,-9210.363544270229,6.723913215697054,133234.78633234015,8422.654314214662,38.068329354610256,0.9765280211940504,162.0,130.0,96.0,309.0,405.0,32.0,1425.0,1442.0,34.0,21.0,13.0,0.6176470588235294,176.77164651796878,3766.49204545521,18.0,7.0,11.0,0.3888888888888889,160.30677752434443,1050.9942925584296,22.0,11.0,11.0,0.5,2435.137811923633,41458.51298030544,15.0,3.0,12.0,0.2,1618.71380135521,23839.86784391244,76.0,36.0,40.0,0.4736842105263157,180.1694291572885,10115.129219407749,,,,,132708.0,132740.0,132870.0,132888.0,132923.0,132945.0,132952.0,132966.0,133199.0,133275.0,0.05038918487446618,-0.14906604499658258,0.0545810247573197,-0.1757491757599745,0.021391051138501784
94,94,134179.054747398,2382.924547976316,20.918587068295583,134300.87669549932,-2572.882942391861,12.739827004320285,134380.76702827236,45848.4459511665,9.058789558711243,134404.87669549932,-6662.705628976915,8.396962106458568,134682.39464823785,7974.567821282674,34.591265757972565,0.9677768015504268,96.0,54.0,159.0,310.0,469.0,42.0,1454.0,1446.0,45.0,23.0,22.0,0.5111111111111111,151.78962784663966,2066.1045552316973,78.0,48.0,30.0,0.6153846153846154,99.64219445395496,2172.461571685552,21.0,11.0,10.0,0.5238095238095238,2586.345016080776,41848.15460448641,13.0,5.0,8.0,0.3846153846153846,1163.4256924286249,18061.406569470077,90.0,40.0,50.0,0.4444444444444444,156.40592320458728,8303.44457751404,,,,,134157.0,134199.0,134253.0,134308.0,134370.0,134391.0,134400.0,134412.0,134646.0,134722.0,0.06369888126568929,-0.03872783825964634,0.05641074549910613,-0.17461760390084552,0.019613090854549917
95,95,135572.39728720114,3244.019580285519,20.383723206912453,135742.69499530026,-1733.826454354063,3.5333105355983387,135778.92705988834,46087.66394759276,9.22615465031495,135802.87669549932,-6854.221487532385,7.1813853708921265,136091.53415569614,8176.636517210171,35.86234221126579,0.9632483056950232,175.0,151.0,74.0,320.0,394.0,24.0,1384.0,1399.0,48.0,15.0,33.0,0.3125,168.31112366988262,3578.793928117617,12.0,7.0,5.0,0.5833333333333334,386.2568977370148,1683.7557850107503,21.0,11.0,10.0,0.5238095238095238,2512.6177422656633,42134.12415034292,13.0,5.0,8.0,0.3846153846153846,1257.281340523847,18000.610573047954,89.0,51.0,38.0,0.5730337078651685,139.3803400614702,7494.116627444432,,,,,135561.0,135585.0,135736.0,135748.0,135769.0,135789.0,135798.0,135810.0,136044.0,136130.0,0.051883510411817206,-0.22277713941151903,0.05451822737474421,-0.1834316767864596,0.017046170484416506
96,96,136988.0918578587,3482.508495529249,26.456831420510618,137150.86742031245,-1791.7182331850036,2.7337307188350723,137187.63938316898,46291.15633205898,9.14897561870194,137213.87669549932,-5040.020052090543,8.674881963954634,137488.81501311364,8125.777547950906,37.41528115445314,0.9705067710428894,178.0,136.0,74.0,308.0,382.0,42.0,1424.0,1408.0,47.0,22.0,25.0,0.4680851063829787,138.79301756894037,3863.0563223560193,8.0,4.0,4.0,0.5,360.6956438467332,1956.3295565211545,21.0,11.0,10.0,0.5238095238095238,2520.0467590678268,42309.208203635935,13.0,6.0,7.0,0.4615384615384615,876.0619722573831,13027.5327782976,88.0,47.0,41.0,0.5340909090909091,202.504220930918,9297.544468975824,,,,,136969.0,137011.0,137147.0,137155.0,137177.0,137198.0,137208.0,137221.0,137456.0,137529.0,0.03985432275244098,-0.2013127048473194,0.05443905399534309,-0.17382112832944038,0.024921211506950973
97,97,138346.12330450068,2272.164602970228,12.739827004320285,138518.30135639946,-1583.3690334300973,10.191861603456228,138574.82942496316,45564.52215064245,9.699419051084089,138596.45203459918,-8826.351093301279,6.800637734314094,138875.28566867457,8224.806658276955,37.99700450034761,0.9667372702976784,175.0,164.0,93.0,315.0,408.0,11.0,1351.0,1387.0,14.0,9.0,5.0,0.6428571428571429,240.44315702721045,3805.1333147458386,14.0,7.0,7.0,0.5,140.46098813897245,1177.2428336647222,21.0,11.0,10.0,0.5238095238095238,2497.127272310134,41604.077136290536,14.0,3.0,11.0,0.2142857142857142,1598.7893827463251,23157.19427071116,99.0,48.0,51.0,0.4848484848484848,173.07161814311812,7185.417881725661,,,,,138338.0,138349.0,138513.0,138524.0,138564.0,138585.0,138593.0,138606.0,138832.0,138921.0,0.1058211877400508,-0.08871020284809274,0.05480420191951744,-0.1811382037544053,0.02104263666416391
98,98,139699.02737369903,3641.354128938135,17.8357578060484,139811.45203459918,-1833.9007636468273,15.28779240518434,139891.56002634426,43172.12996149133,9.54027208467662,139912.30135639946,-9460.314635022723,7.432789845244925,140192.47291785237,8014.29827270924,38.13261164238629,0.9701214471480304,114.0,99.0,115.0,316.0,431.0,15.0,1358.0,1317.0,20.0,5.0,15.0,0.25,266.59156081804684,4002.136800881624,26.0,4.0,22.0,0.1538461538461538,247.00189853792057,1642.1096372781506,21.0,12.0,9.0,0.5714285714285714,2424.4260575022395,37548.520010714376,18.0,3.0,15.0,0.1666666666666666,1603.480418426038,24497.05338597872,93.0,44.0,49.0,0.4731182795698925,131.22914543028585,7862.617162898989,,,,,139694.0,139709.0,139808.0,139824.0,139881.0,139901.0,139910.0,139923.0,140154.0,140239.0,0.0732122038610368,-0.13468662178139984,0.05615720279876806,-0.1694954639764142,0.016374377514392628
99,99,140973.97262630097,2955.056612292474,17.8357578060484,141122.69864360054,-1516.293784198749,10.191861603361945,141180.25891751552,44210.244752730854,9.895527758275009,141198.30135639946,-13092.86986355834,6.929770258769604,141481.2601729957,7756.6846300453935,38.807877156684384,0.9699778785044784,153.0,139.0,95.0,312.0,407.0,14.0,1269.0,1288.0,64.0,19.0,45.0,0.296875,220.85633093914976,3532.7514049055544,14.0,6.0,8.0,0.4285714285714285,165.83076918225035,2548.019264067548,20.0,11.0,9.0,0.55,2594.3468191200395,39149.1600360628,17.0,2.0,15.0,0.1176470588235294,1796.458419199054,27802.98649710805,82.0,37.0,45.0,0.4512195121951219,169.4413688580422,9487.768967427084,,,,,140964.0,140978.0,141117.0,141130.0,141169.0,141189.0,141196.0,141212.0,141446.0,141524.0,0.0747384432570359,-0.10936585700631876,0.05868202796954178,-0.1372089112562842,0.021844560780737918
100,100,142436.24660900142,3284.1683000664766,25.47965400864057,142588.30135639946,-1218.7808590676627,10.191861603456228,142647.0710882372,45506.271479606665,9.53724956440866,142671.87669549932,-6064.975368783321,7.902324183564959,142947.68483389585,8642.793378479633,38.8700321131495,0.9703367464337452,164.0,105.0,93.0,310.0,403.0,59.0,1461.0,1468.0,72.0,26.0,46.0,0.3611111111111111,194.6351786100346,3252.8382027742105,18.0,8.0,10.0,0.4444444444444444,147.7730855799938,966.9543906503123,22.0,11.0,11.0,0.5,2410.8789530335903,41502.26142878615,12.0,5.0,7.0,0.4166666666666667,1082.3530594182278,16043.162139784126,91.0,44.0,47.0,0.4835164835164835,184.3822437803747,9361.40948350893,,,,,142422.0,142481.0,142586.0,142597.0,142636.0,142658.0,142667.0,142679.0,142915.0,142989.0,0.059264678550759675,-0.1212466412485642,0.052979048264018065,-0.1784595968829723,0.02133364014457206
101,101,143908.24660900142,3268.9703828189017,25.44430092995668,144079.2111970403,-1744.3769950093215,2.1229362573089285,144115.19353118812,45872.92371749078,9.398017861936037,144138.87669549932,-6999.048284979548,6.937934304360386,144415.83551209557,8675.411877065893,37.11866589831508,0.9662931014860494,183.0,150.0,69.0,314.0,383.0,33.0,1472.0,1468.0,57.0,26.0,31.0,0.4561403508771929,252.2603419928863,3678.7316842131977,5.0,2.0,3.0,0.4,414.7364777244635,2854.8265144966717,22.0,11.0,11.0,0.5,2540.0422516061817,42125.52563331649,11.0,4.0,7.0,0.3636363636363636,1400.31196652487,19463.94355320253,81.0,37.0,44.0,0.4567901234567901,145.1023379403086,10265.308876433775,,,,,143894.0,143927.0,144077.0,144082.0,144105.0,144126.0,144136.0,144146.0,144381.0,144460.0,0.07716813321978064,-0.23775621835820374,0.05537127450713796,-0.200071768261699,0.01672570017383239
102,102,145257.69864360054,2280.1222171585614,10.19186160345572,145422.87669549932,-2475.955469280275,12.739827004320285,145483.76444982731,44700.54145120006,9.37725301732604,145506.87669549932,-7864.292191140037,8.053323676685622,145782.88541315618,7977.046989778159,33.59158291000508,0.9583393474945114,168.0,158.0,95.0,314.0,409.0,10.0,1352.0,1369.0,10.0,6.0,4.0,0.6,256.41413670736773,3692.405219947857,16.0,4.0,12.0,0.25,229.1784262943459,2314.419256198179,21.0,11.0,10.0,0.5238095238095238,2456.8390966542565,40056.15500422754,12.0,4.0,8.0,0.3333333333333333,1329.1897978045563,20340.913600875,91.0,44.0,47.0,0.4835164835164835,163.6425795525429,7855.673040983691,,,,,145252.0,145262.0,145420.0,145434.0,145473.0,145494.0,145504.0,145515.0,145753.0,145829.0,0.11245631255104625,-0.09256161071465668,0.05496217756861866,-0.16901582055941794,0.02051418021759626
103,103,146687.2192353024,3158.6000068861513,28.636744540080493,146821.30135639946,-1780.296465248656,10.19186160345622,146901.89937503065,43841.71279101217,10.456587774865728,146921.30135639946,-12204.334784525156,6.635715273611174,147199.6920782758,8535.175326121791,39.50992512753932,0.9727794577145518,156.0,110.0,114.0,309.0,423.0,46.0,1424.0,1417.0,81.0,30.0,51.0,0.3703703703703703,225.81837977244953,2486.8234120572133,37.0,28.0,9.0,0.7567567567567568,203.03637036995647,747.3767614746898,22.0,12.0,10.0,0.5454545454545454,2452.5538139937353,39171.58732924505,15.0,2.0,13.0,0.1333333333333333,1691.058420388355,25744.98840945276,101.0,50.0,51.0,0.495049504950495,251.05938249696865,8784.039953280999,,,,,146663.0,146709.0,146819.0,146828.0,146890.0,146912.0,146919.0,146933.0,147169.0,147242.0,0.0714931866270299,-0.11404638178709081,0.05594110398206259,-0.13856211340027988,0.02941467197851282
104,104,148003.67126990156,3200.3802839003574,22.739354537507097,148167.81891963474,-2338.5351743018346,4.6911673237897915,148205.20142313116,42509.07099230256,10.021284874857932,148225.02737369903,-13667.205413437474,7.054872761463074,148502.70013598117,8171.95909360964,37.47859743394018,0.9717388915707011,172.0,121.0,77.0,309.0,386.0,51.0,1319.0,1304.0,62.0,26.0,36.0,0.4193548387096774,158.39063507549875,3750.8355291491207,15.0,8.0,7.0,0.5333333333333333,348.1743498719536,1364.094899567306,22.0,12.0,10.0,0.5454545454545454,2481.5794088698526,35964.64249704309,16.0,4.0,12.0,0.25,1773.5051683150075,27841.046366959323,90.0,45.0,45.0,0.5,141.79780585822158,8675.319476348768,,,,,147988.0,148039.0,148160.0,148175.0,148194.0,148215.0,148221.0,148237.0,148461.0,148546.0,0.04949119199124218,-0.1488856587226234,0.05837764389909182,-0.12976355550867136,0.017351751793410898
105,105,149413.04554430814,3708.562128414394,20.383723206912432,149565.42607994992,-1568.8189136386252,6.648201942568106,149606.93849139093,45316.78765757119,9.664083594350306,149628.45203459918,-9521.04696611539,6.304379855780001,149910.2601729957,8593.406116275033,36.62893139510397,0.968886799214353,153.0,114.0,80.0,316.0,396.0,39.0,1413.0,1402.0,42.0,10.0,32.0,0.238095238095238,207.1196226075442,4230.223491524903,19.0,8.0,11.0,0.4210526315789473,225.66522525413728,80.97107806682209,21.0,11.0,10.0,0.5238095238095238,2546.773867287982,41227.23843769372,14.0,4.0,10.0,0.2857142857142857,1735.705750275168,23264.816080311488,97.0,52.0,45.0,0.5360824742268041,156.43996512726258,9297.496267171153,,,,,149404.0,149443.0,149557.0,149576.0,149596.0,149617.0,149625.0,149637.0,149865.0,149953.0,0.05584903675217617,-0.14384402386553513,0.0561993468410042,-0.18230198385244814,0.018204651684153653
106,106,150849.52059170185,3008.9048958202175,23.641347321085934,150975.30135639946,-1820.2277393645088,10.191861603456228,151051.40375112955,43266.5606618775,9.844874048677312,151074.87669549932,-8389.824347694539,7.691714010092968,151350.7708774579,8105.764838172059,36.46756181408475,0.9685706620450398,143.0,111.0,116.0,307.0,423.0,32.0,1432.0,1444.0,67.0,27.0,40.0,0.4029850746268656,166.94633564073757,3135.35460841033,15.0,8.0,7.0,0.5333333333333333,178.19795826350563,1658.3156857657389,23.0,12.0,11.0,0.5217391304347826,2372.891210104305,39590.43064564845,13.0,3.0,10.0,0.2307692307692307,1330.2030847028177,19341.230733179134,96.0,50.0,46.0,0.5208333333333334,243.3120611215173,8455.974316702057,,,,,150825.0,150857.0,150968.0,150981.0,151040.0,151062.0,151072.0,151084.0,151317.0,151391.0,0.055484085214075385,-0.09789871586382888,0.05484353675921086,-0.1585495750061022,0.03001716259713092
107,107,152116.54796540082,2954.0917375649196,15.28779240518434,152282.55735464478,-2701.0678788196196,4.023341148105154,152318.67985114726,42568.211069968485,10.28554006505548,152336.30135639946,-15773.202909519996,7.1771946611368405,152617.03362402943,7445.971799966653,35.838522665512,0.968756539330924,169.0,136.0,74.0,314.0,388.0,33.0,1270.0,1267.0,40.0,9.0,31.0,0.225,202.24327715269237,3088.7879922133784,11.0,6.0,5.0,0.5454545454545454,513.8514094661654,2010.374922620045,21.0,12.0,9.0,0.5714285714285714,2516.8611866144993,34748.24821363628,18.0,2.0,16.0,0.1111111111111111,1770.5030251881528,28949.24422346636,100.0,51.0,49.0,0.51,201.4266720247022,8126.884241312267,,,,,152108.0,152141.0,152277.0,152288.0,152307.0,152327.0,152334.0,152351.0,152575.0,152665.0,0.0684620841597164,-0.1902400948511968,0.0591253689866738,-0.11224752736297819,0.0270517640189833
108,108,153459.45203459918,3972.015212935143,15.28779240518434,153574.5401390686,-2551.223348682674,5.06813367571344,153649.7372757789,45669.14861635486,9.850720480962012,153670.45203459918,-9841.938443740077,6.306999798711596,153945.28138307433,9040.780648785118,40.81197106219195,0.9657247399965871,113.0,99.0,113.0,310.0,423.0,14.0,1348.0,1331.0,38.0,26.0,12.0,0.6842105263157895,247.71875161709696,3572.4024145097046,15.0,8.0,7.0,0.5333333333333333,212.96948867903225,2602.529761723842,21.0,11.0,10.0,0.5238095238095238,2611.053161630014,41750.66205081136,14.0,3.0,11.0,0.2142857142857142,1730.1310318200206,24485.27633187712,98.0,46.0,52.0,0.4693877551020408,159.55910831329044,9168.316254810798,,,,,153454.0,153468.0,153567.0,153582.0,153639.0,153660.0,153667.0,153680.0,153902.0,153990.0,0.062366012801356764,-0.08347739871109254,0.05717323928160451,-0.17579169405600814,0.017648819776943894
109,109,154904.87669549932,2432.430221040665,12.739827004320285,155037.46252672793,-2039.0536846968528,4.327031653733657,155075.35873060266,44251.86335214829,9.69279960231258,155097.45203459918,-9738.908486736456,6.961190584217154,155374.92581527962,8057.682022772134,36.47157507970804,0.9609032569501944,174.0,121.0,74.0,310.0,384.0,53.0,1445.0,1426.0,60.0,52.0,8.0,0.8666666666666667,252.3735444655511,1164.5936181739032,14.0,7.0,7.0,0.5,360.298496646372,1891.019228156112,22.0,11.0,11.0,0.5,2464.75855985467,41065.05242145671,14.0,4.0,10.0,0.2857142857142857,1597.9332281681122,23483.67364778843,84.0,42.0,42.0,0.5,226.0497705577179,9771.322163348515,,,,,154859.0,154912.0,155033.0,155044.0,155065.0,155085.0,155094.0,155107.0,155333.0,155417.0,0.10375366260561354,-0.1766988772048627,0.05569841297394799,-0.16407724031336343,0.028053945280897125
110,110,156212.1793397789,3026.6100442918323,20.2321952843884,156373.7260172996,-3086.1820537369604,3.949439780346424,156409.95306449567,42974.24795841651,10.193277811708612,156428.30135639946,-14576.46686180332,6.6398834777728375,156708.20643844706,7763.1901304809235,36.13980317696483,0.9717339389298798,159.0,108.0,91.0,310.0,401.0,51.0,1313.0,1334.0,55.0,25.0,30.0,0.4545454545454545,146.69110664912458,2352.8846950282737,30.0,26.0,4.0,0.8666666666666667,410.8336544508582,1972.0463677836776,21.0,12.0,9.0,0.5714285714285714,2534.8768379454746,36303.18546951185,15.0,3.0,12.0,0.2,1812.4300157626296,27867.849891249876,95.0,50.0,45.0,0.5263157894736842,100.28896836897007,7069.984162464165,,,,,156190.0,156241.0,156349.0,156378.0,156398.0,156419.0,156426.0,156440.0,156659.0,156750.0,0.04846713137881211,-0.13312035625163224,0.05898594992048066,-0.12433945982561688,0.012918525333445266
111,111,157664.82867032205,2707.7946850982894,24.467376438577283,157810.30135639946,-1976.9446129063963,10.191861603456228,157867.14894719413,45498.20525366688,9.54248284673116,157889.45203459918,-9034.099444503296,6.900030892757822,158166.89348941468,8551.529478018414,34.23489290266924,0.969923043714832,158.0,110.0,94.0,306.0,400.0,48.0,1444.0,1458.0,48.0,19.0,29.0,0.3958333333333333,118.5277052018198,3176.3144246294355,50.0,44.0,6.0,0.88,232.2603156943757,1587.1579730248689,22.0,11.0,11.0,0.5,2509.7490115923497,41480.478329705395,15.0,5.0,10.0,0.3333333333333333,1555.1551095960306,22627.603357487653,75.0,37.0,38.0,0.4933333333333333,230.9282019491929,10499.737308178364,,,,,157646.0,157694.0,157804.0,157816.0,157856.0,157878.0,157885.0,157898.0,158131.0,158204.0,0.04377278153846343,-0.11748448296329315,0.055161494779842536,-0.1721427928870374,0.02700431572419771
112,112,159069.02737369903,3283.7595498350615,17.8357578060484,159226.12090973,-2840.014026101399,2.422041046388517,159261.471813314,43701.12117985786,9.515043764951228,159282.60271279886,-9566.121352475762,7.865834945126506,159558.7672007033,7904.103441434164,36.25487863261899,0.969153191788793,186.0,143.0,73.0,307.0,380.0,43.0,1408.0,1394.0,45.0,34.0,11.0,0.7555555555555555,177.80835202459863,2909.903790944126,8.0,4.0,4.0,0.5,534.2577726123725,1800.559879517085,21.0,11.0,10.0,0.5238095238095238,2488.7754630960203,38985.2747632679,18.0,5.0,13.0,0.2777777777777778,1472.99796525163,23045.243344093225,102.0,53.0,49.0,0.5196078431372549,225.435605713782,7063.481890343127,,,,,159036.0,159079.0,159222.0,159230.0,159251.0,159271.0,159278.0,159295.0,159526.0,159602.0,0.05414779898653958,-0.1881180049472395,0.05694992247116794,-0.15398068987180583,0.028521337984017795
113,113,160364.63407116872,3121.979009938042,20.700847922511933,160523.30135639946,-2133.045851972291,5.829100305201387,160560.32857704064,42132.32254681858,10.826169450095133,160578.30135639946,-16645.025405060416,6.839628432493187,160858.07394870592,7894.220859047925,35.065950406273636,0.9721011621835192,176.0,134.0,72.0,310.0,382.0,42.0,1295.0,1298.0,43.0,23.0,20.0,0.5348837209302325,179.6288326905075,3302.4918119035856,14.0,8.0,6.0,0.5714285714285714,422.22216365478977,2298.5018654285623,21.0,12.0,9.0,0.5714285714285714,2446.638404081958,35902.26742281737,16.0,2.0,14.0,0.125,1819.3343107847784,27950.801679754157,92.0,46.0,46.0,0.5,169.70103339906316,8182.152228438551,,,,,160343.0,160385.0,160519.0,160529.0,160548.0,160569.0,160576.0,160591.0,160817.0,160901.0,0.05753684829997379,-0.19794331343809976,0.058070342582305715,-0.10930198461767832,0.02149686921978641
114,114,161804.45203459918,3120.5806349684026,15.28779240518434,161910.87669549932,-1805.137127881208,12.739827004320285,161993.6858434037,44679.703573311075,9.998557296231551,162014.45203459918,-9980.575114829906,6.4927823546045245,162293.54446841677,8537.044697558511,35.56551671295152,0.968337316843539,107.0,95.0,116.0,310.0,426.0,12.0,1440.0,1434.0,64.0,38.0,26.0,0.59375,200.86864216537276,2138.700852171034,12.0,3.0,9.0,0.25,202.61032673712805,880.4337120993365,21.0,11.0,10.0,0.5238095238095238,2485.803093296114,41042.04075168905,14.0,3.0,11.0,0.2142857142857142,1677.3597083816944,24498.01406569232,91.0,49.0,42.0,0.5384615384615384,210.81814694207796,8078.429561070799,,,,,161801.0,161813.0,161908.0,161919.0,161983.0,162004.0,162011.0,162024.0,162259.0,162334.0,0.0643689959216217,-0.11224096142487706,0.05563606950116341,-0.16806243017893271,0.024694511322210757
115,115,163281.60271279886,3134.343740532633,20.383723206912453,163426.07849416393,-2131.878355341626,2.852819698955192,163460.4090819226,45524.52826823246,9.732229192073522,163483.87669549932,-7217.855524141939,6.742351312546782,163766.95881659628,9101.90817946954,37.69739589996386,0.966785983917722,182.0,128.0,70.0,313.0,383.0,54.0,1478.0,1468.0,78.0,65.0,13.0,0.8333333333333334,182.3890705375547,1622.858241905776,9.0,5.0,4.0,0.5555555555555556,443.0633528767247,2527.4011916734435,23.0,12.0,11.0,0.5217391304347826,2388.714044620908,42445.30650851436,11.0,4.0,7.0,0.3636363636363636,1332.5109970519306,19066.243004520875,84.0,45.0,39.0,0.5357142857142857,146.5272016160041,9098.117054793987,,,,,163239.0,163293.0,163421.0,163430.0,163449.0,163471.0,163480.0,163491.0,163724.0,163804.0,0.05819051311409785,-0.2078276894957852,0.05247092359851602,-0.18461314341843105,0.01609851458911814
116,116,164697.9040691983,3092.9208241425977,20.940041812513243,164857.6351397231,-3065.5966857937933,3.7016808203992446,164894.81321483917,44765.22725881417,9.872548644092392,164913.87669549932,-10840.803320168092,7.872929043423153,165194.60419194226,7879.446255583587,34.971384005084076,0.9725579909709672,174.0,137.0,79.0,304.0,383.0,37.0,1418.0,1433.0,43.0,21.0,22.0,0.4883720930232558,165.74383405883748,2955.548385280812,11.0,6.0,5.0,0.5454545454545454,437.6676832211984,1066.9661804405432,21.0,12.0,9.0,0.5714285714285714,2539.808017513945,39453.78319463543,21.0,3.0,18.0,0.1428571428571428,1635.4169484735637,26691.449987742544,89.0,47.0,42.0,0.5280898876404494,243.9773541724388,7825.165781244959,,,,,164678.0,164715.0,164852.0,164863.0,164884.0,164904.0,164911.0,164931.0,165154.0,165235.0,0.05358812704324045,-0.14276753535433526,0.05673618058118676,-0.15085754257999082,0.03096376905922163
117,117,166090.60271279886,2797.483067183313,20.383723206912453,166247.1143571103,-3012.097746844691,3.974419970481212,166284.81328891357,43538.931247228815,9.91126062550057,166303.30135639946,-13081.716979203124,6.538232109060785,166584.07093046908,7916.894337064266,34.76548837013428,0.9668001213197276,155.0,138.0,73.0,315.0,388.0,17.0,1391.0,1390.0,26.0,12.0,14.0,0.4615384615384615,203.66422459674564,2646.0962274410376,13.0,6.0,7.0,0.4615384615384615,488.34757574917944,1627.5988741247677,20.0,11.0,9.0,0.55,2625.0660034754014,38273.18684998702,15.0,3.0,12.0,0.2,1779.4361877089348,28617.006279944828,94.0,48.0,46.0,0.5106382978723404,176.43085748817538,7519.927803245564,,,,,166086.0,166103.0,166241.0,166254.0,166274.0,166294.0,166301.0,166314.0,166547.0,166629.0,0.07280266571972784,-0.16212872781460883,0.06029238495932265,-0.13602466637505023,0.022285362160536205
118,118,167622.47940829815,2882.41392053192,22.599880599507163,167754.45203459918,-1528.211962207942,15.28779240518434,167816.88968858417,45022.18694366463,9.61452575778982,167839.02737369903,-8241.179513887277,7.297539819216981,168118.02854908933,8705.44105323968,35.40145051019523,0.97348032318643,153.0,110.0,99.0,306.0,405.0,43.0,1534.0,1533.0,58.0,37.0,21.0,0.6379310344827587,133.89489840196856,2010.18797904619,21.0,5.0,16.0,0.238095238095238,182.48264436663172,560.7830170779222,21.0,11.0,10.0,0.5238095238095238,2488.4109331675304,40640.23124094323,16.0,4.0,12.0,0.25,1438.8148913132704,21574.728262963392,79.0,41.0,38.0,0.5189873417721519,125.94616394909532,9500.09161913059,,,,,167598.0,167641.0,167751.0,167768.0,167806.0,167827.0,167835.0,167850.0,168084.0,168156.0,0.04645234934795889,-0.11940925007744542,0.055270769860229794,-0.17458846623698854,0.014467522458523245
119,119,169050.92672899674,3127.7233655397977,19.47976288870853,169188.87669549932,-1610.1220996556808,12.739827004320285,169250.05171491316,43479.60956714994,9.497985369830312,169272.60271279886,-9178.069592070193,7.721321739043465,169554.95881659628,7857.454187972035,37.126043225285386,0.96978699080701,154.0,119.0,98.0,308.0,406.0,35.0,1419.0,1433.0,38.0,21.0,17.0,0.5526315789473685,164.63673644906245,3115.852045805397,19.0,3.0,16.0,0.1578947368421052,141.89597848054072,1184.7469878414645,21.0,11.0,10.0,0.5238095238095238,2446.3504035301235,38143.69151473893,17.0,6.0,11.0,0.3529411764705882,1327.7341863623349,20811.114112851144,85.0,46.0,39.0,0.5411764705882353,143.09457709549653,7705.023868602542,,,,,169032.0,169067.0,169186.0,169198.0,169239.0,169260.0,169267.0,169284.0,169512.0,169592.0,0.05263788296080611,-0.08812746468785485,0.056264313959672935,-0.1446637741240806,0.018211315481106032
120,120,171750.9040691983,2791.391782856111,19.163256355273685,171884.02737369903,-2395.242180285992,17.835757806047955,171944.9832162413,40544.23265896699,10.228432179103788,171962.87669549932,-16491.549124687226,6.851599944856883,172259.63008649787,6942.373905194316,30.860423291265647,0.9505434092671506,152.0,112.0,96.0,305.0,401.0,40.0,2709.0,2695.0,43.0,23.0,20.0,0.5348837209302325,94.20769920880166,2327.2881875506555,22.0,5.0,17.0,0.2272727272727272,243.9657548273761,1986.7435591480075,21.0,12.0,9.0,0.5714285714285714,2454.67732797584,32144.84415920913,16.0,3.0,13.0,0.1875,1804.8488462485816,29829.093889459135,87.0,60.0,27.0,0.6896551724137931,275.1070377883486,5982.954641146584,,,,,171728.0,171768.0,171880.0,171895.0,171933.0,171954.0,171960.0,171976.0,172215.0,172281.0,0.03374936466725918,-0.10185431637574391,0.06054319361826545,-0.1094408313374752,0.039627228602958454
121,121,173443.39728720114,2808.7045380859404,20.383723206656885,173580.32873009844,-2143.3368499362464,28.027619409504165,173656.47990538794,46295.725923545375,10.894007912432032,173672.7260172996,-19130.367861680865,6.035095246507225,173959.5768463237,7638.540894535846,33.745846497131346,0.9752305519320138,142.0,118.0,107.0,316.0,423.0,24.0,1684.0,1710.0,71.0,24.0,47.0,0.3380281690140845,165.21333069946462,2364.5402328384675,78.0,54.0,24.0,0.6923076923076923,160.514660833404,1374.1797524991634,21.0,12.0,9.0,0.5714285714285714,2680.375049492594,39463.31838239446,10.0,2.0,8.0,0.2,1939.6078489529864,29533.411633640957,81.0,41.0,40.0,0.5061728395061729,184.5721633979967,8148.69051134327,,,,,173432.0,173456.0,173574.0,173596.0,173644.0,173665.0,173671.0,173681.0,173931.0,173997.0,0.05882189758985943,-0.07489007658230601,0.05789681436077,-0.10138894677703104,0.02416327489063108
122,122,175167.02737369903,2879.6252733480233,17.83575780589013,175307.87669549932,-1960.4465160165892,12.739827004320285,175365.15533592994,46048.533352349914,10.282917244846075,175382.7260172996,-14475.742524149486,6.201294545142942,175667.9182557584,7474.031844650844,34.64454109765452,0.9750535986037714,153.0,125.0,92.0,311.0,403.0,28.0,1730.0,1709.0,52.0,36.0,16.0,0.6923076923076923,205.11420155154067,2536.437173849077,17.0,7.0,10.0,0.4117647058823529,150.79706710383144,1861.531742354775,22.0,12.0,10.0,0.5454545454545454,2593.875402960912,40528.997533973,14.0,2.0,12.0,0.1428571428571428,1853.9073801816592,27513.741912838304,76.0,38.0,38.0,0.5,156.7590146000667,8476.504665418872,,,,,175149.0,175177.0,175302.0,175315.0,175353.0,175375.0,175381.0,175394.0,175630.0,175705.0,0.07122947678295055,-0.07691975571475136,0.05632916434304945,-0.12806993334461678,0.020973822142898543
123,123,176775.17805189872,3419.1288197467547,22.814436571743588,176935.21505382686,-1534.0609808945048,3.464809272583509,176970.79983509475,46315.74957441082,9.43968404984062,176993.87669549932,-6965.104598543423,6.81773169650862,177273.549330469,7866.110147211023,38.862813842239795,0.9666908484118552,162.0,142.0,71.0,312.0,383.0,20.0,1609.0,1607.0,51.0,33.0,18.0,0.6470588235294118,217.7817872773456,2792.091498751633,10.0,5.0,5.0,0.5,440.0677772583301,3634.8926369880583,21.0,11.0,10.0,0.5238095238095238,2545.8311062621647,41404.3881365268,13.0,6.0,7.0,0.4615384615384615,1367.3239352244525,19544.285407912525,89.0,42.0,47.0,0.4719101123595505,214.0437814445395,7980.896928616296,,,,,176768.0,176788.0,176930.0,176940.0,176961.0,176981.0,176988.0,177001.0,177235.0,177313.0,0.06369511029229839,-0.2868645919158496,0.05496685532794921,-0.19631061039778125,0.0272108802748497
124,124,178362.9314428973,3162.7305994102203,22.984944776294984,178524.56603033634,-2214.9781954637956,3.2165132702793215,178559.59031110234,45239.6067328841,9.493699433410384,178581.87669549932,-8550.514179863108,6.436706897374232,178862.97344816456,7727.886771816966,36.373686842470285,0.9695087367417864,201.0,130.0,69.0,315.0,384.0,71.0,1592.0,1589.0,72.0,45.0,27.0,0.625,151.18221184900395,3222.0693469593307,9.0,5.0,4.0,0.5555555555555556,464.5633467592195,2629.8199083014106,22.0,12.0,10.0,0.5454545454545454,2557.4058292075065,39201.92633504543,13.0,6.0,7.0,0.4615384615384615,1471.7869335995272,21248.495812061177,81.0,37.0,44.0,0.4567901234567901,241.65037736063,7499.046323690622,,,,,178319.0,178390.0,178520.0,178529.0,178549.0,178570.0,178576.0,178589.0,178832.0,178904.0,0.04780116645951322,-0.20973720992406622,0.05653024006834614,-0.1721284711819623,0.03126991692501385
125,125,179873.54796540082,2941.6763880280037,15.28779240518434,180024.60271279886,-2013.1921748688928,20.383723206912453,180088.031822888,45195.02572502235,9.471965474315065,180110.02737369903,-8944.76716110785,6.831919783950414,180393.198273643,7498.926085606822,33.80202623750775,0.966396769585632,155.0,102.0,100.0,313.0,413.0,53.0,1500.0,1528.0,57.0,12.0,45.0,0.2105263157894736,197.8170952087332,3730.765193335311,20.0,8.0,12.0,0.4,174.29113116723917,1748.0755484417336,21.0,11.0,10.0,0.5238095238095238,2538.562703150762,40776.316374661634,15.0,5.0,10.0,0.3333333333333333,1595.1752292479312,21675.00400342451,78.0,35.0,43.0,0.4487179487179487,134.39847796853854,7907.911103692829,,,,,179865.0,179918.0,180020.0,180037.0,180078.0,180098.0,180106.0,180120.0,180359.0,180433.0,0.06724638237360392,-0.08657451252938121,0.05616907308773319,-0.1783361378241132,0.017922363340331933
126,126,181442.47940829815,3582.6189062423227,21.22089326920978,181573.69864360057,-1577.8007230987955,10.191861603452764,181633.250299218,45915.72772219443,9.618833403706384,181653.87669549932,-8948.897611313709,6.265798230769174,181955.47940829815,7726.248922541045,33.12355021123273,0.9596445751644552,150.0,107.0,95.0,311.0,406.0,43.0,1577.0,1545.0,66.0,37.0,29.0,0.5606060606060606,197.5571395965485,2850.6841218964555,10.0,6.0,4.0,0.6,206.7472928592383,2206.6919994088153,22.0,11.0,11.0,0.5,2509.334218556073,41757.043319202574,14.0,4.0,10.0,0.2857142857142857,1592.492997756562,23414.728494359457,93.0,65.0,28.0,0.6989247311827957,270.2305638757545,6332.925491657569,,,,,181418.0,181461.0,181568.0,181578.0,181622.0,181644.0,181651.0,181663.0,181899.0,181974.0,0.05514321918313073,-0.13103511098232185,0.0546508645956433,-0.17795409746818885,0.03497564815538972
127,127,182941.6027127989,3374.7379825083267,20.383723206912453,183050.12330450068,-1728.430036867352,12.739827004320285,183123.7065205829,45756.22452487546,9.34693026164616,183145.02737369903,-7306.771197546607,6.962332001229569,183443.9314428973,7454.049683667636,36.77595334901939,0.9607339841284892,137.0,90.0,112.0,316.0,428.0,47.0,1497.0,1491.0,56.0,39.0,17.0,0.6964285714285714,175.63678492541644,3192.154291496283,29.0,8.0,21.0,0.2758620689655172,210.44170928713265,1794.8727507866954,21.0,11.0,10.0,0.5238095238095238,2550.1051178649245,40773.08617775228,15.0,4.0,11.0,0.2666666666666666,1471.7481562602286,21796.43537187671,96.0,68.0,28.0,0.7083333333333334,220.5351014976828,6435.416272299526,,,,,182906.0,182953.0,183043.0,183070.0,183113.0,183134.0,183141.0,183155.0,183379.0,183471.0,0.05204456933716426,-0.12175309662434601,0.055732419891386685,-0.2014225047520849,0.029585944668559325
128,128,184442.4929244063,3285.120939764565,22.685406600363404,184562.30135639943,-1720.4339099951508,10.191861603456228,184641.0238227147,45236.95470630493,9.469123353662232,184663.02737369903,-7897.88129131031,6.941347353317474,184946.3834774964,7528.757677709897,35.33695910266877,0.9705536331109872,146.0,87.0,113.0,309.0,422.0,59.0,1492.0,1517.0,61.0,29.0,32.0,0.4754098360655737,114.56514095470811,2668.60804858092,11.0,3.0,8.0,0.2727272727272727,176.04358178372183,788.9315954221606,22.0,11.0,11.0,0.5,2503.3479697146695,40321.15644435659,16.0,5.0,11.0,0.3125,1443.8282095619993,21375.818889995146,88.0,48.0,40.0,0.5454545454545454,178.2715669081032,6976.898256264678,,,,,184414.0,184473.0,184560.0,184569.0,184630.0,184651.0,184658.0,184673.0,184904.0,184982.0,0.03487394925646745,-0.10232510575440705,0.055338560828582115,-0.1828120930547006,0.02367874947495056
129,129,185951.91298313663,2617.296315329096,20.146664849434273,186117.24161921747,-2736.282003347382,3.080890170146955,186151.9441937028,41383.23799095688,9.96155307077505,186171.4520345992,-11500.141314270004,6.370606143667408,186456.109494796,7145.898631467165,36.3365215520227,0.9712034357582496,174.0,147.0,70.0,313.0,383.0,27.0,1512.0,1511.0,38.0,24.0,14.0,0.631578947368421,140.81721405416792,2491.97741659832,8.0,4.0,4.0,0.5,464.90307738061927,2001.7371827642648,21.0,11.0,10.0,0.5238095238095238,2369.56611776505,35619.31053545761,15.0,3.0,12.0,0.2,1707.9329847993831,25365.391627823126,94.0,52.0,42.0,0.5531914893617021,154.89636737216142,7138.564003799902,,,,,185939.0,185966.0,186113.0,186121.0,186141.0,186162.0,186168.0,186183.0,186413.0,186496.0,0.05380254930610014,-0.16990320325605632,0.05725907958876613,-0.14851408675127206,0.021676261497759138
130,130,187384.14109059345,3824.82042624975,24.632082717886004,187548.51236544808,-1712.8991294599316,1.663846042243376,187582.3337859519,44553.24549495387,9.338819475955324,187605.4520345992,-6589.571549902171,7.323468010684716,187881.16974581656,8118.167974581604,43.61624052329116,0.96701567467047,182.0,128.0,69.0,320.0,389.0,54.0,1441.0,1431.0,59.0,24.0,35.0,0.4067796610169492,149.0878923510789,3049.9040366656013,6.0,4.0,2.0,0.6666666666666666,506.5014055444968,3880.1676481717095,22.0,11.0,11.0,0.5,2475.4914445753448,39637.22574232142,15.0,5.0,10.0,0.3333333333333333,1332.5948118354374,19482.761337642365,106.0,52.0,54.0,0.490566037735849,127.33010074107482,8755.591739794027,,,,,187363.0,187417.0,187545.0,187551.0,187572.0,187593.0,187600.0,187614.0,187841.0,187934.0,0.03897905672326167,-0.29569832620803194,0.05556253909394144,-0.20222783859979807,0.015684585628155494
131,131,188854.3736254893,3090.1142603580106,24.79284120103263,188973.7260172996,-1566.0154984007856,4.014923746772819,189052.8825413271,45458.161140628334,9.32174737669152,189076.4520345992,-7019.638615053316,7.491653182128141,189355.32757096348,7674.843177806789,35.477702550593804,0.9693714621930836,118.0,58.0,139.0,309.0,448.0,60.0,1464.0,1470.0,60.0,26.0,34.0,0.4333333333333333,97.8093695502413,3348.174165682961,32.0,28.0,4.0,0.875,173.70021241431763,1400.540139794901,21.0,11.0,10.0,0.5238095238095238,2507.753707726853,40812.23798261584,15.0,5.0,10.0,0.3333333333333333,1331.303860843012,19304.84691687092,77.0,37.0,40.0,0.4805194805194805,111.94471519458266,8121.9667932273005,,,,,188828.0,188888.0,188946.0,188978.0,189042.0,189063.0,189071.0,189085.0,189319.0,189394.0,0.03165234723032844,-0.11091857813137879,0.05516619336996328,-0.1896541878933892,0.014585928676470062
132,132,190267.47940829815,3241.612928100777,19.965631051632297,190429.87250830355,-2149.9608228961115,3.1141070821285077,190464.17375607495,44840.11335536205,9.653950116120484,190486.4520345992,-7747.831571719535,6.688113538154002,190764.37497399864,8622.111113629317,37.509122947531786,0.9692926358470252,183.0,139.0,70.0,311.0,381.0,44.0,1419.0,1411.0,57.0,27.0,30.0,0.4736842105263157,116.41674399474184,2388.3277403512952,9.0,5.0,4.0,0.5555555555555556,482.8946004277247,3605.33793351879,22.0,11.0,11.0,0.5,2455.5855486273495,40686.204493040146,14.0,4.0,10.0,0.2857142857142857,1496.2498524833477,21352.21487031371,94.0,47.0,47.0,0.5,157.32444304400886,9153.425616498427,,,,,190242.0,190286.0,190425.0,190434.0,190453.0,190475.0,190482.0,190495.0,190727.0,190806.0,0.03591321560497016,-0.22460623248810646,0.05476314319650814,-0.1931185311184138,0.018246626721768848
133,133,191681.2552980192,3183.199294016556,18.909597668283677,191803.17805189872,-2101.60985526326,22.93168860777651,191883.64233670587,44693.24296213956,9.70479258664134,191904.87669549932,-8892.871784900359,6.986401786060996,192184.30583495143,8666.825964616304,35.786136224709736,0.9712027176234804,136.0,90.0,120.0,309.0,429.0,46.0,1408.0,1419.0,46.0,22.0,24.0,0.4782608695652174,167.95998488046206,3550.230266184856,25.0,10.0,15.0,0.4,197.32713996728236,1314.997083977779,21.0,11.0,10.0,0.5238095238095238,2476.8412035443453,40036.03073931945,14.0,4.0,10.0,0.2857142857142857,1530.4524892175743,22912.190564011365,88.0,42.0,46.0,0.4772727272727273,185.10975427381837,9039.047059874913,,,,,191659.0,191705.0,191795.0,191816.0,191873.0,191894.0,191902.0,191915.0,192145.0,192224.0,0.0527645206494534,-0.09389332633414206,0.05541869507304542,-0.17209879173297027,0.021358425221593046
134,134,192999.12330450068,3726.421943530004,12.739827004320285,193128.4520345992,-2141.0365954893145,15.28779240518434,193207.74445801455,44869.032770463855,9.49063727293079,193229.87669549932,-7029.705701513906,7.405927583404286,193507.21247921788,8545.901629944708,34.33810251679553,0.969143462309396,131.0,119.0,116.0,304.0,420.0,12.0,1316.0,1324.0,16.0,8.0,8.0,0.5,249.26437412326055,4867.075197628959,42.0,31.0,11.0,0.7380952380952381,156.1480811638611,1251.568789608984,21.0,11.0,10.0,0.5238095238095238,2469.2262781853165,41025.87577455073,13.0,3.0,10.0,0.2307692307692307,1369.717675095132,20325.8132839261,82.0,39.0,43.0,0.4756097560975609,198.35111334408825,8839.773493477136,,,,,192992.0,193004.0,193123.0,193137.0,193197.0,193218.0,193227.0,193239.0,193472.0,193543.0,0.06689107618530574,-0.07293106595787768,0.055031858850559966,-0.19484708652883603,0.023210086183190898
135,135,194423.12330450068,3161.373578219167,12.739827004320285,194558.75339099855,-1746.1965178049902,25.47965400864057,194640.9934340524,43795.92131971386,9.263126488642111,194664.4520345992,-7680.544075487351,7.782557019338654,194941.2910289847,8054.412615360633,36.88092993329454,0.9620308201098094,137.0,91.0,120.0,311.0,431.0,46.0,1424.0,1434.0,47.0,8.0,39.0,0.1702127659574468,182.9978172774927,4446.727482393317,25.0,6.0,19.0,0.24,116.226248893848,1977.1691772379963,21.0,11.0,10.0,0.5238095238095238,2465.0796480494223,38489.4942843217,15.0,6.0,9.0,0.4,1326.610130901853,20223.67915016885,74.0,31.0,43.0,0.4189189189189189,225.0618857365875,10694.540037151886,,,,,194416.0,194462.0,194553.0,194578.0,194631.0,194651.0,194658.0,194673.0,194910.0,194984.0,0.057885540177310256,-0.06655966136042185,0.056285598607553805,-0.17272345785186788,0.02794268142004176
136,136,195759.67126990156,3006.613244316271,21.051183131102377,195932.1192232526,-2764.976536165101,4.430821666807572,195968.01874722203,40655.96917373238,10.33308562320274,195985.87669549932,-15653.083872629477,7.56308565966892,196272.83551209557,7447.980446558758,35.499866381441024,0.9623517151744851,181.0,140.0,76.0,316.0,392.0,41.0,1334.0,1327.0,50.0,23.0,27.0,0.46,164.2431501077008,3162.3251285425654,13.0,7.0,6.0,0.5384615384615384,476.9747793464069,1869.5732530963116,21.0,12.0,9.0,0.5714285714285714,2399.0184162341884,32279.530752888877,19.0,3.0,16.0,0.1578947368421052,1704.194819575949,28022.11890105774,86.0,41.0,45.0,0.4767441860465116,147.57482070779668,8100.076593864781,,,,,195744.0,195785.0,195925.0,195938.0,195956.0,195977.0,195983.0,196001.0,196235.0,196317.0,0.054627295485439493,-0.17250590488118556,0.05900777831620805,-0.10887278401132533,0.019814071984571562
