Unnamed: 0,cycle,p_center,p_height,p_width,q_center,q_height,q_width,r_center,r_height,r_width,s_center,s_height,s_width,t_center,t_height,t_width,r_squared,pr_interval,pr_segment,qrs_duration,st_segment,qt_interval,p_duration,pp_interval,rr_interval,fwhm_p,rise_time_p,decay_time_p,rise_decay_symmetry_p,sharpness_deriv_p,sharpness_diff_p,fwhm_q,rise_time_q,decay_time_q,rise_decay_symmetry_q,sharpness_deriv_q,sharpness_diff_q,fwhm_r,rise_time_r,decay_time_r,rise_decay_symmetry_r,sharpness_deriv_r,sharpness_diff_r,fwhm_s,rise_time_s,decay_time_s,rise_decay_symmetry_s,sharpness_deriv_s,sharpness_diff_s,fwhm_t,rise_time_t,decay_time_t,rise_decay_symmetry_t,sharpness_deriv_t,sharpness_diff_t,Average_Heart_Rate,SDNN,RMSSD,NN50,p_on,p_off,q_on,q_off,r_on,r_off,s_on,s_off,t_on,t_off,sharpness_deriv_p_norm,sharpness_deriv_q_norm,sharpness_deriv_r_norm,sharpness_deriv_s_norm,sharpness_deriv_t_norm
0,0,0.0,0.0,0.0,0.0,0.0,0.0,0.0,0.0,0.0,0.0,0.0,0.0,0.0,0.0,0.0,0.0,0.0,0.0,0.0,0.0,0.0,0.0,0.0,0.0,0.0,0.0,0.0,0.0,0.0,0.0,0.0,0.0,0.0,0.0,0.0,0.0,0.0,0.0,0.0,0.0,0.0,0.0,0.0,0.0,0.0,0.0,0.0,0.0,0.0,0.0,0.0,0.0,0.0,0.0,70.39143212350523,239.8448568266055,336.52355491601867,191.0,,,,,,,,,,,,,,,
1,1,1313.972626301008,3338.1785896776314,12.727893693319457,1456.8357578060482,-3724.010191757103,92.72574400193102,1509.671269901584,26076.79858491541,12.73086804560538,1528.8000618828746,-36104.10921884096,8.888562949295974,1773.6917175312908,13804.135580188444,37.35201734978532,0.9140530813479928,81.0,62.0,156.0,276.0,432.0,19.0,,,21.0,11.0,10.0,0.5238095238095238,162.8207198004151,2615.3339109325343,110.0,86.0,24.0,0.7818181818181819,110.62221067282668,3082.245442573373,22.0,16.0,6.0,0.7272727272727273,1788.134070962609,1033.573470618022,19.0,7.0,12.0,0.3684210526315789,2299.0838605664508,45757.181919336625,90.0,45.0,45.0,0.5,148.62409138681693,14650.660775556997,0.0,0.0,0.0,0.0,1304.0,1323.0,1385.0,1481.0,1494.0,1516.0,1522.0,1541.0,1732.0,1817.0,0.04877531726549679,-0.029705131021843877,0.06857184040977281,-0.06367928499858048,0.010766635152448134
2,2,3009.8219481012957,3028.932413563735,19.01128909068586,3126.808384107056,-2495.703429872033,98.58955917522924,3199.0959308017277,21697.071239254616,13.257779932912076,3220.3583774895656,-30277.33840880673,9.056284450680588,3470.534155696112,13093.618090544342,33.8318650846011,0.9046796116153726,60.0,39.0,175.0,277.0,452.0,21.0,1695.0,1689.0,24.0,14.0,10.0,0.5833333333333334,172.41224294578322,1600.9936930578854,118.0,72.0,46.0,0.6101694915254238,76.20285172226461,2231.55853348566,27.0,18.0,9.0,0.6666666666666666,1303.971675769874,2923.4034614278235,19.0,7.0,12.0,0.3684210526315789,1950.0928030224245,38730.481885876834,91.0,52.0,39.0,0.5714285714285714,120.94963996548182,12544.778314418185,0.0,0.0,0.0,0.0,2997.0,3018.0,3057.0,3173.0,3182.0,3207.0,3213.0,3232.0,3421.0,3509.0,0.05692178609655046,-0.030533616618931322,0.06009897194837578,-0.06440766941572393,0.009237297065570176
3,3,3918.993132109961,3639.473778426368,25.725745104535584,4064.12330450072,-721.0577036965868,12.739827004320285,4111.3693613075475,21517.331100871965,13.223689628095316,4132.605316455962,-30111.529662699264,8.706524933489275,4382.534155696113,14116.568245400362,38.60339823458408,0.8818904954986141,151.0,119.0,87.0,278.0,365.0,32.0,913.0,913.0,32.0,14.0,18.0,0.4375,174.52731182680847,5025.319362056423,11.0,8.0,3.0,0.7272727272727273,99.972878490618,779.6067765937901,27.0,18.0,9.0,0.6666666666666666,1269.1797589735068,6565.533530452254,17.0,7.0,10.0,0.4117647058823529,1940.2127137209875,35816.03089539708,97.0,58.0,39.0,0.5979381443298969,97.27803474675892,13939.351680897507,0.0,0.0,0.0,0.0,3905.0,3937.0,4056.0,4067.0,4094.0,4120.0,4126.0,4143.0,4327.0,4421.0,0.04795399622367122,-0.13864754232302814,0.058984069772578564,-0.06443421292291342,0.006891054047675877
4,4,4809.928729141448,2876.855372310296,8.751426049793539,4961.191861603455,-2688.3054027099597,61.15116962073734,5003.671269901583,25879.985594054593,12.402077688950897,5023.8248944454,-34547.38463207845,8.948862388019968,5273.109494795968,13289.409595795938,35.5272504708797,0.8916250586729371,68.0,46.0,168.0,278.0,446.0,22.0,889.0,892.0,24.0,12.0,12.0,0.5,175.69449559774858,2788.6335650381698,115.0,99.0,16.0,0.8608695652173913,102.5825141671534,878.9743227680535,23.0,16.0,7.0,0.6956521739130435,1695.0548188610005,3554.448872058457,18.0,7.0,11.0,0.3888888888888889,2269.5534003140097,44166.56592819828,91.0,51.0,40.0,0.5604395604395604,104.2058208077802,13826.575779082646,0.0,0.0,0.0,0.0,4799.0,4821.0,4867.0,4975.0,4988.0,5011.0,5017.0,5035.0,5225.0,5313.0,0.06107171646124666,-0.03815880221932545,0.06549674506968835,-0.06569392804937976,0.007841267895057232
5,5,5678.52456588898,2831.736876759658,7.2264226242084915,5831.191861603455,-2975.2016791497504,61.15116962073736,5873.482724066361,24444.78450944653,14.014697190891097,5892.769342840233,-33614.676519761044,9.052621690778206,6137.835512095537,12795.975666174852,35.03350662040406,0.913024560538562,90.0,72.0,145.0,278.0,423.0,18.0,870.0,869.0,18.0,10.0,8.0,0.5555555555555556,189.9260822111026,2868.01288703362,113.0,99.0,14.0,0.8761061946902655,158.4321094208254,601.615547168947,26.0,18.0,8.0,0.6923076923076923,1456.291487396741,1793.6217549696012,18.0,7.0,11.0,0.3888888888888889,2052.9018788011103,39655.60793261742,93.0,48.0,45.0,0.5161290322580645,119.6417724692712,13240.254974885218,0.0,0.0,0.0,0.0,5669.0,5687.0,5759.0,5845.0,5855.0,5881.0,5886.0,5904.0,6096.0,6182.0,0.06707052613886712,-0.053250880614621715,0.05957473205926469,-0.06107159405785958,0.009349953109518232
6,6,6577.547965400863,2354.1893745867283,7.69357691805506,6738.876695499281,-3812.395866037659,12.739827004320285,6770.671269901583,19061.95437799379,13.40124627044566,6794.362392602053,-30087.944023632987,9.52863266748802,7042.534155696113,12490.103060080106,30.991921664098957,0.9007661402762106,64.0,43.0,172.0,276.0,448.0,21.0,897.0,898.0,23.0,9.0,14.0,0.391304347826087,155.90451728779897,2770.173989567244,113.0,106.0,7.0,0.9380530973451328,360.74642154154714,1602.866074992745,27.0,17.0,10.0,0.6296296296296297,1185.925824017755,6111.842282567299,18.0,7.0,11.0,0.3888888888888889,1937.1116936358028,38156.55882754181,79.0,40.0,39.0,0.5063291139240507,105.7877098321301,12945.451590513094,0.0,0.0,0.0,0.0,6569.0,6590.0,6633.0,6746.0,6755.0,6781.0,6787.0,6805.0,7005.0,7081.0,0.06622428890843482,-0.09462459676740811,0.06221428299014584,-0.06438165705553932,0.008469722733532963
7,7,7509.53846522919,2920.2032202536657,7.7811235067776865,7662.041183403743,-4128.743984672724,66.24710042246546,7703.095930801727,24678.60595726721,13.31398991168749,7723.750198970166,-33591.66469816054,9.066344293173046,7971.948856097445,12156.151553344138,32.10896064039493,0.8989042660322107,79.0,59.0,157.0,278.0,435.0,20.0,934.0,932.0,20.0,11.0,9.0,0.55,192.2932354699542,2377.936837705479,125.0,110.0,15.0,0.88,171.012151237593,1426.268923165942,25.0,17.0,8.0,0.68,1425.0188094648254,2698.1895583045653,18.0,7.0,11.0,0.3888888888888889,2166.024475997602,42997.30633693262,82.0,41.0,41.0,0.5,116.36219187735992,12506.439324148416,0.0,0.0,0.0,0.0,7499.0,7519.0,7578.0,7677.0,7686.0,7711.0,7717.0,7735.0,7931.0,8013.0,0.0658492649197375,-0.04141989715817866,0.057743083703040134,-0.06448101025836367,0.009572288677607748
8,8,8394.123304500717,3313.6331162617603,12.739827003360274,8537.685079606335,-3706.745716801804,112.11047763784472,8590.671269901582,26309.866658533225,12.508476949697512,8610.246981675067,-35072.87273687215,9.26917740298286,8857.865564064274,12291.143095548674,32.10926693747704,0.9137480749770204,61.0,49.0,174.0,277.0,451.0,12.0,883.0,888.0,12.0,7.0,5.0,0.5833333333333334,156.99262070916788,2450.9801637866212,120.0,95.0,25.0,0.7916666666666666,106.9058525838966,3564.0018987235903,24.0,17.0,7.0,0.7083333333333334,1721.6313214519143,627.0487163639409,19.0,7.0,12.0,0.3684210526315789,2283.8712059807963,46534.51098648863,81.0,39.0,42.0,0.4814814814814814,117.28797099033078,12622.02513676352,0.0,0.0,0.0,0.0,8387.0,8399.0,8448.0,8563.0,8575.0,8598.0,8604.0,8622.0,8820.0,8899.0,0.047377792049071936,-0.02884089191748913,0.06543671785936354,-0.06511788250466749,0.009542478683923829
9,9,9257.972626301009,3025.0708844015608,16.782506937432537,9397.734855006258,-1361.029618311761,22.93168860777651,9453.095930801726,21360.13545942624,12.6517107650186,9474.489714113472,-29834.112325874765,9.123448325205391,9718.835512095537,13094.047875411872,36.38014038048755,0.907385655384904,133.0,108.0,104.0,278.0,382.0,25.0,863.0,862.0,26.0,10.0,16.0,0.3846153846153846,193.2773156312458,4441.287889943911,26.0,17.0,9.0,0.6538461538461539,111.32728675089268,1450.3209506319884,26.0,17.0,9.0,0.6538461538461539,1293.356398429533,5272.9186549018805,17.0,6.0,11.0,0.3529411764705882,1977.1987581937776,38154.33842486915,92.0,47.0,45.0,0.5108695652173914,96.47661132408066,13597.618515251988,0.0,0.0,0.0,0.0,9248.0,9273.0,9381.0,9407.0,9436.0,9462.0,9468.0,9485.0,9674.0,9763.0,0.06389183031308743,-0.08179637331403891,0.06055000919288525,-0.06627308822186666,0.007367974536372772
10,10,10137.972626301009,2866.927639918556,13.750824899949622,10291.64389620259,-2186.646276607267,45.86337721555302,10332.095930801726,21777.322073019768,13.940564947620844,10354.07028142482,-29790.28806614837,9.203640552951684,10599.835512095537,13691.790687622824,36.688800323930714,0.9017317305003534,106.0,79.0,131.0,279.0,410.0,27.0,880.0,879.0,27.0,10.0,17.0,0.3703703703703703,179.86618666693715,3930.653778880045,73.0,60.0,13.0,0.821917808219178,140.32189951211228,70.91726983432227,27.0,18.0,9.0,0.6666666666666666,1236.0855649639318,5326.123222609983,18.0,7.0,11.0,0.3888888888888889,1892.2505525829376,36984.494253400866,93.0,48.0,45.0,0.5161290322580645,123.31614907345003,14385.181097806755,0.0,0.0,0.0,0.0,10128.0,10155.0,10234.0,10302.0,10315.0,10341.0,10347.0,10365.0,10554.0,10644.0,0.06273830708613448,-0.0641721987745688,0.05676021876424079,-0.06351904178909773,0.009006575683699723
11,11,11026.133691990235,3074.652303833464,14.730049276235416,11165.685079606335,-3208.2191414748386,97.87762463333868,11217.671269901582,24607.65853544261,12.421737004599368,11238.72565459007,-33496.76202496884,8.875251543058473,11484.400735004452,12722.398339316562,34.34374120724823,0.9072356282544688,80.0,63.0,155.0,277.0,432.0,17.0,890.0,886.0,17.0,11.0,6.0,0.6470588235294118,212.21177424490153,2674.1417978776235,98.0,72.0,26.0,0.7346938775510204,95.8442270164694,3003.5136489448187,24.0,16.0,8.0,0.6666666666666666,1541.8576235666444,3294.4445571523,18.0,7.0,11.0,0.3888888888888889,2209.1674947951474,44034.3355202798,82.0,38.0,44.0,0.4634146341463415,139.9395819384778,13384.904311795804,0.0,0.0,0.0,0.0,11015.0,11032.0,11095.0,11191.0,11202.0,11226.0,11232.0,11250.0,11448.0,11527.0,0.06901976330146883,-0.029874588608186287,0.06265763243365452,-0.06595167297508966,0.01099946552577407
12,12,11866.983420729965,3318.3140187830736,7.840184465180652,12008.534401406623,-2768.2767190172062,95.7705830002236,12063.095930801726,26169.30816556344,12.600342202553891,12082.455844310378,-34985.40017231639,9.03598499742635,12326.7027741979,12715.44417462582,34.30645093216668,0.9108484293366096,60.0,47.0,175.0,276.0,451.0,13.0,840.0,845.0,14.0,9.0,5.0,0.6428571428571429,220.5603810564967,2666.726677897611,117.0,91.0,26.0,0.7777777777777778,91.00451685247644,2389.5775978199144,24.0,17.0,7.0,0.7083333333333334,1670.6613163711068,2416.4638969424896,18.0,6.0,12.0,0.3333333333333333,2267.6934686597697,44869.841948080706,88.0,44.0,44.0,0.5,113.13922802866176,13271.998078615425,0.0,0.0,0.0,0.0,11859.0,11872.0,11919.0,12035.0,12046.0,12070.0,12076.0,12094.0,12287.0,12370.0,0.06646760367103018,-0.03287406790921714,0.06384048465482757,-0.06481828012515271,0.008897780248560694
13,13,12708.160948023444,3395.2449153361717,10.323586265382785,12868.876695499284,-3002.3539708297135,12.739827004320066,12903.095930801726,20965.794091484193,13.546870668122532,12923.620829990272,-31724.28850821153,9.21452634608499,13171.10949479597,12979.695651697037,33.94830834010174,0.913000817807342,146.0,123.0,90.0,277.0,367.0,23.0,842.0,840.0,23.0,10.0,13.0,0.4347826086956521,199.6490298185464,4367.182827023042,33.0,26.0,7.0,0.7878787878787878,330.126034833864,1751.2660460594257,26.0,18.0,8.0,0.6923076923076923,1366.6487210062764,2510.484610949925,17.0,7.0,10.0,0.4117647058823529,1956.3964972574083,37289.24603657203,87.0,46.0,41.0,0.5287356321839081,121.85548599965604,13275.840271859286,0.0,0.0,0.0,0.0,12698.0,12721.0,12844.0,12876.0,12886.0,12911.0,12917.0,12934.0,13133.0,13211.0,0.05880254143574166,-0.10995573408109247,0.06518468678280956,-0.0616687273144365,0.009388162039355984
14,14,13556.972626301009,3192.0062734662133,13.233945840224624,13659.794574402302,-2130.7698956733943,40.767446413824906,13752.095930801726,21467.28301374189,11.82382373092974,13773.568688143574,-30611.209566241807,9.378016055455324,14019.260172995682,13259.60626262045,36.29133747638862,0.9118042770629724,87.0,64.0,150.0,278.0,428.0,23.0,847.0,849.0,24.0,10.0,14.0,0.4166666666666667,175.4925479994293,3957.770663157436,57.0,48.0,9.0,0.8421052631578947,95.00898305876198,1616.0094795893465,26.0,17.0,9.0,0.6538461538461539,1368.2851958594265,3913.33558494326,17.0,7.0,10.0,0.4117647058823529,2030.8615004761743,38656.99047081864,96.0,51.0,45.0,0.53125,118.13279011869484,13713.67878109575,0.0,0.0,0.0,0.0,13547.0,13570.0,13634.0,13669.0,13735.0,13760.0,13767.0,13784.0,13973.0,14062.0,0.05497876036717847,-0.04458903950711955,0.06373816355723934,-0.06634371948228464,0.008909223077891656
15,15,14384.54796540086,3297.289945810663,15.287792380410348,14485.315166104174,-1957.7613162355767,73.89099662505764,14582.095930801726,26469.63183528364,11.850551914155403,14601.247391761995,-35186.49569892822,9.583755858103313,14849.958816596258,13298.059696414157,32.98432115596878,0.9180780513367433,68.0,47.0,169.0,274.0,443.0,21.0,828.0,830.0,23.0,10.0,13.0,0.4347826086956521,210.22542372427532,3346.8717968339884,110.0,42.0,68.0,0.3818181818181818,77.60423776009651,1987.9447579590228,24.0,17.0,7.0,0.7083333333333334,1738.409078759683,2708.057001374863,18.0,6.0,12.0,0.3333333333333333,2279.664169002391,44852.298223664206,86.0,47.0,39.0,0.5465116279069767,124.40360372840186,13198.359221566752,0.0,0.0,0.0,0.0,14376.0,14397.0,14444.0,14553.0,14565.0,14589.0,14595.0,14613.0,14808.0,14887.0,0.0637570329510679,-0.03963927426521815,0.06567560476766468,-0.06478804222245495,0.009355019195916792
16,16,15209.698643600574,2989.9642028579674,10.191861603456228,15360.986436005758,-2601.3737485188108,78.61593021989376,15411.095930801726,23068.696171938656,13.157325516862016,15431.537346811536,-31157.999117627223,9.224739544108404,15677.10949479597,13402.910582473498,33.364333084746434,0.9107638641165974,86.0,64.0,153.0,274.0,427.0,22.0,826.0,829.0,23.0,6.0,17.0,0.2608695652173913,195.8840164890529,3609.201355462499,104.0,81.0,23.0,0.7788461538461539,71.40875712485655,2054.3355124907516,25.0,17.0,8.0,0.68,1381.204666649328,2318.416857027044,18.0,7.0,11.0,0.3888888888888889,1972.2698402824124,38686.96810893795,81.0,41.0,40.0,0.5061728395061729,93.94316668239904,13982.190290628729,0.0,0.0,0.0,0.0,15204.0,15226.0,15290.0,15384.0,15394.0,15419.0,15425.0,15443.0,15636.0,15717.0,0.06551383334349505,-0.027450402759509582,0.059873547094068544,-0.06329898889966355,0.00700916163726744
17,17,16082.31756906287,3251.005269351865,11.9428731406927,16203.369913502158,-1956.8887662636005,38.21948101296085,16272.24660900144,19527.37308559211,11.518275720248653,16297.778880885391,-26667.37635480476,8.767661110115279,16541.260172995684,13377.237730933066,35.24330372712406,0.9068999904768116,85.0,59.0,153.0,276.0,429.0,26.0,875.0,862.0,26.0,12.0,14.0,0.4615384615384615,149.27978645589252,3225.826755477117,58.0,49.0,9.0,0.8448275862068966,93.90525266719742,1492.7061239040422,27.0,15.0,12.0,0.5555555555555556,1107.5752767822423,11580.14148159572,18.0,8.0,10.0,0.4444444444444444,1787.6603306971706,34015.30486644119,89.0,45.0,44.0,0.5056179775280899,117.47309027538498,13767.529922969534,0.0,0.0,0.0,0.0,16070.0,16096.0,16155.0,16212.0,16258.0,16284.0,16290.0,16308.0,16497.0,16584.0,0.045918038910362516,-0.04798701606657801,0.05671911280270694,-0.06703547836550036,0.008781565569679921
18,18,16956.69864360057,2294.4222238886737,8.698354232212054,17115.04118340374,-3662.687447110112,66.24710042246546,17156.67126990158,25167.77665073036,12.971939021807604,17177.25339049118,-34086.45801802531,8.860910661947596,17422.56995477454,12346.659265085837,33.43480172789635,0.9112227057863412,71.0,48.0,166.0,277.0,443.0,23.0,872.0,884.0,23.0,6.0,17.0,0.2608695652173913,176.72167098975382,3373.458701238541,113.0,98.0,15.0,0.8672566371681416,156.0447206510682,1853.4718025366851,24.0,16.0,8.0,0.6666666666666666,1564.6043420000055,3048.040894330785,17.0,6.0,11.0,0.3529411764705882,2238.1812176899025,44457.60961654302,85.0,42.0,43.0,0.4941176470588235,123.48009687744992,12661.341427891346,0.0,0.0,0.0,0.0,16951.0,16974.0,17022.0,17130.0,17141.0,17165.0,17171.0,17188.0,17382.0,17465.0,0.07702229744368463,-0.042603886600858794,0.062166967059229736,-0.06566188885059066,0.010001093755509213
19,19,17812.295324315644,2745.9726393667047,10.657496501526198,17942.64389620259,-2062.364014200598,45.86337721555302,18009.095930801723,23696.27240789678,12.539572367705338,18028.99566095382,-32735.32545739952,9.204020323735238,18277.53415569611,13235.655634812923,34.00389226505854,0.915927079859098,116.0,92.0,123.0,276.0,399.0,24.0,856.0,852.0,24.0,11.0,13.0,0.4583333333333333,158.66786818281287,3016.257851870292,94.0,56.0,38.0,0.5957446808510638,94.9953198013016,1579.620611629142,25.0,17.0,8.0,0.68,1523.3768417318909,3063.8033244449107,18.0,7.0,11.0,0.3888888888888889,2116.064122031516,40856.96229833191,89.0,50.0,39.0,0.5617977528089888,113.14021036897338,13979.067056835236,0.0,0.0,0.0,0.0,17801.0,17825.0,17917.0,17980.0,17992.0,18017.0,18022.0,18040.0,18231.0,18316.0,0.05778202809020193,-0.046061373815292815,0.06428761517884246,-0.06464160940709998,0.008548137960871973
20,20,18679.397287201147,3654.226839284291,10.7609928064447,18808.821948101293,-1924.600515642998,22.93168860777651,18873.67126990158,20005.548918335455,11.906671797417657,18897.09380942379,-28558.72419299402,9.046022883696535,19144.53415569611,13464.757676789455,33.89547608490176,0.9167739838354076,128.0,103.0,111.0,276.0,387.0,25.0,865.0,865.0,26.0,11.0,15.0,0.4230769230769231,213.0261092992865,4250.85491381075,108.0,71.0,37.0,0.6574074074074074,97.6093912610029,1828.67131125407,27.0,17.0,10.0,0.6296296296296297,1210.0847754090262,6723.7491501907725,17.0,7.0,10.0,0.4117647058823529,1925.69454425895,37009.74003238327,88.0,49.0,39.0,0.5568181818181818,129.9706723915388,13346.774507981758,0.0,0.0,0.0,0.0,18668.0,18693.0,18796.0,18845.0,18858.0,18884.0,18890.0,18907.0,19100.0,19183.0,0.05829580884502762,-0.050716702228665964,0.060487456772553794,-0.0674292917024409,0.009652655882220756
21,21,19564.821948101293,3893.1125114629417,12.16954132005634,19690.80838410705,-2554.427659293702,107.84957568949358,19761.095930801723,23372.54625407182,13.246917853001936,19780.96290462166,-33691.61923245539,8.964553683683341,20031.109494795972,12715.017996402725,33.51632739011254,0.9028052874032656,69.0,43.0,171.0,279.0,450.0,26.0,885.0,887.0,26.0,13.0,13.0,0.5,170.56474224642346,2688.4479380883267,117.0,74.0,43.0,0.6324786324786325,91.34811882214198,2730.358100958416,26.0,18.0,8.0,0.6923076923076923,1477.5773070271252,1125.3894347197947,17.0,6.0,11.0,0.3529411764705882,2114.307856773217,41374.84564602871,89.0,49.0,40.0,0.550561797752809,86.55066597024694,12600.598695285378,0.0,0.0,0.0,0.0,19552.0,19578.0,19621.0,19734.0,19744.0,19768.0,19775.0,19792.0,19986.0,20071.0,0.043811922143069316,-0.03576069907080465,0.06321849964334592,-0.06275471185239112,0.006806963701878633
22,22,20423.397287201147,2921.024087257392,10.981230846985277,20567.260418706188,-2734.8614395170507,92.0795911028394,20622.246609001435,27571.317369577264,13.308356221496917,20639.470001786496,-38303.030598711804,9.232436600236772,20889.95881659626,13109.319432998363,32.51858901915682,0.908342517279263,54.0,31.0,185.0,276.0,461.0,23.0,859.0,862.0,25.0,12.0,13.0,0.48,142.01824366553834,2122.070305642544,128.0,102.0,26.0,0.796875,71.5721820607791,2069.430777590677,24.0,18.0,6.0,0.75,1817.5969930756896,1221.2671366213465,19.0,6.0,13.0,0.3157894736842105,2249.2794656820797,44618.004836804146,88.0,50.0,38.0,0.5681818181818182,103.33451089631932,12896.328972230112,0.0,0.0,0.0,0.0,20412.0,20435.0,20466.0,20592.0,20604.0,20628.0,20633.0,20651.0,20845.0,20927.0,0.048619333296522765,-0.026170313796013752,0.0659234728871266,-0.05872327673616841,0.007882522920008262
23,23,21280.972626301005,2433.8588041517905,17.8357578060484,21428.83575780605,-2571.6437795856705,95.97943730620024,21478.67126990158,22749.489575103835,12.59513336529315,21500.626671235743,-29186.194321244588,8.8876698976926,21745.09244456233,13002.0060726042,33.541205250729845,0.90584961932564,91.0,60.0,150.0,274.0,424.0,31.0,858.0,856.0,31.0,10.0,21.0,0.3225806451612903,116.46078202832408,2708.4841850328366,95.0,70.0,25.0,0.7368421052631579,82.15495001767975,1985.01817388137,26.0,17.0,9.0,0.6538461538461539,1334.7939815356526,5113.506403829745,18.0,7.0,11.0,0.3888888888888889,1940.0380037608832,38084.75233003413,89.0,45.0,44.0,0.5056179775280899,125.93343670869652,13397.375366819502,0.0,0.0,0.0,0.0,21271.0,21302.0,21362.0,21453.0,21463.0,21488.0,21494.0,21512.0,21709.0,21786.0,0.04785026223775176,-0.031946473562880516,0.058673579340276706,-0.06647108500708955,0.00968569280813088
24,24,22169.397287201147,3207.141051347697,14.616483570260668,22287.315166104177,-1881.667625616616,73.89099662505764,22365.67126990158,21349.9313438895,12.388137531982933,22387.85845010438,-29507.944559213334,9.36132918216308,22631.83551209554,13353.277620229554,36.321308226563715,0.9060685998725848,88.0,58.0,153.0,277.0,430.0,30.0,888.0,887.0,33.0,12.0,21.0,0.3636363636363636,176.24341723670153,3582.0736834013537,122.0,69.0,53.0,0.5655737704918032,93.9058396792656,1093.1095606066217,26.0,17.0,9.0,0.6538461538461539,1323.7052370626625,4080.567103542695,18.0,7.0,11.0,0.3888888888888889,1942.4582209130892,38004.08259567476,92.0,47.0,45.0,0.5108695652173914,137.245133815973,14446.749857034838,0.0,0.0,0.0,0.0,22158.0,22188.0,22246.0,22339.0,22350.0,22375.0,22381.0,22399.0,22590.0,22676.0,0.05495343497993047,-0.04990564667258543,0.0620004446731636,-0.0658283133552449,0.010278010966240484
25,25,23043.54796540086,1905.0311873584744,6.653899080038902,23160.945252602018,-2750.831527225229,35.6715156120968,23242.67126990158,25910.476010636685,10.595702992139868,23263.06530437149,-32895.19166176887,10.17522755815668,23508.11836121668,12531.641405308676,33.197530978013056,0.916124592424234,106.0,88.0,133.0,275.0,408.0,18.0,875.0,877.0,19.0,10.0,9.0,0.5263157894736842,180.38192375128088,2713.691665964854,110.0,55.0,55.0,0.5,93.09025293028893,2171.045367024737,24.0,17.0,7.0,0.7083333333333334,1707.8621680396377,2898.607004386423,18.0,7.0,11.0,0.3888888888888889,2283.8760178902257,45281.84553425358,81.0,39.0,42.0,0.4814814814814814,122.08670848856576,13287.919603732922,0.0,0.0,0.0,0.0,23035.0,23053.0,23141.0,23216.0,23227.0,23250.0,23256.0,23274.0,23472.0,23549.0,0.09468712373228878,-0.03384076851270834,0.06591396342307766,-0.0694288709843442,0.009742275934966283
26,26,23901.55952963588,2470.3152105044396,10.599537719377269,24059.02737370598,-3285.2616151435514,17.835757805972616,24095.095930801697,22094.769302788656,13.495068012629831,24115.943453642816,-32641.336033841708,9.3771741704093,24362.53415569611,13161.355732308,33.923553967261164,0.9171932674327906,94.0,64.0,147.0,274.0,421.0,30.0,860.0,852.0,30.0,16.0,14.0,0.5333333333333333,122.36360688854576,2150.5002502417583,89.0,79.0,10.0,0.8876404494382022,331.9546896364313,1352.5444401737273,25.0,17.0,8.0,0.68,1355.8698048121887,3626.747349018567,18.0,7.0,11.0,0.3888888888888889,2040.8511013822203,39418.234160410466,88.0,49.0,39.0,0.5568181818181818,106.20664259168412,13519.67428232889,0.0,0.0,0.0,0.0,23886.0,23916.0,23980.0,24069.0,24078.0,24103.0,24109.0,24127.0,24316.0,24401.0,0.04953360055762238,-0.10104360885789801,0.06136609919892034,-0.06252351617183555,0.008069582249112228
27,27,24769.67126990158,2709.1944476491967,13.17767871730804,24921.767200703307,-2182.1234337450965,58.60320421987331,24961.67126990158,21484.245504381655,13.195246479005643,24985.052071460817,-28012.18838230334,8.566579816637166,25230.684833895823,13703.238041092003,34.73149225265657,0.9087175436450102,129.0,98.0,113.0,276.0,389.0,31.0,864.0,867.0,31.0,16.0,15.0,0.5161290322580645,133.55581447952758,2468.672491694151,92.0,78.0,14.0,0.8478260869565217,148.83341848524736,430.6182509836557,27.0,17.0,10.0,0.6296296296296297,1209.8129981609898,8050.528955715369,18.0,7.0,11.0,0.3888888888888889,1894.3848453518224,36296.26470906396,87.0,44.0,43.0,0.5057471264367817,90.3522813608808,14135.763272951826,0.0,0.0,0.0,0.0,24754.0,24785.0,24883.0,24935.0,24946.0,24972.0,24978.0,24996.0,25188.0,25272.0,0.04929724206227268,-0.06820577433138608,0.0563116353289787,-0.06762716355815304,0.006593498638054796
28,28,25653.246609001435,2572.5845712472624,9.36817891634878,25801.191861603453,-3502.389665686076,61.15116962073736,25842.67126990158,25190.792538863752,12.845554870512728,25863.133625086877,-34693.16091253101,8.92690766834418,26107.83645798407,12539.585904543106,33.27947807298418,0.914038770254658,79.0,54.0,156.0,275.0,431.0,25.0,884.0,881.0,27.0,15.0,12.0,0.5555555555555556,138.62230874837812,1780.5737375947508,111.0,96.0,15.0,0.8648648648648649,144.56534036560043,1412.1189295326942,25.0,17.0,8.0,0.68,1598.5780107222397,2687.188628807799,18.0,7.0,11.0,0.3888888888888889,2280.6731944896737,44563.41975516122,83.0,41.0,42.0,0.4939759036144578,97.9577913399078,12623.145081630317,0.0,0.0,0.0,0.0,25639.0,25664.0,25718.0,25815.0,25827.0,25850.0,25856.0,25874.0,26071.0,26149.0,0.053884451573605635,-0.0412762011554422,0.06345882164112113,-0.06573840879589339,0.007811884067433007
29,29,26484.05693430405,2758.8347324562355,13.614988243459084,26638.91787890302,-2282.9973865663637,53.50727341814519,26678.095930801723,25072.97788117025,12.958818415723927,26698.118019720452,-32812.36613938565,8.888129746220706,26940.98022312341,13102.759039589606,35.59006544532287,0.9248726767120964,133.0,102.0,108.0,277.0,385.0,31.0,833.0,835.0,32.0,16.0,16.0,0.5,100.21746214084514,2658.593803492574,111.0,99.0,12.0,0.8918918918918919,244.96588610254696,1075.1785507806906,25.0,17.0,8.0,0.68,1525.689369128586,4414.68739662558,17.0,6.0,11.0,0.3529411764705882,2141.963343776307,40924.193950650326,90.0,44.0,46.0,0.4888888888888889,116.12966813426311,13908.69722498928,0.0,0.0,0.0,0.0,26468.0,26499.0,26601.0,26651.0,26661.0,26686.0,26692.0,26709.0,26899.0,26986.0,0.03632601147210435,-0.10730011674300535,0.06084994675779518,-0.06527914916825352,0.008862993494986872
30,30,27337.25219699277,2168.2181671314643,10.484528491789629,27495.027373698995,-3200.0429559267172,17.8357578060484,27529.67126990158,20437.31591318736,13.042297071566828,27552.67856401846,-30419.657996129732,9.348803298125064,27796.41011109777,13080.707191586427,34.44101848269358,0.9145664584047066,74.0,43.0,167.0,278.0,445.0,31.0,858.0,852.0,33.0,16.0,17.0,0.4848484848484848,105.2936094841272,2004.9149191253764,110.0,100.0,10.0,0.9090909090909092,302.2739857032638,1695.2947204938266,26.0,17.0,9.0,0.6538461538461539,1252.7080383459818,5834.610713341319,18.0,8.0,10.0,0.4444444444444444,1926.3843650612064,37427.065976477505,91.0,45.0,46.0,0.4945054945054945,97.28806833807394,13153.920676779697,0.0,0.0,0.0,0.0,27322.0,27353.0,27396.0,27505.0,27514.0,27539.0,27545.0,27563.0,27754.0,27841.0,0.04856227619540234,-0.09445935253569954,0.06129513502003757,-0.06332695671023976,0.0074375235920463145
31,31,28212.111906920767,2725.7292524574295,10.677688727502108,28369.027373698995,-2905.9143611760105,17.8357578060484,28405.095930801723,22366.984709972076,13.133142807411735,28426.023527164285,-32762.34962377365,9.61297247990398,28669.828637733222,13171.613713253651,35.875954155530316,0.9119977617466682,109.0,79.0,131.0,277.0,408.0,30.0,873.0,875.0,30.0,15.0,15.0,0.5,126.98713246623768,2812.832952077016,112.0,102.0,10.0,0.9107142857142856,317.59533418869455,1541.3615192667216,25.0,17.0,8.0,0.68,1390.8708626581176,2807.6114993977726,18.0,7.0,11.0,0.3888888888888889,2044.891430783876,39946.66768263494,90.0,45.0,45.0,0.5,131.5326245685362,14345.10665834264,0.0,0.0,0.0,0.0,28197.0,28227.0,28306.0,28379.0,28388.0,28413.0,28419.0,28437.0,28630.0,28714.0,0.04658831479749875,-0.10929273705786882,0.06218410217976378,-0.06241589673104588,0.009986067571673798
32,32,29060.480913489675,2510.9938286145107,11.691037607094392,29212.767200703307,-3036.787472176389,58.60320421987195,29254.095930801723,26130.047104559853,12.907943930494064,29273.32461189105,-35338.6644879285,9.29325942834142,29517.91869362615,12966.33834998291,33.04321402995089,0.9205783613479832,110.0,79.0,132.0,274.0,406.0,31.0,845.0,849.0,31.0,17.0,14.0,0.5483870967741935,104.04598880067115,1857.0831813011423,74.0,61.0,13.0,0.8243243243243243,187.59866561761615,725.8865785713654,24.0,17.0,7.0,0.7083333333333334,1653.1614786697598,1470.562104854287,18.0,6.0,12.0,0.3333333333333333,2242.6179161651535,44260.74085982911,82.0,40.0,42.0,0.4878048780487805,115.2521372276023,13573.394024017643,0.0,0.0,0.0,0.0,29043.0,29074.0,29153.0,29226.0,29237.0,29261.0,29267.0,29285.0,29480.0,29559.0,0.0414361786217852,-0.06177536865402336,0.06326668574513489,-0.06346074331505142,0.008888564690875447
33,33,29919.54796540086,2029.8043366236957,11.389160836913195,30082.64389620259,-3017.181713071516,45.86337721555302,30121.095930801723,23038.137544816145,13.961634290573816,30141.935762586552,-32151.273116595763,9.2326914317413,30385.362406526056,12983.289694339095,34.977553510317854,0.9171156840690464,82.0,49.0,160.0,275.0,435.0,33.0,859.0,867.0,33.0,9.0,24.0,0.2727272727272727,144.56569707344528,3092.192524673638,111.0,100.0,11.0,0.9009009009009008,255.184828510456,1152.876179768925,26.0,18.0,8.0,0.6923076923076923,1381.8348707770522,2837.0759878672843,18.0,7.0,11.0,0.3888888888888889,2006.362166935867,39185.24292218609,87.0,43.0,44.0,0.4942528735632184,117.798607793677,13787.273002295497,0.0,0.0,0.0,0.0,29911.0,29944.0,29993.0,30093.0,30104.0,30129.0,30135.0,30153.0,30347.0,30428.0,0.07122149384797882,-0.08457721568605019,0.05998032037481178,-0.0624038170948891,0.009073093997512735
34,34,30831.397287201147,2553.5809602312875,10.439326244982125,30988.767200703307,-2877.7105378129513,58.60320421987331,31026.67126990158,21411.279809966687,13.07782259044969,31050.241521821015,-27980.7765966931,8.837102872937,31294.137888201694,13646.07697512049,35.40326352169248,0.903893359957648,90.0,59.0,151.0,277.0,428.0,31.0,911.0,906.0,32.0,11.0,21.0,0.34375,152.2600507911776,3333.4256910499953,124.0,111.0,13.0,0.8951612903225806,202.9255728545064,289.6282387134337,27.0,17.0,10.0,0.6296296296296297,1192.8741498040686,7254.069548470143,18.0,7.0,11.0,0.3888888888888889,1874.6672674951035,37226.10499835314,90.0,45.0,45.0,0.5,116.42469315944284,14136.36585344542,0.0,0.0,0.0,0.0,30820.0,30851.0,30910.0,31002.0,31011.0,31037.0,31043.0,31061.0,31251.0,31338.0,0.05962609103154765,-0.07051632545666982,0.05571241702463765,-0.06699840017008893,0.008531733579673352
35,35,31719.54796540086,2227.8811503272013,7.590328695185996,31881.027373698995,-2915.7741313692213,17.8357578060484,31918.67126990158,25625.604525141476,11.628934218337363,31938.579353117548,-34703.807233665815,9.909852132633723,32184.68483389902,12738.73888097038,33.05983770406694,0.9151413612514911,88.0,67.0,151.0,276.0,427.0,21.0,889.0,892.0,24.0,10.0,14.0,0.4166666666666667,179.40729573301027,2797.1067602626736,126.0,115.0,11.0,0.9126984126984128,271.967463128919,559.0710995970157,24.0,17.0,7.0,0.7083333333333334,1730.4186869668144,2609.553675764252,18.0,7.0,11.0,0.3888888888888889,2267.209667429075,44604.9513930719,87.0,45.0,42.0,0.5172413793103449,110.55062603270186,13038.13220306064,0.0,0.0,0.0,0.0,31711.0,31732.0,31799.0,31891.0,31903.0,31926.0,31932.0,31950.0,32146.0,32226.0,0.08052821655529575,-0.09327453049362419,0.06752694108227135,-0.06533028644850464,0.008678302229575224
36,36,32573.918125885342,2495.9459234996793,11.280961349193706,32731.45203459914,-2725.052611164299,15.28779240518434,32767.095930801723,22198.78686133935,12.825820409226452,32788.21414563312,-30780.9780564602,9.286036488429158,33035.10949479597,13422.085772572163,35.117124257869904,0.91314798642471,96.0,67.0,144.0,276.0,420.0,29.0,857.0,848.0,29.0,15.0,14.0,0.5172413793103449,116.1403460210758,2339.065944996477,86.0,77.0,9.0,0.8953488372093024,264.37496279954985,1229.5343345239926,26.0,17.0,9.0,0.6538461538461539,1370.119944707236,5335.688873508235,18.0,7.0,11.0,0.3888888888888889,2016.882579363204,38695.31527375501,95.0,54.0,41.0,0.5684210526315789,96.8634941756672,13337.627274505325,0.0,0.0,0.0,0.0,32559.0,32588.0,32655.0,32740.0,32750.0,32775.0,32781.0,32799.0,32984.0,33075.0,0.04653159546751323,-0.09701646189010409,0.06172048739714647,-0.06552366775557698,0.007216724420999182
37,37,33456.39728720114,2654.6516598046787,13.374573479568442,33612.46584430388,-2847.88478113594,68.79506582332952,33652.67126990158,21658.53926665876,12.884248087306077,33676.36911132524,-27272.056530673024,8.671084600709786,33929.2327992967,13595.45067256844,32.82019826584426,0.8922848854744793,95.0,63.0,147.0,275.0,422.0,32.0,879.0,886.0,32.0,11.0,21.0,0.34375,166.31391474216414,3523.4039657241874,107.0,91.0,16.0,0.8504672897196262,95.20285976797832,1682.1534715279993,26.0,16.0,10.0,0.6153846153846154,1161.4606786623322,8369.904067702537,18.0,7.0,11.0,0.3888888888888889,1896.1443304183465,37052.58535907496,88.0,53.0,35.0,0.6022727272727273,130.39759620833829,13162.888461452869,0.0,0.0,0.0,0.0,33445.0,33477.0,33540.0,33628.0,33637.0,33663.0,33669.0,33687.0,33879.0,33962.0,0.06264999557584178,-0.033429322842901184,0.05362599316428921,-0.06952700205375943,0.009591266913383143
38,38,34355.3816691477,3067.959014480758,8.995942628780782,34507.04118340374,-2861.264524492078,66.24710042246546,34548.67126990158,24503.728070753088,12.630606398265272,34570.044600842935,-31546.705286522654,8.738207842321167,34819.10949479597,13157.233277932351,34.07237696079881,0.9082985023716608,123.0,99.0,115.0,278.0,393.0,24.0,899.0,896.0,26.0,13.0,13.0,0.5,170.25802989402868,2909.174866278757,97.0,81.0,16.0,0.8350515463917526,106.79163608031374,1846.642086194683,24.0,16.0,8.0,0.6666666666666666,1471.5555080414497,5583.550928008575,18.0,7.0,11.0,0.3888888888888889,2143.987780249128,41797.10119491303,88.0,47.0,41.0,0.5340909090909091,108.75211184641576,13014.939590370474,0.0,0.0,0.0,0.0,34343.0,34367.0,34466.0,34522.0,34533.0,34557.0,34563.0,34581.0,34773.0,34859.0,0.05549553598676229,-0.03732323074856947,0.060054351884432394,-0.06796233586919391,0.008265576018084104
39,39,35203.08822411436,3317.871182271863,11.439459456421613,35331.73135165902,-1798.9996701330729,28.027619409504627,35398.09593080172,26539.017385140807,11.663105106209782,35416.973844090644,-33690.96243771991,9.596408423319726,35659.892253652804,13448.700471197228,36.99289540421899,0.925095051729308,129.0,99.0,111.0,277.0,388.0,30.0,851.0,849.0,30.0,15.0,15.0,0.5,157.05040990487825,3401.98165602724,60.0,35.0,25.0,0.5833333333333334,75.22511213118402,2000.8279144732971,24.0,17.0,7.0,0.7083333333333334,1716.5524105634754,3847.594820530774,17.0,6.0,11.0,0.3529411764705882,2225.779255494396,43067.95840299995,90.0,44.0,46.0,0.4888888888888889,121.67798276764412,13896.760812967406,0.0,0.0,0.0,0.0,35188.0,35218.0,35317.0,35356.0,35381.0,35405.0,35411.0,35428.0,35620.0,35705.0,0.0473346918180652,-0.04181496716206712,0.06468033030961323,-0.06606457917635639,0.00904756433740487
40,40,36050.12549915704,2644.331396973956,17.839685967415736,36187.10974050647,-2455.7512324080662,89.40462223800169,36239.09593080172,22338.13070766732,13.339421283260313,36260.18250635772,-29459.46808467168,8.924965291029444,36502.93725765604,13273.006427349064,34.323028303045554,0.905660487485071,92.0,63.0,149.0,274.0,423.0,29.0,842.0,841.0,31.0,21.0,10.0,0.6774193548387096,96.78326047636818,1111.0000521250545,116.0,90.0,26.0,0.7758620689655172,87.6091374704953,1591.3987787366095,27.0,18.0,9.0,0.6666666666666666,1309.3081725184054,3617.852632864493,17.0,6.0,11.0,0.3529411764705882,1934.292295827318,37890.46996618056,84.0,41.0,43.0,0.4880952380952381,121.50673650094244,14150.997306811176,0.0,0.0,0.0,0.0,36030.0,36059.0,36122.0,36213.0,36222.0,36247.0,36254.0,36271.0,36464.0,36545.0,0.03660027657165899,-0.035675086431530494,0.05861314850615498,-0.06565944402892213,0.009154424595966253
41,41,36929.501259635224,2723.9749527270933,11.359563968684997,37087.87669549929,-3104.933185371985,12.739827004320285,37120.67126990158,21316.281226621628,12.45430829601367,37143.42037156941,-30345.821577684907,9.304353192751371,37389.26017299569,13463.24446605091,35.55442321448899,0.9120899507802744,152.0,121.0,89.0,278.0,367.0,31.0,884.0,882.0,31.0,17.0,14.0,0.5483870967741935,114.4617899844977,1957.4321440393685,31.0,24.0,7.0,0.7741935483870968,344.8709457825839,1795.652092940606,25.0,16.0,9.0,0.64,1301.6498795621787,6626.274083460356,18.0,7.0,11.0,0.3888888888888889,2035.1274224519464,39849.05962687378,92.0,49.0,43.0,0.532608695652174,135.80314946832507,14353.82630633692,0.0,0.0,0.0,0.0,36913.0,36944.0,37065.0,37095.0,37105.0,37130.0,37136.0,37154.0,37341.0,37432.0,0.04202013306690096,-0.11107193784631046,0.061063647346543966,-0.06706450234810901,0.010086955622826878
42,42,37797.94525260201,1759.8633147554117,12.439939326672924,37943.46584430388,-3021.008338267489,68.79506582332952,37986.67126990158,26386.22752024852,12.543089730544638,38006.36499056479,-34077.571881870885,8.888995079179114,38254.53415569612,13058.313955804046,32.645171852194196,0.91583926681524,113.0,81.0,127.0,275.0,402.0,32.0,863.0,866.0,34.0,20.0,14.0,0.5882352941176471,73.76182610031033,680.1394251297128,126.0,110.0,16.0,0.873015873015873,99.61660197138372,1848.480954828117,24.0,17.0,7.0,0.7083333333333334,1714.2784725509102,3703.1793778464817,18.0,6.0,12.0,0.3333333333333333,2249.959447524262,44123.41901810888,85.0,46.0,39.0,0.5411764705882353,92.7410044126745,13201.945273846632,0.0,0.0,0.0,0.0,37778.0,37810.0,37891.0,37959.0,37971.0,37994.0,38000.0,38018.0,38212.0,38293.0,0.04191338354624538,-0.032974620000060184,0.06496868380428351,-0.06602464093755549,0.007102065758761589
43,43,38655.318635070034,2051.543400833925,8.033231407094283,38812.49321800287,-2692.388656754079,50.95930801728114,38851.87669549929,24472.18799541214,12.739827004320285,38871.53270030245,-30257.747537528525,9.656738979838888,39120.95881659626,13378.659182911812,32.554027041629546,0.9052697861011324,88.0,64.0,153.0,275.0,428.0,24.0,861.0,872.0,25.0,13.0,12.0,0.52,131.8209188946949,2083.845539095621,125.0,112.0,13.0,0.896,224.18482328037152,590.0878931694659,25.0,18.0,7.0,0.72,1468.730478695208,1222.381877291159,18.0,7.0,11.0,0.3888888888888889,1946.05606885587,37776.18731295134,82.0,45.0,37.0,0.5487804878048781,103.75964118143128,13545.993159550806,0.0,0.0,0.0,0.0,38642.0,38666.0,38730.0,38824.0,38834.0,38859.0,38865.0,38883.0,39076.0,39158.0,0.06425451142837703,-0.08326614462513998,0.06001631235304969,-0.064315959621323,0.007755608373218788
44,44,39568.972626301,2583.1751728412546,7.683417718257252,39688.0068740117,-2638.4042021057503,40.767446413824906,39767.09593080172,22962.43989887773,11.44228152793172,39787.75605700957,-30427.725591717357,9.996427875766152,40034.10949479597,12867.847570518632,33.547580861251404,0.8980017565344938,107.0,83.0,133.0,275.0,408.0,24.0,913.0,908.0,25.0,11.0,14.0,0.44,182.29769151025076,2858.432429394884,127.0,74.0,53.0,0.5826771653543307,90.86422478520662,2112.0045124160806,25.0,17.0,8.0,0.68,1417.89565464409,2705.284683861665,18.0,7.0,11.0,0.3888888888888889,2027.2195875207256,39894.83884429437,87.0,44.0,43.0,0.5057471264367817,131.44763175303137,13019.84176099845,0.0,0.0,0.0,0.0,39559.0,39583.0,39666.0,39725.0,39750.0,39775.0,39781.0,39799.0,39997.0,40074.0,0.07057116893460233,-0.03443908431948619,0.061748475374926885,-0.0666240919456875,0.010215199630914919
45,45,40446.69864360057,2399.291989835191,4.80491086632105,40605.7672007033,-4118.2293305799085,58.60320421987331,40648.82194636792,28991.67936443688,13.85948124651049,40666.01966799669,-39281.46246796206,9.31253749442284,40912.190001465344,12543.175409852714,31.89014460531762,0.9012364293128424,86.0,72.0,151.0,274.0,425.0,14.0,879.0,883.0,14.0,6.0,8.0,0.4285714285714285,205.48629337255085,3082.911308705068,125.0,112.0,13.0,0.896,185.66771371451856,967.6879111752849,24.0,19.0,5.0,0.7916666666666666,1857.221704643017,1700.8938515570644,18.0,6.0,12.0,0.3333333333333333,2268.5146266118327,44664.27600306515,79.0,38.0,41.0,0.4810126582278481,103.38920881299929,12805.938853876654,0.0,0.0,0.0,0.0,40441.0,40455.0,40527.0,40619.0,40631.0,40654.0,40660.0,40678.0,40875.0,40952.0,0.08564455441151447,-0.04508435514648082,0.06406050788907415,-0.05775025887750569,0.008242666265496586
46,46,41331.54796540086,3142.081752869231,13.240961393884495,41478.9610481268,-2147.093593186365,-15.28779240518434,41531.87669549929,23051.35777151028,12.739827004320285,41550.72319887414,-31114.1570342234,9.754868343373026,41797.68483389583,13239.625879639258,35.57075789342787,0.9177597785154886,127.0,99.0,112.0,277.0,389.0,28.0,884.0,889.0,29.0,9.0,20.0,0.3103448275862069,189.2348744478749,4498.436813723274,36.0,13.0,23.0,0.3611111111111111,102.13846091115973,1941.4664622693977,26.0,19.0,7.0,0.7307692307692307,1489.648765155309,224.52014875828263,17.0,6.0,11.0,0.3529411764705882,1942.2492537744847,37268.70757374737,91.0,49.0,42.0,0.5384615384615384,110.901696287,13485.407998279745,0.0,0.0,0.0,0.0,41323.0,41351.0,41450.0,41503.0,41513.0,41539.0,41545.0,41562.0,41751.0,41839.0,0.06022595506150428,-0.04757056759672154,0.06462303782367221,-0.06242332876439963,0.008376497742096452
47,47,42243.246609001435,3087.206602988087,19.622415377624492,42374.50702770762,-2755.0014225479295,100.40262011302082,42433.447772980784,24129.481432064105,13.676668190188488,42452.27141258447,-33475.10496373771,9.233083579214767,42697.546844815595,12872.856068864336,34.93036026226544,0.9016854426404696,61.0,38.0,174.0,278.0,452.0,23.0,910.0,895.0,25.0,15.0,10.0,0.6,156.89029586824225,1655.8539272009598,121.0,90.0,31.0,0.743801652892562,61.299812008328566,2230.472955358081,25.0,18.0,7.0,0.72,1492.9360511068546,74.8078064191377,18.0,6.0,12.0,0.3333333333333333,2038.3876253696685,40758.78223854108,90.0,45.0,45.0,0.5,93.12917263622968,13271.079510756144,0.0,0.0,0.0,0.0,42229.0,42252.0,42290.0,42405.0,42415.0,42440.0,42446.0,42464.0,42654.0,42742.0,0.05081949997009891,-0.022250373994956482,0.06187186638511794,-0.06089264328156029,0.007234538484546708
48,48,43078.12330450071,2263.321226373245,9.465727423240812,43243.87669549929,-3879.206798876196,12.739827004320285,43277.67126990158,24710.98049753103,11.699770479169173,43298.33856368293,-33015.298463690146,9.81969073862368,43542.326610576136,12916.323509520396,33.13040026701174,0.9071260252504988,92.0,65.0,146.0,275.0,421.0,27.0,837.0,844.0,27.0,7.0,20.0,0.2592592592592592,165.9217967341691,3490.239124019393,88.0,81.0,7.0,0.9204545454545454,305.3980558968871,453.8865745907392,24.0,16.0,8.0,0.6666666666666666,1652.158625177487,4277.350559729315,18.0,7.0,11.0,0.3888888888888889,2221.7866903926124,43557.665247074474,82.0,39.0,43.0,0.4756097560975609,115.98668163323153,13547.43578407214,0.0,0.0,0.0,0.0,43071.0,43098.0,43163.0,43251.0,43262.0,43285.0,43291.0,43309.0,43505.0,43584.0,0.07330899158315361,-0.07872693355388033,0.06685929056285568,-0.06729567181820599,0.00897985262971617
49,49,43929.39728720114,2875.869005714452,10.0032485944488,44069.753390998565,-2013.689006440021,25.47965400864057,44126.09593080172,21256.62969720317,12.573509389327846,44147.86688163808,-29083.700870446417,9.30378885330344,44395.10949479597,13397.58581940082,34.506950486959056,0.9129172590978089,92.0,72.0,149.0,276.0,425.0,20.0,850.0,848.0,27.0,11.0,16.0,0.4074074074074074,189.74384685844063,3329.7653275262765,91.0,61.0,30.0,0.6703296703296703,86.22658248635098,1174.1104495441236,26.0,17.0,9.0,0.6538461538461539,1249.8577071211907,5684.461360835228,18.0,7.0,11.0,0.3888888888888889,1907.772207470066,36578.71254572772,89.0,48.0,41.0,0.5393258426966292,98.09143608699256,13744.620199289016,0.0,0.0,0.0,0.0,43918.0,43938.0,44010.0,44084.0,44109.0,44135.0,44141.0,44159.0,44350.0,44435.0,0.06597791710311317,-0.04282020819033522,0.05879848898556294,-0.0655959231587566,0.0073215754994416975
50,50,44823.69864360057,3374.6841300755113,10.191861603111915,44973.56177510561,-3130.60441409779,89.37828294974678,45021.67126990158,23707.458751439,12.796311631206706,45043.19319242935,-30589.57011860607,8.876323725469842,45296.2327992967,12807.83770845361,31.851094624102753,0.8846032352939706,67.0,48.0,169.0,275.0,444.0,19.0,896.0,896.0,22.0,7.0,15.0,0.3181818181818182,190.38380895875108,3858.989195629499,120.0,98.0,22.0,0.8166666666666667,103.67850706696566,2462.5783826499555,25.0,17.0,8.0,0.68,1370.440475836397,4463.131945364474,18.0,7.0,11.0,0.3888888888888889,2062.8909560387365,40817.58223503859,79.0,45.0,34.0,0.569620253164557,140.17720083942223,12986.796435965129,0.0,0.0,0.0,0.0,44818.0,44837.0,44885.0,44996.0,45006.0,45030.0,45036.0,45054.0,45253.0,45329.0,0.056415297438368275,-0.03311772851276861,0.05780630012709454,-0.06743772298990189,0.010944642181630744
51,51,45682.69864360057,3838.47118584404,7.94775961552028,45829.10974050647,-2603.8145643348143,107.3323613615105,45883.09593080059,25719.156585394383,12.9204477558654,45902.335441204166,-34203.066621760925,8.836304155488538,46149.53415569637,12565.434180216476,32.36586007746184,0.9105926847204124,57.0,39.0,180.0,274.0,454.0,18.0,859.0,861.0,18.0,6.0,12.0,0.3333333333333333,228.18854026752348,3912.695366131703,122.0,96.0,26.0,0.7868852459016393,78.89037058154167,2719.801694426202,24.0,17.0,7.0,0.7083333333333334,1659.769419722794,2543.6153918070613,18.0,6.0,12.0,0.3333333333333333,2189.57259147653,42718.55448310848,85.0,46.0,39.0,0.5411764705882353,120.9773839492588,13216.118970185758,0.0,0.0,0.0,0.0,45677.0,45695.0,45734.0,45855.0,45866.0,45890.0,45896.0,45914.0,46109.0,46188.0,0.05944776688934482,-0.030297998813788595,0.06453436426703658,-0.0640168501757519,0.009627791782931818
52,52,46555.54796540086,3055.954894595137,9.29742922436543,46719.726017299574,-2827.5559397098136,7.64389620259217,46752.06431968492,21090.717804593463,12.739827004320285,46771.890636952456,-29909.251002058845,9.752830751399374,47017.23181196216,12535.085739652428,33.1260860679032,0.9105388893889058,57.0,36.0,179.0,276.0,455.0,21.0,872.0,876.0,22.0,9.0,13.0,0.4090909090909091,180.81506797791695,3694.529960121051,120.0,116.0,4.0,0.9666666666666668,416.2688657979547,3326.0881079645897,26.0,19.0,7.0,0.7307692307692307,1435.2867416815484,414.6452704048788,18.0,7.0,11.0,0.3888888888888889,1886.4035696295273,36638.39834500557,83.0,41.0,42.0,0.4939759036144578,103.19349487891984,13015.954077538576,0.0,0.0,0.0,0.0,46547.0,46568.0,46604.0,46724.0,46734.0,46759.0,46765.0,46783.0,46978.0,47059.0,0.0591681075848706,-0.14721861376884926,0.06805300582841943,-0.06307090637273645,0.008232372480108874
53,53,47455.12330450071,2912.206166452964,6.537010283606432,47543.52059170187,-2851.5051822121586,33.12355021123273,47649.67126990158,21433.02306433431,10.959689459361318,47672.64232505456,-28605.51574328351,10.021757177391653,47920.53415569612,12572.76186260453,32.42103834623388,0.8969055372019641,77.0,60.0,158.0,276.0,434.0,17.0,900.0,891.0,17.0,7.0,10.0,0.4117647058823529,200.710885446059,3317.756940874898,112.0,32.0,80.0,0.2857142857142857,96.16818171085976,2932.264754719524,26.0,17.0,9.0,0.6538461538461539,1307.7802530910778,5002.677216865707,18.0,8.0,10.0,0.4444444444444444,1916.2007202130449,37457.891272884575,86.0,47.0,39.0,0.5465116279069767,132.53953022094373,13266.74168348604,0.0,0.0,0.0,0.0,47448.0,47465.0,47525.0,47623.0,47634.0,47659.0,47665.0,47683.0,47877.0,47959.0,0.06892056192935087,-0.03372541011349445,0.061017069275089514,-0.06698710617245078,0.010541799142411126
54,54,48319.39728720114,2149.2523526176947,8.798364766471968,48446.42120599881,-2516.492067639037,45.86337721555302,48512.67126990158,24232.83674475485,11.733433565890326,48533.64440661516,-32164.29506883951,9.29079875872349,48784.383477496405,12808.360897059494,31.261219955320342,0.9008885624052652,120.0,97.0,117.0,275.0,392.0,23.0,863.0,863.0,25.0,12.0,13.0,0.48,149.9299929092398,2136.876433592964,58.0,18.0,40.0,0.3103448275862069,115.9926502789744,3137.311424910323,24.0,16.0,8.0,0.6666666666666666,1560.8860925465626,4311.961594546208,18.0,7.0,11.0,0.3888888888888889,2183.600244349912,41789.022351489606,81.0,44.0,37.0,0.5432098765432098,106.43707617379084,12949.369566970574,0.0,0.0,0.0,0.0,48308.0,48331.0,48428.0,48486.0,48497.0,48521.0,48527.0,48545.0,48742.0,48820.0,0.06975913867286532,-0.04609299261086018,0.06441202526090609,-0.06788895076594932,0.0083099685454855
55,55,49206.67126990109,2848.0565717119784,19.267275849593112,49337.164487904454,-2243.0890733468423,78.98692742678575,49395.09593080172,22026.252138777803,13.510922045421458,49416.135351080986,-30538.69729149155,9.012828426214025,49661.42083305145,12956.11411418337,35.41683527052732,0.9105573776941692,78.0,56.0,158.0,277.0,435.0,22.0,886.0,882.0,28.0,18.0,10.0,0.6428571428571429,159.1115509914727,1787.6672838098905,110.0,80.0,30.0,0.7272727272727273,98.15083773292815,1496.4971259721403,26.0,17.0,9.0,0.6538461538461539,1302.4814300277335,3892.385412481573,18.0,7.0,11.0,0.3888888888888889,1974.9744449568268,38279.30647194105,87.0,42.0,45.0,0.4827586206896552,128.4776812215286,13811.843453613725,0.0,0.0,0.0,0.0,49191.0,49213.0,49269.0,49355.0,49378.0,49403.0,49410.0,49427.0,49620.0,49704.0,0.05586671015310279,-0.043756995163139197,0.059133139029798006,-0.06467120801210727,0.00991637462353631
56,56,50109.37076460222,2814.536777979626,10.761087784306351,50258.04118340374,-3051.3967664639376,66.24710042246546,50298.67126990158,22152.30270113311,13.130241216517412,50321.40402953413,-29794.98638944125,8.799035221324816,50568.68483389583,13099.65111374974,34.11739898474713,0.9102109650954332,65.0,42.0,170.0,278.0,448.0,23.0,906.0,904.0,24.0,12.0,12.0,0.5,182.30286557185707,2449.348820421308,112.0,97.0,15.0,0.8660714285714286,126.7324205796319,1656.5835384024303,25.0,16.0,9.0,0.64,1229.7823485011452,5965.780971137488,18.0,7.0,11.0,0.3888888888888889,2002.7188237340472,39570.92857895918,89.0,46.0,43.0,0.5168539325842697,102.0778413530526,13146.02257702609,0.0,0.0,0.0,0.0,50097.0,50120.0,50162.0,50273.0,50283.0,50308.0,50314.0,50332.0,50527.0,50610.0,0.06477188964029829,-0.0415325931955069,0.055514876493550296,-0.06721663831481967,0.007792409161638588
57,57,50969.54796540086,3408.9473379230876,7.754682583731944,51105.90406919828,-2289.6788255233023,30.57558481036868,51164.67126990158,25457.53324442617,11.468222963634863,51185.16989392018,-32915.413726242725,9.622662158960258,51432.10949479597,13134.707414207744,33.38649339822883,0.9205533917084816,127.0,105.0,108.0,276.0,384.0,22.0,859.0,866.0,22.0,9.0,13.0,0.4090909090909091,226.1041204225267,4089.4678279917775,56.0,25.0,31.0,0.4464285714285714,96.5797358398107,1940.0063170293256,25.0,17.0,8.0,0.68,1676.2510660226485,4365.251022541564,18.0,7.0,11.0,0.3888888888888889,2246.962395353361,43764.96585388877,79.0,39.0,40.0,0.4936708860759494,85.35614041410335,13604.184268778265,0.0,0.0,0.0,0.0,50961.0,50983.0,51088.0,51123.0,51149.0,51172.0,51178.0,51196.0,51394.0,51472.0,0.06632666861914077,-0.04218047298303401,0.06584499173303279,-0.06826474714981048,0.006498518598273005
58,58,51821.77494422612,3749.371977267994,9.534016985153691,51951.821948101286,-2140.2253306901616,22.93168860777651,52017.09593080172,21397.558366931484,12.141393951920705,52038.426020206534,-29268.347908584234,9.210888680865178,52286.53415569612,13301.93619090976,34.45710789099649,0.906047055308794,128.0,106.0,110.0,276.0,386.0,22.0,852.0,852.0,23.0,11.0,12.0,0.4782608695652174,213.48817304312277,4001.987977729975,115.0,77.0,38.0,0.6695652173913044,103.97615774926088,1859.4673644606537,26.0,17.0,9.0,0.6538461538461539,1320.812200978783,5248.35976096638,17.0,6.0,11.0,0.3529411764705882,1985.079159811345,38102.265821287496,90.0,50.0,40.0,0.5555555555555556,107.7509155646177,13388.079664986391,0.0,0.0,0.0,0.0,51811.0,51833.0,51939.0,51990.0,52000.0,52026.0,52032.0,52049.0,52243.0,52325.0,0.056939715327653996,-0.048581874187860176,0.061727239076959886,-0.06782340998581382,0.00810039335764159
59,59,52705.732909057035,3174.9078385229695,15.310010121268002,52832.17192431266,-2308.7530982657568,25.47965400864057,52898.67126990158,20498.33674608795,11.590540777736049,52922.18053153743,-28281.72500041769,9.3836771511068,53165.223262075655,12933.81906542952,35.486537276884334,0.9042148084434388,103.0,80.0,134.0,275.0,409.0,23.0,886.0,882.0,24.0,10.0,14.0,0.4166666666666667,198.90096701255092,4102.368776185107,111.0,69.0,42.0,0.6216216216216216,109.71479911746144,2196.532212821992,27.0,17.0,10.0,0.6296296296296297,1248.2200411154845,6627.893028718061,18.0,7.0,11.0,0.3888888888888889,1943.071302766043,37473.760832543005,88.0,44.0,44.0,0.5,112.52521625894012,13594.937034945617,0.0,0.0,0.0,0.0,52696.0,52719.0,52799.0,52839.0,52883.0,52908.0,52915.0,52933.0,53126.0,53208.0,0.06264779235452819,-0.04752123525026337,0.06089372306529718,-0.06870412970698732,0.008700076573647604
60,60,53578.972626300994,2412.1212119995594,8.434457508431466,53730.04118340374,-3735.974256942055,66.24710042246546,53771.67126990158,26620.44711351662,12.487072629494367,53791.77169800972,-33779.51109474599,9.13616772542865,54046.65746019684,12604.844014870969,30.585791271112445,0.8935416632311863,61.0,43.0,173.0,275.0,448.0,18.0,871.0,873.0,18.0,10.0,8.0,0.5555555555555556,159.61687098017893,2098.6844208431967,128.0,113.0,15.0,0.8828125,134.05312312600626,1630.5852354432775,23.0,16.0,7.0,0.6956521739130435,1676.9595044919795,3495.588179736743,18.0,7.0,11.0,0.3888888888888889,2237.686513268901,44665.07984816499,83.0,52.0,31.0,0.6265060240963856,107.81417449050392,12409.428690138466,0.0,0.0,0.0,0.0,53569.0,53587.0,53630.0,53745.0,53756.0,53779.0,53785.0,53803.0,54001.0,54078.0,0.06617282339964269,-0.035881704183831964,0.06299516673559168,-0.06624389876432957,0.008553392200911546
61,61,54427.821948101286,3345.956866376331,14.688585051205305,54558.52059170187,-1651.8796872797443,33.12355021123273,54620.09593080172,21525.685042673544,12.616435127256224,54641.60854230464,-29449.336270160384,9.239942544323862,54891.95881659626,13232.974960507165,34.60496156481429,0.9119425245183584,125.0,94.0,112.0,277.0,389.0,31.0,848.0,848.0,37.0,14.0,23.0,0.3783783783783784,172.5465870741879,3901.267702789976,93.0,58.0,35.0,0.6236559139784946,90.86334925641216,1147.93430840789,26.0,17.0,9.0,0.6538461538461539,1297.203229915255,5326.812609616711,17.0,7.0,10.0,0.4117647058823529,1913.1140000479047,36581.22954178724,91.0,53.0,38.0,0.5824175824175825,96.00261584796492,13004.904375130667,0.0,0.0,0.0,0.0,54415.0,54446.0,54540.0,54593.0,54603.0,54629.0,54635.0,54652.0,54841.0,54929.0,0.05156868243225614,-0.0550060334031001,0.060263040518506956,-0.06496289024980072,0.007254802199390359
62,62,55288.39728720114,3467.5061060871067,17.926448266040982,55453.2739825413,-2954.962761284395,7.208579274651968,55481.67126990158,20731.79223224506,13.450004894809098,55504.38610224232,-29363.569281257947,8.942001744671044,55751.26017299569,13696.576284782132,36.80054302126262,0.9073469612355156,167.0,140.0,71.0,279.0,350.0,27.0,861.0,862.0,27.0,11.0,16.0,0.4074074074074074,167.4269371511565,4601.2575202129865,11.0,9.0,2.0,0.8181818181818182,481.25958879730354,5290.562685535156,26.0,17.0,9.0,0.6538461538461539,1235.6560411605287,7124.78775203067,18.0,7.0,11.0,0.3888888888888889,1935.4242996624096,37002.43842328145,97.0,52.0,45.0,0.5360824742268041,116.30851450523964,13791.078151341808,0.0,0.0,0.0,0.0,55277.0,55304.0,55444.0,55455.0,55466.0,55491.0,55497.0,55515.0,55701.0,55794.0,0.0482845399629559,-0.16286485741976683,0.05960198844934684,-0.06591243323057949,0.008491794743951207
63,63,56120.841840825626,3291.374553588301,8.410707571526878,56274.34253980316,-3409.560052652915,56.05523881894181,56314.67126990158,26853.61194218269,12.724502121084583,56334.45732546506,-35819.85053639366,9.0087202387544,56581.53415569644,12926.62913023829,32.6583790607408,0.9202722874997838,65.0,44.0,171.0,274.0,445.0,21.0,833.0,833.0,22.0,12.0,10.0,0.5454545454545454,196.0162420109915,3168.4684267713455,125.0,112.0,13.0,0.896,185.93779826656703,53.825058408942255,24.0,17.0,7.0,0.7083333333333334,1766.6472283283315,2978.737343107437,18.0,6.0,12.0,0.3333333333333333,2331.115149170253,45976.24031164027,83.0,43.0,40.0,0.5180722891566265,95.59186318510686,13230.906256622784,0.0,0.0,0.0,0.0,56110.0,56131.0,56175.0,56287.0,56299.0,56322.0,56328.0,56346.0,56543.0,56620.0,0.05955452313906114,-0.054534249403201535,0.06578806724890568,-0.0650788630958076,0.007394956737909035
64,64,56924.69864360057,2575.022044443155,7.146735599980678,57082.7672007033,-3152.230943450873,58.60320421987331,57123.67126990158,24523.153496147745,12.905984795053364,57144.53963132134,-31523.921317152784,8.738942086371571,57388.69478786644,12834.71719732138,32.8636893454304,0.9158550653212516,88.0,72.0,148.0,274.0,422.0,16.0,805.0,809.0,17.0,6.0,11.0,0.3529411764705882,161.62179900045106,3032.989712801962,110.0,96.0,14.0,0.8727272727272727,145.54432269329195,848.5534364652583,25.0,17.0,8.0,0.68,1498.283667836093,4767.880266717368,17.0,7.0,10.0,0.4117647058823529,2105.063749842379,40430.887517597555,84.0,43.0,41.0,0.5119047619047619,119.4028599273648,13857.868055928397,0.0,0.0,0.0,0.0,56919.0,56935.0,57007.0,57096.0,57108.0,57132.0,57138.0,57155.0,57353.0,57429.0,0.06276520985489331,-0.046171846322261775,0.06109669655949644,-0.06677670993605013,0.009303115767309958
65,65,57739.54796540086,2829.7629874886497,10.09062738017007,57902.027373699,-2613.2304713425137,7.341457382061207,57941.30135639943,30759.48109196616,10.191861603456228,57957.60271279886,-29449.43617423692,12.422322222969283,58203.68483389583,13581.23821416074,34.86323208001406,0.887581980000333,59.0,33.0,181.0,274.0,455.0,26.0,814.0,824.0,26.0,9.0,17.0,0.3461538461538461,161.73994192015732,3636.3483306979297,123.0,113.0,10.0,0.91869918699187,272.2502019212703,1266.1528490210344,26.0,19.0,7.0,0.7307692307692307,1524.0951675646647,907.582780693202,19.0,5.0,14.0,0.2631578947368421,1986.0673049803704,38871.7208316037,86.0,45.0,41.0,0.5232558139534884,122.010907965917,14466.996722352273,0.0,0.0,0.0,0.0,57731.0,57757.0,57790.0,57912.0,57922.0,57947.0,57953.0,57971.0,58159.0,58245.0,0.05715670981466114,-0.10418147381444133,0.0495487931999845,-0.06743990931540585,0.008983783808364393
66,66,58580.821948101286,3397.4361124699344,11.561983781639892,58718.31516610417,-2542.8722939300437,73.89099662505764,58776.09593080172,23578.136777891228,12.792178403567984,58796.49094888922,-31361.741145576172,9.523925520454029,59040.68483389583,13086.35193885118,34.23189386904835,0.9060904021230722,109.0,86.0,131.0,274.0,405.0,23.0,840.0,828.0,24.0,13.0,11.0,0.5416666666666666,190.9753775408871,3106.3889603082716,119.0,87.0,32.0,0.7310924369747899,92.68750623030036,1191.5961772219307,26.0,18.0,8.0,0.6923076923076923,1440.307589797094,1864.4636642341084,18.0,6.0,12.0,0.3333333333333333,2042.928463124425,40927.43468048432,89.0,46.0,43.0,0.5168539325842697,132.61932700915654,13731.70891022506,0.0,0.0,0.0,0.0,58568.0,58591.0,58677.0,58749.0,58759.0,58784.0,58790.0,58808.0,58998.0,59082.0,0.05621161700140054,-0.036449925720434255,0.061086573691761896,-0.06514078582695644,0.010134170900251585
67,67,59406.54796540086,3041.3826872435757,7.5901422490934305,59554.05474739799,-2535.06758771963,35.6715156120968,59609.09593080172,24791.43434635707,12.414316978567252,59628.62763589895,-33424.59471925753,9.43648896671544,59871.80265911762,12750.83486427944,34.69130666451114,0.916550384840473,148.0,129.0,94.0,275.0,369.0,19.0,827.0,833.0,19.0,9.0,10.0,0.4736842105263157,180.64456760081276,3455.363700835556,90.0,64.0,26.0,0.7111111111111111,116.99311906979264,2268.290275918368,24.0,17.0,7.0,0.7083333333333334,1589.9384045317204,3520.066106275952,18.0,7.0,11.0,0.3888888888888889,2156.9440797493075,41521.17586836331,88.0,44.0,44.0,0.5,97.78454604966464,13211.410106573729,0.0,0.0,0.0,0.0,59398.0,59417.0,59546.0,59580.0,59592.0,59616.0,59622.0,59640.0,59832.0,59915.0,0.059395540179303145,-0.04614990134248511,0.06413257023853285,-0.06453164497179639,0.00766887400632888
68,68,60231.119064150385,3011.4300434970896,14.317276717428548,60375.45203459914,-2076.732231701731,15.28779240518434,60426.13229237457,22785.560163347665,12.739827004320285,60444.80484734131,-31567.27137839843,9.474487541550593,60689.68483389583,13545.136479362214,35.69791829563512,0.9155184931346884,93.0,64.0,148.0,275.0,423.0,29.0,824.0,824.0,30.0,17.0,13.0,0.5666666666666667,137.76741485037073,2675.5863809635825,74.0,66.0,8.0,0.8918918918918919,89.17404734031003,1845.1807358821736,26.0,19.0,7.0,0.7307692307692307,1538.3590798191915,787.3913419601704,17.0,6.0,11.0,0.3529411764705882,1978.302463246909,37568.646931858326,92.0,50.0,42.0,0.5434782608695652,95.81740955257246,14000.514602653144,0.0,0.0,0.0,0.0,60215.0,60244.0,60308.0,60384.0,60408.0,60433.0,60439.0,60456.0,60644.0,60731.0,0.045748170424170065,-0.04293959807578966,0.06751464825928488,-0.0626694160395715,0.007073934596270979
69,69,61050.54796540086,2506.374588221583,15.28779240518434,61199.178051898714,-1664.125672432156,22.93168860777651,61250.67126990158,21286.399189168904,12.337260097028745,61273.403814483194,-28818.4723762893,9.252638826019366,61517.10949479597,13432.37747311386,34.59251930901575,0.9010171476193372,114.0,79.0,128.0,273.0,401.0,35.0,820.0,818.0,36.0,9.0,27.0,0.25,150.61408153986278,3596.0062251780587,80.0,65.0,15.0,0.8125,103.23986635772948,1060.458488079261,26.0,17.0,9.0,0.6538461538461539,1287.9509671543703,6288.809732896316,18.0,7.0,11.0,0.3888888888888889,1969.069397018273,37970.55345942081,86.0,44.0,42.0,0.5116279069767442,135.54156417247378,14299.84689680481,0.0,0.0,0.0,0.0,61042.0,61077.0,61156.0,61212.0,61235.0,61260.0,61266.0,61284.0,61478.0,61557.0,0.06009240687631298,-0.06203850350246815,0.06050581668174835,-0.06832664033359191,0.010090660751886455
70,70,61859.09593080167,3205.3885487512725,16.03680629317304,61995.80838410705,-3215.7063742297564,111.71547761264851,62050.246609001435,25359.795382097785,11.629549358084065,62071.55845259513,-32297.10044092988,8.336597480526764,62312.26017299569,12353.940275777068,32.79644695808944,0.9057944569094653,75.0,49.0,165.0,273.0,438.0,26.0,806.0,800.0,27.0,17.0,10.0,0.6296296296296297,127.60154947255324,947.7300257692476,113.0,85.0,28.0,0.7522123893805309,102.51197844213084,2575.743406356515,23.0,14.0,9.0,0.6086956521739131,1586.0362707194145,8353.924824587102,17.0,7.0,10.0,0.4117647058823529,2254.4245344533533,43659.607979896246,85.0,41.0,44.0,0.4823529411764706,107.49782114685634,13189.980583649463,0.0,0.0,0.0,0.0,61842.0,61868.0,61917.0,62024.0,62036.0,62059.0,62065.0,62082.0,62272.0,62355.0,0.03980844990610051,-0.031878525745897765,0.06254136702692181,-0.06980269137709766,0.008701500796278917
71,71,62629.54796540086,2038.1574019481611,8.86892030444228,62789.04118340374,-3570.30249128049,66.24710042224413,62831.095930801675,24879.7251638956,13.488515814196193,62850.9504463177,-32068.664709374843,8.998267227936678,63093.10949479774,12695.795019042413,32.38902629696457,0.9051263173222466,90.0,67.0,152.0,270.0,422.0,23.0,773.0,780.0,23.0,9.0,14.0,0.391304347826087,142.4555519382255,2559.790421035075,129.0,114.0,15.0,0.8837209302325582,160.30048422784378,1429.7258318400131,25.0,17.0,8.0,0.68,1473.7357759663234,3105.991776012046,18.0,6.0,12.0,0.3333333333333333,2047.5834492618671,40230.465085742435,82.0,42.0,40.0,0.5121951219512195,112.50305095073216,13629.518514424572,0.0,0.0,0.0,0.0,62621.0,62644.0,62711.0,62804.0,62814.0,62839.0,62845.0,62863.0,63051.0,63133.0,0.06989428382815782,-0.04489829212492076,0.059234407384248206,-0.06384997528953189,0.008861441979961785
72,72,63435.80038779582,2732.614633414568,10.964453064415109,63593.45203459914,-3236.2238632464305,15.28779240518434,63626.67126990158,20101.77914391848,13.042912691389336,63649.73223040942,-28513.46281330783,9.162198877743265,63892.10949479597,13545.523910277769,34.33430827807535,0.9063691453305224,126.0,98.0,114.0,272.0,386.0,28.0,805.0,796.0,30.0,17.0,13.0,0.5666666666666667,132.2054166180436,2221.484747188258,109.0,100.0,9.0,0.9174311926605504,337.98025723124124,1903.0176157781625,26.0,16.0,10.0,0.6153846153846154,1220.3274182636867,7005.061295156007,17.0,7.0,10.0,0.4117647058823529,1854.1130499999745,35653.05754408033,87.0,45.0,42.0,0.5172413793103449,136.2084092866309,14015.688207186837,0.0,0.0,0.0,0.0,63420.0,63448.0,63546.0,63602.0,63611.0,63636.0,63643.0,63660.0,63850.0,63932.0,0.04838055648294795,-0.10443661239559461,0.06070743338322271,-0.06502588135786233,0.010055602883199058
73,73,64252.00822233776,2311.2296948125977,10.465300352183013,64412.30135639943,-2709.1083589894533,10.191861603456228,64444.67126990158,22950.458269448227,11.90763750169912,64465.78746399144,-32006.409451727573,9.178760481258813,64711.53415569612,13070.524803946497,33.961227508713655,0.9189860679769362,130.0,100.0,110.0,274.0,384.0,30.0,819.0,818.0,30.0,16.0,14.0,0.5333333333333333,136.9629597021931,2071.995564706775,53.0,47.0,6.0,0.8867924528301887,333.0550215980219,1579.836880620015,24.0,16.0,8.0,0.6666666666666666,1524.1007544231277,5019.386838498608,17.0,7.0,10.0,0.4117647058823529,2129.488490330151,41147.72486098511,87.0,48.0,39.0,0.5517241379310345,114.6246838419697,13317.312423932965,0.0,0.0,0.0,0.0,64236.0,64266.0,64366.0,64418.0,64429.0,64453.0,64459.0,64476.0,64668.0,64750.0,0.05925977846753934,-0.12293898119389268,0.06640829287718489,-0.06653318903333626,0.008769707839685219
74,74,65031.273982700426,2341.9672715848765,7.64389620259217,65182.986436005755,-3154.065096869379,101.91861603440894,65234.09593080172,24714.844267842112,13.130215929734318,65253.54913825749,-32847.66376589204,8.6667445965944,65497.383477496405,12604.526043958438,30.25406033443705,0.8973813260831984,56.0,38.0,182.0,268.0,450.0,18.0,779.0,789.0,18.0,4.0,14.0,0.2222222222222222,126.51854311698229,2018.199055342513,130.0,106.0,24.0,0.8153846153846154,111.86762601407057,2326.344144616847,24.0,17.0,7.0,0.7083333333333334,1570.6110882976711,2524.579227469758,18.0,7.0,11.0,0.3888888888888889,2113.8115511620695,41016.0919712578,75.0,38.0,37.0,0.5066666666666667,140.22618081833176,13827.833858000477,0.0,0.0,0.0,0.0,65027.0,65045.0,65083.0,65206.0,65217.0,65241.0,65247.0,65265.0,65459.0,65533.0,0.05402233611546738,-0.0354677606765652,0.06354930143506032,-0.06435196019501953,0.011125065736648189
75,75,66697.15084538818,2422.034120940591,13.477918802730182,66838.54796540085,-1978.7486060479437,15.28779240518434,66886.67126990156,20197.915284846757,11.792589007878744,66910.03165547817,-29145.483129221073,8.960570608663918,67149.87848717155,12992.380981602437,36.83217089988646,0.9164193905132112,151.0,119.0,90.0,275.0,365.0,32.0,1665.0,1653.0,36.0,18.0,18.0,0.5,85.30441047292909,1794.1685862157976,20.0,10.0,10.0,0.5,123.72266235745182,1889.3932871845036,26.0,16.0,10.0,0.6153846153846154,1227.2188144799009,7467.326662980148,17.0,7.0,10.0,0.4117647058823529,1977.7333074011256,37763.389870578954,91.0,45.0,46.0,0.4945054945054945,110.63416454253984,13701.708464781255,0.0,0.0,0.0,0.0,66679.0,66711.0,66830.0,66848.0,66871.0,66897.0,66903.0,66920.0,67107.0,67195.0,0.03522015224120845,-0.06252571043097635,0.06075967728217016,-0.06785728336128567,0.00851531098874031
76,76,67513.43909511335,1162.1262806264522,6.405446996561084,67667.34253980315,-3920.9620921499313,56.055238819009254,67707.67126990156,26056.160127421645,13.268099853184092,67727.47608843191,-34766.70681529878,8.733739850754938,67976.80813839656,12304.841259403864,30.24396328932827,0.8915764362587643,60.0,44.0,173.0,273.0,446.0,16.0,819.0,821.0,18.0,9.0,9.0,0.5,86.37077682413032,1113.3491556665515,132.0,118.0,14.0,0.8939393939393939,213.0683859330857,421.5026238814413,23.0,16.0,7.0,0.6956521739130435,1686.677484603801,3527.3426944992634,18.0,6.0,12.0,0.3333333333333333,2239.6094995634,43801.40043051022,84.0,50.0,34.0,0.5952380952380952,97.96334352316032,11548.114914332024,0.0,0.0,0.0,0.0,67505.0,67521.0,67565.0,67680.0,67692.0,67715.0,67721.0,67738.0,67928.0,68011.0,0.07432133518017642,-0.05434084312104548,0.06473238866953127,-0.06441822377545059,0.007961365893143295
77,77,68344.87669549929,2062.1871520892437,12.739827004320285,68497.76895853384,-3542.9773057364546,7.643895983694234,68528.09593080172,21164.119118685776,13.762541430783616,68548.95252713053,-30949.074673417173,9.426587511233956,68798.2327992967,13307.69251004524,33.619008046369416,0.911396626588334,172.0,138.0,70.0,271.0,341.0,34.0,833.0,820.0,34.0,27.0,7.0,0.7941176470588235,108.10247956954294,1867.251787202688,11.0,8.0,3.0,0.7272727272727273,510.9105774999424,4170.572152066318,26.0,18.0,8.0,0.6923076923076923,1299.2458937495946,3650.626120366483,18.0,7.0,11.0,0.3888888888888889,1936.449283056524,37040.10061971282,87.0,53.0,34.0,0.6091954022988506,103.72731794352832,13100.850923384818,0.0,0.0,0.0,0.0,68318.0,68352.0,68490.0,68501.0,68511.0,68536.0,68542.0,68560.0,68747.0,68831.0,0.0524212748876949,-0.14420373979610995,0.06138908434901465,-0.06256889110548375,0.0077945382240557715
78,78,69162.972626301,2763.1408366604023,17.835757806041,69300.39728720114,-1600.1121798034874,20.383723206912453,69360.67126990156,19897.49266909543,11.483967662488476,69385.08224000601,-27163.22945457125,8.80678181292269,69623.97147594101,13316.445829042246,37.60607379333676,0.9135143396874044,136.0,101.0,106.0,275.0,381.0,35.0,813.0,833.0,36.0,10.0,26.0,0.2777777777777778,161.63959817036587,4334.8084664610715,49.0,13.0,36.0,0.2653061224489796,110.0707580806052,1640.2080468577856,26.0,16.0,10.0,0.6153846153846154,1161.8219873352407,9267.864286533466,18.0,8.0,10.0,0.4444444444444444,1870.5662490368793,35754.291092549,95.0,48.0,47.0,0.5052631578947369,118.35781361768252,14054.398651836102,0.0,0.0,0.0,0.0,69153.0,69188.0,69289.0,69306.0,69345.0,69371.0,69377.0,69395.0,69585.0,69670.0,0.058498501424823254,-0.06878940081196257,0.05839037142301703,-0.06886391222977668,0.008888093349920165
79,79,69986.92512986291,2378.807262108355,13.75745625559579,70139.60271279886,-2312.4663812728877,20.383723206912453,70178.67126990156,24808.87021415485,12.124443388719602,70199.23803656697,-34057.72090055944,9.18399004828401,70444.95881659626,13514.739980150538,33.98968573416318,0.9189437674029868,130.0,98.0,111.0,272.0,383.0,32.0,828.0,818.0,32.0,18.0,14.0,0.5625,129.33082416311518,2086.4330188584863,53.0,42.0,11.0,0.7924528301886793,248.0959335635195,383.8190888017235,25.0,17.0,8.0,0.68,1651.522878330656,4715.696710930106,18.0,7.0,11.0,0.3888888888888889,2271.7423621798125,43497.73916319551,89.0,51.0,38.0,0.5730337078651685,115.29969345685215,13504.275054923404,0.0,0.0,0.0,0.0,69969.0,70001.0,70099.0,70151.0,70163.0,70187.0,70193.0,70210.0,70397.0,70482.0,0.054367928929428384,-0.1072862877370594,0.06656985441394142,-0.0667027123985415,0.008531403018200566
80,80,70793.7827420331,2180.0660562366033,12.991583561198391,70929.90406919828,-2025.6033907099536,30.57558481036868,70987.09593080172,21594.068054547897,12.7190280494924,71007.50254258275,-31737.959603639567,9.145472824313629,71249.68483389584,12953.585783281238,35.24076399242552,0.9209516336750764,145.0,120.0,95.0,273.0,368.0,25.0,804.0,808.0,27.0,17.0,10.0,0.6296296296296297,123.45754878669716,2021.0686855301371,94.0,64.0,30.0,0.6808510638297872,114.09650855648852,1313.8187365287386,25.0,17.0,8.0,0.68,1386.152723885622,2788.788131988188,17.0,7.0,10.0,0.4117647058823529,2032.5801104166385,38423.48607768037,89.0,47.0,42.0,0.5280898876404494,98.59272470068366,13611.856649951484,0.0,0.0,0.0,0.0,70778.0,70803.0,70923.0,70948.0,70970.0,70995.0,71001.0,71018.0,71205.0,71291.0,0.056630187160392295,-0.056327170994959104,0.06419136590586443,-0.06404255773844868,0.007611230307204512
81,81,71614.82194810128,2809.9647579324915,16.072176790710543,71741.79457440229,-1666.6211425364584,40.767446413824906,71809.24660900142,19611.263774441937,11.759167701472512,71834.5118504085,-26442.770033640136,8.815054904902897,72076.2601729957,13529.58962287866,36.15593654651766,0.912437852290085,115.0,83.0,127.0,275.0,402.0,32.0,819.0,823.0,32.0,13.0,19.0,0.40625,141.10069433192766,3581.7111829872547,92.0,49.0,43.0,0.532608695652174,94.99307666071408,1475.1921312211034,26.0,15.0,11.0,0.5769230769230769,1104.9613696994277,11046.075253609044,17.0,8.0,9.0,0.4705882352941176,1752.6650524581196,33021.634303105355,95.0,51.0,44.0,0.5368421052631579,108.97178539813156,14352.749708233274,0.0,0.0,0.0,0.0,71602.0,71634.0,71717.0,71751.0,71795.0,71820.0,71827.0,71844.0,72027.0,72119.0,0.05021439999686913,-0.0569974028507418,0.056343200642655716,-0.06628144669519882,0.008054330429495013
82,82,72437.10649772307,2546.462814819218,9.1838438721695,72597.87669549929,-3220.6055130168743,12.739827004320285,72631.67126990156,24544.713651147405,11.73909527368566,72652.59273687318,-32905.57348985978,9.941701575950296,72901.80813839656,12903.337684237618,32.67889181034307,0.9079968917362128,109.0,85.0,132.0,272.0,404.0,24.0,826.0,822.0,24.0,14.0,10.0,0.5833333333333334,153.51196131196048,2833.6015104306225,74.0,67.0,7.0,0.9054054054054054,324.5379075881317,1104.8014465635083,24.0,16.0,8.0,0.6666666666666666,1619.7228748448813,4075.9804369841904,18.0,7.0,11.0,0.3888888888888889,2148.7221445084765,42637.23680006995,91.0,55.0,36.0,0.6043956043956044,129.59250890405346,12488.63453791703,0.0,0.0,0.0,0.0,72423.0,72447.0,72532.0,72605.0,72616.0,72640.0,72646.0,72664.0,72849.0,72936.0,0.06028439151696736,-0.1007692206563118,0.0659907016177051,-0.06529964126504677,0.010043332359065538
83,83,73236.71437324664,2836.686588779191,9.547226231449288,73388.75339099858,-2407.915306268103,25.47965400864057,73432.09593080172,23949.14787062937,12.516331169964836,73452.2165044783,-33164.57759409014,9.313197311745744,73692.22544932288,12825.550985285465,33.93695034555591,0.9195232978173216,93.0,70.0,147.0,271.0,418.0,23.0,798.0,800.0,24.0,14.0,10.0,0.5833333333333334,156.02702745601255,2933.6674987070305,89.0,74.0,15.0,0.8314606741573034,108.44919893987826,1594.2010583655642,25.0,17.0,8.0,0.68,1541.3757313500826,3897.292372697015,17.0,6.0,11.0,0.3529411764705882,2160.1038944349075,41595.16055437478,85.0,42.0,43.0,0.4941176470588235,109.82214827952023,13450.45895240267,0.0,0.0,0.0,0.0,73223.0,73246.0,73316.0,73403.0,73415.0,73440.0,73446.0,73463.0,73651.0,73734.0,0.055003266160313126,-0.04503862683939568,0.06436035802511315,-0.06513286316723159,0.008562762598309992
84,84,74078.39728720114,2559.4907907631105,13.158112564278555,74189.39728720114,-1854.374821827643,20.383723206912453,74276.67126990156,19986.44682644485,11.66976145239146,74299.28703588452,-28297.984824767045,8.910729836296458,74543.10949479598,13319.057353413227,34.47256849143377,0.9082466914553012,107.0,76.0,136.0,273.0,409.0,31.0,840.0,845.0,32.0,11.0,21.0,0.34375,145.3772963607698,3058.7891250129705,88.0,27.0,61.0,0.3068181818181818,109.60140850239556,1579.282095274939,26.0,17.0,9.0,0.6538461538461539,1274.9633383800185,5632.55038218954,18.0,7.0,11.0,0.3888888888888889,1974.04704006807,37225.30849094638,89.0,48.0,41.0,0.5393258426966292,131.28886800393812,13731.697656279935,0.0,0.0,0.0,0.0,74067.0,74098.0,74174.0,74194.0,74261.0,74286.0,74292.0,74310.0,74497.0,74583.0,0.05679930433249407,-0.05910423675531472,0.06379139571187133,-0.06975927976116301,0.009857219210058676
85,85,74994.94352646268,2856.397337478728,16.710628672654828,75126.23304500719,-2480.4289615235275,101.36215007993184,75181.67126990156,22278.36937514027,12.739030582479549,75203.58238144075,-30413.7599376622,8.697547395361287,75448.68483389584,12523.889494304343,34.37547398041454,0.8979938940443343,65.0,43.0,172.0,275.0,447.0,22.0,917.0,905.0,25.0,18.0,7.0,0.72,128.37614243390965,1237.1629076157856,126.0,96.0,30.0,0.7619047619047619,104.85033252528824,1420.4135246824603,25.0,16.0,9.0,0.64,1316.3764239793934,4948.788934249921,18.0,7.0,11.0,0.3888888888888889,2003.286387759216,38915.07340139644,90.0,48.0,42.0,0.5333333333333333,125.78729889447897,12673.242456663196,0.0,0.0,0.0,0.0,74978.0,75000.0,75043.0,75155.0,75166.0,75191.0,75197.0,75215.0,75406.0,75490.0,0.04494337701183552,-0.04227104833548111,0.059087646937405404,-0.06586776484937304,0.010043788629058484
86,86,75843.2231910101,2117.4276270039927,11.770773634960875,75996.21923530243,-2711.728524747575,43.31541181466571,76037.09593080166,26329.185384482054,13.13824759322836,76056.13388500008,-35513.25825489369,9.394992419853477,76302.10949479618,13203.09068287138,33.10894701039873,0.9211371224323778,107.0,83.0,132.0,275.0,407.0,24.0,851.0,855.0,24.0,15.0,9.0,0.625,130.39796297057572,2345.171908736123,73.0,61.0,12.0,0.8356164383561644,196.28753229941825,556.452347113644,24.0,17.0,7.0,0.7083333333333334,1662.999349933286,2196.9952096705165,17.0,6.0,11.0,0.3529411764705882,2228.579387359947,43165.21704350785,83.0,43.0,40.0,0.5180722891566265,116.8443689888439,13497.995199292887,0.0,0.0,0.0,0.0,75828.0,75852.0,75935.0,76006.0,76020.0,76044.0,76050.0,76067.0,76260.0,76342.0,0.06158319713391075,-0.07238465447705165,0.06316182311183192,-0.0627534474973963,0.00884977402604894
87,87,76685.06834713362,2820.903812035897,10.877826991494294,76816.79457432758,-1866.8385462317185,40.767446413824906,76878.09593080172,22256.770006374853,12.98788053661658,76898.76513596323,-31303.617364857877,9.360755636974604,77138.14386339861,13250.561384365195,36.83911750966493,0.9213971335393824,124.0,93.0,116.0,273.0,389.0,31.0,840.0,841.0,31.0,15.0,16.0,0.4838709677419355,99.29810683846866,2661.4163730201985,108.0,74.0,34.0,0.6851851851851852,92.64332974374987,1402.8577102647175,26.0,18.0,8.0,0.6923076923076923,1392.3722227715762,2907.7323217692683,18.0,7.0,11.0,0.3888888888888889,1985.8857584588477,38363.081416968445,91.0,45.0,46.0,0.4945054945054945,135.6069443252016,14348.270321336428,0.0,0.0,0.0,0.0,76670.0,76701.0,76794.0,76836.0,76861.0,76886.0,76892.0,76910.0,77095.0,77183.0,0.03520081273767482,-0.049625785759970405,0.0625594918927036,-0.06343949759264073,0.010234052761357644
88,88,77551.82194810128,2984.884103116576,10.23937816578862,77713.45203460027,-3046.7777053910268,15.287792405184318,77746.67126990156,20499.78918036408,13.161604685808786,77769.53838943754,-29871.3984305766,9.232526998978834,78012.2601729957,13201.276283971572,34.9248212462974,0.913231046457338,128.0,99.0,113.0,275.0,388.0,29.0,865.0,869.0,29.0,13.0,16.0,0.4482758620689655,159.20598498173234,3480.558386646744,110.0,101.0,9.0,0.9181818181818182,328.86354967660736,2285.179034697666,26.0,17.0,9.0,0.6538461538461539,1230.5343629972854,6251.322321227088,18.0,8.0,10.0,0.4444444444444444,1911.2892811706804,36729.29965439897,90.0,47.0,43.0,0.5222222222222223,105.95118677058248,13845.081461526031,0.0,0.0,0.0,0.0,77539.0,77568.0,77667.0,77722.0,77731.0,77756.0,77762.0,77780.0,77966.0,78055.0,0.05333740925334496,-0.10793815022825916,0.060026683795166264,-0.06398392380633475,0.008025829055575778
89,89,78412.49058637384,2527.027815134148,9.477664894462263,78568.64389620257,-3012.6586295390807,45.86337721555302,78607.67126990156,26216.90563213042,12.659553720816906,78627.92527955955,-34564.56694427301,9.40890241535354,78874.95881659626,12787.133599927703,33.13173536097483,0.917509597421433,126.0,102.0,114.0,273.0,387.0,24.0,863.0,861.0,24.0,13.0,11.0,0.5416666666666666,164.42474183814332,3140.449358104026,128.0,117.0,11.0,0.9140625,246.23966954207975,1004.6229561654228,24.0,17.0,7.0,0.7083333333333334,1658.6312670342609,3182.3683637600197,18.0,7.0,11.0,0.3888888888888889,2239.6789718452483,44340.16645735636,87.0,49.0,38.0,0.5632183908045977,95.01060297460262,12733.363512538175,0.0,0.0,0.0,0.0,78399.0,78423.0,78525.0,78579.0,78592.0,78615.0,78621.0,78639.0,78828.0,78912.0,0.06506645508744223,-0.08173500546251833,0.06326571450909549,-0.0647969631864964,0.007430172073523952
90,90,79246.972626301,2344.3113611631866,9.291534528634283,79404.61652250358,-2800.57157547506,63.69913502096392,79447.09593080166,24225.40545017468,13.31654558002112,79467.02889300056,-32704.73073869951,8.838552725083234,79712.109494796,13277.0094213116,33.74965535144147,0.9098128888149462,114.0,90.0,127.0,274.0,401.0,24.0,833.0,839.0,25.0,10.0,15.0,0.4,154.6465600729522,2458.005359847105,123.0,109.0,14.0,0.8861788617886179,143.32067210328822,1339.2158339900004,25.0,17.0,8.0,0.68,1478.1452624331423,2933.37929441084,17.0,6.0,11.0,0.3529411764705882,2100.2316271684754,40845.08394022069,88.0,46.0,42.0,0.5227272727272727,96.96475474286471,13225.190872174366,0.0,0.0,0.0,0.0,79237.0,79261.0,79351.0,79419.0,79430.0,79455.0,79461.0,79478.0,79670.0,79752.0,0.0659667323355122,-0.05117550765649572,0.06101632707338172,-0.06421797641291299,0.0073032074969549745
91,91,80106.52059170186,2623.3612121102065,20.39226586966284,80212.19186160344,-1977.5898913355604,61.15116962073736,80294.09593080172,22044.51590619181,12.492028009128912,80315.60032352975,-29239.622381747424,9.879721337784837,80556.83551209555,13151.76501914043,35.61881997064775,0.9220450605906108,90.0,63.0,149.0,274.0,423.0,27.0,857.0,847.0,33.0,22.0,11.0,0.6666666666666666,153.43776784363612,1361.1262956936466,114.0,58.0,56.0,0.5087719298245614,125.42016968538732,1461.2740292448077,27.0,18.0,9.0,0.6666666666666666,1305.793553075363,3955.698053459106,18.0,7.0,11.0,0.3888888888888889,1893.438356806493,37234.11647177985,88.0,44.0,44.0,0.5,103.23565236789632,13815.994887215467,0.0,0.0,0.0,0.0,80088.0,80115.0,80178.0,80229.0,80277.0,80303.0,80309.0,80327.0,80514.0,80601.0,0.05848899767798742,-0.0634207174272544,0.05923439456017244,-0.06475591004856666,0.007849566367529547
92,92,80960.82194810128,3126.8361421025265,12.399820337180705,81128.12330450071,-4027.995565223563,12.739827004320285,81154.24660900142,19851.673441001432,13.443986586515775,81179.53206185036,-28190.169857914356,8.69284324522109,81418.89378410514,13474.263226017703,36.894996063255824,0.9090384319987598,168.0,137.0,73.0,275.0,348.0,31.0,856.0,861.0,31.0,13.0,18.0,0.4193548387096774,140.38531484455993,3590.9732610071674,34.0,31.0,3.0,0.9117647058823528,515.4037942087986,4768.183852076943,26.0,14.0,12.0,0.5384615384615384,1117.5226921767323,12482.082495519964,18.0,8.0,10.0,0.4444444444444444,1834.6296939163617,34736.48564911506,91.0,45.0,46.0,0.4945054945054945,116.41912112133905,14177.74673653604,0.0,0.0,0.0,0.0,80948.0,80979.0,81116.0,81131.0,81140.0,81166.0,81172.0,81189.0,81375.0,81464.0,0.04489692086972071,-0.1279554025974188,0.05629362660523183,-0.06508047674644613,0.008640110347298486
93,93,81810.09273859976,2857.1100068035375,11.295652804658763,81911.027373699,-2154.369606856993,17.8357578060484,82006.82194810128,30852.340028224226,11.801667701019191,82022.44166934249,-39133.448345496,10.171246162204254,82272.38347749642,13720.708890794387,34.60499924152363,0.9083659254013672,103.0,78.0,137.0,273.0,410.0,25.0,853.0,853.0,25.0,15.0,10.0,0.6,162.29242893928716,3165.2298862659236,22.0,12.0,10.0,0.5454545454545454,138.19567236973913,2325.474050370979,25.0,20.0,5.0,0.8,1922.6221860380256,2546.757197982022,18.0,5.0,13.0,0.2777777777777778,2293.974616982047,45520.80602286085,89.0,52.0,37.0,0.5842696629213483,114.75351674303712,13298.872648911904,0.0,0.0,0.0,0.0,81795.0,81820.0,81898.0,81921.0,81987.0,82012.0,82017.0,82035.0,82222.0,82308.0,0.05680300322802615,-0.06414668677551232,0.06231689992652678,-0.05861928130455869,0.00836352681602541
94,94,82614.12330450071,2368.440632688906,12.739827004320263,82748.54796540085,-1842.4798236840668,15.28779240518434,82817.09593080172,24865.850315692685,11.518776459625096,82836.66387862948,-32150.43885791878,9.408101662439384,83081.53415569612,13773.673640043731,34.9508057058196,0.9131212389490126,133.0,104.0,108.0,272.0,380.0,29.0,802.0,809.0,30.0,7.0,23.0,0.2333333333333333,183.55389907312397,3872.906628030219,52.0,12.0,40.0,0.2307692307692307,112.87968611756584,1957.938135171823,24.0,17.0,7.0,0.7083333333333334,1602.6983071398138,3795.659821937268,18.0,7.0,11.0,0.3888888888888889,2186.133444967616,41308.737042331784,87.0,48.0,39.0,0.5517241379310345,140.9165781592663,14673.117109542343,0.0,0.0,0.0,0.0,82607.0,82636.0,82740.0,82788.0,82800.0,82824.0,82830.0,82848.0,83037.0,83120.0,0.0774998944620934,-0.06126508668727844,0.06445379051157404,-0.06799700167791528,0.010230863736279067
95,95,83453.93525742715,2376.848742969249,14.735673966514394,83599.7672007033,-2614.9871292855073,58.60320421987331,83639.67126990156,22563.612833561496,12.817840038470433,83661.96055504137,-28427.67790115623,9.01045466799799,83902.83521152787,13415.207499882898,35.84793491324201,0.918230962929492,135.0,102.0,106.0,274.0,380.0,33.0,843.0,823.0,33.0,22.0,11.0,0.6666666666666666,108.57635590588612,1959.57352604907,110.0,95.0,15.0,0.8636363636363636,168.4082722020958,571.1093473229975,26.0,17.0,9.0,0.6538461538461539,1267.3676563881902,6132.8542179223805,18.0,7.0,11.0,0.3888888888888889,1901.9085935689152,37409.01470793609,88.0,43.0,45.0,0.4886363636363636,135.39202545148837,14482.210290537932,0.0,0.0,0.0,0.0,83432.0,83465.0,83567.0,83614.0,83624.0,83649.0,83655.0,83673.0,83865.0,83947.0,0.04568080161897405,-0.06440118588580203,0.05616864930881487,-0.06690341012663435,0.01009242871962064
96,96,84310.17932897969,3051.1041054685197,15.748876822669654,84446.45203459915,-1778.059629753736,15.28779240518434,84499.09593080172,22512.048361116053,12.322679212056766,84520.03420175958,-32076.54001390863,9.22939918871589,84762.83551209555,13671.399867559852,36.932981348833366,0.92122325219117,147.0,113.0,94.0,276.0,370.0,34.0,852.0,859.0,35.0,20.0,15.0,0.5714285714285714,124.7488517294476,2219.9138388707115,75.0,65.0,10.0,0.8666666666666667,127.60970638688966,1283.459112984811,26.0,17.0,9.0,0.6538461538461539,1417.0225908079633,3978.917957859844,18.0,7.0,11.0,0.3888888888888889,2114.036593146485,40486.764170270326,94.0,49.0,45.0,0.5212765957446809,111.87729047363246,14120.49960863261,0.0,0.0,0.0,0.0,84290.0,84324.0,84437.0,84455.0,84482.0,84507.0,84513.0,84531.0,84717.0,84807.0,0.04088646188960225,-0.07176908144782737,0.06294507581351488,-0.06590600458247126,0.008183309065452778
97,97,85117.34013962779,2822.3536787237545,13.883969216353613,85256.26041870618,-2490.8128146153736,86.01739217903916,85308.67126990156,26000.084063340233,12.18940740708623,85329.02545766643,-33630.23059224181,8.809506285741152,85575.38347749642,13354.621790893529,32.235546582363014,0.9175182744157724,73.0,45.0,167.0,271.0,438.0,28.0,808.0,810.0,29.0,17.0,12.0,0.5862068965517241,124.10663718696202,1225.708463341528,113.0,88.0,25.0,0.7787610619469026,91.7867063194998,2150.297400777815,24.0,16.0,8.0,0.6666666666666666,1704.8438252221442,4568.774766888648,18.0,7.0,11.0,0.3888888888888889,2261.9434698175287,44129.53755207025,84.0,47.0,37.0,0.5595238095238095,118.40900165869776,13741.874568282066,0.0,0.0,0.0,0.0,85100.0,85128.0,85173.0,85281.0,85293.0,85316.0,85322.0,85340.0,85529.0,85611.0,0.04397274449426269,-0.036850102015262565,0.06557070435114289,-0.06725923164913827,0.008866518536634295
98,98,85913.31080817731,2035.9895605843872,12.601636570807816,86019.39728720114,-2161.9953651160504,20.383723206912453,86105.09593080172,22124.282118125677,11.701081927310035,86125.85589636638,-30102.210524164955,9.368725769747472,86366.2601729957,13446.754951557228,34.44522099440652,0.9154646848950264,113.0,81.0,129.0,272.0,401.0,32.0,798.0,796.0,32.0,18.0,14.0,0.5625,121.46263715551704,1572.7324169327544,73.0,13.0,60.0,0.1780821917808219,158.5519223003459,2342.1515755149976,25.0,17.0,8.0,0.68,1386.8726352600263,3933.7677070928394,18.0,7.0,11.0,0.3888888888888889,2007.9158988499807,38530.9986835333,91.0,46.0,45.0,0.5054945054945055,93.50265151910364,13681.277937724466,0.0,0.0,0.0,0.0,85895.0,85927.0,86008.0,86044.0,86088.0,86113.0,86119.0,86137.0,86325.0,86409.0,0.05965778975833933,-0.07333592146338169,0.062685542873448,-0.06670327075276081,0.006953547666775572
99,99,86756.88204953207,2730.769208694048,16.584704355591867,86896.69864360057,-1906.3750500055396,10.191861603456228,86945.09593080172,20145.159244660477,12.610482948699312,86967.62592455339,-27665.604155345343,9.237625064926464,87206.90044334921,13825.523346155796,37.826769370981424,0.9178919358797932,154.0,122.0,87.0,275.0,362.0,32.0,840.0,840.0,37.0,20.0,17.0,0.5405405405405406,101.48063580352829,2040.143213914978,19.0,7.0,12.0,0.3684210526315789,128.49589697983862,1874.2994218180547,28.0,18.0,10.0,0.6428571428571429,1206.5034695464662,6935.905243833018,17.0,7.0,10.0,0.4117647058823529,1805.525396875256,34731.046923276066,92.0,45.0,47.0,0.4891304347826087,122.8961411695888,14441.304606323289,0.0,0.0,0.0,0.0,86737.0,86769.0,86891.0,86909.0,86928.0,86954.0,86961.0,86978.0,87163.0,87253.0,0.03716192327071828,-0.06740326200737112,0.059890490558730775,-0.06526246044500011,0.00888907696964399
100,100,87591.84742961495,1884.18933944226,9.428554367834916,87711.75339099858,-2555.108756290491,25.47965400864057,87783.67126990156,23985.283092667934,10.970880946473972,87804.25039921586,-33276.89305156117,9.036339617539348,88046.23953743526,12812.889462518591,33.6779921194667,0.9206079177196502,129.0,106.0,108.0,274.0,382.0,23.0,838.0,839.0,24.0,15.0,9.0,0.625,141.7484985870375,1897.7669603524885,52.0,7.0,45.0,0.1346153846153846,128.01708224502076,2528.431759319916,24.0,16.0,8.0,0.6666666666666666,1656.9606577401491,4027.453967286315,17.0,7.0,10.0,0.4117647058823529,2311.7721632386897,44471.3133202706,85.0,43.0,42.0,0.5058823529411764,105.1449298299977,13200.319486151497,0.0,0.0,0.0,0.0,87577.0,87600.0,87706.0,87756.0,87768.0,87792.0,87797.0,87814.0,88004.0,88088.0,0.07523049601214522,-0.05010240050637847,0.06908238903574442,-0.06947079343184756,0.008206184103716577
101,101,88390.09593080172,2429.818138395416,15.077654849726526,88522.58914880459,-2325.8088807817535,81.53489282764981,88581.67126990156,24590.90143682123,12.130810136581765,88602.23983073572,-30723.59368190753,9.111626525001515,88845.53415569612,12958.232713130668,32.66150542459528,0.9143009561173794,92.0,65.0,148.0,271.0,419.0,27.0,794.0,798.0,28.0,18.0,10.0,0.6428571428571429,122.94323402561116,1280.8173738999376,111.0,78.0,33.0,0.7027027027027027,83.35115675173125,1136.0584961362565,25.0,17.0,8.0,0.68,1536.767530059664,4173.946570657876,17.0,6.0,11.0,0.3529411764705882,2100.540293720234,41024.532361623395,83.0,45.0,38.0,0.5421686746987951,99.67534688321436,13637.395554700532,0.0,0.0,0.0,0.0,88373.0,88400.0,88465.0,88541.0,88566.0,88590.0,88596.0,88613.0,88802.0,88884.0,0.05059771020838598,-0.03583749182508718,0.062493338603626075,-0.06836896475939264,0.007692047911920322
102,102,89218.52427606324,2782.966361426688,12.512262907325113,89370.61652250358,-2575.7109288661686,63.69913502160143,89409.67126990156,22031.744154805136,12.96419591611466,89432.23740092333,-28304.05685372023,8.82687648778742,89671.613386351,12993.561827238396,36.596388279387774,0.915455161003876,114.0,83.0,128.0,272.0,400.0,31.0,834.0,828.0,31.0,18.0,13.0,0.5806451612903226,100.62823716078414,1999.6820057927357,94.0,80.0,14.0,0.851063829787234,177.1865649838901,490.3497050877384,26.0,17.0,9.0,0.6538461538461539,1225.4033887572411,6686.9890924611145,18.0,7.0,11.0,0.3888888888888889,1921.705999945424,36996.99550185488,94.0,50.0,44.0,0.5319148936170213,113.5082889746253,13470.442083637545,0.0,0.0,0.0,0.0,89201.0,89232.0,89315.0,89385.0,89394.0,89419.0,89425.0,89443.0,89625.0,89715.0,0.03615862503964908,-0.0687913239790025,0.05561989918487593,-0.06789507277621366,0.008735733164148874
103,103,90084.40867768555,2609.990896676162,8.966443398630272,90202.47940829814,-2492.1000798445266,33.12355021123273,90280.09593080172,23627.954610366545,11.94826850526381,90300.20311534785,-32322.920900150883,9.7737769877795,90542.39036021916,12634.022672110556,35.089649892168715,0.9107026496874736,112.0,83.0,129.0,275.0,404.0,29.0,863.0,870.0,29.0,14.0,15.0,0.4827586206896552,145.50413832403385,2666.519619208837,122.0,72.0,50.0,0.5901639344262295,121.58832936150706,1880.764397285323,26.0,18.0,8.0,0.6923076923076923,1535.902834320483,2172.9256950052413,18.0,7.0,11.0,0.3888888888888889,2117.017041118379,41688.3554254569,91.0,46.0,45.0,0.5054945054945055,140.49866811793612,13938.71334957332,0.0,0.0,0.0,0.0,90070.0,90099.0,90182.0,90221.0,90263.0,90288.0,90293.0,90311.0,90500.0,90586.0,0.055748906446123694,-0.04878950502224314,0.06500363064209629,-0.06549584573925363,0.011120659806008196
104,104,90924.03820600898,1549.7657236242062,8.356826261064308,91064.78076469756,-2625.3511660071467,43.31541181468896,91119.09593080172,27128.743577151203,12.334217788027598,91137.54265017028,-35196.71435213161,9.485492223578294,91383.10949479598,13126.392046281777,33.96108581192905,0.9128254068130416,111.0,90.0,126.0,274.0,400.0,21.0,840.0,839.0,28.0,13.0,15.0,0.4642857142857143,113.257950534209,1547.4828924842068,67.0,43.0,24.0,0.6417910447761194,80.66418499389161,2773.0282680454175,24.0,17.0,7.0,0.7083333333333334,1774.456584654985,2512.5906659998946,18.0,7.0,11.0,0.3888888888888889,2216.5348150092254,43049.002753870045,86.0,46.0,40.0,0.5348837209302325,106.50084228386822,13410.52446650343,0.0,0.0,0.0,0.0,90912.0,90933.0,91023.0,91089.0,91102.0,91126.0,91131.0,91149.0,91339.0,91423.0,0.07308069136369173,-0.03072510300272418,0.06540872707977143,-0.06297561734977646,0.008113489366183908
105,105,91781.60278879608,2298.360758062831,12.577244488618565,91933.61652250358,-2556.477588570696,63.69913502159816,91974.67126990097,21530.192455742952,13.35607985714665,91997.24334043138,-29106.819278577907,8.7071743404424,92239.26017300236,12988.920870206195,35.4755151554147,0.9136455966928226,95.0,64.0,147.0,274.0,421.0,31.0,858.0,856.0,33.0,17.0,16.0,0.5151515151515151,102.57904839683503,1931.2009438210853,91.0,76.0,15.0,0.8351648351648352,106.642663682988,723.677352842057,26.0,17.0,9.0,0.6538461538461539,1222.606251012729,5862.579496044215,18.0,7.0,11.0,0.3888888888888889,1934.841726080757,37762.64156463891,91.0,47.0,44.0,0.5164835164835165,118.397642608618,13654.338860598462,0.0,0.0,0.0,0.0,91766.0,91797.0,91861.0,91948.0,91959.0,91984.0,91990.0,92008.0,92193.0,92282.0,0.04463139567493033,-0.041714687490223994,0.05678566290226596,-0.06647382895268002,0.009115279382461776
106,106,92673.54796540084,2535.01800624334,15.2877924051842,92822.98643600574,-2525.7619303693737,88.22496807806156,92872.67126990156,22162.76808343521,12.810826309877896,92895.4134394402,-29094.311895415707,8.738690094254162,93140.68483389584,12828.756056025715,34.81036749281481,0.9060936427696176,74.0,45.0,167.0,276.0,443.0,29.0,891.0,898.0,31.0,10.0,21.0,0.3225806451612903,160.8363455345904,3217.2008650672005,113.0,89.0,24.0,0.7876106194690266,108.62505881148492,1809.543812673346,26.0,17.0,9.0,0.6538461538461539,1247.3584502398478,6560.5649926475935,18.0,7.0,11.0,0.3888888888888889,1973.5531208557657,38953.25746939058,95.0,51.0,44.0,0.5368421052631579,128.87086275496725,12705.591741338889,0.0,0.0,0.0,0.0,92665.0,92694.0,92739.0,92846.0,92857.0,92882.0,92888.0,92906.0,93097.0,93182.0,0.0634458394924519,-0.04300684775765835,0.05628170838335589,-0.06783295401348646,0.010045468336303435
107,107,93522.54796540084,2690.829707996409,7.778681168367107,93682.49321800275,-2705.361063093763,50.95930801452217,93723.67126990035,27672.40973343814,12.7147560674573,93742.08652750088,-37703.20554914675,9.18177174065052,93988.53415569756,13075.982039561884,33.285501485665975,0.9240618067142256,93.0,70.0,146.0,274.0,420.0,23.0,849.0,851.0,25.0,10.0,15.0,0.4,211.57307431006555,2852.934638237968,95.0,82.0,13.0,0.8631578947368421,183.29302815954307,170.135161241191,23.0,17.0,6.0,0.7391304347826086,1871.4451045231144,798.0086636768183,17.0,6.0,11.0,0.3529411764705882,2364.7676432974727,46038.5971841094,89.0,51.0,38.0,0.5730337078651685,105.81493005534271,13124.334333072427,0.0,0.0,0.0,0.0,93514.0,93537.0,93607.0,93694.0,93707.0,93730.0,93736.0,93753.0,93940.0,94027.0,0.07862744850829033,-0.06775178021891656,0.06762855575464183,-0.06272059918658532,0.008092312281799989
108,108,94341.88902708734,2045.7435115714743,9.348873411019834,94497.917878903,-3037.0359750451166,53.50727341814519,94539.09593080172,25866.190722490617,13.08330646540373,94558.24527692048,-34419.73138656991,9.65148639031909,94807.80813839656,12632.234790273931,31.507075297337423,0.9137544944685504,88.0,67.0,154.0,272.0,426.0,21.0,819.0,815.0,25.0,14.0,11.0,0.56,141.10770699389516,1993.9220604836569,120.0,108.0,12.0,0.9,230.1008821595869,78.72236688403314,24.0,17.0,7.0,0.7083333333333334,1643.9137141957267,2333.009768363231,19.0,6.0,13.0,0.3157894736842105,2113.184356149619,42381.05775488065,85.0,50.0,35.0,0.5882352941176471,115.69241541650123,11865.378221787169,0.0,0.0,0.0,0.0,94328.0,94349.0,94416.0,94510.0,94522.0,94546.0,94552.0,94570.0,94762.0,94842.0,0.06897624565139193,-0.0757649511070308,0.06355453463684338,-0.06139456268314033,0.009158507369224763
109,109,95142.97311283957,2723.0329189260287,11.937854012028849,95286.68507960632,-2385.578608033131,78.83155028844202,95338.67126990156,22920.13074978027,12.482151909567158,95360.13957989232,-29107.859836753796,8.790130927408216,95600.7163151646,12615.99547176358,33.47527097917909,0.917741779623161,89.0,66.0,153.0,271.0,424.0,23.0,805.0,800.0,23.0,14.0,9.0,0.6086956521739131,137.05645250255256,2340.912955364458,99.0,73.0,26.0,0.7373737373737373,91.18509674623762,1926.1574908797525,24.0,16.0,8.0,0.6666666666666666,1382.570181044629,5358.268177726931,18.0,7.0,11.0,0.3888888888888889,1993.152114539292,38568.663959884856,82.0,40.0,42.0,0.4878048780487805,121.47810201938084,13393.698946454411,0.0,0.0,0.0,0.0,95129.0,95152.0,95218.0,95312.0,95323.0,95347.0,95353.0,95371.0,95562.0,95642.0,0.050332278963637345,-0.038223471839990295,0.06032121701827043,-0.06847470496688962,0.009628895499468621
110,110,96912.972626301,3431.6286656034804,10.25555764165708,97056.4110969059,-2749.3824640332796,94.84294691735823,97106.67126990156,22921.29832983385,12.467100355613686,97128.64763269994,-30509.840614954264,8.798247792873864,97372.68483389584,12448.056003749523,34.09653115454181,0.9075779397064988,94.0,74.0,143.0,274.0,417.0,20.0,1766.0,1768.0,20.0,10.0,10.0,0.5,187.87913310025004,2583.137878070028,115.0,90.0,25.0,0.782608695652174,81.75101807474178,1926.1590220886417,25.0,16.0,9.0,0.64,1389.120511570682,5079.131788690831,18.0,7.0,11.0,0.3888888888888889,2036.3558991284976,40011.8204832718,85.0,44.0,41.0,0.5176470588235295,93.69374858127466,12958.736763181792,0.0,0.0,0.0,0.0,96903.0,96923.0,96997.0,97080.0,97091.0,97116.0,97122.0,97140.0,97330.0,97414.0,0.05474926089277493,-0.029734320031566272,0.060603919183872486,-0.0667442326175374,0.007526777558925894
111,111,97772.972626301,3362.675494416578,11.966791988624225,97916.68507960632,-2291.2250809704688,94.19572890303664,97970.09593080172,24443.094477729384,13.22889420491741,97989.80285737314,-33537.95439836913,8.873444682838253,98238.38347749642,12923.414260718098,33.29952125344379,0.9106234861720748,70.0,48.0,168.0,273.0,441.0,22.0,860.0,863.0,23.0,11.0,12.0,0.4782608695652174,191.42619751412457,3169.3218755690277,123.0,98.0,25.0,0.7967479674796748,76.82602307007207,1765.2755823394723,26.0,18.0,8.0,0.6923076923076923,1510.531722529831,2378.8824998138916,18.0,7.0,11.0,0.3888888888888889,2145.108405418827,41623.629651574,89.0,50.0,39.0,0.5617977528089888,115.64281721230194,13322.72388960942,0.0,0.0,0.0,0.0,97763.0,97785.0,97833.0,97942.0,97953.0,97978.0,97983.0,98001.0,98191.0,98274.0,0.05692675306670853,-0.03353054385976419,0.061797892402948744,-0.06396062144813275,0.008948317749420823
112,112,98646.54796540084,2956.602271367492,15.287792405167512,98786.31516610416,-2252.4105671495354,73.89099662505764,98840.24660900142,21034.743748173747,11.9982346663908,98865.07122039112,-28054.739100888633,8.491694114464185,99111.53415569612,13138.980059397813,34.54710374724805,0.9044804972587184,91.0,72.0,146.0,275.0,421.0,19.0,874.0,871.0,23.0,10.0,13.0,0.4347826086956521,208.92699538807463,3532.436816647929,91.0,61.0,30.0,0.6703296703296703,94.55240744332733,1893.5959351033116,25.0,14.0,11.0,0.56,1141.8310503159344,11537.745568360591,18.0,8.0,10.0,0.4444444444444444,1950.3915950063151,37796.58031666839,91.0,51.0,40.0,0.5604395604395604,74.76162713063604,13017.272479053994,0.0,0.0,0.0,0.0,98638.0,98657.0,98729.0,98803.0,98826.0,98851.0,98857.0,98875.0,99066.0,99150.0,0.07066455891324247,-0.04197831817268778,0.05428309771613305,-0.06952093149012875,0.005690063215916208
113,113,99555.4420315728,2857.514763876693,9.3369016701469,99709.17805189872,-3510.610751392143,22.93168860777651,99748.09593080172,21638.75236826014,13.41137590795511,99770.43927441386,-31067.383309029396,10.151809491388509,100014.36994676368,12726.32219690105,33.59742779954997,0.8976764044925827,63.0,41.0,174.0,275.0,449.0,22.0,910.0,907.0,22.0,10.0,12.0,0.4545454545454545,166.09357667682852,3166.01198783081,118.0,105.0,13.0,0.8898305084745762,198.8810400081748,862.4985473355241,26.0,17.0,9.0,0.6538461538461539,1230.5910838566954,5240.511578092648,19.0,7.0,12.0,0.3684210526315789,1968.2370757550475,39545.93904488589,89.0,45.0,44.0,0.5056179775280899,131.42135403983963,13309.463213626332,0.0,0.0,0.0,0.0,99545.0,99567.0,99608.0,99722.0,99731.0,99757.0,99763.0,99782.0,99972.0,100057.0,0.058125185835083845,-0.05665140743083179,0.05686977987056843,-0.06335380924028451,0.010326734779026863
114,114,100444.8369891176,2763.3635692694697,7.377903191604445,100596.04118340374,-3870.779111245263,66.24710042246546,100637.67126990156,25931.43238891027,12.785530569354624,100658.33411339932,-35217.98969884611,8.85668962355589,100902.14128111996,12014.734294869706,33.61596700565003,0.9054897787041258,61.0,45.0,174.0,275.0,449.0,16.0,890.0,890.0,17.0,11.0,6.0,0.6470588235294118,202.56690229625704,2776.3683828735384,124.0,109.0,15.0,0.8790322580645161,146.05925346938153,1192.030220663428,24.0,16.0,8.0,0.6666666666666666,1657.2872790767494,3582.9665269032585,19.0,7.0,12.0,0.3684210526315789,2334.4583749747667,46548.824322123895,87.0,43.0,44.0,0.4942528735632184,125.3418000159476,12591.597053928806,0.0,0.0,0.0,0.0,100435.0,100451.0,100496.0,100611.0,100622.0,100646.0,100651.0,100670.0,100859.0,100945.0,0.07330447015692843,-0.037733812566326734,0.06391036384806487,-0.06628596336523017,0.010432340569484635
115,115,101293.48908662482,2705.4281510968067,7.450473497374752,101452.45203459916,-2655.6640297831227,15.287792405183437,101490.24660900142,24509.44612409388,12.58005473526251,101508.70027733306,-36694.77140044572,9.466644717375129,101754.10949479598,12695.153904089031,33.908028189172576,0.9227677931940008,72.0,51.0,165.0,274.0,439.0,21.0,849.0,853.0,21.0,10.0,11.0,0.4761904761904761,184.03641288514848,3450.9164309224943,113.0,103.0,10.0,0.911504424778761,282.5666296201431,955.4175697420465,24.0,18.0,6.0,0.75,1718.989538624127,558.5762356867899,18.0,7.0,11.0,0.3888888888888889,2248.1572804692614,43469.180764433,87.0,46.0,41.0,0.5287356321839081,109.5750700426297,12771.170544023144,0.0,0.0,0.0,0.0,101283.0,101304.0,101355.0,101461.0,101473.0,101496.0,101502.0,101520.0,101712.0,101794.0,0.06802487540115909,-0.10640149749786654,0.07013579702783587,-0.061266420110249104,0.008631251804465029
116,116,102150.12330450072,2784.0365937054603,12.739827004320064,102241.79457440229,-1840.0360057816215,40.767446413824906,102349.52059170186,22130.13281840989,12.103626959328178,102369.39701871396,-31025.764727583097,9.968257356790671,102612.83433896131,12823.31392154637,34.36943993974718,0.9065062745030388,65.0,40.0,173.0,274.0,447.0,25.0,855.0,858.0,25.0,7.0,18.0,0.28,143.23905463586172,3587.8352502104544,70.0,44.0,26.0,0.6285714285714286,106.09026553553788,1530.3572830040168,26.0,19.0,7.0,0.7307692307692307,1505.052395237751,642.340200545711,18.0,6.0,12.0,0.3333333333333333,1991.872562885397,39736.33483841382,83.0,40.0,43.0,0.4819277108433735,119.76203799725404,13426.969890897988,0.0,0.0,0.0,0.0,102143.0,102168.0,102208.0,102251.0,102331.0,102357.0,102363.0,102381.0,102574.0,102655.0,0.05145013357932027,-0.05765662476287915,0.06800918944262771,-0.06420059522705482,0.009339398437093855
117,117,103043.12330450072,2944.97115424399,10.425465727351275,103200.19186160344,-3289.824687095754,61.15116962073736,103237.24660900142,21169.700515798613,12.356533329474605,103262.9067817696,-26777.5350211917,8.682132625944234,103509.10949479598,13025.36017571788,33.83778660583071,0.9008075517540576,65.0,43.0,173.0,275.0,448.0,22.0,893.0,889.0,24.0,8.0,16.0,0.3333333333333333,171.23560232682755,3575.6878816403914,115.0,100.0,15.0,0.8695652173913043,146.45711311480025,932.5764058458165,26.0,14.0,12.0,0.5384615384615384,1084.9956578160195,11008.83211238333,19.0,8.0,11.0,0.4210526315789473,1809.6742583267155,36109.1421886585,88.0,47.0,41.0,0.5340909090909091,106.57542414402992,13240.207587064911,0.0,0.0,0.0,0.0,103036.0,103058.0,103101.0,103214.0,103223.0,103249.0,103255.0,103274.0,103465.0,103549.0,0.058145086440001416,-0.044518212076550524,0.051252291311646304,-0.06758180903860427,0.00818214795646955
118,118,103929.82194810128,3067.254781011407,13.948727327833568,104069.26041870618,-2836.9053799040357,109.5625122371482,104122.09593080172,26022.792006304702,12.970218249123912,104141.37830272404,-35598.0406761941,9.020542326945902,104386.36133375615,12780.740190504212,32.90400269490381,0.909772611961724,67.0,45.0,169.0,274.0,443.0,22.0,885.0,884.0,24.0,13.0,11.0,0.5416666666666666,153.26323485501268,1769.6869405516725,113.0,88.0,25.0,0.7787610619469026,81.6536328338556,2554.939134099375,24.0,17.0,7.0,0.7083333333333334,1657.6879229588617,1898.755526259758,18.0,6.0,12.0,0.3333333333333333,2262.3143057428338,45197.00662793014,81.0,39.0,42.0,0.4814814814814814,169.3211178432807,13651.362240076422,0.0,0.0,0.0,0.0,103917.0,103939.0,103984.0,104094.0,104105.0,104129.0,104135.0,104153.0,104348.0,104427.0,0.049967559201089626,-0.028782642315908928,0.06370138617552042,-0.0635516523597811,0.013248146454700823
119,119,104770.54796540084,2875.308525985404,8.472658661730046,104894.1780519344,-2425.4264963447977,22.93168860777651,104969.09593080172,22871.91320327726,11.481016240396116,104989.8181505277,-30372.192750568094,9.880403269268689,105232.10331981195,13295.753449665435,35.41552258156724,0.8917205748389755,126.0,103.0,113.0,273.0,386.0,23.0,842.0,847.0,24.0,9.0,15.0,0.375,183.08136662826823,3927.9168613603943,65.0,50.0,15.0,0.7692307692307693,143.68028179474342,1842.2446204026085,25.0,17.0,8.0,0.68,1427.2683069623008,3266.5356782408435,18.0,7.0,11.0,0.3888888888888889,2045.6188907143237,39948.1538051136,91.0,47.0,44.0,0.5164835164835165,106.32502349990446,13556.850852685257,0.0,0.0,0.0,0.0,104762.0,104785.0,104888.0,104907.0,104952.0,104977.0,104983.0,105001.0,105194.0,105274.0,0.06367364231479263,-0.05923918206190731,0.06240266366338742,-0.0673517025100554,0.0079969160004678
120,120,105822.7181480858,18410.7631330369,8.08039588165201,106066.84932180028,-8698.337189426315,5.095930799253499,106098.24660897092,17308.280374096918,25.47965400500095,106166.96723676292,-4666.954136380839,7.6304149348163,106182.57533909989,804.1557088140099,1.84630580453476,0.5599293111514161,252.0,226.0,112.0,10.0,122.0,26.0,1054.0,1130.0,26.0,12.0,14.0,0.4615384615384615,955.8795382422504,14317.862225268327,5.0,4.0,1.0,0.8,646.3715620545661,727.7533314590924,49.0,18.0,31.0,0.3673469387755102,595.6953309095622,21111.11825815717,16.0,7.0,9.0,0.4375,358.82332862506456,5017.498495885233,3.0,1.0,2.0,0.3333333333333333,403.56926066215766,456.4516408198806,0.0,0.0,0.0,0.0,105811.0,105837.0,106063.0,106068.0,106084.0,106127.0,106160.0,106175.0,106182.0,106185.0,0.05191960438223159,-0.07430978449999551,0.03441678306766183,-0.07688597705040386,0.5018546237237466
121,121,107372.41697009216,2813.646696675178,5.529872256782976,107507.60271279886,-3450.2194210040498,20.383723206912453,107561.67126990156,29554.173422669795,9.978311318286204,107581.84419598228,-32129.945850243155,11.758264832567098,107828.53415569612,12505.043898558182,33.26544667025046,0.8901328336644114,121.0,109.0,105.0,273.0,378.0,12.0,1552.0,1463.0,19.0,10.0,9.0,0.5263157894736842,253.77519277235825,1593.0771483966969,33.0,22.0,11.0,0.6666666666666666,247.86882019150667,2692.0623489501654,23.0,16.0,7.0,0.6956521739130435,1805.0787318256853,3155.846861049854,19.0,7.0,12.0,0.3684210526315789,2266.4734058562376,45969.11483353888,83.0,42.0,41.0,0.5060240963855421,209.9979428605562,13243.200134011426,0.0,0.0,0.0,0.0,107368.0,107380.0,107489.0,107519.0,107546.0,107569.0,107575.0,107594.0,107792.0,107867.0,0.09019440609662847,-0.07184146569999142,0.06107694862618229,-0.07054084113369538,0.01679305922986554
122,122,109016.79110611136,4138.5078500788795,16.900026834865855,109097.76021411797,-2514.2076378040388,4.1114392089970915,109209.09593080172,20680.050620616195,11.875907872767511,109232.22278053118,-28789.424167045177,9.106117844185704,109472.4108511954,14158.57488444303,38.10077455261155,0.915988012062804,90.0,58.0,152.0,275.0,427.0,32.0,1640.0,1647.0,33.0,16.0,17.0,0.4848484848484848,155.89624593028594,4538.571057941775,13.0,7.0,6.0,0.5384615384615384,225.27822752739968,2071.1367598989787,27.0,17.0,10.0,0.6296296296296297,1232.24263226964,6706.38080471232,18.0,7.0,11.0,0.3888888888888889,1973.63328964332,37734.28921239271,97.0,50.0,47.0,0.5154639175257731,153.16173655348345,15858.787743594068,0.0,0.0,0.0,0.0,109001.0,109033.0,109091.0,109104.0,109192.0,109219.0,109225.0,109243.0,109430.0,109518.0,0.037669675056268066,-0.08960207746571097,0.05958605493166454,-0.06855410786237637,0.010817595542173701
123,123,109855.12330450072,3196.9058867121125,6.58646747284952,110010.32873009844,-3814.900855574835,28.027619409504627,110055.09593080172,26059.871237301784,13.516287204059104,110073.88506795744,-41353.19449821119,9.057081101898834,110317.83551209555,12683.616391223064,34.83442912512749,0.9136534643864436,145.0,132.0,91.0,278.0,369.0,13.0,839.0,846.0,27.0,7.0,20.0,0.2592592592592592,281.00258296146745,4529.481265898882,67.0,51.0,16.0,0.7611940298507462,143.5326403054479,3502.182115412425,25.0,18.0,7.0,0.72,1789.189291385566,379.54916390260496,17.0,7.0,10.0,0.4117647058823529,2497.7250523783864,47208.20326376658,93.0,48.0,45.0,0.5161290322580645,129.9523283960821,13707.696488504906,0.0,0.0,0.0,0.0,109848.0,109861.0,109993.0,110026.0,110038.0,110062.0,110067.0,110084.0,110271.0,110362.0,0.08789829695314151,-0.037624212460383895,0.06865687382309633,-0.06039980907609037,0.010245684226622292
124,124,110681.26564492725,4217.269190426518,8.800345449507613,110818.71245330531,-2824.6489993143873,94.2747198319701,110877.09593080172,24864.065363077865,12.982022571821016,110896.04319160544,-34754.491808846884,8.837994327560763,111147.80813839656,13014.568975344891,31.401760893630943,0.8884531677531342,95.0,80.0,142.0,274.0,416.0,15.0,826.0,822.0,17.0,11.0,6.0,0.6470588235294118,276.0636616616433,3867.786259919811,84.0,54.0,30.0,0.6428571428571429,120.29301846283856,2236.9122024354883,24.0,17.0,7.0,0.7083333333333334,1633.876656061103,1025.452678775374,18.0,6.0,12.0,0.3333333333333333,2189.577592485898,42507.58124073588,79.0,44.0,35.0,0.5569620253164557,150.31362658646648,13161.87646153109,0.0,0.0,0.0,0.0,110671.0,110686.0,110766.0,110848.0,110860.0,110884.0,110890.0,110908.0,111107.0,111182.0,0.0654602893949303,-0.04258689079316994,0.0657123697272508,-0.06300128353275282,0.011549643086238522
125,125,113219.53525155516,3332.5656455756784,9.513060178531044,113358.027373699,-2744.6082610633102,17.835757806047866,113415.09593080172,25136.516590215702,12.052806070549794,113434.40794494154,-36669.62645344587,9.616775357096609,113685.80813839656,13325.54902378038,33.37371033169599,0.9069591264100424,145.0,118.0,94.0,274.0,368.0,27.0,2538.0,2538.0,27.0,13.0,14.0,0.4814814814814814,180.36895286813672,3102.792555809104,17.0,6.0,11.0,0.3529411764705882,255.2579230714949,2825.4066056321517,25.0,18.0,7.0,0.72,1723.89348649589,1420.6877786330851,18.0,6.0,12.0,0.3333333333333333,2329.477104614016,45869.500917650585,90.0,54.0,36.0,0.6,138.97729564427482,13273.43570888853,0.0,0.0,0.0,0.0,113207.0,113234.0,113352.0,113368.0,113398.0,113422.0,113428.0,113446.0,113633.0,113720.0,0.0541231507645153,-0.09300340842543534,0.06858124037627829,-0.06352606584556886,0.010429386091054113
126,126,114058.47793485962,2612.95274759372,10.427743720544848,114167.39728719369,-2524.6650935390544,20.383723206909696,114253.09593080172,20949.337331543946,11.961619739523314,114274.48470614986,-32741.33828244008,9.141187405888616,114526.2327992967,13108.91781313377,33.63314321766911,0.89510039575473,109.0,83.0,129.0,274.0,403.0,26.0,839.0,838.0,26.0,11.0,15.0,0.4230769230769231,144.59786519542834,2840.57972406318,23.0,16.0,7.0,0.6956521739130435,192.53061949713933,2580.059387581806,27.0,18.0,9.0,0.6666666666666666,1368.774208436143,2808.2554456280086,17.0,6.0,11.0,0.3529411764705882,2168.6591807460186,41937.3465985806,92.0,57.0,35.0,0.6195652173913043,160.17153872608517,12911.984289510388,0.0,0.0,0.0,0.0,114047.0,114073.0,114156.0,114172.0,114236.0,114261.0,114268.0,114285.0,114477.0,114559.0,0.05533887489109368,-0.07625986511630797,0.06533735109487904,-0.06623611906264441,0.01221851727269279
127,127,115832.54796540084,3718.6813225011847,10.273138394707376,115969.89050520402,-2541.9007648188194,71.3430312241936,116029.09593080172,24397.23061966545,12.91501785923427,116049.6440851539,-34316.53761534396,9.92205310185666,116297.10949479598,12674.895573265889,33.978242689604194,0.9062926015919408,106.0,86.0,132.0,275.0,407.0,20.0,1774.0,1776.0,22.0,10.0,12.0,0.4545454545454545,217.86555473033357,4059.140504872071,67.0,41.0,26.0,0.6119402985074627,123.92258030705698,2535.6173069043093,25.0,17.0,8.0,0.68,1486.7821815415748,1869.441488596607,19.0,7.0,12.0,0.3684210526315789,2115.590994981657,42885.62787631865,89.0,48.0,41.0,0.5393258426966292,105.85521004750916,12579.315844330587,0.0,0.0,0.0,0.0,115824.0,115844.0,115930.0,115994.0,116012.0,116037.0,116043.0,116062.0,116251.0,116337.0,0.05858677736434732,-0.04875193478132884,0.06094061267524152,-0.06164931377097066,0.00835156466857059
128,128,116665.69864360055,2437.788469948575,4.340858040147409,116808.93144289729,-3653.740080811073,48.41134261641708,116864.24660900142,26267.242367177525,11.181539479510338,116884.31475627322,-33181.06673244192,9.772276736164004,117129.95881659626,12514.229920109756,31.15601483901208,0.8982069606878457,94.0,82.0,141.0,272.0,413.0,12.0,834.0,836.0,13.0,6.0,7.0,0.4615384615384615,234.73119747758145,2626.8315397505203,86.0,58.0,28.0,0.6744186046511628,132.34321366696454,2996.0500908651284,22.0,14.0,8.0,0.6363636363636364,1744.140318838063,4929.607240893645,19.0,7.0,12.0,0.3684210526315789,2269.134144872873,44578.39402939616,85.0,46.0,39.0,0.5411764705882353,119.10705097877586,12636.814739561149,0.0,0.0,0.0,0.0,116660.0,116672.0,116754.0,116836.0,116850.0,116871.0,116877.0,116895.0,117087.0,117167.0,0.0962885830215339,-0.0362212994739315,0.06639982585372074,-0.06838641334741317,0.009517729156260478
129,129,117487.972626301,3304.7317368370273,7.563680224794427,117574.82194810128,-2249.082032952388,22.93168860777651,117685.09593080172,20328.529463385297,11.665492092158113,117706.61331423395,-30803.730404834183,9.278586180082485,117951.95881659626,13099.034358479696,32.819047363677875,0.9049713990413216,84.0,64.0,155.0,272.0,427.0,20.0,821.0,820.0,20.0,10.0,10.0,0.5,206.68034365193645,3739.598872411455,22.0,14.0,8.0,0.6363636363636364,176.15631050557974,2372.5218978573603,26.0,17.0,9.0,0.6538461538461539,1276.9514287225663,3782.4541771147888,17.0,7.0,10.0,0.4117647058823529,2037.9000151210712,39022.705473889335,83.0,45.0,38.0,0.5421686746987951,104.86860413495288,13981.175020604624,0.0,0.0,0.0,0.0,117478.0,117498.0,117562.0,117581.0,117668.0,117693.0,117700.0,117717.0,117911.0,117989.0,0.06254073253454184,-0.07832364845951748,0.06281573052406696,-0.06615757209721759,0.008005827091144769
130,130,119307.07520546704,1659.0039024872765,4.1201510401494446,119465.60271279886,-5502.434849650736,20.383723206912453,119501.67126990156,20453.993094893984,13.378908080217748,119524.63624502505,-33048.52519804309,10.320856116936229,119774.38347749642,11550.349606032256,28.858262945218367,0.8498672652492913,82.0,71.0,153.0,274.0,427.0,11.0,1822.0,1817.0,11.0,6.0,5.0,0.5454545454545454,194.1570309152318,2002.7047015956352,121.0,110.0,11.0,0.9090909090909092,365.3898482291364,979.6425173674884,26.0,17.0,9.0,0.6538461538461539,1242.5600384620332,2645.8422693997763,19.0,8.0,11.0,0.4210526315789473,2018.92992715009,40445.52838283088,81.0,43.0,38.0,0.5308641975308642,141.29114763241074,11244.0693592125,0.0,0.0,0.0,0.0,119301.0,119312.0,119383.0,119477.0,119486.0,119511.0,119517.0,119536.0,119736.0,119810.0,0.11703229306702662,-0.06640512031729541,0.06074902013984832,-0.06108986452653074,0.012232629526522763
131,131,120205.12330450072,2349.18576109854,5.472982022494437,120355.61652250358,-4914.613569725927,63.69913502160143,120398.09593080172,25068.79458078145,13.950936150344832,120417.78403780174,-36647.1335569804,9.14530844213374,120663.91843092216,12018.442181341929,30.531255186280863,0.8903236726469688,60.0,45.0,171.0,274.0,445.0,15.0,896.0,896.0,17.0,8.0,9.0,0.4705882352941176,226.63626484108863,2074.1478559835537,125.0,110.0,15.0,0.88,181.9660888689892,1228.48352304522,24.0,17.0,7.0,0.7083333333333334,1584.5363312938216,247.29411199477815,18.0,7.0,11.0,0.3888888888888889,2217.240424973878,44951.174021400846,77.0,38.0,39.0,0.4935064935064935,119.92269371801794,12969.735782339438,0.0,0.0,0.0,0.0,120198.0,120213.0,120258.0,120370.0,120381.0,120405.0,120411.0,120429.0,120627.0,120703.0,0.09647439065657697,-0.03702551305150466,0.06320751985851679,-0.060502424330853205,0.009978222793648942
132,132,121082.39728720114,2704.1694942923427,11.11499910599592,121206.917878903,-2635.03861628897,53.50727341814519,121277.09593080172,22142.071930291968,12.625017847994922,121298.15074654852,-31556.426004152698,9.873341690256073,121543.68483389584,13438.023307937843,33.00526044528604,0.9021746508176346,106.0,83.0,132.0,276.0,408.0,23.0,876.0,879.0,27.0,12.0,15.0,0.4444444444444444,140.21028583035144,2646.216141208423,74.0,30.0,44.0,0.4054054054054054,113.134658918214,2720.391987614669,26.0,18.0,8.0,0.6923076923076923,1340.4014193105795,1890.2026644666305,18.0,7.0,11.0,0.3888888888888889,2017.9422019660929,40311.16468720501,86.0,45.0,41.0,0.5232558139534884,100.43863483699296,13273.20703715344,0.0,0.0,0.0,0.0,121071.0,121094.0,121177.0,121251.0,121260.0,121285.0,121291.0,121309.0,121499.0,121585.0,0.05184966627509539,-0.042934725213836164,0.06053640434058986,-0.06394710863963302,0.00747421198307223
133,133,121979.6382740312,2712.2118373857365,7.079664907339688,122083.39728720114,-3366.898760888648,20.383723206912453,122172.09593080172,21964.27961305699,11.147879451107393,122193.79460853768,-29183.604701914825,11.092379736635756,122437.41511369991,12871.511114184535,34.61160580366963,0.8994909261919999,84.0,66.0,149.0,276.0,425.0,18.0,900.0,895.0,19.0,9.0,10.0,0.4736842105263157,199.15321621775755,3117.9991148272065,111.0,48.0,63.0,0.4324324324324324,135.52073785271594,2936.432975336583,27.0,18.0,9.0,0.6666666666666666,1322.1845778396564,1749.4671443590987,19.0,8.0,11.0,0.4210526315789473,1966.6812981869468,39222.57155855259,86.0,41.0,45.0,0.4767441860465116,139.95942666871548,13302.98901926903,0.0,0.0,0.0,0.0,121972.0,121990.0,122056.0,122088.0,122155.0,122180.0,122187.0,122205.0,122399.0,122481.0,0.07342834120572181,-0.04025090965816479,0.06019703815160249,-0.06738993754455244,0.010873581619680908
