Unnamed: 0,cycle,p_center,p_height,p_width,q_center,q_height,q_width,r_center,r_height,r_width,s_center,s_height,s_width,t_center,t_height,t_width,r_squared,pr_interval,pr_segment,qrs_duration,st_segment,qt_interval,p_duration,pp_interval,rr_interval,fwhm_p,rise_time_p,decay_time_p,rise_decay_symmetry_p,sharpness_deriv_p,sharpness_diff_p,fwhm_q,rise_time_q,decay_time_q,rise_decay_symmetry_q,sharpness_deriv_q,sharpness_diff_q,fwhm_r,rise_time_r,decay_time_r,rise_decay_symmetry_r,sharpness_deriv_r,sharpness_diff_r,fwhm_s,rise_time_s,decay_time_s,rise_decay_symmetry_s,sharpness_deriv_s,sharpness_diff_s,fwhm_t,rise_time_t,decay_time_t,rise_decay_symmetry_t,sharpness_deriv_t,sharpness_diff_t,Average_Heart_Rate,SDNN,RMSSD,NN50,p_on,p_off,q_on,q_off,r_on,r_off,s_on,s_off,t_on,t_off,sharpness_deriv_p_norm,sharpness_deriv_q_norm,sharpness_deriv_r_norm,sharpness_deriv_s_norm,sharpness_deriv_t_norm
0,0,,,,,,,,,,,,,,,,,,,,,,,,,,,,,,,,,,,,,,,,,,,,,,,,,,,,,,,60.03201771387372,309.1578249838035,440.0915251946032,247.0,,,,,,,,,,,,,,,
1,1,2223.87669549928,2120.73028017632,12.739827004320285,2319.2225116733757,-1207.4608857735589,0.9962754469529258,2360.4650851660126,33503.08830604126,9.492434110830168,2374.4520345991364,-27456.868408808703,9.418822504956813,2622.182635728243,13014.618627954404,36.73853978192614,0.8938672355046731,96.0,86.0,71.0,275.0,346.0,10.0,,,16.0,4.0,12.0,0.25,375.290879177176,1275.6094622820538,4.0,2.0,2.0,0.5,255.68783121470875,825.0703394493335,18.0,12.0,6.0,0.6666666666666666,2137.5706761626,13103.56782859224,22.0,4.0,18.0,0.1818181818181818,2029.5051366596808,33345.042930020136,82.0,38.0,44.0,0.4634146341463415,261.0560200397088,14288.878189595,,,,,2221.0,2231.0,2317.0,2321.0,2349.0,2366.0,2371.0,2388.0,2585.0,2663.0,0.17696304083797676,-0.2117566160753129,0.06380219807309986,-0.07391611841678841,0.020058676132005935
2,2,3194.8493218002877,1524.4821711394204,1.956526369990716,3289.557497038491,-3069.8125479878245,5.850334553768544,3326.3181165394412,36307.387168782814,8.512241518058126,3339.4520345991364,-27197.52372232917,10.904946536971307,3588.6417778325213,12030.048112611044,32.10262236150296,0.8752305685721197,91.0,85.0,71.0,276.0,347.0,6.0,968.0,966.0,6.0,3.0,3.0,0.5,312.2638511559706,950.0764065978616,13.0,7.0,6.0,0.5384615384615384,394.41968452379734,1330.082000974498,18.0,12.0,6.0,0.6666666666666666,2119.419423261003,11183.90271189003,24.0,4.0,20.0,0.1666666666666666,2037.644022991719,33110.90678299021,85.0,43.0,42.0,0.5058823529411764,298.71318831636904,12358.351618362933,,,,,3192.0,3198.0,3283.0,3296.0,3314.0,3331.0,3336.0,3354.0,3551.0,3630.0,0.2048327340703368,-0.12848331237108543,0.05837433063988932,-0.07492020390513762,0.024830589663496806
3,3,4012.9005047344313,2479.529291115231,1.6720692718083352,4264.370290588888,-1923.9531934601323,5.075662206030519,4302.894707051202,40480.384748643795,9.36186271088524,4314.876695499281,-32683.296532865705,10.342303584536216,4563.066977951172,12525.240828054548,35.345700240565435,0.8890059904369843,245.0,239.0,76.0,274.0,350.0,6.0,819.0,976.0,6.0,3.0,3.0,0.5,327.70153919764914,2268.3628637700463,17.0,9.0,8.0,0.5294117647058824,406.9480134277558,590.4741071986919,16.0,12.0,4.0,0.75,2302.3009093704295,13605.432150993209,22.0,4.0,18.0,0.1818181818181818,2147.584718646145,35068.10589195421,89.0,45.0,44.0,0.5056179775280899,319.4786504798183,11978.061643079682,,,,,4010.0,4016.0,4255.0,4272.0,4291.0,4307.0,4312.0,4331.0,4521.0,4605.0,0.13216280217857684,-0.21151658720755073,0.05687448189206164,-0.06570893840180946,0.025506787044304726
4,4,5152.698643600575,1788.9678915999746,10.191861603456228,5286.726017299569,-2225.0984818868487,4.659086826401773,5317.6642699130925,36889.65221041383,8.636654711929475,5331.602712798849,-25562.918671086765,11.5425936041104,5581.10408171634,12131.146541834834,33.59828587366308,0.8898737249005303,128.0,116.0,79.0,272.0,351.0,12.0,1138.0,1016.0,14.0,12.0,2.0,0.8571428571428571,246.26934030577223,1569.0658238606334,37.0,33.0,4.0,0.8918918918918919,503.3929308438729,3168.1887825298627,17.0,12.0,5.0,0.7058823529411765,2112.1555967235768,13319.833622126036,25.0,5.0,20.0,0.2,1882.8990344703168,35356.436160662466,89.0,44.0,45.0,0.4943820224719101,292.72201056614443,11993.0763147301,,,,,5143.0,5155.0,5271.0,5291.0,5306.0,5323.0,5327.0,5350.0,5543.0,5622.0,0.13766001137422298,-0.22623400040118832,0.057256045263753455,-0.07365743554940742,0.024129789344863546
5,5,6110.233966909564,1403.5815450254015,1.1233432910929917,6244.726017299569,-3363.6108910183143,7.64389620259217,6282.813788134045,37006.663288103045,7.97464817147779,6296.452034599137,-24076.153990880262,11.537056151586947,6545.153564973504,11748.587080974488,32.19922491314973,0.879684707112923,122.0,118.0,85.0,271.0,356.0,4.0,959.0,965.0,4.0,2.0,2.0,0.5,305.29089124341596,2215.015055029221,19.0,15.0,4.0,0.7894736842105263,304.40198879292114,2257.431766812439,15.0,10.0,5.0,0.6666666666666666,2199.956045703325,13460.931849935248,24.0,4.0,20.0,0.1666666666666666,1982.2474345446972,32507.39909859367,97.0,51.0,46.0,0.5257731958762887,337.03705700718734,9157.340316451524,,,,,6108.0,6112.0,6230.0,6249.0,6273.0,6288.0,6293.0,6315.0,6514.0,6586.0,0.21750848201547912,-0.09049857390037322,0.05944756566071089,-0.08233239558509,0.0286874544729707
6,6,7089.304198243604,2199.545725963541,2.694302437855411,7211.301356399772,-2498.2525163082296,5.830087208660125,7244.8267407857475,36175.06925998586,7.982745731005773,7258.45203459924,-23830.927835280923,11.351098385210136,7508.0248997410945,12671.714744176432,33.285505844784964,0.8877402408268661,123.0,117.0,65.0,276.0,341.0,6.0,979.0,962.0,6.0,3.0,3.0,0.5,334.42821844196294,2997.800515569992,21.0,12.0,9.0,0.5714285714285714,491.10701303814307,908.9206528507392,17.0,11.0,6.0,0.6470588235294118,2101.111387937153,12698.107729590438,26.0,5.0,21.0,0.1923076923076923,1956.340875051314,31777.907576438927,77.0,35.0,42.0,0.4545454545454545,352.5763272365373,13778.085614673795,,,,,7086.0,7092.0,7209.0,7219.0,7234.0,7250.0,7255.0,7274.0,7473.0,7550.0,0.15204422190198483,-0.19658021350214513,0.05808175162946389,-0.08209251811652143,0.02782388448245109
7,7,8056.302489693126,3247.005025739155,1.896833792361485,8151.417741619139,-1956.7517919808704,1.4233298214130117,8188.336727574809,36963.60532728388,9.089559236928638,8201.452034599139,-28618.67742331163,10.158671327532511,8448.968869992315,12993.13060544129,35.67292196051043,0.8912581017452252,96.0,90.0,68.0,274.0,342.0,6.0,967.0,943.0,6.0,3.0,3.0,0.5,493.2511548478744,1444.0185657002366,5.0,2.0,3.0,0.4,399.5065260245452,743.9596617130147,17.0,12.0,5.0,0.7058823529411765,2237.359785674279,13968.54820937258,22.0,4.0,18.0,0.1818181818181818,2031.959722132366,34133.34580272127,79.0,37.0,42.0,0.4683544303797468,260.61400344893457,13361.778886399235,,,,,8053.0,8059.0,8149.0,8154.0,8176.0,8193.0,8198.0,8217.0,8412.0,8491.0,0.15190957542037978,-0.2041682177891936,0.06052872185665342,-0.07100117493470236,0.020057829892034956
8,8,9052.958381807955,1743.933602386165,1.3437711836006072,9143.630086497842,-2077.5564265618336,32.79544361390101,9193.768409386445,38301.430848788725,8.837327097246789,9207.45203459914,-25957.484003178488,12.167287734777329,9457.720147883723,11623.771948461364,32.31275208708074,0.8802458156686768,77.0,73.0,98.0,272.0,370.0,4.0,997.0,1006.0,4.0,2.0,2.0,0.5,365.9075849963635,1444.3198013988836,39.0,17.0,22.0,0.4358974358974359,265.04860221955056,2831.8318693376314,17.0,11.0,6.0,0.6470588235294118,2111.9146564444445,12359.628654893726,29.0,5.0,24.0,0.1724137931034483,1912.1545919448895,32982.85101621684,78.0,35.0,43.0,0.4487179487179487,324.33821009257855,12370.436121961007,,,,,9051.0,9055.0,9128.0,9165.0,9183.0,9200.0,9204.0,9226.0,9424.0,9498.0,0.2098173832396512,-0.12757708952251268,0.05513931489353833,-0.07366486642968735,0.02790300872476349
9,9,10004.652684417782,3761.400068699131,3.5893975338155473,10122.84906278819,-1598.0540869811423,3.568415327035855,10155.11284761658,34620.60123877762,11.206886604126344,10166.45203459914,-35944.641751284034,8.881969446654214,10412.856451669391,13138.824615913967,36.92817885286989,0.8856223315197175,115.0,108.0,63.0,276.0,339.0,7.0,952.0,958.0,7.0,4.0,3.0,0.5714285714285714,419.2291462125229,4292.096717275445,11.0,7.0,4.0,0.6363636363636364,530.7715422638635,4972.4340514234345,19.0,16.0,3.0,0.8421052631578947,2085.274315596679,10070.562538888047,21.0,4.0,17.0,0.1904761904761904,1975.1733537302111,31599.980626917037,88.0,44.0,44.0,0.5,275.32158981556364,12233.586313390246,,,,,10001.0,10008.0,10116.0,10124.0,10142.0,10158.0,10163.0,10179.0,10369.0,10455.0,0.11145561188802552,-0.3321361564592193,0.06023218086868516,-0.05495042536234633,0.020954811245603312
10,10,10983.272001700989,1814.547458052263,1.453442928752906,11077.876695499284,-1680.4540445903274,12.739827003759268,11114.731043701058,32757.85771630472,9.264325211985774,11129.60271279885,-24941.550278849445,11.03079101171656,11378.10949479597,12198.811339189162,32.79161668060966,0.8885869839361289,94.0,89.0,70.0,273.0,343.0,5.0,978.0,963.0,5.0,2.0,3.0,0.4,344.0146004980128,1399.8322768794187,15.0,3.0,12.0,0.2,359.0129303950681,47.42474248184112,19.0,13.0,6.0,0.6842105263157895,1918.9172187368847,12081.667342833987,25.0,6.0,19.0,0.24,1815.3838747422376,33174.40120272726,83.0,42.0,41.0,0.5060240963855421,293.4776312447837,13260.18001946898,,,,,10981.0,10986.0,11075.0,11089.0,11102.0,11121.0,11125.0,11145.0,11337.0,11418.0,0.18958699535325374,-0.21364043340000455,0.0585788373389806,-0.07278552673935797,0.024057887533843175
11,11,11942.3528607375,1998.9294349952288,3.3211037090966538,12064.87670157958,-2165.196785026953,4.895590188202041,12098.89695057806,36593.036537850036,9.069877348236616,12112.45203459914,-26722.500948139063,10.920661350178133,12373.780764697554,12290.575325022994,31.524985578604277,0.8485801320463203,122.0,116.0,67.0,269.0,336.0,6.0,959.0,984.0,6.0,2.0,4.0,0.3333333333333333,263.9659944049617,2885.477698190365,17.0,9.0,8.0,0.5294117647058824,511.36740357185965,2953.835101021286,17.0,12.0,5.0,0.7058823529411765,2109.3303844142406,12370.72584753766,24.0,4.0,20.0,0.1666666666666666,1927.979639805398,33687.714431613764,83.0,54.0,29.0,0.6506024096385542,360.1664681989136,11294.306125720188,,,,,11940.0,11946.0,12062.0,12072.0,12087.0,12104.0,12109.0,12129.0,12327.0,12398.0,0.13205368322848862,-0.2361759481208051,0.05764294477809878,-0.07214817368879768,0.029304280611309772
12,12,12970.301356399426,1727.8810328447507,10.191861603456228,13086.27398270043,-2309.6296578586876,4.516689344668499,13119.872706224354,35304.45733209584,9.009321287366475,13133.45203459914,-26489.76134466107,10.509882695181243,13381.807972059005,12292.580719900996,33.632022671668494,0.8760253057896652,116.0,106.0,66.0,275.0,341.0,10.0,1030.0,1021.0,10.0,4.0,6.0,0.4,274.98381471659303,1699.921041383805,13.0,5.0,8.0,0.3846153846153846,537.8251015686402,2518.0472450510265,15.0,10.0,5.0,0.6666666666666666,2192.2108150379404,14232.23977401049,22.0,4.0,18.0,0.1818181818181818,2070.193869384496,32476.01250226736,86.0,44.0,42.0,0.5116279069767442,290.371520877408,12585.091021474658,,,,,12966.0,12976.0,13082.0,13094.0,13110.0,13125.0,13130.0,13148.0,13344.0,13423.0,0.15914510865592688,-0.232862052034468,0.06209444870987911,-0.07815071802455997,0.023621689171201686
13,13,13919.127241766211,2342.091687843275,4.650055033018626,14036.698643600574,-1991.841945737467,6.694596977485152,14074.69626068532,34527.43288149437,9.014808201639813,14087.45203459914,-27653.164842312686,9.938404724782565,14336.835512095537,12922.232077484628,34.59604885049422,0.8869704355032902,115.0,107.0,71.0,279.0,350.0,8.0,948.0,954.0,8.0,3.0,5.0,0.375,381.27760748925874,3323.109653289409,8.0,6.0,2.0,0.75,350.8568924093006,1001.822562501037,15.0,11.0,4.0,0.7333333333333333,2060.761115155749,11916.6840852412,23.0,4.0,19.0,0.1739130434782608,1992.543394431489,29994.369713657743,93.0,48.0,45.0,0.5161290322580645,292.328706882346,14096.39224770723,,,,,13916.0,13924.0,14031.0,14039.0,14064.0,14079.0,14084.0,14102.0,14303.0,14381.0,0.16279362992845078,-0.17614695441078185,0.05968474755214868,-0.0720548047861291,0.022622152669095934
14,14,14677.976278979242,2885.881238977681,1.8659195676399176,14992.698643600574,-2208.0419001113773,5.373959573106277,15029.437670479228,36173.15126411461,9.79948425229568,15042.45203459914,-29909.203846121472,10.369828309789789,15289.858942250352,12246.095099434311,35.683749003292974,0.891550774827742,312.0,306.0,71.0,275.0,346.0,6.0,758.0,955.0,6.0,3.0,3.0,0.5,394.2254716011969,2866.367736340541,17.0,7.0,10.0,0.4117647058823529,454.5889592644538,1115.6775018850483,18.0,13.0,5.0,0.7222222222222222,2096.6683531082967,11951.947778247171,25.0,3.0,22.0,0.12,1966.047070250977,33255.18405649807,93.0,47.0,46.0,0.5053763440860215,340.5708401788576,11554.223037494628,,,,,14675.0,14681.0,14987.0,15000.0,15016.0,15034.0,15039.0,15058.0,15251.0,15333.0,0.13660488390050682,-0.20587877396779636,0.05796200441038948,-0.06573384836206289,0.027810566340824003
15,15,15687.150678199714,1949.0982232152796,2.2582641642373753,15973.150678199714,-2084.7797824138156,4.8325919125607815,16005.768868727777,35038.2787143305,9.027064346445403,16019.876695499284,-25760.8481608289,11.024741410014231,16267.353316428143,11493.221512736936,32.84205509199394,0.8880303001513037,281.0,274.0,72.0,270.0,342.0,7.0,1010.0,977.0,7.0,4.0,3.0,0.5714285714285714,331.4082870663795,1200.8205009345977,16.0,13.0,3.0,0.8125,478.4566272934839,2431.8882284893143,18.0,13.0,5.0,0.7222222222222222,2119.671981753999,11535.579590832407,21.0,4.0,17.0,0.1904761904761904,1960.3937534951367,35154.572824014744,72.0,33.0,39.0,0.4583333333333333,412.930389446608,14362.164497281792,,,,,15683.0,15690.0,15964.0,15976.0,15994.0,16011.0,16017.0,16036.0,16234.0,16306.0,0.1700315987768335,-0.2294998403809891,0.06049589362068355,-0.07609973636178824,0.03592816765856233
16,16,16837.69864360057,1416.1152086442034,10.191861603456228,16953.185376865753,-2936.9542914232757,3.7538982919611055,16991.64029778884,32619.91121683933,9.426407891131714,17005.027373698995,-27617.825123400267,9.169053799708024,17252.879641859556,12767.651774618873,34.7378173781868,0.8887907823667152,116.0,108.0,72.0,277.0,349.0,8.0,1148.0,985.0,11.0,9.0,2.0,0.8181818181818182,300.6718425429072,2042.690160639256,8.0,5.0,3.0,0.625,490.58474025304,2618.1753299330608,15.0,11.0,4.0,0.7333333333333333,2060.5619816903804,12836.936307094336,22.0,5.0,17.0,0.2272727272727272,1889.910745643025,33820.698151776785,89.0,44.0,45.0,0.4943820224719101,280.6870136929656,12347.142229287514,,,,,16832.0,16840.0,16948.0,16956.0,16981.0,16996.0,17001.0,17020.0,17214.0,17297.0,0.21232159693473815,-0.16703860243439406,0.06316884089576122,-0.06843083179789292,0.021984231607173856
17,17,17804.557169616466,2834.308357663054,2.87890964053526,17897.72601729957,-1923.3693971358357,5.246937970637797,17933.43760559082,34680.54695669599,8.314911240018448,17947.027373698995,-25075.335390668944,10.230204324430456,18203.808138396547,12566.511124601602,32.63265897060932,0.8721313374868331,95.0,85.0,65.0,278.0,343.0,10.0,969.0,942.0,10.0,5.0,5.0,0.5,321.327731179573,1913.4450646436435,13.0,9.0,4.0,0.6923076923076923,408.5888233086832,1280.7908581756903,16.0,10.0,6.0,0.625,2209.6443068983995,13241.431474478668,18.0,4.0,14.0,0.2222222222222222,2124.043688601522,33206.05838731269,79.0,45.0,34.0,0.569620253164557,269.21647757150754,11947.46422770148,,,,,17800.0,17810.0,17895.0,17902.0,17923.0,17939.0,17943.0,17960.0,18159.0,18238.0,0.11337077361777051,-0.21243387979299697,0.06371422889199185,-0.08470649167834951,0.021423327039790652
18,18,18752.05399087154,3060.6537401907713,3.7919170587194655,18842.849321800284,-1098.291066658,3.695067940197316,18883.12263524772,39392.73525464529,10.772190187237332,18894.027373698995,-38676.59651418586,9.036931976809054,19150.657460196835,13083.3392795426,35.516778690644294,0.8730714843923341,93.0,84.0,69.0,273.0,342.0,9.0,948.0,947.0,11.0,6.0,5.0,0.5454545454545454,361.5113554308656,2912.5147117119773,7.0,3.0,4.0,0.4285714285714285,360.9664505995765,392.0612774461888,18.0,15.0,3.0,0.8333333333333334,2226.522758416546,11552.56872379787,23.0,5.0,18.0,0.217391304347826,2062.642365813093,33371.3406264772,82.0,48.0,34.0,0.5853658536585366,316.8187351981215,13368.0685292158,,,,,18747.0,18756.0,18840.0,18844.0,18870.0,18886.0,18890.0,18909.0,19104.0,19182.0,0.1181157315130762,-0.32866191992070426,0.05652115152765354,-0.05333050350116908,0.024215433722910962
19,19,19712.12435396105,3432.0588808664406,2.697698719686791,19847.72601729957,-3024.5673719765077,5.495107371435047,19882.081078075546,36415.860266340074,8.201076411391838,19896.72486008423,-23340.374012853856,12.329829844379752,20145.098263059583,11588.09088779863,31.7036088091799,0.8719671373013987,131.0,124.0,78.0,266.0,344.0,7.0,959.0,1002.0,7.0,3.0,4.0,0.4285714285714285,385.04355563381654,4853.980311813691,12.0,8.0,4.0,0.6666666666666666,491.5486669984448,359.3581844024709,17.0,11.0,6.0,0.6470588235294118,2116.427403642252,13033.887409504192,26.0,5.0,21.0,0.1923076923076923,1844.8871988935496,36273.09272930258,80.0,40.0,40.0,0.5,325.8845200017919,12168.8019888116,,,,,19709.0,19716.0,19840.0,19852.0,19872.0,19888.0,19893.0,19918.0,20105.0,20184.0,0.11219025343079497,-0.16251867012544852,0.05811828659718659,-0.07904274361145822,0.028122364862095038
20,20,20710.1506781999,1498.2666788494998,5.095930801728113,20826.52190788562,-2672.5791113702685,3.5393561861556924,20857.33552910917,33693.651626224855,8.169258827041025,20872.027373698995,-23691.241716830853,10.08805138006542,21120.358802389415,12948.77556989803,34.02263691207308,0.8890518575950273,113.0,108.0,62.0,278.0,340.0,5.0,999.0,975.0,7.0,2.0,5.0,0.2857142857142857,320.9353288396088,1971.247864640088,8.0,5.0,3.0,0.625,546.0823970779095,1643.3371872170155,16.0,10.0,6.0,0.625,2201.2325796064415,14764.443905744636,19.0,5.0,14.0,0.2631578947368421,2040.6811218818864,35329.466005702445,83.0,40.0,43.0,0.4819277108433735,286.9066106733225,11991.777190031546,,,,,20709.0,20714.0,20822.0,20830.0,20848.0,20863.0,20868.0,20884.0,21083.0,21162.0,0.2142044092484597,-0.20432786994205213,0.06533078112237474,-0.08613652024968094,0.02215704559281213
21,21,21709.150678199716,2171.1081018597047,2.0985177570340916,21782.871901116352,-2024.021286325773,4.11572044853402,21819.281712719618,38644.60152315412,8.777493679861925,21831.876695499283,-29264.95207589648,10.657659371225394,22079.86660670783,12609.249104694103,35.05752181961822,0.8755605526515454,75.0,66.0,69.0,274.0,343.0,9.0,999.0,962.0,10.0,7.0,3.0,0.7,358.08305181503187,2212.2401879838126,10.0,5.0,5.0,0.5,411.39921326538786,287.56600195640317,17.0,12.0,5.0,0.7058823529411765,2239.610041424376,11725.63898818454,21.0,4.0,17.0,0.1904761904761904,2124.545419917019,34587.729705542784,91.0,46.0,45.0,0.5054945054945055,474.4786839874918,12104.797886273753,,,,,21703.0,21712.0,21778.0,21788.0,21808.0,21824.0,21829.0,21847.0,22047.0,22121.0,0.1649310098876739,-0.20325834320260788,0.05795402082442232,-0.07259692120483123,0.03762941631558817
22,22,22686.30135639943,1808.4247226880984,10.191861603456228,22798.876695499283,-1955.1012558386344,9.848020832332375,22838.84979935281,36418.60592095006,8.499382140814122,22853.027373698995,-24343.56022273992,11.543177645066985,23101.679652791263,12053.289754918564,33.869650794326965,0.8880753843820954,114.0,104.0,75.0,273.0,348.0,10.0,978.0,1020.0,11.0,5.0,6.0,0.4545454545454545,305.8174328242774,1069.2869039024206,12.0,3.0,9.0,0.25,320.7358117636002,947.6780396302778,18.0,12.0,6.0,0.6666666666666666,2134.0850468912968,13360.597775191403,25.0,4.0,21.0,0.16,1895.4687742295405,35182.466978417724,88.0,46.0,42.0,0.5227272727272727,302.780556067611,12268.729045588498,,,,,22682.0,22692.0,22796.0,22807.0,22827.0,22845.0,22849.0,22871.0,23057.0,23144.0,0.16910708473930885,-0.1640507420297378,0.05859875722655406,-0.07786325241198436,0.02512015907889843
23,23,23705.30135639943,2227.139463653536,10.191861603456127,23821.301356399483,-1584.6902695371175,10.19186160324524,23860.71373281152,37215.83939830105,8.651716681084222,23874.027373698995,-25255.04292268134,11.510402107890062,24127.3834774964,12527.762678764171,32.6537723825832,0.88247015837812,122.0,108.0,74.0,270.0,344.0,14.0,1019.0,1022.0,14.0,8.0,6.0,0.5714285714285714,300.8002822383324,1735.4774685149678,9.0,3.0,6.0,0.3333333333333333,299.6317230596186,1174.7858645786011,16.0,11.0,5.0,0.6875,2123.3021817324448,13701.26302892574,27.0,5.0,22.0,0.1851851851851851,1917.0583660923471,31658.840775328885,80.0,43.0,37.0,0.5375,264.2448442572772,13151.846775404543,,,,,23697.0,23711.0,23819.0,23827.0,23850.0,23866.0,23870.0,23893.0,24085.0,24163.0,0.13506126901675083,-0.18907904517337634,0.05705372271757429,-0.07590794329518455,0.021092740262808378
24,24,24568.53439747638,1917.271871009468,1.7344796576958283,24788.72601729957,-2984.9063324691406,6.243549074712305,24825.940842919135,35646.192427996975,8.587181143648236,24839.45203459914,-25334.69384101634,11.48709414964079,25088.822739985208,12426.532418255132,32.67694250470893,0.8731506782344429,215.0,210.0,75.0,277.0,352.0,5.0,861.0,965.0,5.0,3.0,2.0,0.6,318.3547391698491,875.9474475697917,17.0,9.0,8.0,0.5294117647058824,397.62657392215385,1453.6939903926952,15.0,10.0,5.0,0.6666666666666666,2138.1260912817347,13393.712504710556,26.0,5.0,21.0,0.1923076923076923,2001.3910860888368,32166.261097240604,87.0,42.0,45.0,0.4827586206896552,282.51519334862485,13786.990820756026,,,,,24566.0,24571.0,24781.0,24793.0,24816.0,24831.0,24836.0,24856.0,25047.0,25133.0,0.1660456943971286,-0.13321241259628863,0.059981892753359634,-0.07899803718364366,0.022734837349605058
25,25,25672.849321800284,2148.75397819059,5.095930801728113,25772.30135639943,-1923.971095317285,6.072989614684873,25811.758105307217,39137.069045832555,8.67074065278606,25825.027373698995,-27039.777555769226,11.402918321668992,26074.088988006817,12460.914377015852,33.82475320078467,0.8969045721915618,97.0,86.0,76.0,269.0,345.0,11.0,1104.0,986.0,11.0,3.0,8.0,0.2727272727272727,298.0137520230589,1241.6250977551394,13.0,6.0,7.0,0.4615384615384615,274.46191395432265,785.0194670819191,16.0,11.0,5.0,0.6875,2212.9435561845617,14142.389795543306,25.0,4.0,21.0,0.16,2008.2665633999015,34151.4948529657,84.0,44.0,40.0,0.5238095238095238,371.49054307145224,11527.803266067658,,,,,25670.0,25681.0,25767.0,25778.0,25801.0,25817.0,25821.0,25843.0,26041.0,26112.0,0.13869142537853896,-0.1426538655504389,0.0565434154916668,-0.07427082413151792,0.0298124625393997
26,26,26645.27398270043,1724.2574159096891,3.264395437115453,26764.602712798853,-2903.5018681322304,7.304249448552702,26800.881595566934,36800.015716842136,7.951251246238306,26815.027373698995,-23470.443748029786,11.504171907760142,27074.08212109698,12341.12296546814,30.51333835790982,0.853712323853972,111.0,104.0,78.0,274.0,352.0,7.0,972.0,989.0,7.0,4.0,3.0,0.5714285714285714,286.0229935987549,1935.050180793672,39.0,27.0,12.0,0.6923076923076923,400.97361302028264,421.42356321189857,16.0,10.0,6.0,0.625,2243.2187016459493,13971.485058326914,24.0,5.0,19.0,0.2083333333333333,2049.0474101072955,34391.984906774866,76.0,45.0,31.0,0.5921052631578947,293.39853964490885,12520.998598424756,,,,,26641.0,26648.0,26752.0,26776.0,26792.0,26807.0,26811.0,26830.0,27029.0,27104.0,0.1658818404720933,-0.13810000173281156,0.06095700390202016,-0.08730330930702158,0.02377405528377533
27,27,27621.370329855108,2849.6549787455347,3.2167186203405773,27716.72601729957,-1540.9195790963497,6.119095209358366,27753.569523031187,36070.88032852166,8.724649183682809,27767.027373698995,-25924.68916376695,10.778861005854276,28015.52507907087,12538.568492828326,34.89506417378069,0.8770640152178668,93.0,85.0,72.0,273.0,345.0,8.0,978.0,952.0,10.0,5.0,5.0,0.5,375.7131863222407,2509.419109173221,11.0,7.0,4.0,0.6363636363636364,389.90215862517806,211.29780406162945,18.0,13.0,5.0,0.7222222222222222,2094.09740078324,13718.669012093742,22.0,4.0,18.0,0.1818181818181818,1940.1112192674636,33059.63328787909,77.0,37.0,40.0,0.4805194805194805,328.2490186585279,13127.000494007834,,,,,27617.0,27625.0,27710.0,27721.0,27741.0,27759.0,27763.0,27782.0,27980.0,28055.0,0.13184514936879688,-0.25303212699382444,0.05805506773638161,-0.07483643128801774,0.026179146275452116
28,28,28552.938939815835,2638.9150432770093,4.2603181508786285,28670.494639888395,-1525.397240118239,3.1735810855007154,28707.63363594933,37023.869540463056,8.715535613251376,28722.027373698995,-24657.31256065488,11.044489308293889,28971.109494795972,12626.24569339393,36.097172008349666,0.8963598304328126,118.0,107.0,71.0,275.0,346.0,11.0,931.0,955.0,11.0,6.0,5.0,0.5454545454545454,324.8526192748829,3426.8431249002315,10.0,5.0,5.0,0.5,300.5322306786568,342.6536493698271,18.0,12.0,6.0,0.6666666666666666,2212.320198813855,15417.988032379342,26.0,5.0,21.0,0.1923076923076923,2037.7301193395892,34296.096958010705,81.0,38.0,43.0,0.4691358024691358,357.97834589703604,13865.616556487574,,,,,28547.0,28558.0,28665.0,28675.0,28697.0,28713.0,28718.0,28736.0,28935.0,29011.0,0.1231008251298156,-0.1970189946425768,0.059753889214524965,-0.08264202006309275,0.02835192301733292
29,29,29561.69864360057,2251.6750012268326,10.191861603456228,29670.876695499283,-1413.808152051253,4.224487441119969,29708.960916949793,36550.33627105509,8.819267249826334,29722.876695499283,-25123.86682526044,10.560518949616869,29970.059084686545,12930.274348025028,37.18156547485956,0.898833340277924,117.0,103.0,70.0,275.0,345.0,14.0,1007.0,1001.0,17.0,15.0,2.0,0.8823529411764706,272.4595702504703,2748.4542178077654,11.0,4.0,7.0,0.3636363636363636,336.38473680828594,425.9092046312561,17.0,11.0,6.0,0.6470588235294118,2170.9371956467176,14439.356942994087,21.0,4.0,17.0,0.1904761904761904,1950.4572797350925,33377.82497014819,86.0,41.0,45.0,0.4767441860465116,287.71845071218985,14381.591798997362,,,,,29550.0,29564.0,29667.0,29678.0,29698.0,29715.0,29720.0,29737.0,29933.0,30012.0,0.12100306221014125,-0.2379281349596373,0.05939582004245265,-0.07763364187928398,0.022251534883800512
30,30,30566.44079154576,2039.834139102745,3.583022849466293,30681.726017299578,-1762.472538001887,7.643896202592075,30720.43058126592,36032.47489517275,8.602431474807283,30734.452034599315,-24365.946624572327,10.97020194442727,30997.08212109698,12781.502150593797,32.89963959574262,0.8614797418637146,115.0,108.0,70.0,278.0,348.0,7.0,1006.0,1012.0,7.0,2.0,5.0,0.2857142857142857,318.66765133573983,3465.7531498121934,16.0,8.0,8.0,0.5,257.2208255862417,926.6555252385168,18.0,12.0,6.0,0.6666666666666666,2085.7788713705836,13508.368831471067,26.0,4.0,22.0,0.1538461538461538,1974.7577404562935,31287.673407285372,84.0,53.0,31.0,0.6309523809523809,302.61177586760454,11865.846171077592,,,,,30564.0,30571.0,30679.0,30686.0,30709.0,30726.0,30731.0,30749.0,30945.0,31027.0,0.15622233456486373,-0.1459431679303512,0.05788608407939289,-0.08104580424816368,0.023675759883477074
31,31,31544.47579253628,3357.9220904310328,3.13948054514674,31674.150678199716,-2798.324922452179,3.2669348504725235,31702.674683196343,32984.93331586296,8.250219697366086,31718.178051898707,-22841.42092675074,11.097992432022597,31965.684833895823,12512.557063308224,34.485047433858576,0.8843439408917596,121.0,111.0,75.0,272.0,347.0,10.0,979.0,982.0,10.0,5.0,5.0,0.5,389.9490285138467,3744.5456798126543,17.0,14.0,3.0,0.8235294117647058,588.0742850565604,2967.6871179161285,17.0,11.0,6.0,0.6470588235294118,2036.873226600753,12727.624280584683,24.0,5.0,19.0,0.2083333333333333,1866.6560550871725,34541.27515537918,87.0,43.0,44.0,0.4942528735632184,286.08088662691085,12356.325695706284,,,,,31539.0,31549.0,31660.0,31677.0,31693.0,31709.0,31713.0,31735.0,31927.0,32007.0,0.11612807504530033,-0.2101522522771335,0.061751624812932074,-0.08172241390206322,0.022863503053729393
32,32,32542.72601729957,2073.3939053678005,5.362075215805638,32646.45203459914,-2050.6112238552523,7.147554663820038,32685.40367549899,37380.44113640115,8.93021656795172,32698.876695499283,-27509.190296330275,11.137116533046427,32947.436125838416,12417.54532737464,33.78252030076472,0.896964379334058,108.0,96.0,73.0,272.0,345.0,12.0,999.0,982.0,12.0,8.0,4.0,0.6666666666666666,334.1225917119998,2260.2882625052853,12.0,3.0,9.0,0.25,300.4213112397963,1193.8279920432583,17.0,11.0,6.0,0.6470588235294118,2171.478896379881,12386.754007812837,24.0,4.0,20.0,0.1666666666666666,1987.120409104477,36051.0853022862,90.0,46.0,44.0,0.5111111111111111,316.80870123381425,12123.934258060124,,,,,32535.0,32547.0,32643.0,32655.0,32674.0,32691.0,32696.0,32716.0,32914.0,32988.0,0.16114766752568882,-0.14650329996487052,0.05809131273909153,-0.07223478363772702,0.02551298931322645
33,33,33536.69864360057,1866.3531276355177,10.191861603456228,33660.37407278077,-1276.167104217756,5.095930801728113,33696.62219980583,34715.57967785831,10.191861603456228,33709.027373699,-31958.853243187063,9.361394350140044,33957.06763089903,12384.608719374291,35.337448299469045,0.8777793600259004,127.0,117.0,67.0,275.0,342.0,10.0,991.0,1010.0,12.0,9.0,3.0,0.75,277.2066370552487,2071.3005896035643,6.0,4.0,2.0,0.6666666666666666,558.8712950267638,3078.6070760425496,15.0,12.0,3.0,0.8,2171.4333650367944,12619.125744208211,23.0,5.0,18.0,0.217391304347826,2009.0773048004603,34040.04876301152,85.0,42.0,43.0,0.4941176470588235,272.5656520900342,12469.537353816926,,,,,33529.0,33539.0,33656.0,33662.0,33685.0,33700.0,33705.0,33723.0,33919.0,33998.0,0.14852850350267943,-0.43792955732809896,0.0625492469141093,-0.06286449922068942,0.02200841853514812
34,34,34540.30135639943,2103.233543004864,10.15801246462168,34658.74920556712,-3096.22228426678,2.3184125624806935,34686.66093674394,33675.172392028486,9.372415520454398,34700.027373699,-27219.095447383213,10.074538581007738,34948.00320166837,12761.104273016155,36.061538243183975,0.8966802094238671,118.0,109.0,58.0,276.0,334.0,9.0,1007.0,992.0,15.0,8.0,7.0,0.5333333333333333,289.4252263769128,2152.298471198548,5.0,3.0,2.0,0.6,708.6365684765618,5162.828426230241,19.0,14.0,5.0,0.7368421052631579,2014.0339794894812,12052.90322889989,24.0,4.0,20.0,0.1666666666666666,1905.6791303831533,32309.002338288698,95.0,48.0,47.0,0.5052631578947369,290.03167332507473,12858.739310268164,,,,,34538.0,34547.0,34656.0,34661.0,34673.0,34692.0,34696.0,34714.0,34912.0,34990.0,0.13760964745903329,-0.22887134818370278,0.05980768133992505,-0.07001258120671168,0.022727788059718142
35,35,35532.085123040226,1688.8073972179618,2.9567486089638244,35629.410912822925,-3354.861316105085,2.915127432179915,35658.7453836311,32970.344706450946,8.694792251955851,35673.60271279886,-25560.79498468851,10.01667418531956,35922.808138396555,12418.48260336045,33.100896859966916,0.8908363330650649,95.0,89.0,62.0,270.0,332.0,6.0,991.0,972.0,11.0,6.0,5.0,0.5454545454545454,349.2241977415095,944.1529762086597,8.0,4.0,4.0,0.5,596.0706156931655,2840.818441890583,17.0,12.0,5.0,0.7058823529411765,2160.9343729580346,13029.69552900548,18.0,5.0,13.0,0.2777777777777778,2052.9381313476956,35996.62108988561,81.0,41.0,40.0,0.5061728395061729,363.63516741596226,11840.337423693953,,,,,35530.0,35536.0,35625.0,35633.0,35648.0,35664.0,35669.0,35687.0,35888.0,35957.0,0.20678746334057993,-0.17767369781627498,0.06554175857722314,-0.08031589520503771,0.029281771294470578
36,36,36414.97280131901,2138.3744356450266,1.9433731354682593,36624.60271279886,-2705.3777456926196,8.653007841135226,36663.62857840112,33753.81200852734,9.054148702450982,36678.027373699,-25645.623225783016,10.880264399989164,36926.68483389583,12424.71712164731,34.84415923444298,0.886897396667609,208.0,203.0,73.0,275.0,348.0,5.0,882.0,1005.0,5.0,3.0,2.0,0.6,364.406070734089,830.4482539543963,18.0,5.0,13.0,0.2777777777777778,340.51520293969406,1759.4120775367064,18.0,13.0,5.0,0.7222222222222222,2072.852414814758,12970.126560279818,22.0,5.0,17.0,0.2272727272727272,1909.808297596086,34682.8371542743,97.0,51.0,46.0,0.5257731958762887,310.02251417999355,11223.19770001698,,,,,36412.0,36417.0,36620.0,36638.0,36651.0,36669.0,36674.0,36693.0,36888.0,36968.0,0.17041265769910324,-0.12586604716544558,0.06141091306342188,-0.0744691708515801,0.024952078276281087
37,37,37532.5586400957,2654.965022274206,1.951970801109414,37626.726017299574,-2410.9559235748343,3.627827512772416,37657.54762803249,34162.552694081416,8.070836992856925,37672.027373699,-22848.979171534495,10.962830350825351,37920.95784731396,12413.50906860912,32.92203260379789,0.8724802924890968,88.0,83.0,66.0,276.0,342.0,5.0,1117.0,994.0,5.0,3.0,2.0,0.6,314.63638665403255,1646.6078195668997,13.0,9.0,4.0,0.6923076923076923,538.429937614393,2495.116982820391,15.0,10.0,5.0,0.6666666666666666,2177.390641163295,13531.695470896537,18.0,5.0,13.0,0.2777777777777778,2077.5949143572157,34314.07268792065,84.0,41.0,43.0,0.4880952380952381,320.2046239035791,12506.346665122295,,,,,37530.0,37535.0,37618.0,37631.0,37648.0,37663.0,37668.0,37684.0,37882.0,37960.0,0.11850867488435662,-0.22332632975555952,0.0637361809774983,-0.0909272531941167,0.025794851571285526
38,38,38458.84932180029,2040.249060137002,2.3553157475009923,38585.7260172997,-2202.839933790154,5.86507233445695,38619.76146650655,36445.98125482658,8.49679681670579,38632.8766954993,-27573.365149821388,10.752900948559626,38881.850250302115,12175.042652439,33.207998144453164,0.8857388500409217,116.0,107.0,76.0,273.0,349.0,9.0,926.0,962.0,10.0,4.0,6.0,0.4,335.80129034030375,2018.6531799940951,23.0,14.0,9.0,0.6086956521739131,536.2662242651912,2383.9619925822453,16.0,11.0,5.0,0.6875,2206.052381732353,11398.678393290122,20.0,4.0,16.0,0.2,2095.140230848978,35644.35455908155,79.0,36.0,43.0,0.4556962025316455,317.6779020964143,11724.335535355478,,,,,38456.0,38465.0,38572.0,38590.0,38609.0,38625.0,38630.0,38648.0,38848.0,38921.0,0.1645883813409304,-0.24344311905700033,0.06052937267096363,-0.07598420502774757,0.026092549419757027
39,39,39437.84932180029,1295.890884470676,5.09593080172067,39552.15067819971,-2613.8331960126065,5.095930801726668,39588.15578839859,36682.03804417945,8.372625397593312,39602.45203459914,-24031.002318175324,11.286142766364083,39859.2327992967,12270.0507282354,31.52212579168534,0.889433857283717,110.0,100.0,74.0,273.0,347.0,10.0,979.0,968.0,12.0,4.0,8.0,0.3333333333333333,282.27507511851167,1015.1339529113789,10.0,7.0,3.0,0.7,381.2113747865516,566.4584072889577,16.0,10.0,6.0,0.625,2249.4744362648653,16017.822705713656,23.0,4.0,19.0,0.1739130434782608,1980.571274789747,33761.31647716233,85.0,46.0,39.0,0.5411764705882353,328.27217691710587,11175.68936886459,,,,,39435.0,39445.0,39545.0,39555.0,39578.0,39594.0,39599.0,39619.0,39814.0,39892.0,0.21782318133506334,-0.1458438034102896,0.06132359476743421,-0.08241733942540487,0.0267539380388785
40,40,40431.69864360057,2740.70501359825,4.380624555695246,40551.15067819971,-1732.931632345361,5.095930801728113,40585.94619024157,35161.38382662463,8.697748623598276,40600.027373699,-24085.473760129167,10.597004612118766,40846.89852487297,12449.820477586129,37.028655051099854,0.8906197336461504,116.0,105.0,73.0,275.0,348.0,11.0,993.0,998.0,11.0,6.0,5.0,0.5454545454545454,284.6145775182016,2743.2317518595214,12.0,9.0,3.0,0.75,421.82138023284114,1470.7406732959353,16.0,11.0,5.0,0.6875,2183.1652379652733,14996.263620800994,21.0,4.0,17.0,0.1904761904761904,1937.6827756264945,32810.83558881942,86.0,41.0,45.0,0.4767441860465116,294.82075291711095,12831.552022571366,,,,,40426.0,40437.0,40542.0,40554.0,40575.0,40591.0,40596.0,40615.0,40812.0,40890.0,0.10384721307330094,-0.2434149001377194,0.06208985541439793,-0.08045026620294735,0.023680723223912153
41,41,41432.15067819971,1968.557757585762,4.5574469849694195,41530.15067819971,-1795.4224874992938,3.1370780381234775,41557.968249433026,31699.90415116349,9.159849845466546,41573.027373699,-24708.444385021197,9.539309160987692,41816.7672007033,12529.5329350046,37.27166336464417,0.8900757925277184,98.0,93.0,57.0,276.0,333.0,5.0,1003.0,972.0,15.0,9.0,6.0,0.6,400.0662606177113,1394.487036378352,12.0,9.0,3.0,0.75,632.0793789923022,4923.8566286325695,19.0,13.0,6.0,0.6842105263157895,2052.59677771776,13912.012107896206,18.0,5.0,13.0,0.2777777777777778,1909.985646184129,33803.96134322096,98.0,45.0,53.0,0.4591836734693877,519.7485322790022,12050.958997896036,,,,,41431.0,41436.0,41529.0,41533.0,41545.0,41564.0,41569.0,41586.0,41784.0,41862.0,0.20322810396396615,-0.3520504969683637,0.06475088277648382,-0.07730092661527507,0.041481876058360144
42,42,42226.84932180029,2095.0412637024356,1.6283823373843025,42470.84932180029,-2297.125635181095,5.095930801720366,42508.620141287225,33691.98216529894,8.633966063136294,42524.027373699,-23479.5111112799,10.719989151805072,42772.68483389583,12527.298528731764,34.76667736141065,0.8881279517827303,244.0,238.0,69.0,277.0,346.0,6.0,793.0,951.0,6.0,3.0,3.0,0.5,316.41486724784795,1493.9331324782722,12.0,4.0,8.0,0.3333333333333333,394.6605515408074,753.3285736229684,18.0,12.0,6.0,0.6666666666666666,2130.01818016052,13835.855468467864,19.0,5.0,14.0,0.2631578947368421,1891.449792764693,36108.355134748635,90.0,49.0,41.0,0.5444444444444444,280.8033306663894,12608.364240155268,,,,,42224.0,42230.0,42468.0,42479.0,42497.0,42515.0,42520.0,42537.0,42730.0,42814.0,0.15103037478539574,-0.17180625451933287,0.06322032849567195,-0.0805574606643327,0.0224153140457504
43,43,43343.752646487395,1974.5192952844604,2.2568956367455466,43481.15067819971,-1860.4353822426929,4.222118228396783,43511.98432882872,36093.58216500731,8.637026128301095,43526.45203459914,-24968.600197046075,11.045642001764666,43774.84534742308,12179.23989234037,33.998614865300766,0.8868314655441993,127.0,120.0,76.0,274.0,350.0,7.0,1118.0,1003.0,7.0,4.0,3.0,0.5714285714285714,348.1512260045496,2645.5255938231508,20.0,14.0,6.0,0.7,522.847382531023,3111.2813091030116,17.0,11.0,6.0,0.6470588235294118,2176.4673954081154,13466.992178290518,23.0,4.0,19.0,0.1739130434782608,1989.1855446009552,35546.81225950959,85.0,41.0,44.0,0.4823529411764706,306.66129733234135,12669.421086560724,,,,,43340.0,43347.0,43467.0,43484.0,43501.0,43518.0,43523.0,43543.0,43738.0,43817.0,0.17632201763538247,-0.28103495962367037,0.060300675767178305,-0.07966748351540696,0.025179017741920273
44,44,44361.30135639943,2111.6445069801534,8.641001337780406,44487.15067819971,-3428.3387892775236,2.9053239420765737,44515.19428551401,35896.909952662194,8.494825299326063,44529.027373699,-25140.243253781835,11.206234274668304,44779.533781411395,12255.663974487605,32.553223583664725,0.894007204601516,130.0,116.0,61.0,274.0,335.0,14.0,1019.0,1003.0,15.0,8.0,7.0,0.5333333333333333,342.8089035906235,987.3644827165904,11.0,7.0,4.0,0.6363636363636364,678.0696915136524,2572.038692340155,18.0,12.0,6.0,0.6666666666666666,2077.674129875681,13056.745399024803,23.0,4.0,19.0,0.1739130434782608,1935.936678657322,33808.73860169675,95.0,47.0,48.0,0.4947368421052631,277.971417154076,11916.295173813356,,,,,44353.0,44367.0,44483.0,44490.0,44503.0,44521.0,44525.0,44544.0,44748.0,44818.0,0.16234214729678714,-0.19778374693725834,0.05787891304893769,-0.0770054871432519,0.022681057324411318
45,45,45305.23734731697,2168.7552634142617,2.2234387760509167,45458.900382784,-1647.7564585169073,7.64389620259217,45498.34955508015,36715.197337438774,8.419013655467497,45512.45203459914,-23776.577191453907,11.621464476273603,45761.555138982374,12549.955896859286,35.61007028416846,0.8890486219151598,156.0,147.0,72.0,276.0,348.0,9.0,942.0,984.0,9.0,4.0,5.0,0.4444444444444444,352.985927554365,1861.354555590925,12.0,3.0,9.0,0.25,302.0757874439929,1402.1563746338252,17.0,11.0,6.0,0.6470588235294118,2046.1788522332704,13572.340227768364,26.0,5.0,21.0,0.1923076923076923,1817.4470635354908,32790.4783457409,87.0,43.0,44.0,0.4942528735632184,323.45169442713836,13225.535221994063,,,,,45301.0,45310.0,45457.0,45468.0,45488.0,45504.0,45509.0,45529.0,45720.0,45805.0,0.1627596868623437,-0.18332550655931376,0.055731114105895485,-0.07643854911920382,0.025773133952453522
46,46,46321.51401772901,1858.723022349863,4.294090087516989,46443.726017299574,-2638.675781979275,4.696305537529684,46479.45942857287,37804.15899954382,8.751136323661402,46493.027373699,-26639.072397562795,10.92034554728314,46742.68483389583,12701.38361173497,35.03328301345436,0.881106518433792,122.0,112.0,74.0,273.0,347.0,10.0,1016.0,981.0,10.0,7.0,3.0,0.7,278.98917117787295,2868.5546635460837,13.0,8.0,5.0,0.6153846153846154,432.18267900330176,832.5788007599708,18.0,12.0,6.0,0.6666666666666666,2283.522984342931,13662.774526458245,24.0,4.0,20.0,0.1666666666666666,2082.377025695442,34787.69327555956,93.0,52.0,41.0,0.5591397849462365,275.84870169580125,12650.380567687174,,,,,46315.0,46325.0,46437.0,46448.0,46468.0,46485.0,46489.0,46511.0,46705.0,46784.0,0.15009722687200863,-0.1637877157757975,0.06040401492255088,-0.07817002764277778,0.021718004126805614
47,47,47332.433048311555,3026.730934575852,3.5029542266976215,47463.72601729984,-1869.782684432427,7.64389620259217,47508.52649302326,36794.708368145824,8.259581589935141,47522.87669549929,-24594.89102286081,11.290378427785686,47770.97698748487,11872.73346034418,33.98986173475384,0.8862692093244449,135.0,126.0,77.0,270.0,347.0,9.0,1011.0,1028.0,9.0,5.0,4.0,0.5555555555555556,417.3341457469964,4476.9702948518725,12.0,2.0,10.0,0.1666666666666666,266.79506029629346,1780.080056158008,16.0,11.0,5.0,0.6875,2234.1000921566315,13951.149398169426,21.0,4.0,17.0,0.1904761904761904,1969.4282430611192,36686.67171905098,86.0,42.0,44.0,0.4883720930232558,280.7746982663442,12851.019667082594,,,,,47327.0,47336.0,47462.0,47471.0,47498.0,47514.0,47520.0,47539.0,47737.0,47809.0,0.13788280318530496,-0.1426877371994057,0.06071797253571257,-0.08007468873232847,0.023648698861483984
48,48,48134.01404909595,2026.4190231943269,3.466857523117886,48453.30135639943,-2304.0167992932165,4.594925739500997,48485.81823013845,35048.35025090242,8.170070577858157,48500.027373699,-24101.700227849567,11.13937254551426,48748.711118930536,12471.109620562584,33.871795647288,0.8815114372848514,313.0,301.0,71.0,275.0,346.0,12.0,801.0,978.0,12.0,5.0,7.0,0.4166666666666667,381.4112884615057,833.2537140800397,19.0,12.0,7.0,0.631578947368421,518.0434555695471,1973.143602886648,15.0,10.0,5.0,0.6666666666666666,2184.221392938299,13395.6026680115,23.0,5.0,18.0,0.217391304347826,2059.4881236545684,35028.12284673301,77.0,38.0,39.0,0.4935064935064935,290.4476284291762,12725.73532759812,,,,,48129.0,48141.0,48442.0,48459.0,48476.0,48491.0,48496.0,48513.0,48711.0,48788.0,0.1882193584327251,-0.22484361039748615,0.062320234113788564,-0.0854499103459442,0.023289637992619443
49,49,49338.46844222941,1936.5645501988895,1.767472127394227,49428.883239308474,-2583.9759955237823,4.359099314662959,49465.7098046329,36238.17120124946,8.54755610424482,49479.45203459914,-26335.66708756468,10.656943146391995,49726.674264428366,12254.91690888627,34.59822104363756,0.8922519122966497,85.0,80.0,73.0,276.0,349.0,5.0,1205.0,979.0,5.0,2.0,3.0,0.4,373.4652994292879,844.0284497819443,15.0,8.0,7.0,0.5333333333333333,396.7144148406984,210.65769666524045,16.0,11.0,5.0,0.6875,2199.568083492252,12557.557660379627,23.0,4.0,19.0,0.1739130434782608,2067.6516492646,34201.69705898519,89.0,44.0,45.0,0.4943820224719101,328.77207779889585,11943.612288229597,,,,,49336.0,49341.0,49421.0,49436.0,49455.0,49471.0,49476.0,49494.0,49694.0,49770.0,0.19284939373228338,-0.15352867655424282,0.06069754655324363,-0.07851145909423024,0.02682776882481325
50,50,50317.069851117136,2964.937574635502,3.611523625645341,50430.30135639943,-2128.1403367889134,7.482467920715889,50469.84499156412,37733.36789995512,8.657866465762842,50483.45203459914,-26251.91660879463,10.803072716974214,50731.85865797257,12514.081831783426,35.07550863488705,0.8950853868265887,110.0,103.0,74.0,279.0,353.0,7.0,979.0,1005.0,7.0,3.0,4.0,0.4285714285714285,349.567018402021,3923.3682886774936,12.0,6.0,6.0,0.5,333.35870467958625,1434.1383756130754,16.0,11.0,5.0,0.6875,2204.897550360369,14889.970101887457,23.0,4.0,19.0,0.1739130434782608,2014.171994997174,32420.846930539916,84.0,38.0,46.0,0.4523809523809524,339.223997318179,13271.60364761509,,,,,50314.0,50321.0,50424.0,50436.0,50459.0,50475.0,50480.0,50498.0,50695.0,50777.0,0.11790029624653915,-0.1566431963704899,0.05843362713358517,-0.07672475975801356,0.02710738205791603
51,51,51320.726017299574,2002.2225515812288,6.428574882765773,51420.84932180029,-2083.5255033353433,5.095930800803064,51461.97755375895,36296.38261656691,8.23714024098952,51476.027373699,-23906.800057325123,11.049359215249792,51732.2327992967,12544.755307008016,32.604882026065994,0.8797472219167599,104.0,93.0,72.0,275.0,347.0,11.0,1005.0,992.0,11.0,7.0,4.0,0.6363636363636364,311.60094072998413,2161.769257390231,10.0,4.0,6.0,0.4,270.46715096435594,2470.666702666173,16.0,10.0,6.0,0.625,2175.5418240184663,14435.795675515918,23.0,5.0,18.0,0.217391304347826,2023.796091958066,33202.0394987763,89.0,53.0,36.0,0.5955056179775281,251.27783033989388,11654.980115368277,,,,,51314.0,51325.0,51418.0,51427.0,51452.0,51468.0,51472.0,51490.0,51692.0,51765.0,0.15562752526381315,-0.12981225837235374,0.059938254646496776,-0.08465357501235168,0.020030508701873187
52,52,52231.87669549929,1740.998920517266,10.184656851657872,52338.15067819971,-2307.3456634727672,4.510846742420646,52372.24712754567,33817.458297530684,9.105254746498078,52386.45203459914,-25454.345989644833,9.956371707952275,52633.83562318483,12733.70364526603,35.925344510136675,0.8842298518797389,104.0,92.0,70.0,277.0,347.0,12.0,912.0,910.0,27.0,12.0,15.0,0.4444444444444444,297.70877888235424,1232.340584985444,10.0,7.0,3.0,0.7,575.1604017440728,1485.4306897518836,17.0,11.0,6.0,0.6470588235294118,2123.9810470569587,13722.80207215582,21.0,4.0,17.0,0.1904761904761904,1994.072476899458,32346.78597739155,85.0,41.0,44.0,0.4823529411764706,291.18551566453726,13744.888742615574,,,,,52227.0,52239.0,52331.0,52341.0,52362.0,52378.0,52383.0,52401.0,52596.0,52678.0,0.17099883025424412,-0.24927361810124435,0.06280723490127138,-0.07833917546774422,0.022867307405319615
53,53,53119.15067819971,1852.6961858267025,3.033997952159169,53212.021753401365,-1891.4389193865784,4.665194674425134,53246.050044810414,32446.296298606383,10.191861603456228,53259.45203459914,-30111.5980385688,9.574410586431975,53506.6335983181,12584.90972884763,34.25933808050595,0.8920517459739549,88.0,83.0,68.0,274.0,342.0,5.0,886.0,873.0,11.0,7.0,4.0,0.6363636363636364,405.17252714538023,1170.0146007825465,9.0,6.0,3.0,0.6666666666666666,483.41739620159154,2870.8589477989954,18.0,14.0,4.0,0.7777777777777778,1987.9768232631527,11479.675626192811,21.0,4.0,17.0,0.1904761904761904,1931.9806760521117,33074.979580582294,78.0,36.0,42.0,0.4615384615384615,310.0016835024583,12990.019310506625,,,,,53118.0,53123.0,53206.0,53215.0,53232.0,53250.0,53256.0,53274.0,53471.0,53548.0,0.21869345348956165,-0.2555818172327611,0.06126976111441537,-0.06416068232504668,0.024632809466392926
54,54,53732.15067819971,1439.2439799631852,1.9159944020146271,54095.15067819971,-2440.914127401257,2.2444075373802055,54122.11350011769,37733.92756684372,8.583121231070386,54135.45203459914,-27097.07188363474,11.382238149080033,54389.2327992967,12089.073416733125,30.939818105493455,0.8741288573290512,367.0,358.0,58.0,271.0,329.0,9.0,613.0,877.0,9.0,6.0,3.0,0.6666666666666666,310.4660046039899,3049.536678466539,14.0,11.0,3.0,0.7857142857142857,602.9559589115975,4221.7270845560315,18.0,12.0,6.0,0.6666666666666666,2146.4325158879315,10565.852528501706,27.0,4.0,23.0,0.1481481481481481,2028.567276572311,33421.35362150059,80.0,44.0,36.0,0.55,276.215029626135,10995.821607861988,,,,,53726.0,53735.0,54093.0,54098.0,54111.0,54128.0,54132.0,54151.0,54350.0,54422.0,0.2157146452764259,-0.247020553547101,0.056883358141970146,-0.07486296989149824,0.02284832096757814
55,55,54932.389582588075,3028.7604511050413,1.5504720370430456,55008.10705898014,-3194.014738343143,3.329521650891531,55038.29584871757,37284.81641732788,8.459689225547162,55053.027373699,-25314.96174268448,11.706938248506704,55307.383477496405,11882.499301600736,32.9026666975923,0.8927500388358718,74.0,69.0,66.0,273.0,339.0,5.0,1199.0,916.0,5.0,2.0,3.0,0.4,494.30577255249983,2474.645085848229,8.0,4.0,4.0,0.5,613.5234727541193,2634.4473325098593,17.0,11.0,6.0,0.6470588235294118,2166.070169384894,13790.74707751708,24.0,5.0,19.0,0.2083333333333333,1979.8842426728552,37188.165847101365,88.0,50.0,38.0,0.5681818181818182,309.5433530103813,11147.967207924074,,,,,54930.0,54935.0,55004.0,55012.0,55028.0,55044.0,55049.0,55070.0,55262.0,55343.0,0.16320398411573048,-0.1920853605930376,0.058095234938000846,-0.07821004285124003,0.026050357349373592
56,56,55897.15067819971,2213.386407654598,2.906449831685842,55994.15067819971,-1543.1581392980816,5.095930801728113,56028.625351572184,38489.76065198436,8.730617868528157,56041.87669549929,-26506.085430000767,11.548385428342922,56289.58839538369,12113.95681679967,34.55432250963998,0.8780184333553195,103.0,93.0,67.0,275.0,342.0,10.0,966.0,991.0,10.0,7.0,3.0,0.7,352.827492675529,1381.9142670691826,11.0,3.0,8.0,0.2727272727272727,464.9949107133028,2129.39722584154,17.0,12.0,5.0,0.7058823529411765,2241.821008796399,13771.941631164951,26.0,4.0,22.0,0.1538461538461538,2002.6480447334352,33931.149246503446,86.0,41.0,45.0,0.4767441860465116,292.2512143471565,13907.861593475256,,,,,55890.0,55900.0,55993.0,55998.0,56018.0,56034.0,56039.0,56060.0,56249.0,56335.0,0.1594061892922712,-0.3013268043447638,0.05824460767803763,-0.07555427413158297,0.02412516560582928
57,57,56730.23958659232,2709.1335400856874,1.5596809349955092,56955.3586628123,-2377.102252937057,5.181880850385858,56993.55834498029,35089.82683716702,8.02818300196455,57007.45203459914,-24910.193879836224,10.494343580150217,57258.10949479597,13133.059197210086,33.875329335924484,0.8703497636482307,223.0,218.0,69.0,278.0,347.0,5.0,832.0,965.0,5.0,2.0,3.0,0.4,364.1421883829646,2968.5951471611797,9.0,4.0,5.0,0.4444444444444444,327.1499227389535,1627.3067003672722,15.0,10.0,5.0,0.6666666666666666,2190.800727909155,12919.272254818872,19.0,4.0,15.0,0.2105263157894736,2039.9277049197533,34453.63171069813,84.0,43.0,41.0,0.5119047619047619,339.7558060008945,13709.3194337525,,,,,56728.0,56733.0,56951.0,56960.0,56984.0,56999.0,57004.0,57020.0,57222.0,57298.0,0.13441278659576417,-0.13762551540840934,0.06243407065174418,-0.08189128172828035,0.025870271419553968
58,58,57838.56099004346,2391.0590047065066,1.786358020929632,57904.34839041559,-3244.9325368184386,2.9925722061581608,57942.08734949459,36606.152435307224,8.895586425188846,57955.45203459914,-27596.348121160692,11.173997626100425,58210.65746019684,12412.149302623466,31.53201930619997,0.8576342859957121,65.0,58.0,71.0,271.0,342.0,7.0,1109.0,948.0,7.0,4.0,3.0,0.5714285714285714,431.3096959043488,1501.2248494295209,8.0,4.0,4.0,0.5,353.3389454904806,1590.0930570995731,18.0,13.0,5.0,0.7222222222222222,2091.900114512011,10782.082921170231,25.0,4.0,21.0,0.16,2007.8033611214944,32771.98594667419,77.0,46.0,31.0,0.5974025974025974,299.7132102813838,11940.82174911007,,,,,57835.0,57842.0,57900.0,57908.0,57929.0,57947.0,57952.0,57971.0,58166.0,58242.0,0.18038437991507886,-0.10888945809545832,0.05714613460698862,-0.07275612527810969,0.024146761610258395
59,59,58853.30135639943,2718.6262712950447,4.568819422052191,58963.13835587327,-1699.4558206852878,3.4219062355336605,58996.93542645983,36918.186956145095,8.357141052638283,59010.87669549929,-24999.056213886222,11.370812153929718,59272.65746019684,12883.77173462207,34.70550110757235,0.8754554244980323,114.0,101.0,67.0,277.0,344.0,13.0,1016.0,1055.0,14.0,7.0,7.0,0.5,341.92712510871013,2110.808971115536,8.0,4.0,4.0,0.5,507.6095513860866,2282.9136610422697,15.0,10.0,5.0,0.6666666666666666,2232.4934595480145,13294.685362115635,21.0,4.0,17.0,0.1904761904761904,2004.6669158291015,36393.45520495839,88.0,56.0,32.0,0.6363636363636364,303.1289058619153,11453.259444976418,,,,,58846.0,58859.0,58960.0,58967.0,58987.0,59002.0,59008.0,59027.0,59221.0,59304.0,0.1257720227009466,-0.2986894658911453,0.06047137315274937,-0.0801897039103248,0.023527963092308483
60,60,59855.273982700426,1677.8368192466762,7.64389620259217,59990.15067819971,-2123.409121422248,5.095930801728113,60025.9467530311,32966.40660248402,8.5004865169234,60040.027373699,-25551.328533687043,10.047607132345922,60292.835512095546,12901.737502189571,33.333865444012794,0.8678860591077807,116.0,108.0,86.0,284.0,370.0,8.0,999.0,1029.0,8.0,4.0,4.0,0.5,280.16833351233527,3087.409025837463,28.0,24.0,4.0,0.8571428571428571,387.3213086489195,1544.4214011243555,15.0,10.0,5.0,0.6666666666666666,2213.414401956842,13063.618699001649,17.0,4.0,13.0,0.2352941176470588,2093.9091292670714,35216.0809102342,86.0,42.0,44.0,0.4883720930232558,278.9866691569501,13927.757725654916,,,,,59851.0,59859.0,59967.0,59993.0,60016.0,60031.0,60036.0,60053.0,60251.0,60337.0,0.16698187231230668,-0.1824054087087531,0.06714151252960829,-0.08194912943592923,0.021623961044750978
61,61,61826.273982700426,1865.7328800059945,7.64389620259217,61948.15067819971,-1430.7564024302628,1.5825451260044483,61985.96719120439,36109.167882594666,9.020872702535469,61999.45203459914,-27496.643150990178,10.157697369684486,62253.383477496405,12689.69977153911,34.19721059184939,0.8764092002466908,123.0,117.0,69.0,275.0,344.0,6.0,1971.0,1959.0,7.0,4.0,3.0,0.5714285714285714,268.83279707021063,2538.165174736829,6.0,3.0,3.0,0.5,364.6168225529315,59.930403681087,17.0,12.0,5.0,0.7058823529411765,2203.835404000644,13717.80529067798,22.0,4.0,18.0,0.1818181818181818,2035.5308711098285,33670.23425630468,83.0,44.0,39.0,0.5301204819277109,311.5364137241566,12845.915135741594,,,,,61822.0,61828.0,61945.0,61951.0,61974.0,61991.0,61996.0,62014.0,62210.0,62289.0,0.14408964967661764,-0.2548419996119525,0.06103257242499172,-0.07402834083899901,0.024550337622871194
62,62,62833.273982700426,2930.5366274953476,3.0547637156205156,62953.027373699,-1864.1868503539647,6.245661013441141,62990.997233417045,34565.03900404315,8.735163064091,63005.45203459914,-24614.126376242144,10.90502899336679,63253.4976635305,12227.092619667152,35.55127722130615,0.883449827065568,116.0,108.0,76.0,273.0,349.0,8.0,1007.0,1006.0,9.0,4.0,5.0,0.4444444444444444,335.4127213514537,3460.1236325885475,18.0,8.0,10.0,0.4444444444444444,325.6482435022682,242.9883679244103,17.0,11.0,6.0,0.6470588235294118,2135.0254897945165,14464.77225234033,23.0,5.0,18.0,0.217391304347826,1944.216633728293,33445.65239643424,85.0,42.0,43.0,0.4941176470588235,278.93002139738365,12368.73285865592,,,,,62829.0,62837.0,62945.0,62963.0,62980.0,62996.0,63002.0,63021.0,63213.0,63294.0,0.11445436927984146,-0.17468648244162616,0.061768351817707415,-0.07898783828480195,0.02281245673634038
63,63,63861.36830257863,1932.132834152733,2.2845144297571034,63957.726017299574,-2601.3742756003385,3.746640933707467,63987.949915433186,33323.97803335095,8.231010862776358,64002.60271279886,-23879.5354589656,10.631836103636308,64251.04174924681,12472.699047388687,34.27337268066695,0.8889695997469114,91.0,85.0,66.0,274.0,340.0,6.0,1030.0,997.0,9.0,5.0,4.0,0.5555555555555556,360.561896279709,997.569586395568,12.0,8.0,4.0,0.6666666666666666,498.22335130934346,2493.1899054362025,17.0,11.0,6.0,0.6470588235294118,2119.2104757345237,12513.34239279104,20.0,6.0,14.0,0.3,1960.910322297483,35361.47538017375,83.0,43.0,40.0,0.5180722891566265,258.2399812382115,13136.630105359378,,,,,63859.0,63865.0,63950.0,63962.0,63978.0,63994.0,63998.0,64016.0,64211.0,64290.0,0.18661340975441804,-0.19152313297722787,0.06359416254606812,-0.08211677005472301,0.020704418526980913
64,64,64784.67537348921,2676.5924922305826,3.817309282450556,64906.59574986582,-3054.8072695586116,2.493981197478557,64938.12330450071,36051.53873684765,10.59501526299505,64949.45203459914,-37101.851978326406,8.93801691882257,65195.255151606434,12589.89634314474,37.026434560397334,0.892045728695346,123.0,113.0,60.0,281.0,341.0,10.0,922.0,947.0,11.0,6.0,5.0,0.5454545454545454,310.6289003888461,2389.77754362176,7.0,4.0,3.0,0.5714285714285714,623.1868071008151,3712.296898891028,18.0,15.0,3.0,0.8333333333333334,2093.1905096557275,9929.287593402962,23.0,5.0,18.0,0.217391304347826,2032.6564885128005,32350.833127812195,99.0,49.0,50.0,0.494949494949495,288.7390589896872,11961.98846580916,,,,,64780.0,64790.0,64903.0,64910.0,64925.0,64941.0,64946.0,64963.0,65158.0,65244.0,0.11605386374299301,-0.20400200474541205,0.058061058778506834,-0.05478584976567226,0.022934188743095333
65,65,65768.95699736131,3625.037989595554,2.3448368944273357,65882.87669549929,-2300.7308869390313,8.204543299037548,65922.01858756432,39171.730384242146,8.234391743598643,65935.51629704176,-25774.802424971367,11.98159017548193,66190.2327992967,12096.579996039742,31.37230032539671,0.8904737949350812,115.0,107.0,72.0,271.0,343.0,8.0,984.0,987.0,8.0,4.0,4.0,0.5,451.6612323281323,2832.9867609241333,31.0,23.0,8.0,0.7419354838709677,292.93824943328127,1371.1453593829715,16.0,10.0,6.0,0.625,2251.3043436302987,13919.73350440752,25.0,4.0,21.0,0.16,2009.3496637805656,36549.23026764314,83.0,45.0,38.0,0.5421686746987951,348.8128808019692,10919.935190359589,,,,,65765.0,65773.0,65880.0,65891.0,65912.0,65928.0,65932.0,65952.0,66154.0,66223.0,0.12459489628094193,-0.12732399564688596,0.05747268046488814,-0.07795790751954902,0.02883566106421533
66,66,66772.63303161753,2017.446508651284,7.144078616568695,66909.08994375008,-3047.789737403671,4.6016545367214405,66943.5490397165,37557.56946008182,8.085598386747431,66957.027373699,-25161.712125446535,11.027367825316722,67207.02516254791,12552.212885447,33.65092420540766,0.8845524024340529,138.0,121.0,71.0,274.0,345.0,17.0,1006.0,1022.0,17.0,9.0,8.0,0.5294117647058824,280.42786829624094,2586.6450535029917,16.0,7.0,9.0,0.4375,495.4491044420898,636.1122168484906,16.0,11.0,5.0,0.6875,2236.5425526725166,13661.83262622988,22.0,4.0,18.0,0.1818181818181818,2017.1002586461184,35009.8323524868,76.0,35.0,41.0,0.4605263157894737,313.4477989664608,13322.518627002455,,,,,66764.0,66781.0,66902.0,66918.0,66933.0,66949.0,66953.0,66973.0,67172.0,67247.0,0.13900138967437325,-0.1625601327945114,0.059549714873046646,-0.08016546126072976,0.024971517120289707
67,67,68758.27398270041,2020.5595117567404,3.303197728964356,68851.77863020498,-2626.2395908474814,5.602741948527356,68887.51957854578,37934.8660028076,8.844543580313966,68901.027373699,-27719.27960172377,10.77843845643022,69151.95881659626,12356.373265901811,32.02095458797043,0.876230490299192,90.0,79.0,72.0,273.0,345.0,11.0,1983.0,1943.0,11.0,4.0,7.0,0.3636363636363636,307.78219265405454,586.6513902098129,18.0,8.0,10.0,0.4444444444444444,489.7763614919969,136.8019234703952,18.0,13.0,5.0,0.7222222222222222,2242.61955269365,14146.719987091436,21.0,4.0,17.0,0.1904761904761904,2062.9116480238886,35664.07626898361,78.0,41.0,37.0,0.5256410256410257,313.88707321060303,12615.963316495025,,,,,68754.0,68765.0,68844.0,68862.0,68875.0,68893.0,68897.0,68916.0,69113.0,69189.0,0.15232523014699956,-0.18649340418097468,0.059117634751304285,-0.07442154621852448,0.025402848105664965
68,68,69776.73354692741,2639.296495388975,4.772460553589359,69890.87669563925,-2034.667550311018,4.928355284068533,69923.15216897742,36008.355620178816,8.474595192058842,69937.45203459915,-24790.35895525224,11.205354457818212,70185.7049959701,12038.021684156402,34.025507687281284,0.8739363605368085,109.0,98.0,72.0,273.0,345.0,11.0,1019.0,1036.0,11.0,4.0,7.0,0.3636363636363636,281.0414246361875,2167.969398635315,20.0,13.0,7.0,0.65,542.8681570679855,2616.1247534454296,16.0,10.0,6.0,0.625,2158.3647202066927,13910.038222840963,24.0,5.0,19.0,0.2083333333333333,1974.0845988376025,34663.595246201134,80.0,38.0,42.0,0.475,297.4688591730375,12734.059685621178,,,,,69773.0,69784.0,69882.0,69898.0,69913.0,69929.0,69934.0,69954.0,70149.0,70227.0,0.10648346069764629,-0.26680926669568356,0.059940663299747045,-0.07963114218720745,0.024710776153904518
69,69,70762.1765295277,2123.1989027017444,4.804470812597222,70891.15067819973,-2023.2551701469456,2.709177559744911,70919.67741913175,35555.38016368563,8.446226279313969,70933.027373699,-25689.578906059705,10.835559180463394,71183.27982084734,12479.78679124534,34.08797991918901,0.8883161151680427,116.0,107.0,74.0,279.0,353.0,9.0,985.0,997.0,13.0,8.0,5.0,0.6153846153846154,279.355750118903,3239.209669655317,20.0,17.0,3.0,0.85,538.2511117396168,3931.0406614490166,16.0,11.0,5.0,0.6875,2110.6404608697144,12761.17800014589,21.0,4.0,17.0,0.1904761904761904,1992.7145496059725,31894.052286913815,88.0,43.0,45.0,0.4886363636363636,305.5190517755046,13444.660518193765,,,,,70758.0,70767.0,70874.0,70894.0,70909.0,70925.0,70929.0,70948.0,71143.0,71227.0,0.13157304751967716,-0.2660322433282227,0.059362055788828555,-0.07756898456346153,0.024481111487403645
70,70,71757.69864360057,1978.3416810165872,4.0803113705306755,71876.65896880104,-2918.6415851698944,2.952317296368925,71912.98808122627,34591.93156319994,8.630991199423363,71927.027373699,-26488.68569086884,10.198220606266174,72175.23807081066,12488.677389947994,34.28207159738469,0.8866179559362076,121.0,111.0,68.0,276.0,344.0,10.0,995.0,992.0,11.0,6.0,5.0,0.5454545454545454,260.00369866565865,2324.145075972702,7.0,4.0,3.0,0.5714285714285714,499.34283228661985,261.52497384294065,16.0,11.0,5.0,0.6875,2231.250701865764,14527.473142761102,21.0,5.0,16.0,0.238095238095238,2034.901982730684,35518.039134694714,80.0,38.0,42.0,0.475,237.8845571251258,12695.561825609047,,,,,71752.0,71762.0,71873.0,71880.0,71902.0,71918.0,71923.0,71941.0,72138.0,72217.0,0.13142507240309145,-0.17108741094619642,0.0645020558562692,-0.07682155341637634,0.019048018432808313
71,71,72782.17777805903,2279.998310258316,3.481422212610245,72892.60271279886,-2246.302307312031,7.229181904886303,72929.86413851235,36456.99592604006,8.436653859882046,72944.027373699,-25635.567261445103,10.830146762570797,73201.65746019685,12299.352460669868,31.063794034559443,0.882820855784005,109.0,99.0,72.0,275.0,347.0,10.0,1027.0,1018.0,10.0,5.0,5.0,0.5,313.1631197199678,2373.3785019710103,22.0,10.0,12.0,0.4545454545454545,373.6374928945915,592.3638891068729,16.0,11.0,5.0,0.6875,2284.765585378841,14442.945174706934,23.0,5.0,18.0,0.217391304347826,2096.7328131774348,35335.771362207415,78.0,46.0,32.0,0.5897435897435898,297.421510092425,12089.099800175987,,,,,72777.0,72787.0,72886.0,72904.0,72920.0,72935.0,72940.0,72958.0,73156.0,73233.0,0.13735234728506773,-0.16633446516897957,0.0626701549961473,-0.0817899909057538,0.0241818836433464
72,72,73792.27398270041,2063.971181921945,6.699341239198538,73906.78155746064,-2968.121712808675,2.859453338315602,73947.30599356066,36605.368672757286,8.57207406816055,73960.87669549929,-25452.38226519561,10.873893436409366,74210.44433849012,12674.370284315992,34.06234702659285,0.895896544703518,114.0,107.0,75.0,276.0,351.0,7.0,1008.0,1017.0,19.0,8.0,11.0,0.4210526315789473,277.53342645926136,1903.5954656063095,8.0,5.0,3.0,0.625,409.1505570072337,2591.175778486571,17.0,11.0,6.0,0.6470588235294118,2146.2677078927363,13518.68090036383,23.0,4.0,19.0,0.1739130434782608,1957.3707561947472,34051.13973758518,84.0,41.0,43.0,0.4880952380952381,295.77223733804533,13815.192929334164,,,,,73788.0,73795.0,73902.0,73910.0,73936.0,73953.0,73958.0,73977.0,74175.0,74253.0,0.13446574685254353,-0.13784830832293013,0.058632593679900494,-0.07690324370427666,0.023336247143106684
73,73,74816.91434393059,1878.950347779293,3.26718664213218,74914.72489682007,-2874.4849328156943,4.872428033386813,74947.65613411566,32316.3548748695,9.491962873603082,74961.45203459915,-28838.41153879238,9.5805975912584,75209.84858005123,12724.027955985724,34.13551383525588,0.8880419758752611,96.0,89.0,65.0,277.0,342.0,7.0,1026.0,1000.0,7.0,3.0,4.0,0.4285714285714285,298.3436372563369,2221.228318530895,13.0,6.0,7.0,0.4615384615384615,616.9170750176066,2629.3152861025137,16.0,12.0,4.0,0.75,2109.347145168705,11147.884275926552,19.0,4.0,15.0,0.2105263157894736,2060.0734761406197,33617.101755317635,78.0,36.0,42.0,0.4615384615384615,267.25953547325645,13914.432692111444,,,,,74814.0,74821.0,74910.0,74922.0,74936.0,74952.0,74958.0,74975.0,75174.0,75252.0,0.158782076178301,-0.21461830186506042,0.06527181525689392,-0.0714350536737949,0.021004318475073013
74,74,75758.72454228134,1480.9148265041897,2.1885238366139497,75852.15067819973,-1981.1234030793487,5.095930801728017,75889.89320084301,36679.6700373095,8.659514934722141,75903.45203459915,-27305.370849946037,10.717440407990004,76152.85054391599,12120.172637045043,33.39945976197988,0.8966441920632257,94.0,88.0,69.0,273.0,342.0,6.0,942.0,943.0,6.0,4.0,2.0,0.6666666666666666,292.7165448951239,1373.1998440153125,7.0,4.0,3.0,0.5714285714285714,288.43817627726656,656.7100489440921,17.0,12.0,5.0,0.7058823529411765,2174.5753533741704,12150.888899090232,25.0,4.0,21.0,0.16,2076.2844006876408,33303.25779769084,77.0,38.0,39.0,0.4935064935064935,308.98346898743154,12943.82587109509,,,,,75755.0,75761.0,75849.0,75855.0,75878.0,75895.0,75900.0,75918.0,76118.0,76191.0,0.1976592709157374,-0.1455932405971956,0.0592855756652733,-0.07603941408075562,0.02549332243362857
75,75,76746.7378168353,3480.706120699466,2.2364055050994907,76836.87669549929,-1971.7962908926304,11.211798866987,76876.79954245803,38424.66638471344,8.630911370448066,76889.87669549929,-26028.027190468067,11.994602588232578,77139.4247075942,12357.943832443749,34.7489233097262,0.8861803417722323,85.0,79.0,80.0,276.0,356.0,6.0,988.0,987.0,6.0,3.0,3.0,0.5,391.983949329087,2656.8139587693136,15.0,8.0,7.0,0.5333333333333333,305.27257486292194,1505.7433326217658,17.0,12.0,5.0,0.7058823529411765,2168.353468454882,12383.96114904966,27.0,4.0,23.0,0.1481481481481481,1928.0072242750296,33675.25202709925,88.0,39.0,49.0,0.4431818181818182,320.8158165154076,12963.444671288436,,,,,76744.0,76750.0,76829.0,76844.0,76866.0,76882.0,76887.0,76909.0,77103.0,77185.0,0.11261621514036807,-0.1548195299245265,0.05643128938960736,-0.07407427424930232,0.025960290875668042
76,76,77743.30135639943,1801.55086874179,10.191861603456228,77868.14486205409,-3112.8500479809763,6.148355907502449,77904.03969208477,33990.6371245396,8.359317548166244,77919.027373699,-24419.31955252467,10.867146285292828,78168.13734327652,12538.265197109276,32.40760891332897,0.8942055548998472,122.0,112.0,71.0,276.0,347.0,10.0,998.0,1027.0,18.0,12.0,6.0,0.6666666666666666,303.15679713031625,1801.146829177293,18.0,7.0,11.0,0.3888888888888889,391.34105903236616,266.75089327161356,17.0,11.0,6.0,0.6470588235294118,2207.271315255061,13221.38613251896,19.0,5.0,14.0,0.2631578947368421,2065.4774970876074,36616.27531762477,79.0,38.0,41.0,0.4810126582278481,287.38307694927676,12200.85741104296,,,,,77739.0,77749.0,77861.0,77877.0,77894.0,77909.0,77915.0,77932.0,78131.0,78208.0,0.1682754577682517,-0.12571792826519018,0.06493762700498243,-0.08458374495836685,0.02292048161619149
77,77,78732.84932180027,1150.9614700812883,3.7335146751711368,78852.30135640186,-1897.7140783601155,10.191861603446918,78893.03433946198,35158.927121081084,8.430599071530905,78906.87669549929,-24574.15016250023,11.43786632471307,79156.41563501139,12611.683291058687,32.921782247147654,0.8891183394269744,117.0,113.0,76.0,274.0,350.0,4.0,987.0,989.0,18.0,3.0,15.0,0.1666666666666666,277.6450373064601,1680.1428811105393,24.0,6.0,18.0,0.25,369.7704330741248,1146.8315049036046,17.0,11.0,6.0,0.6470588235294118,2096.390079171184,11525.82735455336,22.0,4.0,18.0,0.1818181818181818,1977.3914368823948,34061.024204064204,79.0,38.0,41.0,0.4810126582278481,331.714579879753,14639.683425627976,,,,,78730.0,78734.0,78847.0,78858.0,78882.0,78899.0,78904.0,78923.0,79118.0,79197.0,0.24122878525799044,-0.19485044522284253,0.0596261106589399,-0.08046632025142678,0.026302165398882867
78,78,79730.72268400829,1609.3968997830432,5.872384528382399,79849.27398270041,-2548.67236765659,5.259404416491374,79884.54526983523,37108.24704933574,8.51357779447497,79898.45203459915,-26345.764358304274,11.369333827968516,80147.87561067365,12312.658884070002,33.31326009021552,0.8941239412441271,123.0,111.0,69.0,273.0,342.0,12.0,998.0,991.0,12.0,9.0,3.0,0.75,277.9629354613879,2345.0869491628955,12.0,4.0,8.0,0.3333333333333333,474.6216022955677,980.5842163104938,16.0,11.0,5.0,0.6875,2210.8581353874197,12849.310680143077,26.0,4.0,22.0,0.1538461538461538,2038.7141867055211,34410.736396948225,87.0,47.0,40.0,0.5402298850574713,291.77354477514797,13353.841587299265,,,,,79722.0,79734.0,79845.0,79857.0,79874.0,79890.0,79895.0,79914.0,80109.0,80187.0,0.17271248347679743,-0.18622307375347924,0.05957861961110867,-0.07738299633211862,0.023697037944634503
79,79,80771.54796540085,1730.7384540619962,15.28779240518434,80904.72601729959,-1699.9372288585648,5.187352344556687,80940.67388601889,33950.13541805997,9.140937148829329,80955.027373699,-25516.869670034517,10.64828646816477,81203.11873936854,12572.89911466514,34.67110057780886,0.8845864549291428,133.0,118.0,78.0,274.0,352.0,15.0,1039.0,1057.0,15.0,12.0,3.0,0.8,278.84387726381044,1419.267069926659,16.0,12.0,4.0,0.75,342.16111670954086,1371.4511843287974,17.0,12.0,5.0,0.7058823529411765,2146.5444443725983,14215.507879952194,22.0,4.0,18.0,0.1818181818181818,1939.9141326487736,34460.442020985836,85.0,42.0,43.0,0.4941176470588235,289.72142705043376,13272.4490135991,,,,,80760.0,80775.0,80893.0,80909.0,80930.0,80946.0,80951.0,80971.0,81166.0,81245.0,0.16111266067346652,-0.2012786771775611,0.06322638828800464,-0.07602476940684039,0.023043327112400046
80,80,81742.51554526968,1410.8738529440357,1.4811454928135417,81904.30135639943,-2672.3020013366813,10.191861603456228,81944.64287478854,35863.59799040459,8.562251485952464,81957.87669549929,-26114.063587823584,10.864625163998635,82209.78836489299,12737.131459056503,32.52245103122258,0.88902871742286,162.0,157.0,70.0,274.0,344.0,5.0,973.0,1003.0,5.0,3.0,2.0,0.6,272.1343292086251,456.68891302426994,19.0,3.0,16.0,0.1578947368421052,281.26401798279744,2307.7354526986815,16.0,11.0,5.0,0.6875,2079.893770331136,11873.289123442024,20.0,4.0,16.0,0.2,1932.899027428817,33282.531429211616,86.0,40.0,46.0,0.4651162790697674,226.2071259893293,12945.07221933136,,,,,81740.0,81745.0,81902.0,81919.0,81934.0,81950.0,81955.0,81972.0,82171.0,82246.0,0.1928835300482528,-0.10525158378136514,0.057994565154550794,-0.07401755077023268,0.017759660149262956
81,81,82780.84932180027,1367.666476985582,5.095930801728113,82885.84932180027,-1855.5621183682656,5.095930801728113,82923.30135639943,28189.59969825885,8.633656965336142,82941.17805189872,-22163.08970718256,9.77699273701204,83189.38347749642,12548.64559377038,34.434839189473934,0.8768335326421592,102.0,96.0,74.0,271.0,345.0,6.0,1038.0,980.0,6.0,3.0,3.0,0.5,292.4990848271301,1361.3016942879512,23.0,10.0,13.0,0.4347826086956521,344.4523899928941,128.63948118020028,17.0,11.0,6.0,0.6470588235294118,1985.0054287541063,12866.601165341062,20.0,7.0,13.0,0.35,1835.748756057236,35210.18322988363,84.0,44.0,40.0,0.5238095238095238,269.047586044785,12406.866902613025,,,,,82778.0,82784.0,82880.0,82887.0,82913.0,82929.0,82934.0,82954.0,83149.0,83225.0,0.21386726204755374,-0.18563236799412397,0.07041623329176652,-0.08282909920552779,0.02144036852697078
82,82,83780.82171667974,2017.105834111018,3.9392870524127255,83894.72601729959,-1592.9498267046683,7.643896202592141,83932.43605678313,37041.48289787896,8.65301910927081,83946.02737369905,-24954.84809595868,11.46065894135721,84198.95881659626,12397.150398535205,33.04271525497653,0.884003163400874,113.0,106.0,75.0,271.0,346.0,7.0,1000.0,1009.0,7.0,4.0,3.0,0.5714285714285714,248.98755801594368,2193.745079002933,16.0,5.0,11.0,0.3125,316.89212211454895,171.2910823069924,18.0,12.0,6.0,0.6666666666666666,2095.0338526073706,13574.05731027708,25.0,4.0,21.0,0.16,1901.746522188606,32409.079249218557,79.0,42.0,37.0,0.5316455696202531,265.2722233411078,13415.25358419423,,,,,83777.0,83784.0,83890.0,83899.0,83921.0,83938.0,83942.0,83965.0,84163.0,84236.0,0.12343802382866928,-0.19893415147299584,0.05655912476245207,-0.07620749743199538,0.02139783860107491
83,83,84781.69864360057,1948.0777732574088,4.783869747918524,84897.12330450071,-2579.883579906278,5.513874557124476,84932.83564715118,34358.92606783608,8.56821561283694,84947.027373699,-23526.390613910833,10.896703388695434,85196.83137407407,12812.423149483597,33.806695233148446,0.8889701651217127,114.0,100.0,73.0,276.0,349.0,14.0,1000.0,1000.0,15.0,6.0,9.0,0.4,258.96090627508846,2483.099555329778,16.0,8.0,8.0,0.5,446.7605942200584,400.53897380611807,17.0,11.0,6.0,0.6470588235294118,2047.893086851276,13247.362374012517,22.0,5.0,17.0,0.2272727272727272,1879.6292880116955,32787.40521236074,77.0,35.0,42.0,0.4545454545454545,292.2188552075231,14652.718332834918,,,,,84776.0,84790.0,84890.0,84905.0,84922.0,84939.0,84943.0,84963.0,85162.0,85239.0,0.13293150295641237,-0.17317083518795384,0.05960294226915143,-0.07989450310751435,0.022807462085679006
84,84,85777.5870714945,1652.9258259385156,1.8266900412614584,85878.87669549929,-2223.01067509501,5.075173926542991,85911.30651246068,35800.681210380666,8.59216686813638,85925.027373699,-25210.01718044784,11.485005284863124,86173.81421981844,12725.474068610907,34.63763666430249,0.8875982116273143,97.0,91.0,71.0,270.0,341.0,6.0,997.0,978.0,6.0,3.0,3.0,0.5,255.47062832446628,1095.0945407981146,18.0,10.0,8.0,0.5555555555555556,462.2063943548649,2590.228526740356,18.0,12.0,6.0,0.6666666666666666,2032.7371456817289,12371.54999890158,27.0,5.0,22.0,0.1851851851851851,1880.6272775031127,32762.858800791917,93.0,47.0,46.0,0.5053763440860215,300.56817409250823,12608.67645943343,,,,,85775.0,85781.0,85872.0,85886.0,85901.0,85917.0,85921.0,85943.0,86142.0,86213.0,0.15455661973180948,-0.20791910697194946,0.05677928678888719,-0.07459841316417955,0.02361940879152786
85,85,86754.72601729959,1327.6641212597035,4.069979086330816,86861.60271279886,-2457.9368898618172,8.524181525523362,86901.3527910368,38932.45068404071,8.3562278651224,86915.027373699,-25811.987905223064,11.752143318346189,87164.60524292856,12246.981609410828,33.63606913727525,0.8921004354136522,104.0,98.0,77.0,275.0,352.0,6.0,979.0,991.0,13.0,9.0,4.0,0.6923076923076923,301.6313720793453,1653.8294367958115,19.0,6.0,13.0,0.3157894736842105,299.9749851047733,1285.9048399724948,17.0,11.0,6.0,0.6470588235294118,2240.7072266135033,14162.83537117528,26.0,5.0,21.0,0.1923076923076923,2030.1651084191724,34456.30917058856,86.0,40.0,46.0,0.4651162790697674,278.8492198368989,11697.099847306588,,,,,86753.0,86759.0,86857.0,86874.0,86891.0,86907.0,86911.0,86934.0,87129.0,87209.0,0.22718951822931982,-0.12204340410124914,0.05755371643049482,-0.07865202462799728,0.02276881183708364
86,86,87802.71115484573,2261.909083196028,3.0700145685986104,87913.18263268883,-3007.0667406522566,5.68361230957144,87949.20767826356,34427.450355910434,8.04973257545338,87964.027373699,-22984.075862201116,10.896140760256014,88213.20370577816,12269.357984189948,33.00764972005475,0.8884448241830334,106.0,99.0,72.0,274.0,346.0,7.0,1046.0,1047.0,7.0,3.0,4.0,0.4285714285714285,344.1666275786129,2053.2203465663506,16.0,7.0,9.0,0.4375,448.0029739276073,352.6750742110961,15.0,9.0,6.0,0.6,2166.847484940666,14014.428937509208,22.0,5.0,17.0,0.2272727272727272,1936.6677313748817,36386.303248637894,86.0,41.0,45.0,0.4767441860465116,269.00596106195104,11774.214078238803,,,,,87800.0,87807.0,87906.0,87922.0,87940.0,87955.0,87960.0,87978.0,88174.0,88252.0,0.15215758676397065,-0.14898338233438474,0.06293952827002382,-0.08426128346364642,0.021925023412682782
87,87,88794.69577783628,1890.7402173133485,1.789419962965778,88900.60271279886,-2021.0209199096064,13.030463578815938,88942.32127638833,34531.278972044165,8.210240014578853,88956.45203459915,-24044.186374525503,11.280405671154984,89206.39630867308,12400.911807452125,32.09020629998645,0.8699850299319247,104.0,98.0,74.0,276.0,350.0,6.0,992.0,994.0,6.0,3.0,3.0,0.5,291.25302740707417,1287.7887559701417,25.0,7.0,18.0,0.28,254.12824254671733,1425.4176539997443,16.0,10.0,6.0,0.625,2106.8398763285727,12382.59116766546,28.0,5.0,23.0,0.1785714285714285,2001.3567191799095,33044.29181180583,82.0,39.0,43.0,0.4756097560975609,289.00167060766796,12634.442957911837,,,,,88792.0,88798.0,88896.0,88913.0,88932.0,88948.0,88953.0,88970.0,89170.0,89246.0,0.15404180052875313,-0.1257425096609508,0.06101250631447008,-0.0832366164529618,0.023304872665411355
88,88,89775.5666069845,2695.1393709210497,3.105750518464993,89896.15067820637,-2545.308283077052,4.387068824602553,89927.88513248693,36628.9428537613,8.636682483507633,89942.02737380934,-24940.759802025565,11.244084127026332,90191.20395527052,12614.69482301402,33.987526485232415,0.8850752406772706,117.0,108.0,71.0,276.0,347.0,9.0,981.0,985.0,10.0,5.0,5.0,0.5,329.3041126345935,2459.7987836255793,11.0,8.0,3.0,0.7272727272727273,559.6581127052671,1973.803273951898,18.0,12.0,6.0,0.6666666666666666,2101.112418172101,12862.427907792724,26.0,5.0,21.0,0.1923076923076923,1959.4433264276372,34782.2140122187,86.0,41.0,45.0,0.4767441860465116,283.63979371001693,12981.580219754764,,,,,89771.0,89780.0,89888.0,89899.0,89917.0,89934.0,89938.0,89959.0,90151.0,90235.0,0.1221844466329233,-0.21987832139087296,0.05736208185315796,-0.07856389869359558,0.02248487162706066
89,89,90792.69864360055,2155.0974149165113,10.191861603456228,90934.30135639945,-1777.0920286477196,7.228658584871735,90970.55077938264,34349.57090282864,8.891285322240446,90985.45203459916,-24389.453502852164,11.041123075054225,91240.80813839656,12976.611872940852,32.52858231973167,0.8881940638290249,146.0,137.0,69.0,274.0,343.0,9.0,1016.0,1043.0,11.0,8.0,3.0,0.7272727272727273,303.9137587227615,3208.17704207147,24.0,12.0,12.0,0.5,353.3359366389676,412.4077759537632,16.0,11.0,5.0,0.6875,2138.2736321073367,14246.911775217026,24.0,4.0,20.0,0.1666666666666666,1930.8997776262208,34179.25426395083,79.0,44.0,35.0,0.5569620253164557,281.82152161083826,12550.822357588551,,,,,90786.0,90795.0,90932.0,90945.0,90960.0,90976.0,90982.0,91001.0,91200.0,91275.0,0.14102089150087682,-0.19882815911781396,0.062250373902960544,-0.07916945647840845,0.021717650521589492
90,90,91830.28079292527,1624.368902429825,1.6039670268551396,91944.30135640156,-2659.158931529085,7.690025631843885,91981.20721677408,35023.497035673274,7.867421194693916,91996.027373699,-22517.149361423424,11.796664596875235,92246.64938245964,12178.10037466101,31.823760140092567,0.8881439572494344,110.0,105.0,72.0,276.0,348.0,5.0,1039.0,1010.0,5.0,2.0,3.0,0.4,316.2448663869018,3197.4949500650073,19.0,6.0,13.0,0.3157894736842105,391.5569383811595,1473.9812681774652,16.0,10.0,6.0,0.625,2097.917613456286,13487.179791949404,25.0,5.0,20.0,0.2,1887.3382358965907,35115.75861698888,88.0,42.0,46.0,0.4772727272727273,291.5785970221126,10568.418767981397,,,,,91828.0,91833.0,91938.0,91950.0,91971.0,91987.0,91992.0,92010.0,92214.0,92286.0,0.19468783594283565,-0.14724841518066173,0.059900289549026084,-0.08381781395161836,0.023942863669345393
91,91,92809.70646791616,1940.988518192121,1.8671347762781885,92931.7260172996,-2376.808956214715,5.221996534925626,92966.30135639945,34476.930911065094,8.579005538035597,92980.60271279886,-25568.16166904122,10.782429673468569,93237.80813839656,12552.839594724335,32.21266311532272,0.8882819054995278,115.0,110.0,73.0,277.0,350.0,5.0,979.0,986.0,6.0,3.0,3.0,0.5,278.30008869813975,2595.4165012070607,15.0,11.0,4.0,0.7333333333333333,422.95172346651174,892.6851073977189,18.0,12.0,6.0,0.6666666666666666,2108.2725483050463,11862.920291891394,21.0,5.0,16.0,0.238095238095238,1970.921810545988,35261.788601280095,84.0,50.0,34.0,0.5952380952380952,265.1112809365759,11163.684777859607,,,,,92807.0,92812.0,92922.0,92936.0,92955.0,92972.0,92976.0,92995.0,93193.0,93272.0,0.14338059503688075,-0.17794939823018038,0.06115023851001811,-0.07708500267081952,0.021119626275476026
92,92,93715.67911908796,1898.2836375397749,1.6213089528215687,93930.72601729968,-2030.7792302873952,7.64389620259217,93971.80475216912,37338.55891356438,8.168854669026908,93986.027373699,-24582.312166816264,11.269745129949124,94244.65746019685,12648.90219317689,32.04542116652047,0.8866010243503732,216.0,211.0,73.0,274.0,347.0,5.0,906.0,1005.0,6.0,3.0,3.0,0.5,334.9539466505174,1516.4501278803466,11.0,3.0,8.0,0.2727272727272727,306.69695583828485,2189.4142036175163,17.0,11.0,6.0,0.6470588235294118,2192.388638530974,13981.506527384756,25.0,5.0,20.0,0.2,1960.0838710616144,35531.923369540156,80.0,48.0,32.0,0.6,275.97452045899223,11920.033083268789,,,,,93713.0,93718.0,93929.0,93938.0,93961.0,93978.0,93982.0,94002.0,94198.0,94276.0,0.1764509475963384,-0.15102427248819222,0.05871647707685154,-0.07973553739617453,0.021818061065240847
93,93,94840.2173536118,1208.0950827978472,4.979234184648577,94945.75339099858,-2612.8240319451006,11.2240481428122,94988.45023750378,36215.7892998268,8.338359838684674,95002.45203459916,-24516.555941238392,11.392177282371154,95255.80813839656,12503.460575385849,32.441692345509786,0.8920428501732967,105.0,89.0,82.0,271.0,353.0,16.0,1123.0,1016.0,16.0,8.0,8.0,0.5,259.0339191669153,1153.9957458636204,44.0,26.0,18.0,0.5909090909090909,281.1826716180823,1192.2875763574684,16.0,10.0,6.0,0.625,2145.7654753476727,14377.49602748566,26.0,4.0,22.0,0.1538461538461538,1951.306074943501,32987.170431331586,84.0,45.0,39.0,0.5357142857142857,282.65748321567787,12231.509244644203,,,,,94832.0,94848.0,94937.0,94960.0,94979.0,94994.0,94999.0,95019.0,95212.0,95290.0,0.21441517547361788,-0.1076163829558616,0.05924944663177435,-0.07959136183811533,0.022606340181702475
94,94,95825.29227285885,1985.8394332965995,1.704182642222405,95923.15039633714,-2439.165075617142,5.486907381867099,95957.51638886616,35607.54771798952,8.828604586463733,95971.027373699,-26761.340577239713,10.582521814413264,96220.14572922848,13086.260820029316,35.60740767130304,0.8943176708710451,94.0,89.0,68.0,276.0,344.0,5.0,987.0,970.0,5.0,2.0,3.0,0.4,358.6691775879577,1492.9896435198605,15.0,7.0,8.0,0.4666666666666667,500.2011191077008,1107.1451422110083,18.0,13.0,5.0,0.7222222222222222,2125.012665492402,12238.340270278311,23.0,4.0,19.0,0.1739130434782608,2030.576071640049,33721.94301099651,85.0,43.0,42.0,0.5058823529411764,241.5012994239185,13520.837302746511,,,,,95823.0,95828.0,95917.0,95931.0,95945.0,95963.0,95967.0,95985.0,96178.0,96261.0,0.18061338272075084,-0.20507063015451837,0.059678714252450776,-0.07587721795099593,0.018454568707226598
95,95,96804.84932180028,1401.563325389683,5.095930801728113,96898.45203459916,-1950.08202152322,11.171296270739376,96939.87931402016,38743.72666272566,8.67273309049287,96953.45203459916,-26395.743235972997,11.50604201428066,97203.784289814,12133.184712475391,33.05919507591769,0.9002233230704174,93.0,87.0,75.0,276.0,351.0,6.0,979.0,982.0,12.0,4.0,8.0,0.3333333333333333,246.9651258153479,340.4107370807186,23.0,7.0,16.0,0.3043478260869565,272.08863521821496,1715.8874357900984,17.0,11.0,6.0,0.6470588235294118,2146.7316605712713,13403.71908873845,26.0,4.0,22.0,0.1538461538461538,1942.8309765698623,33669.35417640947,83.0,41.0,42.0,0.4939759036144578,317.10780182314835,13545.801660714147,,,,,96802.0,96808.0,96895.0,96910.0,96929.0,96946.0,96950.0,96970.0,97163.0,97246.0,0.17620689792712937,-0.139526764625872,0.05540849694865792,-0.07360395042493471,0.02613557852598228
96,96,97822.45659523574,2452.6807316606464,3.073633123908704,97932.45206900878,-1642.9027863770416,5.530077115376926,97966.49803519517,37858.63834666905,7.967440219951479,97980.45231092648,-23732.290483965953,11.275587752315,98229.8968677531,12534.138242572542,34.16174676906312,0.8787130498190456,110.0,103.0,67.0,275.0,342.0,7.0,1019.0,1027.0,7.0,3.0,4.0,0.4285714285714285,311.9478469601112,2869.4622997653923,20.0,10.0,10.0,0.5,454.37924802526175,1568.758904604396,15.0,9.0,6.0,0.6,2254.4698052808385,15294.36898045098,25.0,4.0,21.0,0.16,1996.0913455442735,34350.71883429358,88.0,43.0,45.0,0.4886363636363636,291.9730797377142,13250.59087096171,,,,,97819.0,97826.0,97929.0,97941.0,97957.0,97972.0,97977.0,97996.0,98192.0,98271.0,0.1271864873945087,-0.2765709887358989,0.059549680171716884,-0.08410866818324493,0.023294228457287926
97,97,98784.69864360055,1678.1171842568262,10.191861603456228,98896.7260172996,-1637.4296138436828,7.64389620259217,98937.55109889772,33498.249309547966,10.557950367319831,98949.60271279886,-33812.36159704376,9.088908700460273,99198.84568227376,13261.727452444127,35.827817634447534,0.897215892077056,113.0,95.0,71.0,279.0,350.0,18.0,960.0,968.0,18.0,6.0,12.0,0.3333333333333333,264.18067839993694,1482.4230521384343,9.0,5.0,4.0,0.5555555555555556,291.7248966638334,523.2566361600238,19.0,16.0,3.0,0.8421052631578947,1990.4270809747552,9031.055482572732,20.0,5.0,15.0,0.25,1900.441549922252,34442.89406625368,86.0,41.0,45.0,0.4767441860465116,289.94805729502525,13524.551751583544,,,,,98779.0,98797.0,98892.0,98901.0,98923.0,98941.0,98945.0,98963.0,99165.0,99242.0,0.15742683578854622,-0.1781602666749393,0.05941883895429204,-0.056205525439796816,0.02186352104842782
98,98,99775.017235789,1803.5749217910984,3.826542531690188,99871.31946999385,-1967.194730661617,5.237318934825029,99905.28867020078,36160.30918716963,8.743915110977918,99919.027373699,-26372.772063404853,10.501860163885995,100167.88265956011,12271.506476317569,33.41328491341589,0.8740308867637236,97.0,86.0,66.0,276.0,342.0,11.0,991.0,970.0,11.0,5.0,6.0,0.4545454545454545,320.8816633254495,1092.7420416178156,17.0,9.0,8.0,0.5294117647058824,500.9579971745551,2427.501857544842,18.0,12.0,6.0,0.6666666666666666,2134.485917227189,12555.489734474311,22.0,5.0,17.0,0.2272727272727272,2068.406170937715,33264.322315590485,82.0,39.0,43.0,0.4756097560975609,308.6746862706225,12588.207310384922,,,,,99770.0,99781.0,99867.0,99879.0,99894.0,99911.0,99915.0,99933.0,100132.0,100209.0,0.17791424101571982,-0.25465602838722035,0.059028419977795586,-0.07842960785331543,0.025153772836800842
99,99,100758.51125207714,2248.0878771957655,4.911127985956818,100897.69864360055,-2232.1724082362257,5.452610151221201,100933.98027395167,36339.32954994912,8.550618824833702,100948.027373699,-25066.60229889259,11.194899918657525,101209.082121097,12002.707171161976,30.94442098715607,0.8642675092313832,140.0,130.0,73.0,274.0,347.0,10.0,984.0,1029.0,10.0,7.0,3.0,0.7,311.54343242672996,3357.840301207461,19.0,8.0,11.0,0.4210526315789473,453.1196570020709,1089.0081553793775,17.0,11.0,6.0,0.6470588235294118,2125.397359085947,13763.75554750063,23.0,5.0,18.0,0.217391304347826,1908.2260664577072,35012.90820848047,83.0,52.0,31.0,0.6265060240963856,301.2555826750134,12002.333111310249,,,,,100752.0,100762.0,100892.0,100905.0,100923.0,100940.0,100944.0,100965.0,101157.0,101239.0,0.13858151880403582,-0.20299491890956045,0.05848752262103643,-0.07612623536704893,0.025098969622354705
100,100,101783.7260172996,1985.6921406590668,7.64389620259217,101881.08965937384,-1842.6951159311045,6.955519931394646,101919.88028318994,37478.444820704535,8.235789439283707,101933.45203459916,-24298.594824519256,10.772976333403168,102183.29897645918,13026.332818157349,35.80076824508528,0.9014994001659788,97.0,89.0,68.0,275.0,343.0,8.0,1027.0,985.0,8.0,2.0,6.0,0.25,290.3824070456887,1861.5203067521643,10.0,3.0,7.0,0.3,321.3635683167059,1906.9174167397057,17.0,11.0,6.0,0.6470588235294118,2191.57785959322,14729.464385736974,26.0,4.0,22.0,0.1538461538461538,1987.8191274747087,31677.25549482504,76.0,37.0,39.0,0.4868421052631579,252.73194607485803,14692.706035382413,,,,,101782.0,101790.0,101879.0,101888.0,101909.0,101926.0,101930.0,101947.0,102147.0,102222.0,0.14623737542180557,-0.17439866505226095,0.058475688361073835,-0.08180798691572229,0.01940161898232602
101,101,102770.79399531888,1480.0625832696992,5.007266492038338,102859.30135639945,-1812.7417468218523,10.191861603456228,102899.9811894314,33635.91718747511,8.792820525023178,102914.027373699,-24736.87701241277,10.865283972543132,103164.10949479598,12886.996583483478,33.85615364881057,0.8955820382479951,92.0,84.0,73.0,274.0,347.0,8.0,985.0,981.0,8.0,6.0,2.0,0.75,301.3929145742117,280.32990465028286,11.0,3.0,8.0,0.2727272727272727,288.5618243202438,1633.4425772354114,19.0,13.0,6.0,0.6842105263157895,2013.520589294712,11791.068330031456,24.0,5.0,19.0,0.2083333333333333,1841.621313019049,33412.83677792441,79.0,38.0,41.0,0.4810126582278481,285.1174141860477,13989.642859057574,,,,,102765.0,102773.0,102857.0,102866.0,102888.0,102905.0,102910.0,102930.0,103128.0,103204.0,0.20363525028001567,-0.15918529201755194,0.05986221746450486,-0.0744484161074552,0.022124426924382542
102,102,103595.84415083818,1300.2108309902744,1.3099569381019889,103826.47984108247,-2607.1314248467825,5.429183050556208,103861.37192145386,36767.95510686844,8.448748220389772,103875.60271279988,-24964.73877774388,10.93708757158574,104125.9782340887,12509.403423702925,33.92204381819586,0.8918112252826148,224.0,219.0,73.0,274.0,347.0,5.0,825.0,961.0,5.0,3.0,2.0,0.6,302.34421049464686,1034.087226232647,19.0,9.0,10.0,0.4736842105263157,481.2248020844714,691.719913394996,16.0,10.0,6.0,0.625,2208.660179887517,14430.0232854136,22.0,5.0,17.0,0.2272727272727272,2033.788086442018,36612.70723557768,82.0,38.0,44.0,0.4634146341463415,320.3119594917216,13274.973317186052,,,,,103593.0,103598.0,103817.0,103835.0,103852.0,103867.0,103871.0,103890.0,104092.0,104164.0,0.2325347576626274,-0.18458018552430755,0.06007024795009414,-0.08146642769020858,0.025605694263948015
103,103,104694.84932180028,1359.3290808978377,3.7405804864944527,104811.27208688886,-3385.665862539359,4.940601418901239,104845.80641172454,36033.64578641694,7.999057401687593,104860.027373699,-23816.21561481283,11.790499182065693,105109.64655527378,11944.922349130447,33.59301825055663,0.899773714520447,113.0,107.0,71.0,273.0,344.0,6.0,1099.0,985.0,6.0,3.0,3.0,0.5,245.3420003715386,1709.1070887631197,15.0,6.0,9.0,0.4,454.6304246027663,737.2994042525106,16.0,11.0,5.0,0.6875,2181.5676925884677,13474.564671649698,25.0,5.0,20.0,0.2,1946.064729084634,34709.95544986041,89.0,44.0,45.0,0.4943820224719101,248.15979932321832,12118.445980023076,,,,,104692.0,104698.0,104805.0,104820.0,104836.0,104851.0,104856.0,104876.0,105078.0,105149.0,0.18048756833002502,-0.13428094887715197,0.060542519219934726,-0.08171175305762061,0.020775338011408972
104,104,105679.44244991304,1923.7837272262848,4.547043876732761,105776.15067819972,-2244.466291459745,5.095930801728113,105810.815278158,33415.10409418174,10.73797029917111,105822.45203459916,-35401.90827136876,8.902037410842407,106071.628510201,12950.577368297923,35.32080009163399,0.900852397117444,92.0,84.0,70.0,279.0,349.0,8.0,985.0,962.0,8.0,5.0,3.0,0.625,303.34820408998144,1444.968779228568,13.0,10.0,3.0,0.7692307692307693,535.5338133138007,2380.3288732894707,18.0,15.0,3.0,0.8333333333333334,2067.564550142633,8909.313676325917,20.0,4.0,16.0,0.2,1945.8586682600303,34020.58511394056,86.0,42.0,44.0,0.4883720930232558,277.06801556852497,14411.686013280549,,,,,105674.0,105682.0,105766.0,105779.0,105797.0,105814.0,105819.0,105836.0,106030.0,106115.0,0.15768311156646983,-0.23860185174155712,0.06187514916353765,-0.05496479605970112,0.02139425970665736
105,105,106423.84932180028,2055.7975190381276,2.102334002038993,106690.14575525202,-2588.4048289942903,4.191927476629712,106727.10245070304,33406.569840894495,8.9914270655717,106741.027373699,-26574.733740148906,9.826072233827912,106988.83551209555,13096.617980063043,35.95670151216969,0.8836104906316686,264.0,258.0,69.0,279.0,348.0,6.0,744.0,919.0,7.0,3.0,4.0,0.4285714285714285,362.9366311506108,2180.97783027162,12.0,5.0,7.0,0.4166666666666667,429.410060218277,538.3500534630284,16.0,11.0,5.0,0.6875,2073.847089971395,12346.700153903124,21.0,5.0,16.0,0.238095238095238,1959.2042928941253,34321.51109759341,94.0,48.0,46.0,0.5106382978723404,253.2759282369991,12628.927885436637,,,,,106421.0,106427.0,106685.0,106697.0,106716.0,106732.0,106737.0,106754.0,106955.0,107033.0,0.17654298528408705,-0.16589756571622602,0.06207901918240958,-0.07372432446742352,0.01933903307117613
106,106,107340.88174279589,2073.978281313828,2.4027388796054177,107645.7260172996,-2533.211813965554,3.9667197528564224,107677.77945203062,35537.486574263974,9.058624154440633,107692.45203459916,-25797.61240014718,10.682559356366305,107940.11212970396,12575.681224209826,35.528615735978136,0.8996980966759944,305.0,296.0,67.0,276.0,343.0,9.0,919.0,951.0,9.0,5.0,4.0,0.5555555555555556,327.19545986498287,1629.8917871351548,9.0,5.0,4.0,0.5555555555555556,609.3706177643194,1956.1212996930967,18.0,12.0,6.0,0.6666666666666666,2161.344042948836,13956.621122291965,22.0,4.0,18.0,0.1818181818181818,1970.346436603704,35284.35725985833,79.0,34.0,45.0,0.430379746835443,305.4932835080671,13940.06169164152,,,,,107336.0,107345.0,107641.0,107650.0,107666.0,107684.0,107689.0,107708.0,107906.0,107984.0,0.15776224023797897,-0.24055257219505666,0.060818708673507256,-0.07637708505894378,0.024292384488877845
107,107,108505.12330450072,1686.042633674634,7.451604757484752,108642.87669549928,-2815.511523514682,5.584702737100417,108675.54860468162,35314.32765754555,8.394948619224055,108690.027373699,-23589.7508176605,11.424089239385893,108939.09425282136,12208.032010359646,33.41662642370222,0.8808559676909942,133.0,118.0,76.0,273.0,349.0,15.0,1161.0,998.0,15.0,7.0,8.0,0.4666666666666667,244.4450224808384,2158.089148532955,21.0,13.0,8.0,0.6190476190476191,480.6697681703659,1806.1094429659995,16.0,11.0,5.0,0.6875,2138.576775923562,13641.464208158071,24.0,5.0,19.0,0.2083333333333333,1930.3106003663156,34847.851126896465,80.0,38.0,42.0,0.475,265.5930780569716,12900.479128287046,,,,,108498.0,108513.0,108631.0,108650.0,108665.0,108681.0,108686.0,108707.0,108902.0,108980.0,0.144981519208731,-0.17072200349950348,0.060558331923009606,-0.0818283590736866,0.02175560138043472
108,108,109480.9569478268,2486.134546580284,4.319115748739386,109604.83826543804,-1908.510801325146,2.1730469025587396,109633.12967136608,33267.534555544604,9.507894488616994,109646.45203459916,-26597.11726573409,10.02908514459956,109895.45641253512,13024.120462260673,34.9011576397266,0.8917218779472311,127.0,117.0,59.0,276.0,335.0,10.0,979.0,957.0,11.0,7.0,4.0,0.6363636363636364,349.80581614108723,3820.4148808259,5.0,3.0,2.0,0.6,608.4004338174416,4914.2089226999,18.0,13.0,5.0,0.7222222222222222,1996.3909921394952,12356.966367995066,23.0,4.0,19.0,0.1739130434782608,1900.6586341201453,29905.01101989279,83.0,39.0,44.0,0.4698795180722891,270.93585571095525,14004.259985419072,,,,,109475.0,109485.0,109602.0,109607.0,109621.0,109638.0,109643.0,109661.0,109857.0,109937.0,0.1407026890890722,-0.318782808771639,0.060010187674300094,-0.07146107659452343,0.02080262206542332
109,109,110453.66741145788,1731.349442259731,5.247953280103131,110570.15067819972,-2038.667121809312,5.095930801728113,110606.93800503152,35320.241881522605,9.161337078442209,110620.45203459916,-27540.20082379179,10.37023089082033,110874.38347749642,13085.12519971849,34.22714094495593,0.8901965709849539,121.0,108.0,67.0,276.0,343.0,13.0,972.0,974.0,13.0,8.0,5.0,0.6153846153846154,247.6540633223024,2308.563382828938,7.0,4.0,3.0,0.5714285714285714,394.07037513295165,316.58807235649215,18.0,13.0,5.0,0.7222222222222222,2143.0751313869387,12721.099243365628,24.0,4.0,20.0,0.1666666666666666,2069.7621936553214,32284.05018897813,85.0,49.0,36.0,0.5764705882352941,310.3236939165574,13756.646479126475,,,,,110446.0,110459.0,110567.0,110573.0,110594.0,110612.0,110617.0,110634.0,110831.0,110910.0,0.14304106223586388,-0.1932980479830445,0.060675550823678384,-0.07515421571898154,0.023715760390526
110,110,111470.7260172996,1629.8059444036885,7.64389620259217,111600.027373699,-2034.528199940219,10.151654697095369,111641.80878165655,36069.50505713898,8.61504270509768,111656.027373699,-25281.737603049292,11.427055936229651,111905.56683169524,12098.976090908527,32.062619902295495,0.8855216925612425,133.0,121.0,77.0,273.0,350.0,12.0,1018.0,1035.0,16.0,9.0,7.0,0.5625,252.74634674168203,2283.7094368594,40.0,28.0,12.0,0.7,269.9432655696028,1677.652895103192,16.0,11.0,5.0,0.6875,2101.821437352056,13259.013779187811,25.0,5.0,20.0,0.2,1864.6166878589456,34886.192028970385,78.0,36.0,42.0,0.4615384615384615,264.84344587195176,11784.967521362289,,,,,111463.0,111475.0,111596.0,111611.0,111631.0,111647.0,111652.0,111673.0,111870.0,111946.0,0.15507757080500562,-0.1326810144865697,0.05827142440747347,-0.07375350211822662,0.021889740411253623
111,111,112490.15067819972,2139.087762863438,5.095930801728113,112626.7260172996,-1936.5651907320553,6.807331967905907,112662.95902841956,34721.75631415193,8.466695242534442,112677.45203459916,-22801.190317977624,10.962047297866212,112927.63355962772,12578.97085519126,32.62034753840551,0.8749387256988526,135.0,127.0,67.0,275.0,342.0,8.0,1019.0,1021.0,15.0,8.0,7.0,0.5333333333333333,288.67845023543794,1884.8889505365128,14.0,3.0,11.0,0.2142857142857142,406.3910947787315,612.0607366565184,17.0,11.0,6.0,0.6470588235294118,2180.4296131993005,15202.970800026493,22.0,4.0,18.0,0.1818181818181818,1993.3178430922087,31922.57532388715,78.0,39.0,39.0,0.5,287.08120109585536,13274.05795775878,,,,,112489.0,112497.0,112624.0,112631.0,112653.0,112669.0,112674.0,112691.0,112889.0,112966.0,0.13495400013368575,-0.20985149207660217,0.06279721548274904,-0.08742165717201944,0.022822312286173936
112,112,114454.69864360055,1301.298040669487,3.478818116045548,114544.7260172996,-2270.2905792958495,7.64389620259217,114584.34470729702,37390.49523607421,8.913831597145117,114597.45203459916,-28273.026616291485,10.937706253363883,114847.3494905692,11825.09785496112,33.29092613701348,0.8942442443942816,94.0,84.0,68.0,278.0,346.0,10.0,1962.0,1921.0,15.0,7.0,8.0,0.4666666666666667,322.7268913232103,351.9410348039162,14.0,3.0,11.0,0.2142857142857142,345.98229401041937,955.9235241134238,18.0,12.0,6.0,0.6666666666666666,2152.750455180977,11577.82695144582,27.0,4.0,23.0,0.1481481481481481,2100.2279110701807,33125.37814024373,83.0,39.0,44.0,0.4698795180722891,248.8082563154468,12314.631778879546,,,,,114449.0,114459.0,114543.0,114553.0,114572.0,114590.0,114594.0,114611.0,114810.0,114889.0,0.24800382482492248,-0.15239559956141333,0.05757480454829631,-0.07428380199875691,0.021040693224459145
113,113,115435.84932180028,2072.3494538192167,2.6691566886834908,115526.2739827004,-2358.3768461406084,7.643896202590298,115567.00650891698,36763.248345575725,8.172793782773859,115581.60271279886,-23934.866125436027,11.114256127307456,115831.47549391697,12421.335005210904,34.00593988870079,0.9004768283612163,89.0,81.0,74.0,274.0,348.0,8.0,982.0,983.0,8.0,3.0,5.0,0.375,375.9076172692584,1097.2071715878278,13.0,4.0,9.0,0.3076923076923077,266.6566667861634,2525.432107308845,16.0,10.0,6.0,0.625,2251.0223673181417,15295.1752154348,22.0,5.0,17.0,0.2272727272727272,2020.6519179780487,37058.27434009648,85.0,44.0,41.0,0.5176470588235295,267.6181561213707,12622.567824219492,,,,,115433.0,115441.0,115522.0,115535.0,115557.0,115573.0,115577.0,115596.0,115790.0,115870.0,0.18139200248128184,-0.11306787853795995,0.06123023586377511,-0.08442294631557033,0.02154503972472376
114,114,116386.42466090011,1177.586613296308,2.0967045162596047,116503.15067819972,-2489.5989867347816,5.095930801728113,116536.47865663582,33376.16916045188,8.060146575905478,116551.60271279886,-21930.80780274667,11.507051586132002,116801.39269684732,12084.925747368869,32.28848150650232,0.8776394630749716,109.0,105.0,72.0,278.0,350.0,4.0,951.0,970.0,4.0,1.0,3.0,0.25,284.772941297963,1920.5335777816476,12.0,9.0,3.0,0.75,421.50596923202266,824.9386981172509,17.0,11.0,6.0,0.6470588235294118,2061.0643202677816,12092.830733791325,19.0,5.0,14.0,0.2631578947368421,1892.5043796820771,35479.90726838118,85.0,39.0,46.0,0.4588235294117647,244.238048406921,11990.916561525824,,,,,116385.0,116389.0,116494.0,116506.0,116526.0,116542.0,116547.0,116566.0,116763.0,116844.0,0.24182759729309822,-0.16930677248742226,0.06175257293188638,-0.08629433063770023,0.020210140592721186
115,115,117330.00182099352,1985.680078360596,3.119851863610808,117440.87669549928,-2725.398653559843,12.739826965209827,117480.93185199998,37235.0297885228,8.747534198060363,117493.45203459916,-28296.32288330472,10.988251315414868,117747.38347749642,12384.959888851428,31.810961944587604,0.8819897880416668,113.0,104.0,70.0,275.0,345.0,9.0,944.0,943.0,9.0,5.0,4.0,0.5555555555555556,333.5075776008411,3042.359756575197,37.0,21.0,16.0,0.5675675675675675,269.4929836363045,1699.3836868748288,17.0,12.0,5.0,0.7058823529411765,2115.3575935324143,11305.061364265666,28.0,4.0,24.0,0.1428571428571428,2048.746544589197,30599.840366737262,90.0,50.0,40.0,0.5555555555555556,288.43939850016307,11822.978490718337,,,,,117325.0,117334.0,117438.0,117456.0,117469.0,117486.0,117490.0,117508.0,117708.0,117783.0,0.16795634968357512,-0.09888204181957012,0.0568109547795889,-0.07240327844145396,0.023289489920739075
116,116,118270.69864360055,943.7003200796383,6.615922247786999,118382.84932180028,-1868.3498202702235,5.095930801728113,118419.52601925752,37355.22434045865,8.652583099034981,118433.45203459916,-26534.66168296032,11.029397134043494,118680.61269193792,12748.534014710784,34.79223017867647,0.8938855604005358,115.0,105.0,70.0,273.0,343.0,10.0,939.0,939.0,11.0,8.0,3.0,0.7272727272727273,265.4990944203161,1646.434776500843,17.0,5.0,12.0,0.2941176470588235,414.7068456135668,1000.7949785545007,17.0,12.0,5.0,0.7058823529411765,2231.2527119625356,13418.90625771658,23.0,4.0,19.0,0.1739130434782608,2072.010660752117,34584.84598866891,91.0,46.0,45.0,0.5054945054945055,273.71769242953076,12542.27508253022,,,,,118263.0,118273.0,118378.0,118384.0,118408.0,118425.0,118430.0,118448.0,118646.0,118721.0,0.2813383536819303,-0.22196423877065316,0.059730673590036865,-0.07808694474829855,0.02147052297257728
117,117,119269.12330450072,1652.346724011499,5.446431146853026,119398.87669549928,-2087.662509452734,12.73982700432015,119439.52386560242,39331.51006592274,8.53579465317171,119452.45203460264,-26257.35132673987,11.93078805704824,119705.80813839656,12349.312676305151,32.21353303348715,0.8824017403776923,134.0,124.0,75.0,269.0,344.0,10.0,998.0,1020.0,11.0,7.0,4.0,0.6363636363636364,281.84396645039504,2179.572878729113,57.0,41.0,16.0,0.7192982456140351,256.59259696371726,1972.106354313969,16.0,11.0,5.0,0.6875,2137.3602431791373,13529.11645187995,28.0,4.0,24.0,0.1428571428571428,1917.6561188297908,31426.038354302265,80.0,45.0,35.0,0.5625,254.83303770643985,12576.597884162067,,,,,119262.0,119272.0,119396.0,119415.0,119429.0,119445.0,119449.0,119471.0,119661.0,119740.0,0.17057192800682047,-0.12290904099771433,0.054342186191090845,-0.07303311346856584,0.020635402502634223
118,118,120285.32303022496,1529.1200810460955,2.515768703031163,120416.027373699,-3029.470205833618,5.94713998903113,120449.93694633748,36704.95885852766,8.10049103255077,120463.60271279886,-24113.144383084655,11.864900097497475,120714.53305751452,12467.151125472208,31.55227204351471,0.876579281389387,126.0,118.0,74.0,271.0,345.0,8.0,1019.0,1011.0,9.0,4.0,5.0,0.4444444444444444,290.5737284132975,773.7114387484878,20.0,10.0,10.0,0.5,460.178060198604,1313.765596113156,16.0,10.0,6.0,0.625,2120.919787601354,12986.839290711903,24.0,5.0,19.0,0.2083333333333333,1906.2265544673571,34747.83629274705,83.0,42.0,41.0,0.5060240963855421,246.62455643343384,13213.861073290363,,,,,120281.0,120289.0,120407.0,120426.0,120440.0,120456.0,120459.0,120481.0,120674.0,120752.0,0.19002675591998724,-0.1519005069970566,0.05778292235052052,-0.07905342099658197,0.019781949697356593
119,119,121220.5513358711,1872.3927600595264,3.143674106773127,121340.69864360055,-2232.012913076581,6.483318384405314,121377.59337343444,38168.22022626604,8.300778286877543,121390.45203459916,-26636.258601343685,11.00164782921108,121643.80813839656,12970.28420458897,31.84778330526309,0.88765680543406,119.0,111.0,71.0,272.0,343.0,8.0,935.0,927.0,8.0,5.0,3.0,0.625,316.8789293365219,2890.83931397188,19.0,7.0,12.0,0.3684210526315789,373.2670400915661,70.29755571983617,16.0,11.0,5.0,0.6875,2139.7156694741057,12731.164951246925,24.0,4.0,20.0,0.1666666666666666,1961.440822512408,31748.37501336918,84.0,45.0,39.0,0.5357142857142857,295.374214785049,11407.53346060684,,,,,121216.0,121224.0,121335.0,121352.0,121367.0,121383.0,121387.0,121406.0,121604.0,121678.0,0.16923742501890884,-0.1672333694418726,0.05606013738103585,-0.07363800043649756,0.02277314900166518
120,120,122213.84932180028,1914.7802246766232,2.086706283169649,122308.66213121435,-2754.671688098023,5.465052026242106,122345.32177613878,37525.01854666465,8.816046977063753,122359.027373699,-26462.4629831218,11.249062546328064,122607.84082142236,12472.240455433248,33.84314779760976,0.8904503508632249,93.0,87.0,72.0,272.0,344.0,6.0,992.0,968.0,6.0,3.0,3.0,0.5,325.2551301058941,1125.229039220304,14.0,8.0,6.0,0.5714285714285714,488.2778101848925,384.32157348099577,18.0,12.0,6.0,0.6666666666666666,2194.4862553217185,14112.131711648906,25.0,4.0,21.0,0.16,1970.9116437652424,35474.89752168823,92.0,45.0,47.0,0.4891304347826087,285.84162888839035,12327.465306392996,,,,,122211.0,122217.0,122304.0,122314.0,122334.0,122351.0,122355.0,122376.0,122565.0,122648.0,0.16986551558982424,-0.17725444825042885,0.058480617473719326,-0.07447952388340884,0.02291822627296044
121,121,123213.2739827004,1918.1872051750415,4.695968780136112,123346.45203459916,-2400.364236246721,15.287792405078507,123387.9656038618,36077.39594394053,8.81274848154258,123402.027373699,-25976.05501517895,11.302075249404457,123651.69995777991,12249.42768889184,33.44026085176807,0.8765804124203392,134.0,127.0,76.0,274.0,350.0,7.0,999.0,1043.0,7.0,4.0,3.0,0.5714285714285714,302.6452614771783,2673.0677203643745,23.0,6.0,17.0,0.2608695652173913,300.5664274196881,1804.5344201453347,17.0,11.0,6.0,0.6470588235294118,2118.868481497904,12520.377922780552,24.0,4.0,20.0,0.1666666666666666,1928.4575520830008,35776.3184410846,77.0,36.0,41.0,0.4675324675324675,294.96371081786884,14578.231180959858,,,,,123209.0,123216.0,123343.0,123359.0,123377.0,123394.0,123398.0,123419.0,123616.0,123693.0,0.15777670743537298,-0.12521700785280093,0.05873119237292913,-0.07423981628296207,0.024079795261402383
122,122,124218.63681569962,1736.3680086112042,4.4387478510993885,124336.93996821575,-1702.6367911477191,7.64389620259217,124377.41736421546,33017.83416172841,8.828901212662968,124391.60271279886,-26139.51557989072,9.683558898894637,124640.62100311385,12983.858392468834,35.64717608725986,0.8980616653011178,121.0,109.0,72.0,277.0,349.0,12.0,1006.0,989.0,12.0,7.0,5.0,0.5833333333333334,300.2355356502272,3040.819819788445,12.0,4.0,8.0,0.3333333333333333,260.7626565951121,1229.3138362575942,17.0,11.0,6.0,0.6470588235294118,2170.566888256013,13348.664378643976,18.0,5.0,13.0,0.2777777777777778,2046.223174296728,35457.50857091861,90.0,45.0,45.0,0.5,296.1136519497977,12169.81902484805,,,,,124212.0,124224.0,124333.0,124342.0,124367.0,124383.0,124387.0,124405.0,124606.0,124682.0,0.17291008251779758,-0.15315225064491667,0.0657392267955588,-0.07828083760935874,0.022806290934407888
123,123,125203.15067819972,1157.293567160068,2.2300060928880843,125316.45203459916,-2919.7203206933145,12.112197480773313,125356.969597363,36684.48907861043,8.065874283198138,125371.027373699,-26478.280674067588,11.371835838702324,125621.6787875285,11521.786850608629,30.371116002298557,0.8678742117711394,114.0,107.0,73.0,273.0,346.0,7.0,986.0,980.0,7.0,4.0,3.0,0.5714285714285714,310.2103439919734,1479.0926624133117,19.0,5.0,14.0,0.2631578947368421,301.242110572565,1524.147505884653,15.0,10.0,5.0,0.6666666666666666,2271.3199863764303,12624.479435828884,23.0,5.0,18.0,0.217391304347826,2106.8928719249475,37943.334165611705,83.0,43.0,40.0,0.5180722891566265,284.21914666818407,11753.04508330171,,,,,125199.0,125206.0,125313.0,125329.0,125347.0,125362.0,125367.0,125386.0,125586.0,125659.0,0.2680481018772201,-0.10317498852117189,0.06191499577680545,-0.0795706072406886,0.024667974712027453
124,124,126214.93911090298,1598.1953937552455,4.669340170157263,126331.30135641494,-1762.595280660948,5.886342951419797,126365.15372545598,36196.54689892167,8.895959071411001,126379.027373699,-25909.619882261803,11.203490215627063,126628.84925449303,12434.397861704294,32.84336549856548,0.9014421632424344,116.0,108.0,67.0,274.0,341.0,8.0,1012.0,1008.0,8.0,2.0,6.0,0.25,256.22560962615916,2004.9208875363513,20.0,11.0,9.0,0.55,442.68749510476647,1929.9361388727095,18.0,12.0,6.0,0.6666666666666666,2055.6272624388885,12808.395811237642,25.0,4.0,21.0,0.16,1854.5258663820823,34253.56166179381,77.0,35.0,42.0,0.4545454545454545,272.63153281437747,12791.503556749134,,,,,126213.0,126221.0,126329.0,126339.0,126353.0,126371.0,126375.0,126396.0,126594.0,126670.0,0.16032182962567007,-0.2511566324736584,0.05679070073118294,-0.07157672998713982,0.021925591882018952
125,125,127215.86313948085,2112.197208253344,7.64389620259217,127331.15067819972,-1329.742251914068,5.095930801728113,127365.59201243456,31909.546837674978,9.44638323850773,127380.027373699,-26396.791324463185,9.14651430470887,127630.10949479598,13137.98589025907,36.50450244363269,0.8906392420540612,104.0,95.0,78.0,276.0,354.0,9.0,999.0,1001.0,16.0,11.0,5.0,0.6875,273.64995899686255,2757.580850640299,18.0,15.0,3.0,0.8333333333333334,451.0173231264489,2733.3221784096386,17.0,12.0,5.0,0.7058823529411765,2144.592873972373,14494.20981254834,19.0,5.0,14.0,0.2631578947368421,1985.4837848789289,33789.588811311914,85.0,44.0,41.0,0.5176470588235295,228.64574245794984,13564.866067355568,,,,,127212.0,127221.0,127316.0,127334.0,127354.0,127371.0,127376.0,127394.0,127592.0,127670.0,0.12955701197198063,-0.3391765001655336,0.06720850298758534,-0.07521686103715511,0.017403409043655255
126,126,128006.9226276598,1614.8140653974592,1.286863860637514,128301.45203459916,-1942.1902089379232,9.934234469192642,128341.390162582,38214.743367944735,8.317900709714877,128354.027373699,-26417.29024329493,11.21787805040648,128605.60288594326,12710.302786214344,33.6201473493464,0.8862408865448418,293.0,289.0,74.0,275.0,349.0,4.0,792.0,975.0,4.0,2.0,2.0,0.5,309.392967183376,1698.7079406213295,43.0,27.0,16.0,0.627906976744186,247.1427741452619,1461.8908551872646,16.0,10.0,6.0,0.625,2129.294461648142,12250.364507875383,25.0,4.0,21.0,0.16,1997.738781707828,31849.170995424716,79.0,36.0,43.0,0.4556962025316455,293.6036584705097,13478.716593513316,,,,,128005.0,128009.0,128298.0,128313.0,128331.0,128347.0,128350.0,128372.0,128571.0,128647.0,0.19159665116443245,-0.12724952118897287,0.05571918777908725,-0.07562239591227118,0.023099658867997513
127,127,129205.84932180028,1555.658090106563,4.012907575144241,129300.7260172996,-2050.568909939008,4.668191858965689,129335.06591619924,38150.3502867082,8.58973207261225,129348.45203459916,-26448.129133006976,11.405511527202144,129598.55917545804,12637.695492596737,34.50666356672293,0.9003411214392558,91.0,80.0,70.0,278.0,348.0,11.0,1198.0,994.0,11.0,3.0,8.0,0.2727272727272727,287.7464955796401,563.2314379777906,11.0,7.0,4.0,0.6363636363636364,523.8903263490886,1765.8568668376788,18.0,12.0,6.0,0.6666666666666666,2239.830209895715,12886.82270253869,26.0,3.0,23.0,0.1153846153846153,2017.236645671053,33403.0510615562,86.0,39.0,47.0,0.4534883720930232,316.33561553588373,13169.533626567068,,,,,129203.0,129214.0,129294.0,129305.0,129324.0,129340.0,129345.0,129364.0,129561.0,129642.0,0.18496769785700753,-0.2554853552152369,0.05871060666711846,-0.07627143060011621,0.02503111550054325
128,128,130207.87669549928,2009.3488474778328,12.739827004320285,130307.15067819972,-1550.0947740203048,4.639113102681019,130342.66972210984,33248.97697039939,9.854640226310933,130356.027373699,-29166.60333486255,8.966523156285653,130604.12616739132,13002.520854744089,37.54887459625438,0.8909956796563432,101.0,89.0,66.0,277.0,343.0,12.0,1005.0,1007.0,14.0,6.0,8.0,0.4285714285714285,289.34739615738357,1794.2465363015954,6.0,3.0,3.0,0.5,451.6569860782152,1708.3434169932598,16.0,12.0,4.0,0.75,2231.982954006364,15391.915820360602,19.0,4.0,15.0,0.2105263157894736,2032.9158787340257,34065.40413801304,93.0,44.0,49.0,0.4731182795698925,271.7692323526056,12699.377974807256,,,,,130203.0,130215.0,130304.0,130310.0,130331.0,130347.0,130352.0,130370.0,130562.0,130647.0,0.14400057835680305,-0.29137378800833175,0.0671293723110168,-0.06970012433035361,0.020901272560039628
129,129,131180.7260172996,1866.6183472461944,2.6028527495497986,131277.7260172996,-3097.508905888428,5.245577066517572,131310.56831139032,34690.60265047726,8.136556519401774,131324.87669549932,-23140.790021263547,11.859494526579134,131575.80309169,12497.284273581376,32.53748124728264,0.8875643568876529,94.0,85.0,70.0,278.0,348.0,9.0,972.0,969.0,9.0,5.0,4.0,0.5555555555555556,321.1200762479759,1368.8957248553254,13.0,9.0,4.0,0.6923076923076923,514.2538864543842,1153.7508288428626,16.0,11.0,5.0,0.6875,2080.628293301947,11582.64915303604,23.0,5.0,18.0,0.217391304347826,1947.5958368679792,34212.08962835239,87.0,44.0,43.0,0.5057471264367817,288.12961505826803,11179.68350819146,,,,,131176.0,131185.0,131270.0,131282.0,131300.0,131316.0,131322.0,131340.0,131539.0,131618.0,0.17203306542107094,-0.16602176202844066,0.05997671226023865,-0.0841628931025422,0.023055378172629024
130,130,131962.4634321706,2082.3654443992896,1.6629706580975403,132215.45203459918,-1967.13719909542,7.971151075675455,132256.02872789773,36450.886252158125,8.460719195501657,132269.60271279886,-25517.485150763245,10.871942109068709,132517.28229298585,12449.20004818042,35.79286403159691,0.8850561554038213,252.0,247.0,74.0,276.0,350.0,5.0,780.0,945.0,5.0,2.0,3.0,0.4,317.530029851722,1864.838379412119,19.0,6.0,13.0,0.3157894736842105,262.8605958393208,1088.218580612666,16.0,10.0,6.0,0.625,2174.2423816807777,13652.855291917043,22.0,5.0,17.0,0.2272727272727272,1971.6237176738696,35420.05318025977,97.0,50.0,47.0,0.5154639175257731,280.8116103028296,12047.71100571284,,,,,131960.0,131965.0,132212.0,132227.0,132246.0,132262.0,132265.0,132286.0,132478.0,132562.0,0.1524852569493735,-0.13362595957221293,0.0596485464479495,-0.07726559674768331,0.02255659875462224
131,131,133101.69864360054,1761.0954951414878,10.191861603456228,133206.2739827004,-1702.152822218554,6.54312466925859,133245.81346246356,34142.68865185915,8.431987945983456,133261.02737369903,-22914.31060353711,10.82635650501877,133509.7631535571,12713.843108996429,35.14900351621319,0.8995033224033149,115.0,98.0,73.0,278.0,351.0,17.0,1138.0,990.0,18.0,16.0,2.0,0.8888888888888888,292.9993779885944,1743.5537359344282,10.0,4.0,6.0,0.4,323.52797231164107,1643.214668611778,17.0,11.0,6.0,0.6470588235294118,2128.330996340305,14243.81829511958,21.0,5.0,16.0,0.238095238095238,1935.616030366112,35106.48545427201,84.0,40.0,44.0,0.4761904761904761,335.25675215502577,13695.221484803293,,,,,133087.0,133104.0,133202.0,133211.0,133235.0,133252.0,133257.0,133275.0,133472.0,133553.0,0.1663733618062856,-0.19006987391999314,0.06233636190875707,-0.08447192952282516,0.02636942655976265
132,132,133879.5973365082,1360.9334186500023,1.4447248254233755,134213.30135639946,-2988.1786432676063,4.9465622038917285,134246.86456162756,36100.09198484538,8.312428345681178,134260.45203459918,-23869.328861357048,11.749714483626732,134513.95881659628,12532.64492839703,33.20797892700925,0.8777567218370463,324.0,319.0,76.0,274.0,350.0,5.0,779.0,1001.0,5.0,3.0,2.0,0.6,242.3320645617259,2522.403485100276,18.0,12.0,6.0,0.6666666666666666,470.6683908243082,1768.3929821981185,15.0,10.0,5.0,0.6666666666666666,2148.8925309495685,13183.082503492,28.0,4.0,24.0,0.1428571428571428,1988.672873656344,31238.749898191767,86.0,46.0,40.0,0.5348837209302325,277.3740842853831,12384.269182618053,,,,,133877.0,133882.0,134201.0,134219.0,134237.0,134252.0,134257.0,134277.0,134475.0,134551.0,0.17806313023168371,-0.1575101247325786,0.05952595721505812,-0.08331498908944529,0.0221321266077599
133,133,,,,,,,,,,,,,,,,,,,,,,,,,,,,,,,,,,,,,,,,,,,,,,,,,,,,,,,,,,,,134840.0,135178.0,135196.0,135211.0,135227.0,135231.0,135248.0,135447.0,135527.0,,,,,
134,134,136073.82194810128,2550.0162263825823,16.46345207388275,136185.84932180023,-1331.2922352931569,3.9802174683069063,136222.11897009998,36165.64226283059,8.911603296708554,136236.02737369903,-25724.529498660315,10.444793231707653,136484.74119155077,13426.615014617591,36.609007484700015,0.8975261705912563,118.0,99.0,71.0,278.0,349.0,19.0,2191.0,1975.0,19.0,13.0,6.0,0.6842105263157895,263.71658501385093,2854.7900479915947,16.0,7.0,9.0,0.4375,406.4257508721576,857.897155950603,18.0,12.0,6.0,0.6666666666666666,2205.2355002484023,14487.152638653948,24.0,5.0,19.0,0.2083333333333333,2051.8044407224224,33596.42273886458,92.0,45.0,47.0,0.4891304347826087,294.61258188620104,13253.272155683342,,,,,136061.0,136080.0,136179.0,136187.0,136211.0,136228.0,136232.0,136250.0,136445.0,136528.0,0.10341761055691619,-0.30528665314618975,0.060975980579082475,-0.07976062072697099,0.02194243162297091
135,135,137088.503167923,1611.06205067881,3.9401755892907824,137229.30135639946,-3264.716265034296,6.447285379716894,137264.67488875304,35299.5955657593,8.146869129213554,137279.02737369903,-23653.398895928523,11.541779450546269,137530.17620626953,12096.975440062932,30.64820772864392,0.8813157662383643,139.0,131.0,74.0,270.0,344.0,8.0,1019.0,1043.0,8.0,5.0,3.0,0.625,315.54972255637074,1730.9605939358994,18.0,7.0,11.0,0.3888888888888889,395.63461405068216,742.617832442899,16.0,11.0,5.0,0.6875,2161.8234072802265,13993.200443138194,24.0,4.0,20.0,0.1666666666666666,1857.577575511026,35089.724286269644,77.0,37.0,40.0,0.4805194805194805,299.35153252200166,12285.621144078692,,,,,137084.0,137092.0,137223.0,137235.0,137254.0,137270.0,137275.0,137297.0,137499.0,137567.0,0.1958644128098083,-0.1211849918744856,0.06124215795200784,-0.07853321984227697,0.02474598167163381
136,136,137894.7491333392,2284.0495575113905,1.4901017233680711,138216.45203459918,-1922.09911902758,11.758185734674734,138257.7274568017,35197.19801560874,8.21580569284835,138271.45203459918,-23926.387948318603,11.348599555952282,138522.5447424491,12366.545251204974,32.35272180082858,0.8824249277920647,321.0,316.0,74.0,276.0,350.0,5.0,805.0,993.0,5.0,3.0,2.0,0.6,340.2993231011085,1630.682101141334,38.0,21.0,17.0,0.5526315789473685,245.97443384411824,1680.2775939617138,17.0,12.0,5.0,0.7058823529411765,2089.048337865754,12178.351428116648,25.0,4.0,21.0,0.16,1922.6547559089556,32284.899510346153,82.0,40.0,42.0,0.4878048780487805,315.350261893429,11467.551132432503,,,,,137892.0,137897.0,138213.0,138233.0,138247.0,138263.0,138268.0,138287.0,138486.0,138563.0,0.14898946565410126,-0.12797177388466863,0.059352688726509804,-0.0803570835707388,0.025500271538059654
137,137,139102.39768453603,3063.791225249868,5.827422426989621,139214.7260172996,-2802.6157960396904,4.80693774646955,139250.86242520326,34723.84818484648,8.767140241045196,139265.02737369903,-25424.487488680676,10.356508228205527,139522.2327992967,12772.460020632208,34.46157236451553,0.8775620374036728,110.0,99.0,71.0,276.0,347.0,11.0,1210.0,993.0,12.0,5.0,7.0,0.4166666666666667,343.224027848053,2677.7376525121745,12.0,8.0,4.0,0.6666666666666666,451.4097649109737,934.792539780449,16.0,11.0,5.0,0.6875,2240.16632143145,14933.569489009482,22.0,5.0,17.0,0.2272727272727272,2064.1415419969167,34608.71021879876,79.0,45.0,34.0,0.569620253164557,296.76239391100194,12504.677622086909,,,,,139098.0,139109.0,139208.0,139219.0,139241.0,139256.0,139261.0,139279.0,139477.0,139555.0,0.1120259190702726,-0.16106730203578032,0.06451376902428287,-0.08118714459498545,0.023234552578878447
138,138,140103.2739827004,2278.0822718300624,3.1719038554254717,140226.7260172996,-2154.2542289108387,4.470598529645006,140259.10797938087,37792.85989290602,8.439350882763483,140272.45203459918,-25307.21829810316,11.620866797794392,140522.95784554357,12499.710578803457,34.64062547134123,0.8938165241701479,123.0,115.0,67.0,274.0,341.0,8.0,998.0,1008.0,8.0,4.0,4.0,0.5,377.9961465951795,2974.972202588036,9.0,5.0,4.0,0.5555555555555556,517.4923978927195,1958.6290945887772,17.0,11.0,6.0,0.6470588235294118,2159.7021888071636,13478.565444798109,28.0,4.0,24.0,0.1428571428571428,1971.0108652776871,32086.082950038035,89.0,45.0,44.0,0.5056179775280899,327.65600399327127,12594.88659174368,,,,,140099.0,140107.0,140222.0,140231.0,140249.0,140265.0,140269.0,140289.0,140488.0,140563.0,0.16592734655343333,-0.24021881491413227,0.057145772903324385,-0.07788334703800376,0.026213087249307845
