Unnamed: 0,cycle,p_center,p_height,p_width,q_center,q_height,q_width,r_center,r_height,r_width,s_center,s_height,s_width,t_center,t_height,t_width,r_squared,pr_interval,pr_segment,qrs_duration,st_segment,qt_interval,p_duration,pp_interval,rr_interval,fwhm_p,rise_time_p,decay_time_p,rise_decay_symmetry_p,sharpness_deriv_p,sharpness_diff_p,fwhm_q,rise_time_q,decay_time_q,rise_decay_symmetry_q,sharpness_deriv_q,sharpness_diff_q,fwhm_r,rise_time_r,decay_time_r,rise_decay_symmetry_r,sharpness_deriv_r,sharpness_diff_r,fwhm_s,rise_time_s,decay_time_s,rise_decay_symmetry_s,sharpness_deriv_s,sharpness_diff_s,fwhm_t,rise_time_t,decay_time_t,rise_decay_symmetry_t,sharpness_deriv_t,sharpness_diff_t,Average_Heart_Rate,SDNN,RMSSD,NN50,p_on,p_off,q_on,q_off,r_on,r_off,s_on,s_off,t_on,t_off,sharpness_deriv_p_norm,sharpness_deriv_q_norm,sharpness_deriv_r_norm,sharpness_deriv_s_norm,sharpness_deriv_t_norm
0,0,0.0,0.0,0.0,0.0,0.0,0.0,0.0,0.0,0.0,0.0,0.0,0.0,0.0,0.0,0.0,0.0,0.0,0.0,0.0,0.0,0.0,0.0,0.0,0.0,0.0,0.0,0.0,0.0,0.0,0.0,0.0,0.0,0.0,0.0,0.0,0.0,0.0,0.0,0.0,0.0,0.0,0.0,0.0,0.0,0.0,0.0,0.0,0.0,0.0,0.0,0.0,0.0,0.0,0.0,67.01724644393065,231.9617137819336,329.6513403801002,450.0,,,,,,,,,,,,,,,
1,1,1330.9724025308233,1817.803419545492,11.276947142093205,1432.499662882733,-1767.091401719685,4.206094761559437,1464.7422931539988,20063.102802571997,8.873301575848343,1490.8766954992802,-2264.872866538638,12.739820106344707,1708.6624367985676,7725.955263955975,33.09058577107804,0.9624496960824308,108.0,92.0,68.0,249.0,317.0,16.0,,,20.0,12.0,8.0,0.6,249.40828766903144,1731.1402103501423,10.0,3.0,7.0,0.3,326.45089147610923,390.0525238112014,20.0,11.0,9.0,0.55,1105.6219554531342,19317.39876685392,15.0,6.0,9.0,0.4,500.45422009683654,6778.075449054059,74.0,36.0,38.0,0.4864864864864865,303.7450655222549,8617.133824825642,0.0,0.0,0.0,0.0,1322.0,1338.0,1430.0,1438.0,1454.0,1474.0,1485.0,1498.0,1674.0,1747.0,0.13720311282690367,-0.1847391092268437,0.05510722675016143,-0.22096349313490218,0.03931488795169727
2,2,3153.1506781997123,2396.7115667652347,5.095930801728113,3252.424660900142,-2009.4270553471997,2.5479654008640567,3284.2500387658342,20850.269308807277,8.836804708573125,3311.5753390998566,-2252.1245200315357,2.5479654008640567,3526.700600887406,7816.522576347252,35.49296715024245,0.955016221292162,98.0,93.0,63.0,251.0,314.0,5.0,1822.0,1821.0,17.0,7.0,10.0,0.4117647058823529,409.7877798431499,2476.80799326127,3.0,2.0,1.0,0.6666666666666666,459.368027456147,570.6040551716895,22.0,11.0,11.0,0.5,1096.781226664306,21185.34188387083,5.0,4.0,1.0,0.8,556.1057698817331,5430.402299571779,74.0,36.0,38.0,0.4864864864864865,441.2325681761049,9357.05750810905,0.0,0.0,0.0,0.0,3152.0,3157.0,3250.0,3253.0,3273.0,3295.0,3308.0,3313.0,3492.0,3564.0,0.17097918060963316,-0.22860647080158622,0.052602736704269765,-0.24692496570924335,0.05644870386625274
3,3,4053.849321800288,1811.288157324488,5.095930801728113,4154.726017299569,-1787.776222917886,7.643896190019133,4187.465368081985,19838.155778532084,8.763089914387825,4214.301356399425,-2702.884036509643,10.191861603456228,4431.015393254727,7287.916410140198,30.22788862867973,0.9532877104517212,102.0,94.0,67.0,244.0,311.0,8.0,899.0,902.0,11.0,3.0,8.0,0.2727272727272727,415.3628759600953,1877.83834509842,8.0,3.0,5.0,0.375,417.141385898672,578.8277005131556,20.0,10.0,10.0,0.5,1121.0986303134416,20085.236491900265,13.0,7.0,6.0,0.5384615384615384,594.7115785589356,6494.550372033057,79.0,40.0,39.0,0.5063291139240507,425.52338279457234,7417.038852276672,0.0,0.0,0.0,0.0,4051.0,4059.0,4153.0,4160.0,4177.0,4197.0,4209.0,4220.0,4396.0,4464.0,0.22931904803796715,-0.23332975377524734,0.05651224049397987,-0.22002852158130826,0.05838752242033282
4,4,4942.123303652605,1903.479351994576,12.739827004320285,5042.705939898506,-1659.3829231910274,1.8016704031702555,5074.537179993162,21954.88560339296,9.076557911633987,5102.150678199713,-1838.2812983816584,5.095930801728113,5321.232799296688,7919.169791810735,33.68243376855771,0.95864229999587,105.0,91.0,65.0,249.0,314.0,14.0,887.0,887.0,14.0,7.0,7.0,0.5,437.7166075251816,2217.906723820678,5.0,3.0,2.0,0.6,419.9046961455052,427.65957384096976,22.0,11.0,11.0,0.5,1165.8807832818995,21154.182682521034,5.0,2.0,3.0,0.4,576.682637306972,6069.683007416425,80.0,46.0,34.0,0.575,451.0282784018278,7774.088755527806,0.0,0.0,0.0,0.0,4935.0,4949.0,5040.0,5045.0,5064.0,5086.0,5100.0,5105.0,5283.0,5354.0,0.22995605760919693,-0.2530487027900829,0.05310347793849227,-0.313707503750736,0.0569539851094289
5,5,5791.9035385292245,1937.3774149869591,15.059662861735276,5893.150678199713,-1543.3942062335486,2.3257827351061273,5924.215504311527,21113.55693590018,9.068353628514272,5948.575339099857,-2926.8458594642348,2.5479654008640567,6164.7930066510735,7337.441302771302,36.270915071631286,0.9627793017639252,108.0,94.0,59.0,252.0,311.0,14.0,851.0,849.0,18.0,9.0,9.0,0.5,419.97335237677726,2315.174232161591,5.0,2.0,3.0,0.4,461.04767454797127,579.0221519381305,21.0,10.0,11.0,0.4761904761904761,1141.5015159971656,22548.76464127677,3.0,2.0,1.0,0.6666666666666666,684.7088849224903,7921.255247335974,80.0,37.0,43.0,0.4625,393.996483204569,7180.500462876604,0.0,0.0,0.0,0.0,5783.0,5797.0,5891.0,5896.0,5914.0,5935.0,5947.0,5950.0,6129.0,6202.0,0.2167741551687306,-0.2987232119220518,0.05406486076518104,-0.23394087621950396,0.05369671346546367
6,6,6689.150678199713,2380.587731031702,5.095930801589385,6792.150678199713,-1793.0674082092046,3.82068534929824,6822.709523896672,20283.748887411668,8.579841806893375,6847.575339099857,-2596.117115459453,2.5479654008610386,7064.471974595202,7583.680257816362,34.13339583787283,0.953554537481352,102.0,97.0,59.0,251.0,310.0,5.0,899.0,898.0,11.0,7.0,4.0,0.6363636363636364,408.2745095013408,2753.897489827218,7.0,3.0,4.0,0.4285714285714285,452.49961851932,24.52123973570042,20.0,10.0,10.0,0.5,1153.1141458182944,21614.529917725653,4.0,3.0,1.0,0.75,617.1560420784531,6957.341995340392,73.0,36.0,37.0,0.4931506849315068,413.6675226138163,7604.29821485967,0.0,0.0,0.0,0.0,6688.0,6693.0,6790.0,6795.0,6813.0,6833.0,6845.0,6849.0,7033.0,7100.0,0.17150155996326263,-0.25236062874582404,0.05684916295399075,-0.2377227276856617,0.05454706798687308
7,7,7646.971725700671,2003.129701892713,10.191861603456216,7751.150678199713,-1652.0826355946424,2.282965606612273,7781.428475235564,21095.07395591938,8.924792111812206,7806.575339099857,-2103.80788296703,2.5479654008640567,8023.524059654411,7969.041385889795,36.62019591078922,0.9559130594770748,107.0,96.0,60.0,257.0,317.0,11.0,958.0,959.0,28.0,15.0,13.0,0.5357142857142857,395.84799057058586,1853.3076292742585,6.0,3.0,3.0,0.5,455.35763679708384,321.4178961667633,22.0,11.0,11.0,0.5,1167.2778405959064,21721.99865153298,3.0,2.0,1.0,0.6666666666666666,631.5770808428077,6521.922409338276,80.0,38.0,42.0,0.475,436.81644577599747,8349.365193671398,0.0,0.0,0.0,0.0,7641.0,7652.0,7748.0,7754.0,7771.0,7792.0,7805.0,7808.0,7987.0,8065.0,0.19761475764477848,-0.2756264287186728,0.05533414308170096,-0.3002066329136887,0.054814177091542876
8,8,8547.424660900142,2547.357318127062,2.5479654008640567,8650.25860616393,-1706.603735204334,2.809293369621523,8681.635468320444,21105.109585641145,9.015626214573912,8709.301356399426,-2000.6842251617345,10.191861603456228,8922.362206565163,7369.646064757451,35.26186743511418,0.9516778569117428,102.0,91.0,67.0,244.0,311.0,11.0,899.0,899.0,11.0,1.0,10.0,0.0909090909090909,378.2626119324933,2545.334291766343,7.0,3.0,4.0,0.4285714285714285,459.11633003755304,78.9627390076298,21.0,11.0,10.0,0.5238095238095238,1161.4555467283974,20832.950694699113,8.0,2.0,6.0,0.25,590.9812407171543,5907.956065469041,80.0,37.0,43.0,0.4625,493.2605349698362,7078.779369318315,0.0,0.0,0.0,0.0,8546.0,8557.0,8648.0,8654.0,8671.0,8692.0,8707.0,8715.0,8891.0,8959.0,0.14849216842912713,-0.26902339457412616,0.05503196001022394,-0.29538956387251947,0.06693137372345036
9,9,9496.27398270043,1473.4910840150867,7.64389620259217,9597.150678199714,-2126.955814401765,5.095930801561769,9628.39708925688,20005.507940353615,8.381313106398194,9657.150678199714,-2956.59973014788,5.095930801728113,9876.23279929669,7365.181868065512,30.814280897196937,0.9424808332357584,104.0,97.0,65.0,249.0,314.0,7.0,948.0,948.0,14.0,6.0,8.0,0.4285714285714285,446.7807446956086,1144.3548518214152,8.0,3.0,5.0,0.375,505.1527808420381,2.6557785142122157,20.0,10.0,10.0,0.5,1093.418642973381,20217.8843101997,11.0,8.0,3.0,0.7272727272727273,603.3047925405091,5837.315507358824,72.0,38.0,34.0,0.5277777777777778,529.1402756581724,7259.410206729548,0.0,0.0,0.0,0.0,9491.0,9498.0,9595.0,9600.0,9618.0,9638.0,9649.0,9660.0,9844.0,9909.0,0.30321238420946844,-0.23750036433367053,0.054655880082295674,-0.2040535911536235,0.0718434772062394
10,10,10427.972626301009,2765.589418411714,14.45706092112068,10528.150678199714,-2006.8211889960696,3.014018673461255,10558.535011976915,20488.226790041863,8.83291525702665,10583.80287486592,-2611.286732635706,5.095930801728113,10801.56712105031,7403.087712637397,34.024160156751314,0.9577318217008935,107.0,88.0,60.0,252.0,312.0,19.0,930.0,930.0,25.0,10.0,15.0,0.4,436.2005370197912,2198.988587900983,7.0,3.0,4.0,0.4285714285714285,499.32925249899614,44.75914025054715,19.0,10.0,9.0,0.5263157894736842,1198.4906930146992,21824.31951620286,5.0,4.0,1.0,0.8,691.1142490512618,7050.576576299742,80.0,39.0,41.0,0.4875,488.4168512017555,6964.310375948764,0.0,0.0,0.0,0.0,10418.0,10437.0,10525.0,10531.0,10549.0,10568.0,10580.0,10585.0,10766.0,10837.0,0.15772425730146972,-0.24881601571527662,0.05849655537770677,-0.26466425169390906,0.06597474866710094
11,11,11326.972626301009,2714.0355501634012,15.0191640189551,11427.575339099858,-1731.4641304081913,2.5479652411738196,11456.444115939004,20855.66409678434,8.997384159010286,11481.86484501512,-2802.7116114208216,5.095930801728113,11701.391703265428,8281.833762544495,33.53994018270105,0.9649936509095262,107.0,88.0,60.0,252.0,312.0,19.0,899.0,899.0,34.0,18.0,16.0,0.5294117647058824,446.34561321570425,2094.16078802227,5.0,4.0,1.0,0.8,547.9132225016941,1707.8768309814664,22.0,11.0,11.0,0.5,1193.0387094885407,21009.89029189152,5.0,3.0,2.0,0.6,695.4412728418988,8540.062587466258,80.0,39.0,41.0,0.4875,469.1869748692951,7955.4681875475635,0.0,0.0,0.0,0.0,11317.0,11336.0,11424.0,11429.0,11446.0,11467.0,11479.0,11484.0,11663.0,11736.0,0.16445827807555122,-0.3164450322008831,0.0572045418430234,-0.24813158442989006,0.05665254680566578
12,12,12264.688247845916,2444.890071724905,10.191861603456228,12362.424660900102,-2497.0482199784906,2.5479654008640567,12394.095992284503,20159.71913965893,8.468920213124676,12420.150678199714,-2999.792938865277,5.095930801728113,12637.427560262297,7508.409043883623,32.62739860058238,0.9532841972171244,102.0,91.0,65.0,250.0,315.0,11.0,939.0,939.0,19.0,9.0,10.0,0.4736842105263157,428.1931260181466,2359.765658308316,5.0,4.0,1.0,0.8,482.747709304743,274.741076013853,22.0,12.0,10.0,0.5454545454545454,1130.92946010865,20268.028524658905,6.0,3.0,3.0,0.5,648.9264585544721,7521.71070073058,72.0,35.0,37.0,0.4861111111111111,561.7939120470938,8899.898468254769,0.0,0.0,0.0,0.0,12256.0,12267.0,12358.0,12363.0,12383.0,12404.0,12417.0,12423.0,12607.0,12673.0,0.17513798717177098,-0.19332734764285064,0.05609847301314057,-0.21632375026522319,0.07482196411565153
13,13,13222.264998831575,2592.560632395885,13.036038337322308,13319.150678199714,-1698.2727172440702,4.318558851282831,13350.376201771349,20105.657393944923,9.114795923281948,13373.301356399525,-2605.676973323345,10.191861603453436,13593.562620059573,7779.695220709483,33.2058602233503,0.9608223047422498,101.0,84.0,66.0,250.0,316.0,17.0,959.0,954.0,17.0,7.0,10.0,0.4117647058823529,417.22771267658777,3590.683873926938,6.0,3.0,3.0,0.5,458.3982073083669,462.87473939715306,20.0,10.0,10.0,0.5,1175.236965941452,20952.5698935794,11.0,2.0,9.0,0.1818181818181818,750.9663169542429,8714.64797697628,80.0,40.0,40.0,0.5,551.9971879791997,7407.550994509402,0.0,0.0,0.0,0.0,13215.0,13232.0,13316.0,13322.0,13340.0,13360.0,13371.0,13382.0,13560.0,13632.0,0.16093267307349785,-0.26992025641926826,0.05845304845865869,-0.28820391961189334,0.07095357495622552
14,14,14150.974057688763,2199.4069548288776,11.94193305879431,14243.301356399426,-1898.9571704231191,10.191861603456228,14279.343941787078,19816.574904187135,8.908056184278678,14306.698643600066,-2528.6218434632615,10.191861603456228,14524.656963940992,8061.654543554499,31.444716293583333,0.948766846912238,101.0,82.0,74.0,244.0,318.0,19.0,928.0,930.0,19.0,11.0,8.0,0.5789473684210527,452.1330805530813,1713.1301500475256,14.0,2.0,12.0,0.1428571428571428,449.4954935922949,275.23355278186955,22.0,11.0,11.0,0.5,1191.343737825266,19815.9263048415,14.0,6.0,8.0,0.4285714285714285,645.6233536773935,6180.718622375387,79.0,40.0,39.0,0.5063291139240507,521.5244506009877,7516.248288477214,0.0,0.0,0.0,0.0,14140.0,14159.0,14241.0,14254.0,14269.0,14290.0,14301.0,14315.0,14493.0,14559.0,0.20557045141664518,-0.23670649375000904,0.06011854942569019,-0.2553261790988613,0.06469198695917329
15,15,15041.414730777526,2701.368561390578,15.566303055721283,15137.150678199714,-1646.0504048771768,3.565459632046381,15168.619565543731,21000.91597502118,8.724759216610853,15251.15067820384,-2280.558470974332,5.095930801728113,15413.35027753462,7297.161792902754,31.79686861733934,0.9606808383488594,108.0,84.0,119.0,195.0,314.0,24.0,890.0,888.0,28.0,17.0,11.0,0.6071428571428571,433.05224058961545,3005.6196672034816,6.0,3.0,3.0,0.5,452.0789513644916,508.4228758257998,20.0,10.0,10.0,0.5,1161.6516818105686,20995.161118558695,14.0,11.0,3.0,0.7857142857142857,471.49220540213594,2100.613178272365,74.0,35.0,39.0,0.4729729729729729,542.612143485652,7887.743536451257,0.0,0.0,0.0,0.0,15027.0,15051.0,15135.0,15140.0,15159.0,15179.0,15240.0,15254.0,15381.0,15449.0,0.16030846245086008,-0.2746446585262523,0.05531433406010744,-0.20674418630481264,0.07435934119117361
16,16,15947.56520087784,2809.621050564412,15.218035327443785,16043.587532975676,-1408.989987328495,3.133384154150914,16075.426037768497,20559.71371128923,9.034229334133029,16101.301356399426,-2028.540469025955,10.191861603456228,16318.446118302403,7806.576079542771,34.394279001097395,0.961917508352094,103.0,84.0,66.0,250.0,316.0,19.0,907.0,907.0,19.0,10.0,9.0,0.5263157894736842,417.3301295263753,2522.1044695602877,7.0,4.0,3.0,0.5714285714285714,489.1329663229559,1570.8260318498064,22.0,11.0,11.0,0.5,1151.8780292006963,20722.95775548731,8.0,2.0,6.0,0.25,664.2890110207098,6700.74541942114,80.0,41.0,39.0,0.5125,492.6040773904227,8558.007204185811,0.0,0.0,0.0,0.0,15938.0,15957.0,16041.0,16047.0,16064.0,16086.0,16099.0,16107.0,16283.0,16357.0,0.14853609152826489,-0.3471514849089686,0.056025976109200695,-0.32747141166953486,0.06310116911321696
17,17,16869.123304500717,2023.2913793940656,10.159671990768958,16969.150678199716,-2752.264077958138,5.095930801728113,17000.375995928993,20032.402372360815,8.691687881851006,17031.397287201147,-3143.3730690509237,20.383723206912453,17250.35610379741,7345.890275058163,30.864783429506137,0.9331117385394028,97.0,83.0,79.0,238.0,317.0,14.0,920.0,924.0,15.0,7.0,8.0,0.4666666666666667,442.277225340673,2119.5115849465483,16.0,11.0,5.0,0.6875,480.25143144952295,509.48625268734554,20.0,10.0,10.0,0.5,1090.7179493252036,19277.13650594358,18.0,11.0,7.0,0.6111111111111112,511.4259285581239,4403.5236870335175,85.0,48.0,37.0,0.5647058823529412,529.9883940481975,6731.779754879726,0.0,0.0,0.0,0.0,16862.0,16876.0,16959.0,16972.0,16990.0,17010.0,17020.0,17038.0,17216.0,17276.0,0.21859294703915852,-0.1744932237046868,0.05444768575685626,-0.162699723298367,0.07214760555949104
18,18,17798.69864360057,2533.612102751345,10.191861603456228,17896.424660900142,-2092.1196097735046,2.5479654008640567,17929.408065729975,20246.74507726523,8.70254309756624,17955.8493217044,-2932.439880343699,5.095930801728113,18173.918108027305,7734.199031598244,31.328044475488316,0.95539237050406,102.0,91.0,65.0,252.0,317.0,11.0,930.0,931.0,20.0,9.0,11.0,0.45,431.9155221363532,2628.547613144295,5.0,4.0,1.0,0.8,493.1943318598527,642.1654481855965,22.0,11.0,11.0,0.5,1169.6496124558448,20247.583366794777,6.0,5.0,1.0,0.8333333333333334,628.6263234824183,6871.652151148612,78.0,38.0,40.0,0.4871794871794871,488.68095701424585,7484.58694104143,0.0,0.0,0.0,0.0,17790.0,17801.0,17892.0,17897.0,17919.0,17940.0,17952.0,17957.0,18141.0,18209.0,0.1704742101868395,-0.23573907034562258,0.057769760422835915,-0.21436972252905648,0.06318442996071459
19,19,18691.877015531427,2921.970927521785,17.683304628415932,18788.575339099854,-1381.0235645058972,1.598967589448288,18818.35908594101,21705.42190359653,9.117730688258405,18848.575339099854,-2146.868769462559,2.5479654008084243,19066.232799296693,8265.515796043064,35.99876496064062,0.9569980689488674,105.0,79.0,65.0,249.0,314.0,26.0,893.0,888.0,39.0,23.0,16.0,0.5897435897435898,420.32024503533546,2349.4742750609776,5.0,4.0,1.0,0.8,494.63327605304744,2376.641444635754,22.0,11.0,11.0,0.5,1135.368180427057,22625.18764140489,6.0,5.0,1.0,0.8333333333333334,501.33803894704874,3884.197534138481,82.0,46.0,36.0,0.5609756097560976,528.4929270661295,8378.96319761006,0.0,0.0,0.0,0.0,18680.0,18706.0,18785.0,18790.0,18808.0,18829.0,18844.0,18850.0,19022.0,19099.0,0.14384819543424485,-0.35816425495246157,0.05230804475811316,-0.233520579402975,0.06393949755914011
20,20,19597.972626301,2619.0634879352924,14.15649715726369,19694.424660900146,-2163.7359760285126,2.5479654008640567,19726.909459398383,20692.701704977728,9.00559470848929,19756.123304500717,-2576.298213336822,12.739827004320285,19970.77333613178,7624.513388134962,32.440423464406585,0.9591052269038948,102.0,85.0,71.0,245.0,316.0,17.0,905.0,910.0,28.0,18.0,10.0,0.6428571428571429,411.47441619300065,2047.627573644938,5.0,4.0,1.0,0.8,508.77399650724914,428.8361034714038,22.0,12.0,10.0,0.5454545454545454,1146.7367837896863,20157.65597718223,14.0,7.0,7.0,0.5,564.5439790671202,5493.423519570595,77.0,38.0,39.0,0.4935064935064935,455.7514264134577,7872.644340889498,0.0,0.0,0.0,0.0,19588.0,19605.0,19690.0,19695.0,19716.0,19737.0,19749.0,19761.0,19939.0,20006.0,0.15710746153671198,-0.2351368199003152,0.055417451048155465,-0.21912990357429263,0.05977449355950825
21,21,20530.123304500717,2284.4354051063024,10.245273489473131,20631.150678199716,-2620.0462127882165,5.095930801694648,20660.994543859673,19578.52144038304,8.634340823274348,20688.6986436004,-3426.9749700088114,10.1918616034561,20905.442654398983,7568.7619780599025,30.12852374338809,0.94228781523106,102.0,90.0,71.0,244.0,315.0,12.0,933.0,933.0,17.0,9.0,8.0,0.5294117647058824,410.9549654235647,2039.787103677837,11.0,8.0,3.0,0.7272727272727273,471.3652224976404,70.26722341971413,21.0,11.0,10.0,0.5238095238095238,1200.532126766469,19566.967899065963,12.0,7.0,5.0,0.5833333333333334,614.7552899011239,7092.094854321704,72.0,33.0,39.0,0.4583333333333333,518.2870280362099,7462.542788283516,0.0,0.0,0.0,0.0,20521.0,20533.0,20623.0,20634.0,20651.0,20670.0,20683.0,20694.0,20878.0,20938.0,0.1798934496046482,-0.1799072169784441,0.061318835052080495,-0.17938715493435403,0.06847712076804696
22,22,21455.972626301005,2539.6217742791587,11.777636582155028,21555.72601729957,-2014.4671314732584,4.513583378433232,21586.495353638285,20618.405589568534,8.702796401363113,21612.424660900117,-2997.812369608086,2.5479654008640567,21830.92133537248,7513.183201735814,32.53292843154051,0.9579095927729404,107.0,88.0,60.0,252.0,312.0,19.0,925.0,925.0,20.0,10.0,10.0,0.5,428.7716645354823,2473.284608966724,7.0,3.0,4.0,0.4285714285714285,491.0591905700939,92.74190474742818,21.0,10.0,11.0,0.4761904761904761,1183.1048586947045,21262.29527234949,3.0,2.0,1.0,0.6666666666666666,670.4199724442497,7512.82814796443,80.0,40.0,40.0,0.5,418.78818896425366,7224.608917824251,0.0,0.0,0.0,0.0,21446.0,21465.0,21553.0,21560.0,21577.0,21597.0,21610.0,21613.0,21799.0,21865.0,0.16883288247014025,-0.2437662957602903,0.057381006186689454,-0.22363640207805796,0.05574044685447024
23,23,22343.52190265495,2465.188085510791,12.6432925363994,22391.42466089893,-1685.790371478934,2.5479654008640567,22472.440568102666,21110.39375288735,9.104697661444424,22500.614073889836,-2585.625373395952,10.191861603456228,22716.71913525596,7816.4945321392515,31.338231748249104,0.957463851636421,58.0,39.0,117.0,244.0,361.0,19.0,888.0,885.0,20.0,13.0,7.0,0.65,463.97122338504664,1797.5691935641782,3.0,2.0,1.0,0.6666666666666666,444.429580076427,2228.2208963682356,21.0,10.0,11.0,0.4761904761904761,1176.9921853931353,23000.207201537785,19.0,8.0,11.0,0.4210526315789473,595.2375718557449,6094.17177169443,79.0,41.0,38.0,0.5189873417721519,449.49353376898927,8804.432866389621,0.0,0.0,0.0,0.0,22331.0,22350.0,22389.0,22392.0,22462.0,22483.0,22494.0,22506.0,22685.0,22750.0,0.18820925920908427,-0.2636327669178295,0.0557541559466248,-0.2302102918621818,0.05750576961588048
24,24,23252.849321800284,3684.072400244172,5.095930801728113,23353.72601729957,-1776.951943361045,4.806831729535403,23385.42604783205,20548.186605601182,8.896156248785738,23410.849321800284,-3175.2950112289654,5.095930801728113,23627.87443358607,7948.329885258514,33.17832085957888,0.9509719352861156,102.0,88.0,67.0,244.0,311.0,14.0,911.0,914.0,25.0,9.0,16.0,0.36,456.088091211506,3249.253741874468,7.0,2.0,5.0,0.2857142857142857,475.2301467513866,276.6892658533434,20.0,10.0,10.0,0.5,1153.566165024261,22181.632117986148,14.0,5.0,9.0,0.3571428571428571,692.6746133463179,6905.419491960914,79.0,38.0,41.0,0.4810126582278481,363.4427241975075,8078.524445389037,0.0,0.0,0.0,0.0,23250.0,23264.0,23352.0,23359.0,23375.0,23395.0,23408.0,23419.0,23595.0,23663.0,0.12379998047304323,-0.26744119250209136,0.05613956049580614,-0.21814496319138083,0.04572567186366684
25,25,24190.150678199716,2731.653788327405,5.095930801728113,24281.30135639943,-2417.631130383457,10.191861603456228,24316.293709908376,19489.120627149452,8.863643280652692,24342.97959307792,-3065.8094501985893,10.191861603456228,24560.045273712814,7510.216059580003,30.926928677592898,0.9375043150138698,90.0,85.0,71.0,244.0,315.0,5.0,939.0,932.0,26.0,16.0,10.0,0.6153846153846154,476.5682876579382,2299.370041527009,19.0,10.0,9.0,0.5263157894736842,529.1738545490872,707.3735508154896,20.0,10.0,10.0,0.5,1103.430578990142,20165.603641102403,11.0,4.0,7.0,0.3636363636363636,582.9772442046934,7385.4735565937135,77.0,37.0,40.0,0.4805194805194805,415.06383811019026,7139.978099753378,0.0,0.0,0.0,0.0,24189.0,24194.0,24279.0,24290.0,24306.0,24326.0,24339.0,24350.0,24529.0,24594.0,0.17446145250703293,-0.21888113860659783,0.05661777153008128,-0.19015442860185938,0.05526656421298777
26,26,25106.972626301005,2370.882688053718,12.398712427593384,25200.726017299592,-1600.7085221320035,7.643893336278013,25235.74054908843,20116.394198282425,9.11680615349188,25263.69864360057,-2713.3346655332243,10.191861603456228,25482.13837552136,7353.460837340586,28.91866692786606,0.9534076881484896,102.0,88.0,70.0,244.0,314.0,14.0,913.0,919.0,26.0,11.0,15.0,0.4230769230769231,482.7581101073921,2103.0686134993975,11.0,3.0,8.0,0.2727272727272727,570.07478299023,296.19630937453724,21.0,11.0,10.0,0.5238095238095238,1160.9017074437772,20142.21782596533,12.0,6.0,6.0,0.5,606.7604227259271,5712.948670614744,77.0,40.0,37.0,0.5194805194805194,424.0839048303045,7502.211512028537,0.0,0.0,0.0,0.0,25097.0,25111.0,25199.0,25209.0,25225.0,25246.0,25258.0,25269.0,25448.0,25513.0,0.20361956858510497,-0.3561390316276572,0.05770923436879643,-0.22362166762303412,0.05767133519999495
27,27,25971.74531925086,2946.7328889596747,16.398099115620916,26067.849321800284,-1549.498675492427,4.084443648912984,26100.36228188761,21355.584324387244,9.154499624541431,26127.12006109582,-2468.5987260714583,5.095930801728113,26343.462003199344,8059.224942183676,35.301135310315466,0.9672427289282972,104.0,85.0,64.0,252.0,316.0,19.0,865.0,865.0,34.0,19.0,15.0,0.5588235294117647,477.9352072121057,1881.733532327492,4.0,3.0,1.0,0.75,557.1816426682393,1147.2595232408617,23.0,12.0,11.0,0.5217391304347826,1142.2413191018916,22025.25548479773,4.0,2.0,2.0,0.5,676.6045062805836,7494.251481589794,80.0,42.0,38.0,0.525,513.4366679293835,8616.74038989523,0.0,0.0,0.0,0.0,25961.0,25980.0,26065.0,26069.0,26090.0,26111.0,26125.0,26129.0,26307.0,26381.0,0.16219156103451157,-0.35958833103950105,0.0534867743139904,-0.2740844427791372,0.06370794606339229
28,28,26846.60524330797,2163.0929272411468,10.191861550340882,26945.150678199716,-2594.9008030905056,5.095930801728113,26975.78061283603,20035.26704529473,8.297861390361776,27005.150678199716,-3845.7601855242306,5.095930801728113,27219.987434253475,7742.49383668635,30.934408586607184,0.9441889044317812,101.0,90.0,66.0,246.0,312.0,11.0,879.0,874.0,28.0,15.0,13.0,0.5357142857142857,422.7061439854822,2232.6502869965616,12.0,9.0,3.0,0.75,467.1857711417261,312.41200977938206,20.0,10.0,10.0,0.5,1195.6106534218643,20724.92095053372,11.0,8.0,3.0,0.7272727272727273,561.0636671975512,6461.394207185586,80.0,40.0,40.0,0.5,545.4785539617257,7520.405095915567,0.0,0.0,0.0,0.0,26841.0,26852.0,26942.0,26948.0,26966.0,26986.0,26997.0,27008.0,27186.0,27254.0,0.19541746850636246,-0.18003993470012866,0.05967530408847995,-0.14589148572223581,0.07045256547406963
29,29,27769.508751005185,2743.1626855809036,16.94461504932816,27866.424660900146,-1285.8559577361998,2.5479654008640567,27898.019166559527,20974.560477047893,9.007819985604511,27924.150678199716,-1867.9622894898987,5.095930801728113,28143.918036158735,7716.257377892126,34.5203782237828,0.9662637572515532,104.0,86.0,63.0,251.0,314.0,18.0,919.0,925.0,29.0,19.0,10.0,0.6551724137931034,422.90484240063256,2094.7114990631953,3.0,2.0,1.0,0.6666666666666666,500.9923100015107,1074.378877603512,23.0,12.0,11.0,0.5217391304347826,1123.6345728307467,21272.22441004136,6.0,3.0,3.0,0.5,620.0832970040684,6593.1893117923255,80.0,39.0,41.0,0.4875,407.75166316238904,7745.239020714932,0.0,0.0,0.0,0.0,27760.0,27778.0,27864.0,27867.0,27886.0,27909.0,27922.0,27927.0,28111.0,28178.0,0.1541668835842583,-0.3896177538295405,0.05357130482234996,-0.3319570745581808,0.05284319109554843
30,30,28647.849321800284,3119.921182735155,5.095930801728113,28751.849321800284,-1080.165207871971,2.969728687642275,28784.407311876537,21294.219906206978,9.433808420317874,28808.72601729957,-2074.70087967314,7.64389620259217,29029.3834774964,8476.020753272884,37.6101297991222,0.9586598753119038,104.0,92.0,66.0,250.0,316.0,12.0,880.0,885.0,26.0,15.0,11.0,0.5769230769230769,480.6470736284407,2421.29583879026,8.0,5.0,3.0,0.625,514.8751065281972,1924.31660182111,23.0,11.0,12.0,0.4782608695652174,1173.8230470656017,21401.46816645057,13.0,2.0,11.0,0.1538461538461538,702.7660543683243,7800.791864021996,85.0,44.0,41.0,0.5176470588235295,400.7047175132203,8491.534645376607,0.0,0.0,0.0,0.0,28645.0,28657.0,28749.0,28755.0,28773.0,28795.0,28807.0,28815.0,28990.0,29065.0,0.15405744103031144,-0.4766632944441439,0.0551240220226827,-0.3387312654338113,0.04727509867864521
31,31,29486.649374852528,1900.5676550998007,5.095930801728113,29587.72601729957,-1874.198827673907,7.643896200359935,29620.5862774576,20976.939805390157,9.029959129603531,29648.63770243563,-3126.2012476682426,7.64389620259217,29864.239913425292,7002.322168496032,29.622701242255086,0.9520188114554556,102.0,97.0,68.0,244.0,312.0,5.0,839.0,834.0,11.0,3.0,8.0,0.2727272727272727,493.2172656945477,1731.4663022264915,8.0,2.0,6.0,0.25,520.3979268298151,80.89734141005101,21.0,11.0,10.0,0.5238095238095238,1157.0950291689971,20589.127927126818,8.0,3.0,5.0,0.375,647.7244743356272,7602.528136458911,79.0,40.0,39.0,0.5063291139240507,449.1593122783678,6863.192874402597,0.0,0.0,0.0,0.0,29484.0,29489.0,29586.0,29593.0,29610.0,29631.0,29646.0,29654.0,29832.0,29898.0,0.25951050170252865,-0.2776642046434784,0.05516033510625198,-0.20719218726521496,0.06414433690285902
32,32,30305.424660900146,1166.95550270907,2.547965400864036,30417.575339099854,-2474.9293665398063,2.5479654008640567,30449.23624420371,20880.607098541543,8.985692447095174,30479.972626301005,-2500.462781818965,17.8357578060484,30695.232799296693,7339.646871167716,31.43153603071258,0.9498630338092192,110.0,107.0,71.0,243.0,314.0,3.0,819.0,830.0,3.0,1.0,2.0,0.3333333333333333,429.01354982405593,2919.539592455616,5.0,4.0,1.0,0.8,541.7528813862403,722.2037960392356,22.0,11.0,11.0,0.5,1159.736527822744,19684.3591355106,17.0,12.0,5.0,0.7058823529411765,567.8023037108983,4860.5983533239305,78.0,38.0,40.0,0.4871794871794871,537.2618079744453,7425.948934558574,0.0,0.0,0.0,0.0,30304.0,30307.0,30414.0,30419.0,30438.0,30460.0,30470.0,30485.0,30663.0,30728.0,0.3676348831023182,-0.21889630011690553,0.05554132225895619,-0.22707888629234055,0.0731999532681834
33,33,31216.30135639943,2300.155265465096,10.191861603456228,31321.150678199716,-1685.7232320178775,3.495357307530648,31351.798258483457,20881.67071271313,8.773392400401653,31376.97330581317,-2632.741184185502,2.5479654008640567,31593.899095688717,7901.437543730797,33.16583420554405,0.9616596288300824,111.0,97.0,59.0,250.0,309.0,14.0,913.0,903.0,20.0,13.0,7.0,0.65,441.91099847073735,1412.349248744176,6.0,3.0,3.0,0.5,426.009111652683,877.9737205486595,20.0,10.0,10.0,0.5,1191.5041014558592,21780.56272565821,4.0,3.0,1.0,0.75,652.382770358963,7251.310994028599,84.0,44.0,40.0,0.5238095238095238,474.2981167776048,7979.860659572154,0.0,0.0,0.0,0.0,31208.0,31222.0,31319.0,31324.0,31342.0,31362.0,31374.0,31378.0,31563.0,31628.0,0.1921222471829014,-0.2527159284283774,0.05705980703595955,-0.2477960136293429,0.0600268133681478
34,34,32133.69864360057,1975.296156163329,10.191861603456228,32234.72601729957,-1458.6838884157996,7.643896202586787,32269.82074878488,20664.100312270715,9.085324026741032,32294.30135639943,-2512.7280833795103,10.191861603456228,32512.87658645875,7645.813373533964,32.952825679733564,0.9561596780613296,105.0,92.0,70.0,249.0,319.0,13.0,914.0,918.0,15.0,7.0,8.0,0.4666666666666667,492.3737426262686,1942.410125373651,11.0,3.0,8.0,0.2727272727272727,485.77625377547326,217.03228689832292,21.0,11.0,10.0,0.5238095238095238,1175.72681291321,20436.585306136876,11.0,2.0,9.0,0.1818181818181818,680.2052167246185,8435.640376555415,77.0,37.0,40.0,0.4805194805194805,433.3024100399072,7576.344599527865,0.0,0.0,0.0,0.0,32128.0,32141.0,32233.0,32243.0,32259.0,32280.0,32292.0,32303.0,32482.0,32552.0,0.24926578279918257,-0.3330236644370217,0.05689707246606049,-0.270703870117841,0.05667185279983245
35,35,33012.69864360057,1877.3155002957772,9.300620776387492,33114.6375834963,-1693.0125966979658,3.112724158314674,33146.97628068617,21247.18441532781,9.028826695466408,33174.150678199716,-2434.8621238968044,5.095930801728113,33390.53415569612,7834.50820034253,34.74216141854885,0.95750177189939,105.0,92.0,65.0,252.0,317.0,13.0,879.0,877.0,14.0,6.0,8.0,0.4285714285714285,533.1326978508965,1940.8241116306203,5.0,3.0,2.0,0.6,574.9317234152658,73.49804356662912,22.0,11.0,11.0,0.5,1171.813208812124,21686.457128406895,6.0,3.0,3.0,0.5,662.1640562596011,7196.676737943994,74.0,36.0,38.0,0.4864864864864865,418.87888744616976,8274.865011775544,0.0,0.0,0.0,0.0,33007.0,33020.0,33112.0,33117.0,33136.0,33158.0,33171.0,33177.0,33355.0,33429.0,0.283986734124818,-0.33959093070932056,0.055151458466504995,-0.2719513559970533,0.05346588155053002
36,36,33842.424660900135,2047.900421320188,2.5479654008640567,33944.726017299574,-1888.9879620674517,6.273298712355731,33976.77701917126,20410.092278913035,9.008356339154508,34003.7436137779,-3254.1595417863346,7.64389620259217,34219.89519672567,7208.548389051194,32.52978232631189,0.9520928126820644,101.0,97.0,68.0,244.0,312.0,4.0,831.0,828.0,4.0,1.0,3.0,0.25,468.65447976410474,2624.320159302607,7.0,3.0,4.0,0.4285714285714285,514.5181536203736,880.7880750045217,21.0,11.0,10.0,0.5238095238095238,1128.3717610893684,20181.54857128217,18.0,6.0,12.0,0.3333333333333333,659.547437957369,7182.632673088743,80.0,40.0,40.0,0.5,443.5524866332265,6830.002384945942,0.0,0.0,0.0,0.0,33841.0,33845.0,33942.0,33949.0,33966.0,33987.0,34002.0,34010.0,34185.0,34254.0,0.22884632225525137,-0.2723776773342938,0.055284990663915866,-0.20267827360281104,0.0615314571942005
37,37,34681.424660900135,2617.711109310714,2.5479654008640567,34785.849321800284,-1592.9084599693954,5.095930800840152,34818.917502658966,20218.76951447249,9.147343887869669,34843.30135639943,-2924.5582738866483,10.191861603456228,35060.50686363866,7477.204963574038,32.04985379076362,0.9479307132858776,103.0,92.0,71.0,239.0,310.0,11.0,839.0,845.0,11.0,1.0,10.0,0.0909090909090909,439.7299726945782,3211.7454285704466,10.0,3.0,7.0,0.3,541.6056357395414,1039.4074648347012,22.0,12.0,10.0,0.5454545454545454,1168.1022290271694,19253.255493392804,14.0,2.0,12.0,0.1428571428571428,719.6282032460406,8234.789704591347,68.0,36.0,32.0,0.5294117647058824,515.0337181939129,8669.940799466722,0.0,0.0,0.0,0.0,34680.0,34691.0,34783.0,34792.0,34808.0,34829.0,34841.0,34854.0,35025.0,35093.0,0.16798262082112117,-0.3400105212260266,0.057773161130851604,-0.24606389610068422,0.06888051360139945
38,38,35547.726017299574,1777.6348169888674,7.64389620259217,35648.30135639943,-1507.4944165976246,10.191861590206983,35680.98069159344,19715.7725256501,8.87306060558732,35708.30135639943,-2786.967414739415,10.191861603456228,35923.95138853284,7218.465645861476,31.779858918083,0.9504191251663568,97.0,89.0,73.0,244.0,317.0,8.0,868.0,859.0,8.0,4.0,4.0,0.5,490.21970743297464,2492.7283921114213,14.0,8.0,6.0,0.5714285714285714,478.5086269967013,790.4031554329024,20.0,10.0,10.0,0.5,1120.2045517603626,19899.199161992165,13.0,7.0,6.0,0.5384615384615384,617.2559278706576,5964.0106347849105,80.0,40.0,40.0,0.5,473.964867742537,6636.936801392072,0.0,0.0,0.0,0.0,35544.0,35552.0,35641.0,35654.0,35671.0,35691.0,35701.0,35714.0,35893.0,35958.0,0.27577076165922365,-0.31741983368448073,0.05681768494249887,-0.22147942046476057,0.0656600572746748
39,39,36412.35891239767,2911.571721613568,10.191861603456228,36517.575339099865,-1784.562842203675,1.3155134543578388,36546.64014927103,20862.723762982085,8.844294167868174,36571.575339099865,-2642.0449776192045,2.5479654008640567,36788.83706643331,7714.67960636521,33.47481242601741,0.9578426254237856,111.0,96.0,59.0,253.0,312.0,15.0,865.0,868.0,33.0,14.0,19.0,0.4242424242424242,466.1827931374408,2262.306628251252,5.0,4.0,1.0,0.8,541.0614755923744,2141.8917514502564,21.0,11.0,10.0,0.5238095238095238,1199.1160724836625,21851.257324651473,4.0,3.0,1.0,0.75,630.9927080672381,7288.499338939483,77.0,37.0,40.0,0.4805194805194805,420.476117298461,7659.009205400429,0.0,0.0,0.0,0.0,36403.0,36418.0,36514.0,36519.0,36537.0,36557.0,36569.0,36573.0,36758.0,36826.0,0.16011379341158263,-0.30318992573231124,0.057476487064039176,-0.23882739068122805,0.05450338040630172
40,40,37258.15067819971,2284.8676470440123,5.095930801728113,37357.23802387943,-2184.6433665519658,5.095930801728113,37390.912498549005,20326.779048514436,8.85896630362915,37418.69864360057,-3183.8494283535483,10.191861603456228,37634.46426114887,7301.857057734818,31.6566956009042,0.9514330294925162,98.0,93.0,71.0,243.0,314.0,5.0,845.0,844.0,14.0,7.0,7.0,0.5,483.25408490496955,2614.5150723247434,4.0,2.0,2.0,0.5,501.77387026255406,715.5352627004065,21.0,11.0,10.0,0.5238095238095238,1153.81164327258,20245.064626055235,29.0,9.0,20.0,0.3103448275862069,628.8446908765436,5916.0427275318925,74.0,37.0,37.0,0.5,361.7453689367873,7277.113900868795,0.0,0.0,0.0,0.0,37257.0,37262.0,37355.0,37359.0,37380.0,37401.0,37413.0,37426.0,37602.0,37669.0,0.21150200342245945,-0.22968228038725902,0.05676313204953666,-0.19751081356938907,0.049541557178744325
41,41,38106.65167416559,1879.9311479041455,10.191861603455058,38209.15067819971,-1913.40615601455,3.4715195975134745,38240.48130865595,20862.254449728567,8.76209051229883,38269.15067819971,-2495.1871324323997,5.095930801728113,38490.356103797414,7400.98057003841,31.174987126303677,0.945465614410256,104.0,96.0,66.0,244.0,310.0,8.0,847.0,849.0,14.0,6.0,8.0,0.4285714285714285,512.6743619090493,1631.2304014131953,6.0,3.0,3.0,0.5,580.0029180540229,279.49325661102466,21.0,10.0,11.0,0.4761904761904761,1120.7192262091205,21355.98670509405,11.0,8.0,3.0,0.7272727272727273,635.1613815446354,5822.664539125043,79.0,48.0,31.0,0.6075949367088608,467.4593479097803,6959.334924225208,0.0,0.0,0.0,0.0,38102.0,38110.0,38206.0,38212.0,38230.0,38251.0,38261.0,38272.0,38450.0,38516.0,0.27270911622513827,-0.30312587645380834,0.05371994809619925,-0.25455460766401794,0.06316181261199477
42,42,39010.15067819971,1907.4720734128025,5.095930801728113,39114.15067819971,-1666.2249816810563,5.0959306561760975,39143.87909842449,19429.37030632975,8.977196453352649,39169.6707957124,-3138.1199826989314,10.191861603456228,39387.2327992967,7028.775379224366,30.6656452611966,0.9472157104361786,102.0,96.0,66.0,243.0,309.0,6.0,905.0,904.0,14.0,9.0,5.0,0.6428571428571429,458.41090482103107,1813.8363923406455,6.0,3.0,3.0,0.5,459.40068721864384,680.39390517818,21.0,11.0,10.0,0.5238095238095238,1199.697986676371,19623.907005187437,12.0,5.0,7.0,0.4166666666666667,655.8461182579431,6986.914731828647,78.0,38.0,40.0,0.4871794871794871,527.151231068378,6960.661430242258,0.0,0.0,0.0,0.0,39009.0,39015.0,39111.0,39117.0,39133.0,39154.0,39165.0,39177.0,39355.0,39420.0,0.24032378308996863,-0.27571347943370406,0.061746622137596005,-0.20899332143887134,0.07499901513804669
43,43,39916.424660900135,1201.2787701957666,2.5479654008166044,40020.45203459914,-2381.4395428342323,15.28779240518434,40054.30922588995,19011.293036216925,9.00383306861012,40081.69864360057,-3826.8362708442432,10.191861603456228,40299.41487132749,6597.530547373418,27.250533383469325,0.9212175191597856,101.0,96.0,74.0,238.0,312.0,5.0,905.0,911.0,5.0,1.0,4.0,0.2,425.1142533515614,2051.1463343603145,13.0,4.0,9.0,0.3076923076923077,456.5205736905707,1734.3375453669378,22.0,11.0,11.0,0.5,1182.18845712616,18515.06230616788,14.0,6.0,8.0,0.4285714285714285,657.0241648292018,7217.578956450576,74.0,39.0,35.0,0.527027027027027,505.981443130636,5741.342766286632,0.0,0.0,0.0,0.0,39915.0,39920.0,40016.0,40029.0,40044.0,40064.0,40076.0,40090.0,40274.0,40328.0,0.3538847633861727,-0.191699417717424,0.062183485093521285,-0.17168860079928502,0.07669255026520116
44,44,40809.424660900135,1899.832359425936,0.4149894922386698,40912.15067819971,-3031.6370748650374,5.0959307974682275,40942.299277445425,19874.319484120908,8.90082760186522,40970.12330447072,-3720.815625012772,12.73982700195934,41186.33266952514,6789.054835420032,28.505630783024383,0.9250258143836678,96.0,93.0,71.0,243.0,314.0,3.0,893.0,887.0,3.0,1.0,2.0,0.3333333333333333,433.3714437782459,1646.0707949515056,20.0,17.0,3.0,0.85,445.07904355674714,259.36667289523984,21.0,11.0,10.0,0.5238095238095238,1174.018448528204,19971.046950741285,26.0,7.0,19.0,0.2692307692307692,598.445182996908,7538.762466642358,72.0,33.0,39.0,0.4583333333333333,531.1405770069736,6468.183614249031,0.0,0.0,0.0,0.0,40808.0,40811.0,40904.0,40915.0,40932.0,40952.0,40963.0,40975.0,41159.0,41218.0,0.22811036017367126,-0.14681145287701075,0.059072133235365164,-0.16083709683810354,0.07823483384401217
45,45,41681.726017299574,1778.0798104801408,7.643896202591776,41782.30135639943,-1934.3236065191063,5.118201708939476,41814.39321487575,20162.64074920292,9.036666898693973,41839.273982700426,-3055.2231832836933,7.64389620259217,42066.356103797414,7060.283938171579,29.56139861513564,0.9430637090311846,97.0,89.0,73.0,244.0,317.0,8.0,874.0,872.0,10.0,6.0,4.0,0.6,486.6211596438192,2319.007166441139,13.0,7.0,6.0,0.5384615384615384,449.1880822081288,1043.660472992244,20.0,10.0,10.0,0.5,1161.2472818997448,21817.90219555593,13.0,4.0,9.0,0.3076923076923077,699.6779281917583,8102.147205426201,79.0,48.0,31.0,0.6075949367088608,454.236229400378,6358.3105469497095,0.0,0.0,0.0,0.0,41678.0,41686.0,41775.0,41788.0,41804.0,41824.0,41835.0,41848.0,42027.0,42092.0,0.2736779062310006,-0.23221971788705043,0.05759400746877126,-0.2290104146957141,0.06433682177348986
46,46,42593.15067819971,2008.3854392165613,5.095930801728113,42691.81410070666,-2035.168250392909,2.5479654008640567,42723.06329537456,20408.101414548593,8.544043576853213,42751.575339099865,-3216.582366442908,2.5479654008640567,42967.16447848132,7163.008181519383,31.473543542894294,0.9523800312816584,98.0,93.0,63.0,250.0,313.0,5.0,911.0,909.0,11.0,7.0,4.0,0.6363636363636364,404.4288225526389,2189.4990048328373,3.0,2.0,1.0,0.6666666666666666,482.0820631032674,494.3169510931899,22.0,11.0,11.0,0.5,1098.112816063004,20206.235552822396,9.0,8.0,1.0,0.8888888888888888,549.8620926539423,5611.070740447985,66.0,30.0,36.0,0.4545454545454545,438.5262490027339,8695.981587474673,0.0,0.0,0.0,0.0,42592.0,42597.0,42690.0,42693.0,42712.0,42734.0,42744.0,42753.0,42937.0,43003.0,0.20137012281387584,-0.23687577821155414,0.05380769106136339,-0.1709460632472512,0.06122096162533153
47,47,43529.97481511764,2171.415529320363,15.868144505698968,43629.15067819971,-1461.4311599584487,2.2081608816421965,43659.17305548524,20068.777656784117,9.257401517527644,43683.30135639943,-2313.917535466643,10.191861603436974,43902.027466390304,8233.202906783761,37.10724300064591,0.9559359033548736,110.0,91.0,65.0,250.0,315.0,19.0,933.0,936.0,33.0,19.0,14.0,0.5757575757575758,432.2194658481901,1310.590344693958,6.0,3.0,3.0,0.5,467.8563843517399,1481.8524767424658,22.0,11.0,11.0,0.5,1143.52228295126,20195.450692025937,11.0,2.0,9.0,0.1818181818181818,678.2221418172436,7964.4456765978675,86.0,44.0,42.0,0.5116279069767442,401.42364698658264,8445.90182558737,0.0,0.0,0.0,0.0,43517.0,43536.0,43627.0,43632.0,43648.0,43669.0,43681.0,43692.0,43865.0,43942.0,0.19904963375824783,-0.32013576634361757,0.05698016603241901,-0.29310558022132277,0.048756680909179215
48,48,44440.84932180029,965.2683764017064,5.095930801728113,44542.30135639943,-2450.1140413785765,10.191861603456228,44576.96645478037,18802.897788381604,8.672056464341688,44605.69864359925,-3075.607761058767,10.191861603456228,44820.808138396555,7089.991002239133,30.865295898830112,0.9352870345043433,102.0,96.0,71.0,244.0,315.0,6.0,913.0,919.0,6.0,3.0,3.0,0.5,517.6339345345771,456.55570995414143,19.0,10.0,9.0,0.5263157894736842,507.94271294973856,636.1343022108873,20.0,10.0,10.0,0.5,1096.2140053530884,19562.21730303599,14.0,9.0,5.0,0.6428571428571429,548.0327023186543,5587.7963454581695,77.0,37.0,40.0,0.4805194805194805,425.5964350970309,6731.0796687002785,0.0,0.0,0.0,0.0,44438.0,44444.0,44540.0,44551.0,44567.0,44587.0,44600.0,44611.0,44790.0,44855.0,0.5362590831621302,-0.20731390636165672,0.05830026933563634,-0.17818679912876664,0.06002778211744143
49,49,45345.77891344083,1813.2592483709373,5.095930801728113,45448.15067819971,-2272.8973289938835,5.095930801728107,45479.74790194411,19554.841449150143,8.317141656769472,45508.15067819971,-3078.4020732894987,5.095930801728113,45724.33901476623,7621.056131769534,31.128504417105376,0.9516525952320104,102.0,96.0,66.0,249.0,315.0,6.0,905.0,902.0,9.0,3.0,6.0,0.3333333333333333,467.7371541167643,832.911500726034,9.0,3.0,6.0,0.3333333333333333,456.33026161091254,963.8713996796358,20.0,11.0,9.0,0.55,1089.6608958671009,19389.8524593467,11.0,8.0,3.0,0.7272727272727273,561.7028992181973,6544.433660629136,73.0,35.0,38.0,0.4794520547945205,412.0207884582703,8887.786488715556,0.0,0.0,0.0,0.0,45343.0,45349.0,45445.0,45451.0,45469.0,45489.0,45500.0,45511.0,45689.0,45760.0,0.25795382239852754,-0.20077029252038886,0.05572333064937521,-0.1824657357438616,0.05406347641774988
50,50,46204.21193895354,2023.6486134109311,5.095930801728113,46307.575339099865,-1938.9487211100936,2.547965400864056,46337.79106572035,20598.325401316684,8.597682355681375,46367.15067819971,-2557.9318863225226,5.095930801728113,46581.03506696874,7276.865554975188,31.38476921510194,0.956688086084934,102.0,96.0,66.0,246.0,312.0,6.0,859.0,857.0,6.0,2.0,4.0,0.3333333333333333,483.6975423589175,2134.2910248547087,5.0,4.0,1.0,0.8,500.76048418334886,828.172359833829,20.0,10.0,10.0,0.5,1174.609170117487,21211.421166500528,11.0,8.0,3.0,0.7272727272727273,535.2743106394776,5718.771199682554,79.0,39.0,40.0,0.4936708860759494,418.8052161673513,6785.8571879507745,0.0,0.0,0.0,0.0,46202.0,46208.0,46304.0,46309.0,46328.0,46348.0,46359.0,46370.0,46548.0,46616.0,0.2390224958786833,-0.25826391318727177,0.05702449821685038,-0.20926058019825877,0.05755296878901582
51,51,47055.30135639943,2002.6772525193503,10.191861603456228,47157.726017299574,-1541.7290328405943,3.206254612091536,47188.58671583394,20776.405551395015,9.325612983648876,47213.30135639943,-2380.4956332133092,10.191861603447135,47431.808138396555,7773.316222398694,33.86288438281084,0.9639657449304718,104.0,90.0,71.0,244.0,315.0,14.0,853.0,851.0,14.0,8.0,6.0,0.5714285714285714,589.694531134224,1780.564598248121,11.0,7.0,4.0,0.6363636363636364,529.0098829309659,731.6216422334574,21.0,11.0,10.0,0.5238095238095238,1184.3209504846554,21482.652109864976,13.0,4.0,9.0,0.3076923076923077,711.2967700874784,7984.851704705859,85.0,45.0,40.0,0.5294117647058824,406.30378603103856,6902.695394765256,0.0,0.0,0.0,0.0,47047.0,47061.0,47151.0,47162.0,47178.0,47199.0,47211.0,47222.0,47395.0,47466.0,0.2944531029113121,-0.34312766488951657,0.057003168693207144,-0.2988019638277325,0.05226904121824869
52,52,47921.65661238374,1333.641298433702,5.095930801728113,48025.15067819971,-2126.7804691092933,5.095930799727939,48055.64117958756,19561.5349626937,8.92010747351832,48080.134590997215,-3033.9273449613847,10.191861603455894,48298.822529628895,7179.735009991489,30.248267120852997,0.9498286050793624,102.0,97.0,66.0,246.0,312.0,5.0,865.0,867.0,5.0,2.0,3.0,0.4,525.651405616962,2128.8253270881155,6.0,3.0,3.0,0.5,465.4199362473429,340.1943456260957,19.0,10.0,9.0,0.5263157894736842,1148.042424967539,19277.80254246642,12.0,4.0,8.0,0.3333333333333333,672.6756693845734,8523.87447138522,78.0,39.0,39.0,0.5,371.8488414611665,6670.278788118085,0.0,0.0,0.0,0.0,47920.0,47925.0,48022.0,48028.0,48046.0,48065.0,48076.0,48088.0,48266.0,48334.0,0.39414751645312307,-0.2188377893287045,0.05868876993329,-0.22171779113356951,0.05179144368750279
53,53,48855.84932180029,1618.2103602573002,5.095930801728113,48957.30135639943,-2304.3789222613264,10.191861603456228,48991.15228932972,19708.941106698006,8.702590326263946,49021.972605106,-2816.3077165742043,17.8357578060484,49235.808138396555,7214.412508981133,31.87579414247752,0.943146877533195,102.0,96.0,71.0,244.0,315.0,6.0,933.0,936.0,13.0,5.0,8.0,0.3846153846153846,509.91283083538,771.6426864801736,19.0,10.0,9.0,0.5263157894736842,524.343045959103,578.114214752868,21.0,11.0,10.0,0.5238095238095238,1113.215869448742,18901.214840955567,18.0,13.0,5.0,0.7222222222222222,505.3753303817087,4578.15965869737,83.0,43.0,40.0,0.5180722891566265,389.25937374728505,6994.29058759628,0.0,0.0,0.0,0.0,48853.0,48859.0,48955.0,48966.0,48980.0,49001.0,49011.0,49026.0,49199.0,49270.0,0.3151091127326007,-0.22754202483528893,0.05648278430698745,-0.1794460624481952,0.05395579657563258
54,54,49819.15067819971,1626.2125984993313,5.095930801728113,49923.575339099865,-1995.3005595627023,2.5479654008640567,49951.78096700669,19695.240088514,8.825365176744073,49977.179657252185,-2884.772996962081,10.191861603456228,50195.687431882325,7476.576751824693,30.383447157101827,0.9483983304924064,96.0,91.0,71.0,244.0,315.0,5.0,965.0,961.0,11.0,7.0,4.0,0.6363636363636364,486.5912472305553,2259.735933601292,11.0,10.0,1.0,0.9090909090909092,536.8502576897353,2444.462698116021,21.0,11.0,10.0,0.5238095238095238,1154.891953887001,19337.30308890345,11.0,3.0,8.0,0.2727272727272727,632.1692837471538,8490.836803757313,77.0,38.0,39.0,0.4935064935064935,403.22463030828624,7610.304284387871,0.0,0.0,0.0,0.0,49818.0,49823.0,49914.0,49925.0,49941.0,49961.0,49974.0,49985.0,50164.0,50229.0,0.2992174871105916,-0.26905733831267675,0.05863812518642605,-0.21914004478441929,0.05393171817702231
55,55,50738.15067839504,1546.3659446971035,5.095930801728113,50842.15067819971,-2282.817101964889,5.095930801728113,50874.14750877601,20536.808942426404,8.546443508766087,50902.575339099865,-3003.376035504062,2.5479654008640567,51117.967838511344,7359.939426521569,31.038147159011107,0.95078386962883,101.0,95.0,66.0,250.0,316.0,6.0,919.0,922.0,6.0,1.0,5.0,0.1666666666666666,452.3754976232877,2113.5888133619956,12.0,9.0,3.0,0.75,424.8920557399654,559.7285957336619,22.0,11.0,11.0,0.5,1122.082674922218,20592.64265547133,6.0,5.0,1.0,0.8333333333333334,518.0253934326487,5426.874985461049,72.0,35.0,37.0,0.4861111111111111,411.2214876547424,8728.577091265364,0.0,0.0,0.0,0.0,50737.0,50743.0,50838.0,50845.0,50863.0,50885.0,50898.0,50904.0,51088.0,51154.0,0.2925410373751456,-0.18612619266530292,0.05463763518801305,-0.17248103045002405,0.05587294457518282
56,56,51623.73623188734,2018.464668466946,5.095930801728113,51725.726017299574,-1610.1433331232035,6.373576095516293,51758.431709940574,20536.91730893921,8.998765511576252,51785.30135639943,-2411.362487304934,10.191861603456228,52000.93807647192,7579.150784448151,31.839710109027013,0.9557179366764748,102.0,97.0,67.0,244.0,311.0,5.0,885.0,883.0,5.0,2.0,3.0,0.4,418.6181477349662,2298.3356141738714,7.0,2.0,5.0,0.2857142857142857,424.6431861969816,38.308418574391,20.0,10.0,10.0,0.5,1132.709854853404,21313.12742305295,11.0,5.0,6.0,0.4545454545454545,599.1440588101112,6678.747495762944,79.0,39.0,40.0,0.4936708860759494,380.25457326188933,7293.371391403836,0.0,0.0,0.0,0.0,51622.0,51627.0,51724.0,51731.0,51748.0,51768.0,51780.0,51791.0,51967.0,52035.0,0.20739434000244994,-0.26373005276076816,0.05515481402656102,-0.24846702308940133,0.05017113184265224
57,57,52561.575339099865,1574.4273906840526,2.5479654008640567,52659.30135639943,-1972.350950412595,10.191861603456228,52693.13758598878,19459.937526443544,8.943261948735158,52719.220599185624,-3085.7626177364705,10.191861603456228,52937.07427419142,7410.010173684745,30.6002887337675,0.9399947682882815,96.0,93.0,71.0,244.0,315.0,3.0,938.0,935.0,3.0,1.0,2.0,0.3333333333333333,395.62246024761913,1686.253167393822,26.0,17.0,9.0,0.6538461538461539,399.40698036047144,96.64012364156486,21.0,11.0,10.0,0.5238095238095238,1095.4075849248156,19398.43093552609,17.0,6.0,11.0,0.3529411764705882,588.7813176668894,7586.106613864018,74.0,37.0,37.0,0.5,427.60346753571855,6965.08776965037,0.0,0.0,0.0,0.0,52561.0,52564.0,52657.0,52667.0,52682.0,52703.0,52716.0,52728.0,52906.0,52972.0,0.2512802194553604,-0.20250299789544032,0.05629039576495547,-0.19080577173456847,0.05770619169380789
58,58,53460.589113174385,2190.353084820862,2.5479654008640567,53557.87669549929,-2214.7125555103626,12.739827004320285,53593.93798117495,19683.862404108728,8.890828183609784,53619.63260946515,-3029.8106354333763,12.739827004320285,53838.790310552744,7450.991487682687,30.89913507524324,0.94386265741862,95.0,90.0,73.0,245.0,318.0,5.0,899.0,902.0,5.0,1.0,4.0,0.2,388.9854918654597,2425.831851631339,28.0,17.0,11.0,0.6071428571428571,405.51377360661746,951.6696254668165,21.0,11.0,10.0,0.5238095238095238,1166.5566533526364,19304.70477898848,13.0,5.0,8.0,0.3846153846153846,605.3841910408681,7230.161201516985,80.0,40.0,40.0,0.5,432.8901080482397,6972.065029362254,0.0,0.0,0.0,0.0,53460.0,53465.0,53555.0,53568.0,53584.0,53603.0,53615.0,53628.0,53805.0,53873.0,0.17759031389100122,-0.1830999569662755,0.05926462141439955,-0.19980925010987544,0.058098322721728365
59,59,54354.424660900135,1445.2111260539657,2.5479654008623323,54457.15067819971,-2617.336974839559,5.095930801728113,54489.49631107823,20132.481058698715,8.396784452305225,54517.15067819971,-3828.326389820684,5.095930801728113,54733.23540303897,7242.37611785422,30.723915757894513,0.9412453503611078,101.0,96.0,66.0,250.0,316.0,5.0,893.0,894.0,5.0,1.0,4.0,0.2,411.50469732338627,2336.1683252898474,16.0,9.0,7.0,0.5625,420.74738765751914,545.9982392060278,20.0,10.0,10.0,0.5,1118.9467155747072,20464.88450932801,19.0,8.0,11.0,0.4210526315789473,581.443944038114,7326.060939623765,73.0,35.0,38.0,0.4794520547945205,512.51067388205,8055.702396796778,0.0,0.0,0.0,0.0,54353.0,54358.0,54454.0,54460.0,54479.0,54499.0,54510.0,54520.0,54704.0,54770.0,0.28473673493433943,-0.16075399984876257,0.05557917637236469,-0.15187940756152413,0.07076554234991835
60,60,55189.64196449492,3064.2238982883023,22.93168860777651,55290.70707322693,-917.0352232986744,-1.1417886908264476,55321.6519269196,21977.457176476382,9.14929550594757,55384.69864360057,-1894.268939956721,10.191861603456228,55564.22139119115,8310.47838689847,39.07492093016097,0.9544216865624788,116.0,91.0,99.0,218.0,317.0,25.0,834.0,833.0,31.0,18.0,13.0,0.5806451612903226,423.6945601429995,3274.512440355232,5.0,3.0,2.0,0.6,508.39539840368815,1459.5262160422935,22.0,11.0,11.0,0.5,1129.2884250109396,21643.98503914869,8.0,6.0,2.0,0.75,518.7918247405127,1847.205008836953,85.0,41.0,44.0,0.4823529411764706,490.9086439684471,9775.224943856208,0.0,0.0,0.0,0.0,55172.0,55197.0,55288.0,55294.0,55311.0,55333.0,55379.0,55387.0,55531.0,55605.0,0.1382714103821455,-0.5543902627588667,0.05138394382675335,-0.2738744292309231,0.0590710451449303
61,61,56038.424660900135,2309.300397563954,2.5479654008640567,56140.30135639943,-1530.3753271163955,10.191861603450926,56174.169248859194,20075.120663975365,9.022986049091976,56200.90221010658,-3175.922408914923,10.191861603456228,56417.325358595896,8037.768280407802,33.032378848944695,0.9426163054033052,101.0,96.0,68.0,249.0,317.0,5.0,850.0,853.0,5.0,1.0,4.0,0.2,393.029387963079,2811.9851158446986,9.0,2.0,7.0,0.2222222222222222,470.1311681286358,230.5290562329349,21.0,11.0,10.0,0.5238095238095238,1145.8745070160044,20467.558780803854,8.0,3.0,5.0,0.375,644.5764384507098,8280.585970496451,79.0,41.0,38.0,0.5189873417721519,461.5325409323911,9038.325262773738,0.0,0.0,0.0,0.0,56037.0,56042.0,56138.0,56146.0,56163.0,56184.0,56198.0,56206.0,56382.0,56455.0,0.17019413688131685,-0.307199913510419,0.057079333479288445,-0.20295723744426555,0.057420483501295326
62,62,56917.3584317994,2305.0683752151535,2.5479654008640567,57019.30135639943,-1796.2025422913955,10.191861603455934,57052.467510281225,19768.056134272167,8.94614793226529,57078.11855854213,-3179.704339846217,12.739827004320285,57294.434151606205,6963.176791963828,30.6173787185321,0.9458020954967098,101.0,97.0,68.0,244.0,312.0,4.0,879.0,878.0,4.0,1.0,3.0,0.25,427.9114165170519,2463.272305749715,9.0,2.0,7.0,0.2222222222222222,502.4840729490551,158.57547236997198,20.0,10.0,10.0,0.5,1110.6756717222163,19061.3253467877,13.0,6.0,7.0,0.4615384615384615,661.5196874404719,7739.208491522737,79.0,39.0,40.0,0.4936708860759494,406.4774466576233,6376.255276546362,0.0,0.0,0.0,0.0,56916.0,56920.0,57017.0,57025.0,57042.0,57062.0,57072.0,57085.0,57261.0,57329.0,0.1856393593865132,-0.2797480023093842,0.05618537625440175,-0.20804440184915607,0.05837528743011913
63,63,57815.15067819971,2267.1802957070213,5.095930801728113,57913.15067819971,-1962.7518718939136,5.095930801728113,57946.37366661031,19920.010295452303,8.375346185150873,57973.460466832934,-3211.9920991981544,5.095930801728113,58190.95124759732,7332.964306774462,30.1014682359499,0.9525404896411988,98.0,93.0,64.0,249.0,313.0,5.0,899.0,894.0,20.0,15.0,5.0,0.75,455.87696544388314,2215.0935261240656,11.0,3.0,8.0,0.2727272727272727,461.2954757415904,637.4835852742301,22.0,11.0,11.0,0.5,1106.1789211977225,20279.31020731827,18.0,7.0,11.0,0.3888888888888889,632.4417342454367,7563.764178070464,73.0,37.0,36.0,0.5068493150684932,351.5750524715922,7241.476207206564,0.0,0.0,0.0,0.0,57814.0,57819.0,57912.0,57916.0,57935.0,57957.0,57967.0,57976.0,58159.0,58225.0,0.20107662646288027,-0.23502485584001692,0.05553104164058895,-0.19690015252631543,0.047944465261721546
64,64,58695.84932180029,1693.705438253978,5.095930801728113,58802.30135639943,-1977.0410535537328,10.191861603456228,58834.21796787952,20408.21546752067,8.965429859352692,58863.54796540086,-2845.821961527369,15.28779240518434,59086.356103797414,7304.372754250115,30.793689046663538,0.9354218127877644,102.0,97.0,74.0,243.0,317.0,5.0,879.0,888.0,14.0,3.0,11.0,0.2142857142857142,505.4292959302649,1474.4820555837969,13.0,7.0,6.0,0.5384615384615384,502.9761496399471,258.5149481850284,20.0,10.0,10.0,0.5,1188.7470535517496,21263.45227782765,19.0,9.0,10.0,0.4736842105263157,527.6909626651378,5548.713678775615,79.0,48.0,31.0,0.6075949367088608,386.8361467903736,6552.716123853328,0.0,0.0,0.0,0.0,58693.0,58698.0,58795.0,58808.0,58824.0,58844.0,58855.0,58869.0,59041.0,59112.0,0.29841629159041155,-0.25440855096855325,0.05824845662981266,-0.18542655506879394,0.05295952983304275
65,65,59562.84932180029,1576.1915288082212,5.095930801728113,59664.30135639943,-1781.0520680309862,7.380572486136107,59698.330763090606,20567.31615054085,8.958988968978762,59728.972626301,-2531.818091012279,17.8357578060484,59943.2327992967,7332.101352720911,30.669075597246376,0.9496668676474476,102.0,96.0,71.0,243.0,314.0,6.0,867.0,864.0,13.0,5.0,8.0,0.3846153846153846,458.0802013142754,945.3592559851846,11.0,2.0,9.0,0.1818181818181818,456.58295647061095,145.12390321352427,22.0,11.0,11.0,0.5,1116.062150678452,20796.937666051723,15.0,11.0,4.0,0.7333333333333333,465.6090040951977,4622.621866391766,77.0,38.0,39.0,0.4935064935064935,439.74138163399937,7244.254723138461,0.0,0.0,0.0,0.0,59560.0,59566.0,59662.0,59672.0,59687.0,59709.0,59719.0,59733.0,59912.0,59976.0,0.2906247070498062,-0.25635575998369264,0.05426386906825972,-0.18390302437132697,0.05997480946861342
66,66,60479.96805574438,1760.6375269155656,7.64389620259217,60583.15067819971,-1889.549387079788,5.095930800546823,60613.44473690828,19802.74138165915,8.71960311873424,60640.30135639943,-2730.1958452418103,10.191861603456228,60856.14019873005,7478.201008815719,32.10246689861101,0.9543204719475522,104.0,96.0,66.0,244.0,310.0,8.0,919.0,915.0,8.0,4.0,4.0,0.5,443.8993418842018,2525.2935094338077,12.0,9.0,3.0,0.75,467.76889881051613,395.6266978269224,20.0,10.0,10.0,0.5,1120.8079560887438,20121.09209416175,13.0,7.0,6.0,0.5384615384615384,610.3833221615776,6063.411233655342,79.0,40.0,39.0,0.5063291139240507,471.324755790779,7134.195600276416,0.0,0.0,0.0,0.0,60476.0,60484.0,60580.0,60586.0,60603.0,60623.0,60634.0,60646.0,60824.0,60890.0,0.25212420790658846,-0.24755579399458383,0.05659862614409592,-0.22356759615811247,0.06302648929002512
67,67,61418.15067819971,1000.8070286428726,4.790290725695838,61522.15067819971,-2284.9190813248574,5.095930801727488,61552.25131725506,19450.066032987692,8.766391811525368,61579.12330450071,-3335.572205948294,12.739827004320285,61797.30526869815,6899.454921402015,28.625615658726737,0.9355479129024696,96.0,90.0,74.0,248.0,322.0,6.0,938.0,937.0,8.0,3.0,5.0,0.375,474.6103283592671,1084.782132689753,14.0,11.0,3.0,0.7857142857142857,552.7463888329156,48.736461423949095,20.0,10.0,10.0,0.5,1148.1676069717223,19208.564477503744,20.0,8.0,12.0,0.4,660.4530395068825,6691.665138114378,71.0,34.0,37.0,0.4788732394366197,463.8533091337993,6929.79691568618,0.0,0.0,0.0,0.0,61415.0,61421.0,61511.0,61525.0,61542.0,61561.0,61572.0,61585.0,61769.0,61833.0,0.4742276130922605,-0.24191070631368636,0.059031553158966535,-0.19800292085690813,0.06723042826106924
68,68,62263.64319585417,1881.4503399103735,5.095930801728113,62367.15067819971,-1987.1020448206505,4.117852006362735,62397.41292172539,20455.298204030583,8.619139622998931,62427.15067819971,-2870.9328563845356,5.095930801728113,62642.808366279096,7434.578270162077,31.42197267992432,0.9548802170912734,102.0,96.0,66.0,249.0,315.0,6.0,845.0,847.0,6.0,2.0,4.0,0.3333333333333333,486.3756555565568,2764.794387219621,6.0,3.0,3.0,0.5,479.3437533973449,92.6081623060188,21.0,10.0,11.0,0.4761904761904761,1195.4015474016192,21756.019030035328,11.0,8.0,3.0,0.7272727272727273,552.661074003188,5628.477990175814,71.0,35.0,36.0,0.4929577464788732,372.828560100403,8809.2766687057,0.0,0.0,0.0,0.0,62262.0,62268.0,62364.0,62370.0,62388.0,62408.0,62419.0,62430.0,62608.0,62679.0,0.25851102484040384,-0.24122754774811223,0.05843970278399916,-0.192502263776093,0.05014790974717591
69,69,63097.84932180029,1402.940058601676,5.095930801728113,63199.30135639943,-1783.2234624917064,10.191861597947838,63232.35799246537,20319.566264252226,8.972974378539664,63263.972626301,-2647.321135890155,17.8357578060484,63479.93144289727,7267.018472752925,29.384587344085062,0.9418124239303384,102.0,96.0,71.0,239.0,310.0,6.0,833.0,836.0,8.0,5.0,3.0,0.625,494.31517057714495,692.1550656418189,16.0,10.0,6.0,0.625,510.72089319621625,199.58570197332983,22.0,11.0,11.0,0.5,1119.241142223687,19179.931591266195,18.0,13.0,5.0,0.7222222222222222,471.101921673966,4200.054294880181,77.0,45.0,32.0,0.5844155844155844,391.0486080338536,6676.166042745157,0.0,0.0,0.0,0.0,63095.0,63101.0,63197.0,63205.0,63221.0,63243.0,63253.0,63268.0,63441.0,63507.0,0.35234233105428164,-0.2864031928351725,0.05508194061173164,-0.17795420256619499,0.05381142341939236
70,70,63941.15067819975,1001.013341552233,3.8892730811793776,64045.15067819971,-2675.6161707197853,5.095930801728113,64075.26643076463,19445.79890308492,8.602538676547745,64101.69864360057,-3328.4085663236024,10.191861603456228,64318.29576831517,7009.3345536866855,29.867589956791225,0.9415474054056192,96.0,91.0,71.0,244.0,315.0,5.0,845.0,842.0,5.0,1.0,4.0,0.2,456.6818982748738,1630.0014701815403,12.0,9.0,3.0,0.75,430.7243175103334,611.7847660597744,20.0,10.0,10.0,0.5,1188.939187551812,20093.45471130972,19.0,6.0,13.0,0.3157894736842105,577.5978211952836,7221.691831208478,77.0,38.0,39.0,0.4935064935064935,420.7816375516471,6793.647021381567,0.0,0.0,0.0,0.0,63940.0,63945.0,64036.0,64048.0,64066.0,64085.0,64096.0,64107.0,64286.0,64351.0,0.456219592005352,-0.16098135533186786,0.061141184966342334,-0.17353573327485752,0.06003160989516893
71,71,64816.41197482501,1993.932681925235,12.739827004320285,64917.30135639943,-1484.627286558036,7.28941801803203,64951.836992039134,19724.949570014614,8.786745508102932,64976.30135639943,-2706.849600397026,10.191861603456228,65196.2327992967,7554.777852502557,32.93055809969969,0.9571138726577528,105.0,91.0,71.0,243.0,314.0,14.0,873.0,876.0,19.0,11.0,8.0,0.5789473684210527,410.34354487911867,1653.6372556763204,11.0,2.0,9.0,0.1818181818181818,416.4081542118974,35.81349489205331,21.0,11.0,10.0,0.5238095238095238,1133.4959547584915,19751.805419465793,14.0,4.0,10.0,0.2857142857142857,678.8412820824652,8307.826430909037,78.0,38.0,40.0,0.4871794871794871,487.09325180437946,7556.000792666125,0.0,0.0,0.0,0.0,64810.0,64824.0,64915.0,64926.0,64941.0,64962.0,64974.0,64986.0,65164.0,65229.0,0.20579608760056675,-0.2804799278459304,0.05746508759046991,-0.2507864795971289,0.06447486098390404
72,72,66504.42466090013,1271.5896587004877,2.54796540080975,66607.45203459915,-1833.9445778130107,15.287792405177129,66642.15550057564,19660.907447281323,9.170923769013047,66668.1009584773,-3465.223909432201,10.191861603456228,66884.82569480255,7243.699923867577,30.30629380474476,0.9454477649590736,101.0,96.0,74.0,238.0,312.0,5.0,1689.0,1692.0,5.0,1.0,4.0,0.2,415.1913593504714,1986.6587374612,13.0,3.0,10.0,0.2307692307692307,435.3872065548216,917.5755048514592,22.0,11.0,11.0,0.5,1193.3901469743296,19320.859926758167,14.0,4.0,10.0,0.2857142857142857,674.5896673851535,8614.8212272319,73.0,37.0,36.0,0.5068493150684932,441.7087944196866,7660.105589846018,0.0,0.0,0.0,0.0,66503.0,66508.0,66604.0,66617.0,66632.0,66652.0,66664.0,66678.0,66856.0,66916.0,0.3265136331595995,-0.23740477865150283,0.060698630018694764,-0.1946741927841798,0.06097833966924574
73,73,67397.42466090013,1553.761919453574,2.547965400651,67500.15067819973,-2819.1740470278246,5.095930801691006,67531.3361833248,19078.766690912504,7.963718984239597,67560.15067819973,-3928.5613936510026,5.095930801728113,67774.11461538296,6868.942111887155,29.320191124862223,0.9355331981787284,101.0,96.0,66.0,246.0,312.0,5.0,893.0,887.0,5.0,1.0,4.0,0.2,458.4409285577786,2025.2374305868084,15.0,9.0,6.0,0.6,454.36581697143487,985.086687942958,20.0,10.0,10.0,0.5,1123.527954503602,19508.264489708265,12.0,9.0,3.0,0.75,577.2119378402491,6809.66052750123,77.0,39.0,38.0,0.5064935064935064,384.8552286124208,6441.6945256787585,0.0,0.0,0.0,0.0,67396.0,67401.0,67497.0,67503.0,67521.0,67541.0,67551.0,67563.0,67741.0,67809.0,0.2950522360073047,-0.16116983534608653,0.05888891943097951,-0.14692705038874754,0.056028311542530476
74,74,68328.60682453618,1828.228965946793,9.397438354948834,68433.15067819973,-1704.8936075602926,2.7712341580664965,68464.54156732862,20277.35762954988,8.72206211966076,68493.57533909987,-2462.9383782191658,2.5479654008640567,68711.2327992967,7743.473209367074,33.19326268151919,0.9562228268170934,104.0,96.0,65.0,249.0,314.0,8.0,933.0,935.0,9.0,4.0,5.0,0.4444444444444444,503.4192026422615,2208.05114718624,6.0,3.0,3.0,0.5,455.2122372466977,328.1385007551221,22.0,11.0,11.0,0.5,1079.461620336485,19225.312275172357,8.0,7.0,1.0,0.875,476.12145165817543,4628.393488164196,77.0,43.0,34.0,0.5584415584415584,406.47998048316794,7652.6147594777885,0.0,0.0,0.0,0.0,68326.0,68334.0,68430.0,68436.0,68454.0,68476.0,68487.0,68495.0,68673.0,68744.0,0.2753589468382334,-0.26700331048698556,0.05323482674899428,-0.1933143987152599,0.05249323778785209
75,75,69210.65493785514,2860.3237673818,14.5002840228772,69305.30135640006,-1685.466753789138,4.4329736238174196,69338.09882662284,20704.27677031789,8.897832976048585,69364.92523487838,-2863.523685161355,7.64389620259217,69582.00329408667,7576.618340419133,32.867030442089906,0.9648725564870378,102.0,82.0,73.0,244.0,317.0,20.0,879.0,874.0,37.0,18.0,19.0,0.4864864864864865,408.93427461123287,2510.3101950731034,10.0,4.0,6.0,0.4,450.2561756960052,514.862857055486,22.0,11.0,11.0,0.5,1182.232069934799,20502.526328161643,14.0,5.0,9.0,0.3571428571428571,622.2607250854091,6701.29680456532,74.0,38.0,36.0,0.5135135135135135,425.592637118299,8042.162907173384,0.0,0.0,0.0,0.0,69199.0,69219.0,69301.0,69311.0,69327.0,69349.0,69361.0,69374.0,69546.0,69618.0,0.1429678273748539,-0.2671403483241503,0.05710086293039094,-0.21730594662441066,0.056171845801956485
76,76,70121.972626301,2864.4469968571757,15.07815916014266,70221.30135639943,-1845.5817502841196,5.177155300638092,70253.13683791918,20036.522583390564,8.819237727157839,70277.84932180027,-3315.8412107478875,5.095930801728113,70495.12676962683,7426.769103281882,34.93625447315675,0.9626067372952284,107.0,88.0,68.0,244.0,312.0,19.0,910.0,913.0,33.0,18.0,15.0,0.5454545454545454,375.6845297939753,2549.3055552116284,8.0,2.0,6.0,0.25,456.6586670024778,477.7444938951911,20.0,10.0,10.0,0.5,1154.5633163619857,21523.464198279915,12.0,3.0,9.0,0.25,671.8404229291654,8070.705897135675,79.0,38.0,41.0,0.4810126582278481,421.6435133196248,8004.598396824713,0.0,0.0,0.0,0.0,70112.0,70131.0,70219.0,70227.0,70243.0,70263.0,70275.0,70287.0,70458.0,70531.0,0.1311542961717114,-0.24743345394056757,0.057622938888560946,-0.20261537879180644,0.05677347813779493
77,77,71088.972626301,2594.641150114462,13.023541114048491,71189.15067819973,-1968.4064033531297,3.231731234193305,71219.23074673305,19760.626945477317,8.851513083658173,71246.30135639943,-2463.762903656213,10.191861603456228,71463.48789688699,7458.422972036181,32.57848292231161,0.9599160698034224,107.0,90.0,66.0,248.0,314.0,17.0,967.0,967.0,26.0,13.0,13.0,0.5,468.8852460922057,2161.2775449981964,6.0,3.0,3.0,0.5,540.4910153871772,519.3365733525277,21.0,11.0,10.0,0.5238095238095238,1129.910986043414,19829.063847511537,13.0,7.0,6.0,0.5384615384615384,647.1445856135423,6101.585339682109,77.0,39.0,38.0,0.5064935064935064,429.6562475930388,8398.927410602158,0.0,0.0,0.0,0.0,71079.0,71096.0,71186.0,71192.0,71209.0,71229.0,71240.0,71252.0,71430.0,71500.0,0.1807129460162616,-0.2745830406091266,0.05717991585798448,-0.26266512278968995,0.05760684922321332
78,78,72025.84932180027,1287.7072768338085,5.095930801728113,72127.30135639943,-3318.16984515784,10.191861603456228,72158.94690939182,19865.086433914537,8.931173909774396,72180.45203459915,-3595.2591514019673,15.287792405183584,72406.2327992967,7515.596060051236,31.642530740855864,0.911708622344378,94.0,89.0,73.0,249.0,322.0,5.0,939.0,939.0,8.0,5.0,3.0,0.625,500.3218091838019,933.8013202841036,16.0,10.0,6.0,0.625,475.22826288848785,1475.6282898236786,19.0,10.0,9.0,0.5263157894736842,1135.6159516987314,17951.800350000005,14.0,3.0,11.0,0.2142857142857142,784.3475499545578,11696.584717610778,77.0,43.0,34.0,0.5584415584415584,401.0241354500978,7178.499471001851,0.0,0.0,0.0,0.0,72023.0,72028.0,72117.0,72133.0,72149.0,72168.0,72177.0,72190.0,72369.0,72439.0,0.38853691221966546,-0.1432199932688744,0.05716642389030629,-0.21816161698627548,0.053358926191060335
79,79,72879.39728720114,2509.9817498051148,12.205719592901694,72977.30135639943,-1937.2692550248885,10.191861603447672,73010.14170656058,21100.33331590439,9.089315753904849,73042.82194810128,-2680.383097993363,22.93168860777651,73254.47647940858,7511.589791922111,32.09470417327689,0.95898926525363,107.0,89.0,74.0,244.0,318.0,18.0,851.0,851.0,32.0,17.0,15.0,0.53125,412.4526717488961,1592.7660181821525,13.0,7.0,6.0,0.5384615384615384,456.1938389934502,154.760299483969,20.0,10.0,10.0,0.5,1164.6038110634045,20864.07723321234,25.0,13.0,12.0,0.52,451.8985875652624,2739.8753014430886,79.0,40.0,39.0,0.5063291139240507,401.9614410169459,7724.565914833785,0.0,0.0,0.0,0.0,72868.0,72886.0,72975.0,72983.0,73000.0,73020.0,73030.0,73049.0,73219.0,73293.0,0.16432496841099367,-0.2354829292883138,0.05519362152376918,-0.16859477583766697,0.053512166152791155
80,80,73746.35639815209,2793.0448831909757,14.978903535698675,73842.30135639943,-1792.675512838776,4.647488438956606,73874.11442315529,20129.189312645856,9.048182434771956,73898.41083162121,-2833.8245186589215,7.643896202581979,74126.35610379743,7423.883736250849,34.923486358565114,0.9501030517029472,103.0,83.0,72.0,244.0,316.0,20.0,867.0,864.0,31.0,13.0,18.0,0.4193548387096774,396.49144408492265,2391.9621319208445,13.0,7.0,6.0,0.5384615384615384,443.4306319206764,990.4163723087372,20.0,10.0,10.0,0.5,1155.5094045472467,21539.13166406937,13.0,3.0,10.0,0.2307692307692307,690.9837966191168,9319.84381978871,85.0,53.0,32.0,0.6235294117647059,491.60113296185176,7081.293341590474,0.0,0.0,0.0,0.0,73733.0,73753.0,73836.0,73848.0,73864.0,73884.0,73895.0,73908.0,74078.0,74152.0,0.14195670340676453,-0.24735688569677933,0.0574046667553231,-0.2438343630910914,0.0662188620440487
81,81,74634.22390073714,1997.859530049426,9.84998769077535,74729.30135639943,-2677.327951830337,10.191861603452088,74762.8484174657,19119.96481490964,8.231075787932754,74790.29272595045,-3915.390084359533,5.095930801728113,75008.6296017737,6782.216780760547,28.598037945538145,0.9323012834658084,101.0,90.0,66.0,250.0,316.0,11.0,890.0,890.0,18.0,8.0,10.0,0.4444444444444444,386.65123553940344,2072.806693986655,25.0,16.0,9.0,0.64,442.4354631249779,936.656944178341,22.0,11.0,11.0,0.5,1105.8328401146478,19033.252482116583,19.0,8.0,11.0,0.4210526315789473,595.0825834722746,7653.754380894126,68.0,33.0,35.0,0.4852941176470588,421.43867123598955,7120.701031958619,0.0,0.0,0.0,0.0,74626.0,74637.0,74727.0,74738.0,74752.0,74774.0,74783.0,74793.0,74977.0,75043.0,0.19353274328042366,-0.16525262167546934,0.057836552044924563,-0.15198551629616652,0.06213877923093016
82,82,75507.95328760124,2656.249403020295,13.74186066018153,75604.54158765929,-1834.3549877630264,3.788689650402596,75636.66623617726,20505.060147043212,8.831322460602207,75663.15067819973,-2446.4529962083825,5.095930801728113,75880.95881659626,7860.321663789574,34.499918063865124,0.9621626592994548,103.0,86.0,65.0,252.0,317.0,17.0,873.0,873.0,20.0,12.0,8.0,0.6,397.03709056579015,2788.1078827997508,10.0,4.0,6.0,0.4,569.5627580228484,953.860287640122,22.0,12.0,10.0,0.5454545454545454,1110.4135679533315,21327.89585585314,11.0,3.0,8.0,0.2727272727272727,652.6122600138476,7293.2922282464115,83.0,43.0,40.0,0.5180722891566265,406.0070973608757,7766.068738738451,0.0,0.0,0.0,0.0,75498.0,75515.0,75601.0,75606.0,75625.0,75647.0,75660.0,75666.0,75844.0,75918.0,0.14947282062984676,-0.3104975655325163,0.05415314853945702,-0.26675855249428215,0.05165273314847193
83,83,76343.30135639943,2519.7267485457405,5.725600401996796,76440.027373699,-3382.0605827187396,17.8357578060484,76475.60072841965,20109.78108008452,9.305272097151908,76505.972626301,-4087.8547061059407,17.8357578060484,76720.2327992967,6798.887325640839,29.047928142528328,0.916437062233082,102.0,82.0,80.0,242.0,322.0,20.0,839.0,839.0,26.0,20.0,6.0,0.7692307692307693,512.254796142866,588.1973751929135,19.0,9.0,10.0,0.4736842105263157,510.88028806736133,1925.5986468142728,20.0,10.0,10.0,0.5,1116.2470650044731,19573.78277861484,56.0,11.0,45.0,0.1964285714285714,541.9040176473297,6517.517780127757,74.0,37.0,37.0,0.5,386.39356857091,6492.862148103931,0.0,0.0,0.0,0.0,76329.0,76349.0,76431.0,76450.0,76466.0,76486.0,76496.0,76511.0,76689.0,76753.0,0.20329775696452548,-0.15105592450880334,0.05550766865930405,-0.1325644027508853,0.05683188293379902
84,84,77169.57533909987,1213.5558378312237,2.547965400825791,77267.15067819973,-2382.1722161422663,5.095930801728113,77300.7665857407,20370.750739659314,8.726608411678331,77330.972626301,-2787.785471501935,17.8357578060484,77543.67780677635,6883.110123303396,28.23386949269412,0.9475456874215822,96.0,93.0,71.0,241.0,312.0,3.0,825.0,825.0,3.0,2.0,1.0,0.6666666666666666,415.4559121706306,1350.0571830067695,10.0,3.0,7.0,0.3,421.95150982352715,1115.4453191237656,22.0,12.0,10.0,0.5454545454545454,1113.3066471169814,18854.995066019423,18.0,11.0,7.0,0.6111111111111112,480.58135834773213,4316.3745546779055,71.0,36.0,35.0,0.5070422535211268,348.1783767008958,6588.666843225324,0.0,0.0,0.0,0.0,77168.0,77171.0,77264.0,77270.0,77289.0,77311.0,77320.0,77335.0,77513.0,77576.0,0.3423459384556234,-0.17712888554583314,0.05465221490092224,-0.1723882139642604,0.05058445534993058
85,85,78089.84932180027,1606.4991791996365,5.095930801728113,78190.72601729959,-2106.716024137282,7.6438962025795965,78224.29422534753,19443.109473127945,8.623092824431438,78250.30135639943,-3219.840643253096,10.191861603456228,78465.76078982103,7003.343756872961,29.866772479270058,0.9489296804306177,102.0,94.0,67.0,243.0,310.0,8.0,919.0,924.0,11.0,3.0,8.0,0.2727272727272727,357.18849233830474,1691.286033474447,11.0,3.0,8.0,0.2727272727272727,397.2413853788339,1051.678548616726,20.0,10.0,10.0,0.5,1132.131693817078,19145.422784845883,12.0,6.0,6.0,0.5,611.816867509886,7647.581440665573,78.0,39.0,39.0,0.5,413.1646982504523,6832.8450160390385,0.0,0.0,0.0,0.0,78087.0,78095.0,78189.0,78197.0,78214.0,78234.0,78244.0,78256.0,78432.0,78499.0,0.22233966687506015,-0.18855953096075564,0.05822791335829188,-0.19001464211960198,0.05899534745027753
86,86,79057.12330450071,2155.853144404813,12.739827004320285,79158.15067819973,-1992.872171632266,2.5530488866855343,79189.27452711052,20552.865873901283,8.883360570154375,79218.15067819973,-2018.8760790453089,5.095930801728113,79437.2327992967,8244.354000414865,34.63812107102245,0.953633412799248,106.0,91.0,65.0,249.0,314.0,15.0,966.0,964.0,20.0,12.0,8.0,0.6,458.26059917381593,2000.9601735486824,6.0,3.0,3.0,0.5,549.3978653663668,366.9439766353721,21.0,10.0,11.0,0.4761904761904761,1084.2806376991423,21097.30458458029,6.0,3.0,3.0,0.5,581.975729889393,5216.950063688202,85.0,46.0,39.0,0.5411764705882353,419.64106078752354,8303.165994051722,0.0,0.0,0.0,0.0,79050.0,79065.0,79156.0,79161.0,79179.0,79200.0,79215.0,79221.0,79393.0,79470.0,0.21256577720201453,-0.27568143766912123,0.0527556908292774,-0.28826718783284566,0.050900417518025876
87,87,79957.82194810128,2677.6836090971815,13.640292501201325,80057.15067819973,-1760.0452895173855,3.5844319971926804,80088.10347317086,20891.67912539068,8.716547644326539,80117.15067819973,-2579.113146492691,5.095930801728113,80331.39083948483,7605.869478250511,33.443595273699565,0.9651553149869282,109.0,90.0,66.0,249.0,315.0,19.0,899.0,899.0,32.0,14.0,18.0,0.4375,470.8825731508656,2549.971311238066,6.0,3.0,3.0,0.5,483.72200213710494,344.9632718834994,20.0,10.0,10.0,0.5,1127.678163655894,21209.21395539448,11.0,8.0,3.0,0.7272727272727273,525.7907526124848,5865.984721585098,82.0,41.0,41.0,0.5,403.112781157469,8180.44560750354,0.0,0.0,0.0,0.0,79945.0,79964.0,80054.0,80060.0,80078.0,80098.0,80111.0,80120.0,80298.0,80369.0,0.17585444805767408,-0.27483497442826843,0.05397738290386489,-0.2038649422292706,0.05300022335515969
88,88,80965.84932180027,2847.1483190422323,5.095930801728113,81066.30135639943,-2005.2020608676232,5.528628647149547,81098.75454423987,19487.54088529363,8.937571062602096,81124.69864360057,-3332.1243274722633,10.191861603456228,81342.69113632939,7689.019193577703,33.130165163928275,0.946663886097468,101.0,89.0,68.0,249.0,317.0,12.0,1011.0,1011.0,19.0,9.0,10.0,0.4736842105263157,375.6516841309818,2817.7782359591806,8.0,2.0,6.0,0.25,444.6086719634171,337.1628139449783,20.0,11.0,9.0,0.55,1097.9849015946386,18868.197082303846,13.0,6.0,7.0,0.4615384615384615,602.319741370293,7336.763363876751,79.0,40.0,39.0,0.5063291139240507,441.4940086685556,8559.302057578949,0.0,0.0,0.0,0.0,80963.0,80975.0,81064.0,81072.0,81088.0,81108.0,81119.0,81132.0,81308.0,81381.0,0.1319396259122002,-0.22172761570524274,0.05634291715191414,-0.18076148491950492,0.057418767927815285
89,89,82003.42466090013,1893.946137688156,2.5479654008640567,82093.30135639943,-1614.2472370504067,10.191861603455015,82127.48769639795,19786.27159592018,9.094956882637003,82153.52744535332,-2848.501418317153,10.191861603456228,82372.5004026998,7240.796870596052,30.33578109021417,0.9339412837660724,89.0,84.0,71.0,247.0,318.0,5.0,1038.0,1029.0,5.0,1.0,4.0,0.2,440.01986224673504,2569.584745310714,11.0,2.0,9.0,0.1818181818181818,526.3281379799921,36.602792810245944,22.0,11.0,11.0,0.5,1149.1956535163836,19850.96310647657,14.0,6.0,8.0,0.4285714285714285,612.7651582908719,7447.721445374858,77.0,38.0,39.0,0.4935064935064935,386.2110393403005,7321.188964809148,0.0,0.0,0.0,0.0,82002.0,82007.0,82091.0,82102.0,82116.0,82138.0,82151.0,82162.0,82335.0,82409.0,0.23232966001020755,-0.3260517508716398,0.05808045482168259,-0.21511843187105847,0.05333819553876094
90,90,82922.84932180027,3667.7691657368105,5.095930801728094,83024.15067819973,-1909.807366061996,3.4557744096786656,83054.89779277294,20813.077065980742,9.120756805612706,83083.30135639943,-2282.5154741700585,10.191861603455786,83299.45441724517,7706.292434370329,33.65523395940254,0.9550682638459712,102.0,89.0,67.0,250.0,317.0,13.0,919.0,928.0,20.0,9.0,11.0,0.45,455.26061350286034,3441.1522115978764,10.0,6.0,4.0,0.6,475.5056331861395,754.4531273588827,20.0,10.0,10.0,0.5,1174.234391265609,21988.33279578478,11.0,5.0,6.0,0.4545454545454545,546.1837622808525,5751.698936900154,84.0,40.0,44.0,0.4761904761904761,335.7216462430161,7270.490338525746,0.0,0.0,0.0,0.0,82920.0,82933.0,83022.0,83027.0,83045.0,83065.0,83078.0,83089.0,83260.0,83339.0,0.12412466350275454,-0.24898093998172574,0.05641810615235318,-0.23929027796819186,0.04356461282804245
91,91,83838.27398780495,2580.790366293248,13.56961168651202,83937.15067819973,-1880.460644344523,5.095930790312125,83968.43516007063,19667.691774618623,8.980183339414186,83992.50014021811,-2959.6395748267846,10.191861603456228,84211.70002607611,7846.865882771937,34.85640892972857,0.95703815255622,110.0,83.0,66.0,250.0,316.0,27.0,919.0,913.0,34.0,19.0,15.0,0.5588235294117647,365.61501400953887,1962.6814652885168,11.0,8.0,3.0,0.7272727272727273,373.4663461400229,282.69806356710785,20.0,10.0,10.0,0.5,1167.708132976733,20533.79189269774,11.0,4.0,7.0,0.3636363636363636,599.9286701658335,8144.964800612412,86.0,46.0,40.0,0.5348837209302325,456.53935371140943,7877.342064304911,0.0,0.0,0.0,0.0,83824.0,83851.0,83934.0,83940.0,83958.0,83978.0,83989.0,84000.0,84178.0,84250.0,0.14166784671265897,-0.19860364919798842,0.059371895103810475,-0.2027032870044471,0.05818110829621253
92,92,84759.06705705516,3171.6644950666073,16.415658121122693,84857.21355202023,-1556.6073156609004,2.82897775099852,84888.11132352942,20000.39919486641,8.663471511699948,84916.15067819973,-2755.850140737563,5.095930801728113,85132.96067611921,7665.301948890718,33.38761567097021,0.9643144110400756,111.0,83.0,65.0,250.0,315.0,28.0,918.0,919.0,28.0,16.0,12.0,0.5714285714285714,374.8239576815164,4042.2000412321063,5.0,3.0,2.0,0.6,439.2758861770068,152.071219724858,20.0,10.0,10.0,0.5,1082.2635606138351,19896.330472415124,10.0,7.0,3.0,0.7,581.810699216014,6321.783232678017,73.0,36.0,37.0,0.4931506849315068,469.3588088108838,8617.291013622667,0.0,0.0,0.0,0.0,84743.0,84771.0,84854.0,84859.0,84878.0,84898.0,84913.0,84919.0,85097.0,85169.0,0.11817894303276388,-0.2822008362401279,0.054112097967105796,-0.2111184097478903,0.061231613828181534
93,93,85660.40626655248,2569.2666878578384,13.56165396662627,85755.85499518976,-2116.595050426674,5.095930801728113,85789.66262897741,20209.834384466205,8.760795950187285,85815.98152937868,-2860.1011669477757,5.095930801728113,86034.64950790127,7998.778120934866,33.27106859146683,0.9600876065692602,103.0,86.0,64.0,252.0,316.0,17.0,899.0,904.0,20.0,10.0,10.0,0.5,424.3960134631439,2776.4904460760126,4.0,2.0,2.0,0.5,472.01452482706173,484.7313093155652,21.0,11.0,10.0,0.5238095238095238,1125.7710995120383,19959.11966492443,6.0,4.0,2.0,0.6666666666666666,630.7185793933755,7704.388789074113,79.0,39.0,40.0,0.4936708860759494,393.6615501107744,7719.376580627599,0.0,0.0,0.0,0.0,85651.0,85668.0,85754.0,85758.0,85779.0,85800.0,85812.0,85818.0,86001.0,86070.0,0.16518176780511248,-0.22300653340935986,0.05570412295794639,-0.2205231712367929,0.0492152106432932
94,94,86525.93108023755,2069.909827772644,10.19186160317614,86620.45203459915,-2278.55012687824,15.28779240518434,86655.99928429245,19261.517459725255,9.23542799971787,86682.69864360057,-3542.580071880334,10.191861603456228,86901.36268499929,7354.922006554132,29.141056042051435,0.942935982824846,99.0,88.0,74.0,243.0,317.0,11.0,867.0,865.0,19.0,10.0,9.0,0.5263157894736842,501.3482795755453,1718.822889570125,13.0,3.0,10.0,0.2307692307692307,453.8831405937587,1902.880420391747,21.0,11.0,10.0,0.5238095238095238,1145.0547870748458,20244.89768765597,14.0,6.0,8.0,0.4285714285714285,601.8758798626882,7435.834556544404,71.0,38.0,33.0,0.5352112676056338,391.0928087373855,7853.933047463562,0.0,0.0,0.0,0.0,86518.0,86529.0,86617.0,86630.0,86646.0,86666.0,86677.0,86691.0,86875.0,86934.0,0.24220778743537263,-0.19919822488856445,0.05944779737469234,-0.16989760785935432,0.05317429721061272
95,95,87431.73214081951,2879.4043842712576,15.246196249564829,87526.72601729959,-1704.0771609490994,7.643896191247132,87560.78643582304,19801.869705448047,8.850892454328633,87586.30135639943,-2524.495116458782,10.191861603456228,87803.80606665008,7712.146607852324,32.33628526768777,0.9601178470985602,103.0,86.0,70.0,244.0,314.0,17.0,905.0,904.0,33.0,18.0,15.0,0.5454545454545454,415.68030210329846,2823.138214303637,11.0,3.0,8.0,0.2727272727272727,501.9678997186705,604.167297072375,21.0,11.0,10.0,0.5238095238095238,1103.9490482924773,20313.694227871812,14.0,5.0,9.0,0.3571428571428571,622.8726218791767,7457.15728310879,74.0,36.0,38.0,0.4864864864864865,380.9440405239142,7798.943509555158,0.0,0.0,0.0,0.0,87422.0,87439.0,87525.0,87535.0,87550.0,87571.0,87584.0,87595.0,87768.0,87839.0,0.1443632941499817,-0.29456876203839,0.055749738015332465,-0.2467315614192619,0.049395331792065005
96,96,88362.14265520952,2416.917339131417,10.191861603456228,88459.30135639943,-1922.5203043589927,6.153978114204084,88491.83420396368,19696.89373327516,8.892481240449875,88518.36461086184,-2608.4548866456557,10.191861603456228,88737.80813839656,7700.328480343673,32.23336504130524,0.9545037534255638,102.0,88.0,68.0,249.0,317.0,14.0,933.0,933.0,14.0,9.0,5.0,0.6428571428571429,466.8966650839531,2852.668930730621,10.0,4.0,6.0,0.4,447.2142365877138,158.63034933755796,21.0,11.0,10.0,0.5238095238095238,1135.841305318184,19136.341585067552,9.0,4.0,5.0,0.4444444444444444,604.1584882357864,7989.537476229139,79.0,40.0,39.0,0.5063291139240507,376.1614696798223,7186.663422789496,0.0,0.0,0.0,0.0,88353.0,88367.0,88455.0,88465.0,88481.0,88502.0,88514.0,88523.0,88701.0,88772.0,0.1931785822893491,-0.232618732594777,0.057666011742721554,-0.23161546374785283,0.04885005498661972
97,97,89226.94743648007,2181.263364977834,9.99271375859164,89324.30135639943,-1981.818985173598,10.191861603456228,89357.70475940239,20159.468561283185,9.05826787927546,89386.4528010245,-2647.9697026467875,10.191861603456228,89602.80813839656,7205.279673993498,30.7683953428312,0.9532925589579864,105.0,90.0,71.0,244.0,315.0,15.0,864.0,864.0,15.0,10.0,5.0,0.6666666666666666,421.8861474024888,3244.4634561679286,18.0,10.0,8.0,0.5555555555555556,412.2172014096661,401.6144210304417,21.0,11.0,10.0,0.5238095238095238,1113.5617282914684,20912.328661718995,12.0,5.0,7.0,0.4166666666666667,529.558130822334,6041.327949776658,77.0,38.0,39.0,0.4935064935064935,429.3516583991396,7157.811499191045,0.0,0.0,0.0,0.0,89217.0,89232.0,89322.0,89330.0,89347.0,89368.0,89381.0,89393.0,89571.0,89637.0,0.19341366759110998,-0.20799942098322252,0.055237652962245955,-0.1999864765420134,0.05958847925762375
98,98,90105.08573538646,3014.263346382741,17.16008073813163,90204.57533909989,-1963.2751564944083,2.5479654008629864,90235.33008073948,20166.045977611717,9.140915845469587,90261.87669549928,-2569.28038505275,12.739827004311044,90482.2327992967,7607.672711787849,33.527041966995625,0.9656891037133484,116.0,85.0,68.0,246.0,314.0,31.0,874.0,879.0,39.0,20.0,19.0,0.5128205128205128,412.47285554916414,2892.756427151697,5.0,4.0,1.0,0.8,454.3641341344552,1119.28830868943,21.0,11.0,10.0,0.5238095238095238,1079.310340618627,19499.64877148571,14.0,7.0,7.0,0.5,587.4587447720136,7234.387575008335,84.0,44.0,40.0,0.5238095238095238,457.6267543111299,7771.296533555187,0.0,0.0,0.0,0.0,90085.0,90116.0,90201.0,90206.0,90225.0,90245.0,90256.0,90269.0,90444.0,90515.0,0.1368403514059749,-0.23143171380305158,0.053521168295305586,-0.22864719171549372,0.06015331779481676
99,99,90998.54128419164,2495.3382470170277,11.669032867518162,91093.30135639945,-2094.986631298964,10.191861603456228,91128.49547862478,19271.650542586653,8.726629677268729,91156.69864360055,-3016.7201917183943,10.191861603456228,91371.26117320589,7190.433326698726,30.687000359030502,0.9470233527045236,101.0,87.0,74.0,243.0,317.0,14.0,898.0,894.0,14.0,9.0,5.0,0.6428571428571429,408.5385001413125,3022.1550004104433,13.0,2.0,11.0,0.1538461538461538,423.8889114243695,581.8897288282949,20.0,10.0,10.0,0.5,1131.9801888127747,19515.305180246072,14.0,6.0,8.0,0.4285714285714285,566.4898331814215,5804.934807445578,73.0,36.0,37.0,0.4931506849315068,452.4710575580312,8422.892808185883,0.0,0.0,0.0,0.0,90990.0,91004.0,91091.0,91102.0,91118.0,91138.0,91151.0,91165.0,91335.0,91408.0,0.16372069022293342,-0.2023349004196479,0.05873810270227325,-0.187783353171623,0.06292681358687598
100,100,91870.42466090011,2735.660600137653,2.5479654008640567,91972.30135639945,-1774.705647628684,10.191861603451448,92006.11412259642,20179.016041838928,9.032789273448914,92032.91019672662,-2772.3307550624245,7.64389620259217,92250.5921341882,7564.712944082186,31.16227040814389,0.9451475165243516,101.0,88.0,68.0,249.0,317.0,13.0,871.0,876.0,13.0,1.0,12.0,0.0769230769230769,380.79031019440066,3412.050558356529,9.0,2.0,7.0,0.2222222222222222,443.2942396835828,17.393238681438675,20.0,10.0,10.0,0.5,1153.3997984580378,21173.757888561217,8.0,3.0,5.0,0.375,627.0945585023672,8013.957040301821,77.0,40.0,37.0,0.5194805194805194,435.95416047984133,7853.107160215872,0.0,0.0,0.0,0.0,91869.0,91882.0,91970.0,91978.0,91996.0,92016.0,92030.0,92038.0,92214.0,92287.0,0.13919501204763488,-0.24978465599402425,0.057158376606004604,-0.22619759830505756,0.05762996741613107
101,101,92729.60804279977,2647.115711362299,5.095930801728113,92825.30135639945,-2128.8947922602056,10.191861603451589,92860.70846389812,20249.742014414373,9.040521186377935,92888.69864360048,-3140.6958268881967,10.191861603456228,93106.1018000834,7093.647170497083,30.728917559337383,0.9464795595502756,96.0,90.0,74.0,242.0,316.0,6.0,859.0,856.0,18.0,8.0,10.0,0.4444444444444444,401.2673363722315,2595.373138212035,12.0,2.0,10.0,0.1666666666666666,455.72244106730784,589.899560316689,21.0,11.0,10.0,0.5238095238095238,1121.018731257934,19931.535008758143,29.0,9.0,20.0,0.3103448275862069,601.9729556092875,5392.272151188591,79.0,39.0,40.0,0.4936708860759494,398.45654968015293,6924.031565067022,0.0,0.0,0.0,0.0,92727.0,92733.0,92823.0,92834.0,92850.0,92871.0,92883.0,92897.0,93073.0,93139.0,0.15158662488755553,-0.21406527120275226,0.05535965497535521,-0.191668658408644,0.05617090054004354
102,102,93629.11785049102,2895.450731124949,15.349941499309145,93729.09829294392,-2163.4638044620165,2.5479654008640567,93760.1374501451,20283.568339291174,8.585040574142292,93785.9858575124,-3245.4775287682405,5.095930801728113,94002.48582046408,7468.69274589645,32.628265375521,0.9615220365852516,108.0,89.0,60.0,251.0,311.0,19.0,899.0,899.0,34.0,17.0,17.0,0.5,404.0526791928,2888.8017684041315,5.0,1.0,4.0,0.2,490.7119952291909,462.47723928630967,22.0,11.0,11.0,0.5,1170.5793043806734,20218.99414309719,6.0,4.0,2.0,0.6666666666666666,659.2530822026328,8171.110263781644,73.0,36.0,37.0,0.4931506849315068,423.89298494748266,8086.047587628682,0.0,0.0,0.0,0.0,93620.0,93639.0,93728.0,93733.0,93750.0,93770.0,93782.0,93788.0,93966.0,94039.0,0.13954741997485698,-0.22681775133798235,0.057710718587574726,-0.20312976329644772,0.05675598118296989
103,103,94546.74176830404,2517.3308865710387,13.235769979530248,94644.15067819972,-1958.683892581876,5.095930801598997,94676.29016977087,20187.652991738803,8.494294927033541,94704.15067819972,-2953.2834039297704,5.095930801728113,94920.91647827088,7724.954661868052,33.371860627540066,0.956409893084011,102.0,84.0,66.0,251.0,317.0,18.0,919.0,915.0,18.0,8.0,10.0,0.4444444444444444,428.2226238147947,3265.761818099244,6.0,3.0,3.0,0.5,443.9430007398242,356.9945484863606,21.0,10.0,11.0,0.4761904761904761,1106.3732217730517,20088.78055387084,10.0,7.0,3.0,0.7,594.7623410571565,6737.090244684406,73.0,36.0,37.0,0.4931506849315068,362.1414261413078,8202.954334814336,0.0,0.0,0.0,0.0,94539.0,94557.0,94641.0,94647.0,94666.0,94687.0,94697.0,94707.0,94885.0,94958.0,0.17010978814870642,-0.22665372519842003,0.054804450137210206,-0.20139020192431897,0.04687942415104539
104,104,95406.84932180028,3425.959225929358,5.095930801728113,95508.15067819972,-1595.4298795918398,2.9192608889870475,95539.26719121012,21153.659413974685,9.144621832044606,95564.47785766014,-2158.513013483141,5.095930801728113,95781.50475896528,7626.463139142107,34.47850160412421,0.9617376584541024,102.0,89.0,60.0,252.0,312.0,13.0,859.0,863.0,26.0,9.0,17.0,0.3461538461538461,442.19260685972216,2999.9813906180916,6.0,2.0,4.0,0.3333333333333333,493.2025914643967,905.3659581173054,21.0,10.0,11.0,0.4761904761904761,1190.1245978400364,22805.529437188765,4.0,2.0,2.0,0.5,687.9997489151676,7908.468885886841,79.0,38.0,41.0,0.4810126582278481,343.0658153803293,8042.359363021802,0.0,0.0,0.0,0.0,95404.0,95417.0,95506.0,95511.0,95529.0,95549.0,95562.0,95566.0,95744.0,95818.0,0.12907118202487328,-0.30913460865517517,0.05626093218905697,-0.3187378276700583,0.04498360630887681
105,105,96299.61345424793,2614.604473358875,14.16253435584542,96396.15067819972,-1779.243744793791,4.044922586085702,96427.44176053075,20310.883722871633,8.640209536654805,96456.15067819972,-2739.58755145763,5.095930801728113,96671.6597728207,7423.169944547187,33.57665833771226,0.9646231883373938,104.0,85.0,66.0,249.0,315.0,19.0,893.0,889.0,33.0,17.0,16.0,0.5151515151515151,455.4283298257218,1849.0760334236825,8.0,3.0,5.0,0.375,492.0362350346258,163.12235161817046,21.0,10.0,11.0,0.4761904761904761,1089.1822126789627,20329.42516338113,14.0,9.0,5.0,0.6428571428571429,533.2547420300173,5985.499309027218,71.0,35.0,36.0,0.4929577464788732,416.48124794532936,8329.985784648195,0.0,0.0,0.0,0.0,96289.0,96308.0,96393.0,96399.0,96417.0,96438.0,96447.0,96459.0,96637.0,96708.0,0.1741863193711482,-0.27654234360770585,0.05362554517765561,-0.19464781906542566,0.05610557902574528
106,106,97194.64223588014,2450.5223762991636,13.845749595653263,97291.30135639945,-1850.74336215814,10.19186160125445,97323.10651158055,19330.69435306067,8.883642191676337,97348.2739827004,-3162.385115808758,7.64389620259217,97566.98988414455,7287.418129754222,32.036030822678484,0.9549846430130152,102.0,82.0,73.0,248.0,321.0,20.0,893.0,895.0,38.0,19.0,19.0,0.5,470.805134210351,1786.4409368359927,13.0,7.0,6.0,0.5384615384615384,457.2689702972506,208.6562998905115,20.0,10.0,10.0,0.5,1143.8135194281056,20567.269049239265,13.0,4.0,9.0,0.3076923076923077,638.246797005161,7772.920804495096,80.0,40.0,40.0,0.5,358.72867583653385,6519.648873835389,0.0,0.0,0.0,0.0,97182.0,97202.0,97284.0,97297.0,97313.0,97333.0,97344.0,97357.0,97530.0,97605.0,0.19212439713420287,-0.24707313809518797,0.05917084500624796,-0.20182450069555613,0.04922575725027493
107,107,98072.69864360055,2117.7989706491403,10.191861603392828,98173.30135639945,-2027.3592496391889,10.19186160290252,98206.46521018574,20508.87332354102,9.04260752549911,98236.972626301,-3102.47238001029,17.8357578060484,98449.87641396574,7534.283080125749,30.325327774769008,0.945913857459302,104.0,90.0,71.0,243.0,314.0,14.0,879.0,883.0,15.0,7.0,8.0,0.4666666666666667,428.6528763478791,2517.8927966475753,16.0,10.0,6.0,0.625,412.7121252643312,492.8778542246707,22.0,11.0,11.0,0.5,1127.732765896173,19386.986369946713,57.0,12.0,45.0,0.2105263157894736,458.957149864592,4701.238172417916,72.0,36.0,36.0,0.5,451.34512582605254,8205.836341018135,0.0,0.0,0.0,0.0,98067.0,98081.0,98171.0,98179.0,98195.0,98217.0,98227.0,98242.0,98420.0,98485.0,0.20240489408515008,-0.20357128384512116,0.054987553343640284,-0.14793271096359276,0.05990551735660555
108,108,98936.4537664314,2367.933982383703,11.454263847667852,99032.30135639945,-1518.2476292186082,10.191861599564056,99066.23768104883,20544.685137496337,9.121759941228152,99095.54796540084,-2722.2315396731974,15.28779240518434,99310.80813839656,7080.367120326981,30.96857963389943,0.9530150631223552,104.0,85.0,71.0,244.0,315.0,19.0,865.0,860.0,19.0,10.0,9.0,0.5263157894736842,381.38715100689245,2662.73121159558,11.0,2.0,9.0,0.1818181818181818,427.1974846525707,11.29649325726109,22.0,11.0,11.0,0.5,1109.7651305855115,20660.760070718323,15.0,10.0,5.0,0.6666666666666666,505.18687633095584,5140.14733277151,77.0,37.0,40.0,0.4805194805194805,433.8765765821786,6885.325995350035,0.0,0.0,0.0,0.0,98926.0,98945.0,99030.0,99040.0,99055.0,99077.0,99087.0,99101.0,99279.0,99345.0,0.1610632533863826,-0.28137536751658565,0.05401713986650818,-0.18557821734429072,0.06127882484180305
109,109,99835.29619936188,2328.3624770614697,11.063599325401135,99931.30135639945,-1984.467417148525,10.191861603456228,99965.59697938053,19836.88768883448,8.817370147131777,99994.54796539764,-2869.263271781093,15.28779240518434,100210.2327992967,7136.015106149526,31.351213405210725,0.95058075456642,104.0,85.0,71.0,243.0,314.0,19.0,898.0,899.0,19.0,10.0,9.0,0.5263157894736842,355.3974951409766,2417.274719616832,19.0,10.0,9.0,0.5263157894736842,427.5872730162942,601.6485175707392,20.0,11.0,9.0,0.55,1132.8737692575005,19303.90299212899,16.0,11.0,5.0,0.6875,518.1510106186166,5306.182746282122,77.0,38.0,39.0,0.4935064935064935,467.2060992512226,7255.283464851464,0.0,0.0,0.0,0.0,99825.0,99844.0,99929.0,99940.0,99955.0,99975.0,99986.0,100000.0,100178.0,100243.0,0.15263838798394877,-0.215467016148188,0.05710945119153733,-0.18058677839519927,0.06547156813732127
110,110,100772.20976284736,2745.368521270801,14.933798022384346,100870.15067819972,-1760.706061264149,2.9089365570541417,100900.59847163156,20354.137328032542,8.642462689344603,100930.15067819972,-2467.3135578775673,5.095930801728113,101144.97663767904,7572.444087746369,33.71619185066142,0.9640085225519892,109.0,84.0,66.0,249.0,315.0,25.0,934.0,935.0,38.0,20.0,18.0,0.5263157894736842,395.04454358830935,2741.3925903216887,6.0,3.0,3.0,0.5,446.4826867521863,747.8325644550468,21.0,11.0,10.0,0.5238095238095238,1122.2820319209577,20448.919487610856,12.0,9.0,3.0,0.75,554.3280115024543,5092.246593484297,82.0,42.0,40.0,0.5121951219512195,501.63303031005455,7765.442353322793,0.0,0.0,0.0,0.0,100758.0,100783.0,100867.0,100873.0,100890.0,100911.0,100921.0,100933.0,101111.0,101182.0,0.14389490537519806,-0.2535816151116225,0.055137784217231624,-0.22466865215919227,0.06624453406289135
111,111,101626.42648722325,2564.602545839679,12.739827004320285,101720.30135639945,-1481.3898647240485,10.191861598698669,101756.21990485225,20801.75692219211,9.138416101535077,101783.33955777375,-2447.5459037640503,10.191861603456228,102000.84403054552,7646.230713885331,32.71026465128971,0.9644286864009108,101.0,87.0,74.0,244.0,318.0,14.0,858.0,857.0,14.0,9.0,5.0,0.6428571428571429,424.6981646066403,3256.4764987059625,13.0,2.0,11.0,0.1538461538461538,427.24981648802566,13.43181387083996,22.0,11.0,11.0,0.5,1190.1505577850266,21210.65638456808,14.0,5.0,9.0,0.3571428571428571,639.6595503356409,6263.370736484723,79.0,39.0,40.0,0.4936708860759494,436.9891037887383,6727.35574033987,0.0,0.0,0.0,0.0,101617.0,101631.0,101718.0,101729.0,101745.0,101767.0,101778.0,101792.0,101970.0,102036.0,0.16559999337737127,-0.288411461872404,0.05721394410273723,-0.2613473150194717,0.057150917901964284
112,112,102497.84932180028,3235.207512424852,5.095930801728113,102599.30135639945,-1619.588996887779,10.191861602407812,102631.50284229322,19559.169412790543,9.058395647482604,102656.2739827004,-3299.862506318685,7.64389620259217,102874.80813839656,7686.929176278594,31.95711882944339,0.9492761059381768,102.0,88.0,68.0,244.0,312.0,14.0,871.0,873.0,25.0,8.0,17.0,0.32,390.8386421974288,3160.111959025398,8.0,2.0,6.0,0.25,485.39006092186247,165.73721638634902,20.0,11.0,9.0,0.55,1117.868321414257,19065.675554193433,13.0,4.0,9.0,0.3076923076923077,677.1787915595125,8115.783454101531,79.0,40.0,39.0,0.5063291139240507,423.039842993794,7378.362562004606,0.0,0.0,0.0,0.0,102495.0,102509.0,102597.0,102605.0,102621.0,102641.0,102652.0,102665.0,102840.0,102909.0,0.12080790511780416,-0.29969952985269327,0.0571531591051733,-0.20521424461256443,0.05503365951377174
113,113,103405.69864360055,2360.980774758549,10.191861603456228,103507.15067819972,-2277.8436679300357,5.095930801728113,103537.57998311293,19389.568105307833,8.09862330538708,103567.15067819972,-3615.9831640807206,5.095930801728113,103780.90482002098,7390.510032197377,31.421068998915462,0.9510167218763438,104.0,90.0,66.0,244.0,310.0,14.0,907.0,907.0,19.0,11.0,8.0,0.5789473684210527,440.2942163129091,2556.3775465919693,14.0,11.0,3.0,0.7857142857142857,511.93923947811743,305.4490152310626,19.0,10.0,9.0,0.5263157894736842,1121.0821449076743,19162.81576326659,12.0,9.0,3.0,0.75,555.3543639062736,6013.656121261622,77.0,39.0,38.0,0.5064935064935064,408.22770196055654,8136.413078349,0.0,0.0,0.0,0.0,103400.0,103414.0,103504.0,103510.0,103528.0,103547.0,103558.0,103570.0,103748.0,103814.0,0.18648784480590985,-0.22474731110205484,0.05781883014716463,-0.15358322721822174,0.05523674282046548
114,114,104275.42466090011,1500.272520833413,2.5479654008640567,104385.30135639945,-1617.0570879796223,10.191861603433464,104420.04122056892,19977.325957893525,9.01097796268151,104446.8444833598,-2617.4120403848633,10.191861603456228,104665.27210963148,7122.011858947903,30.31445728465565,0.9504619067264064,109.0,107.0,71.0,247.0,318.0,2.0,871.0,882.0,2.0,1.0,1.0,0.5,409.6478537015707,2984.420267265341,11.0,2.0,9.0,0.1818181818181818,509.3934341551941,226.17783711116613,21.0,11.0,10.0,0.5238095238095238,1124.5566988419423,21239.294654757723,11.0,4.0,7.0,0.3636363636363636,589.3328518958207,7127.164407892633,77.0,38.0,39.0,0.4935064935064935,361.69886367852064,7146.832927028967,0.0,0.0,0.0,0.0,104274.0,104276.0,104383.0,104394.0,104409.0,104430.0,104443.0,104454.0,104633.0,104701.0,0.27304896144735635,-0.3150126473219561,0.056291652907510516,-0.22515860812238236,0.05078605186876963
115,115,105114.42466090011,2134.134371711967,2.5479654008640567,105216.30135639945,-1575.7295577240147,10.191861603432397,105250.6575446535,20213.038309638767,9.054128807402916,105277.96448430228,-2775.489749384903,7.64389620259217,105493.17989031652,7140.568997587547,31.57798034291285,0.9571130167841284,101.0,96.0,73.0,244.0,317.0,5.0,839.0,831.0,5.0,1.0,4.0,0.2,427.14696184144657,2584.153107248412,10.0,2.0,8.0,0.2,460.49575401325905,64.54282832140075,21.0,11.0,10.0,0.5238095238095238,1130.820883051751,20164.616307421664,13.0,4.0,9.0,0.3076923076923077,600.126044220472,7019.438963341814,74.0,36.0,38.0,0.4864864864864865,353.2620961615809,8124.332641183016,0.0,0.0,0.0,0.0,105113.0,105118.0,105214.0,105222.0,105240.0,105261.0,105274.0,105287.0,105458.0,105531.0,0.2001499846979159,-0.2922428863227009,0.05594512144730409,-0.2162234770830879,0.04947254151327872
116,116,105986.15067819972,1455.339331652046,5.095930801728113,106089.15067819972,-1960.1752192826225,5.095930732786284,106119.06634724925,19778.53012820081,8.9456930230057,106143.52874141376,-3067.091027028138,10.191861603456228,106362.44595000512,7185.874374705876,31.71287711102214,0.9531588669715636,96.0,91.0,71.0,244.0,315.0,5.0,873.0,869.0,11.0,7.0,4.0,0.6363636363636364,488.953569746,1880.2995592088455,11.0,8.0,3.0,0.7272727272727273,439.958226275911,707.1520512925603,21.0,11.0,10.0,0.5238095238095238,1161.1187799789354,19797.19761671512,11.0,3.0,8.0,0.2727272727272727,645.040518154197,8519.633131309647,77.0,37.0,40.0,0.4805194805194805,371.92237996302816,7181.099967447966,0.0,0.0,0.0,0.0,105985.0,105990.0,106081.0,106092.0,106108.0,106129.0,106141.0,106152.0,106331.0,106396.0,0.3359722087569491,-0.22444841764550275,0.058706019732142685,-0.2103101970140123,0.05175742861191492
117,117,106892.1584587461,2351.620775108054,5.095930801728113,106993.7260172996,-1794.8710788498388,7.235762224626478,107027.00915036938,19752.28586553216,8.87754049837323,107053.30135639945,-2455.7136828987827,10.191861603456228,107268.88071360446,7578.143970441528,33.93978573813567,0.9518554695477522,102.0,94.0,67.0,248.0,315.0,8.0,905.0,908.0,8.0,2.0,6.0,0.25,409.72300674443846,2426.2272683915844,8.0,2.0,6.0,0.25,399.5747047391594,384.3361507558964,21.0,11.0,10.0,0.5238095238095238,1101.6198910340847,19489.627363355314,12.0,5.0,7.0,0.4166666666666667,587.2601384827536,6844.430800300108,85.0,45.0,40.0,0.5294117647058824,326.21578287831767,7277.325248284159,0.0,0.0,0.0,0.0,106890.0,106898.0,106992.0,107000.0,107016.0,107037.0,107048.0,107059.0,107235.0,107307.0,0.1742300506447993,-0.22262028144952262,0.05577176730498909,-0.2391403128843334,0.04304692338265398
118,118,107770.15067819972,1969.1607164008103,5.095930801728113,107872.7260172996,-1974.1521794272744,3.686129440319226,107904.67188181829,20454.18854186629,8.990852319213088,107932.30135639945,-2479.140413789011,10.191861603456228,108149.79964291817,7343.881963918519,32.52562769761209,0.9601421827686204,102.0,97.0,67.0,250.0,317.0,5.0,879.0,877.0,11.0,7.0,4.0,0.6363636363636364,391.7915538564015,2379.5691701584924,8.0,3.0,5.0,0.375,440.5526714250687,154.8130325253735,21.0,11.0,10.0,0.5238095238095238,1134.927434324645,20325.01394532311,14.0,7.0,7.0,0.5,551.1873753418971,6261.19152137744,74.0,36.0,38.0,0.4864864864864865,389.5012405329835,8491.93317484139,0.0,0.0,0.0,0.0,107769.0,107774.0,107871.0,107877.0,107894.0,107915.0,107926.0,107938.0,108114.0,108188.0,0.19896372631915474,-0.22316044123451434,0.05548630941783093,-0.22233003515096839,0.05303751373546791
119,119,108622.36816037218,1894.9436779123223,9.973301350005356,108726.15067819972,-1544.2820069355844,3.930432039721085,108757.9363831344,20223.429619994473,8.815657091958855,108786.15067819972,-3241.601470157541,5.09593080172258,109001.27338381986,7159.7346172883235,31.389987571701887,0.9589739320140522,110.0,95.0,66.0,249.0,315.0,15.0,852.0,853.0,25.0,14.0,11.0,0.56,368.5736175058063,1505.963814744492,6.0,3.0,3.0,0.5,359.48028624574437,636.0730936890209,20.0,10.0,10.0,0.5,1114.5657418089645,20671.011357192197,18.0,7.0,11.0,0.3888888888888889,537.1963170559656,6700.0376439747715,79.0,40.0,39.0,0.5063291139240507,460.02232869468855,7006.254181786051,0.0,0.0,0.0,0.0,108613.0,108628.0,108723.0,108729.0,108748.0,108768.0,108779.0,108789.0,108970.0,109038.0,0.19450373211718217,-0.23278150275096687,0.05511259775181837,-0.16571942047825453,0.0642513100393262
120,120,109507.57533909989,1638.447472084641,2.5479654008640567,109609.7260172996,-1830.245504991051,7.643896194599566,109640.0909198868,19238.594610133776,8.699304787787494,109667.69864360055,-3245.0099383812944,10.191861603456228,109884.2725831183,6988.433027502351,29.219366495945263,0.9401814199291794,101.0,98.0,67.0,243.0,310.0,3.0,885.0,884.0,3.0,1.0,2.0,0.3333333333333333,389.0914977308886,2036.7611111355711,13.0,8.0,5.0,0.6153846153846154,496.4320164484363,471.797572620697,21.0,11.0,10.0,0.5238095238095238,1130.7832331713755,18833.054738931765,29.0,9.0,20.0,0.3103448275862069,610.2215379536295,5477.570043882356,73.0,38.0,35.0,0.5205479452054794,411.0684018695365,7232.154922374388,0.0,0.0,0.0,0.0,109507.0,109510.0,109608.0,109614.0,109630.0,109650.0,109662.0,109675.0,109852.0,109918.0,0.2374757228169402,-0.27123793780379407,0.05877681068115779,-0.18804920463757527,0.05882125510136731
121,121,110380.15067819972,1970.635014872693,5.095930801728113,110484.15067819972,-2064.4651298768363,5.095930800771717,110515.40853131445,19577.296721364233,8.323219352487484,110544.15067819972,-3352.592371991907,5.095930801728113,110758.78011834258,7302.842907397548,30.341550561926113,0.9492914478742884,102.0,96.0,66.0,249.0,315.0,6.0,873.0,874.0,19.0,9.0,10.0,0.4736842105263157,407.7830375667215,1741.7733161359756,6.0,3.0,3.0,0.5,427.68023016075574,497.5224658442597,20.0,10.0,10.0,0.5,1138.1060196573285,20309.62836755322,11.0,8.0,3.0,0.7272727272727273,538.0512381734231,6243.868128905893,79.0,40.0,39.0,0.5063291139240507,395.3911850162456,7098.307761459386,0.0,0.0,0.0,0.0,110379.0,110385.0,110481.0,110487.0,110505.0,110525.0,110536.0,110547.0,110725.0,110796.0,0.20692976349710557,-0.2071627289661563,0.05813397201133192,-0.16048811739488203,0.05414209096785128
122,122,111205.15067819972,2041.8335836503284,5.095930801728113,111304.20803520877,-1881.5128166066552,5.095930801728113,111339.10587688407,20899.738714701853,9.104069853922622,111364.32168936184,-2635.281610707854,10.191861603456228,111581.55577297148,7206.316064486654,31.77208330410104,0.9611618591997152,98.0,93.0,71.0,244.0,315.0,5.0,825.0,824.0,18.0,7.0,11.0,0.3888888888888889,431.67649533888795,1918.6829188245788,4.0,2.0,2.0,0.5,448.8538882845099,331.1808798896627,20.0,10.0,10.0,0.5,1197.762225655655,21906.687993026007,13.0,4.0,9.0,0.3076923076923077,667.3999937140076,8467.07262797227,73.0,38.0,35.0,0.5205479452054794,314.0148911053471,7283.626211544141,0.0,0.0,0.0,0.0,111204.0,111209.0,111302.0,111306.0,111329.0,111349.0,111360.0,111373.0,111549.0,111617.0,0.21141610109436526,-0.23856010138375064,0.057309913870506574,-0.2532556638357673,0.04357495401191734
123,123,112033.48663680036,1603.155286885189,5.095930801728113,112135.30135639945,-1926.0092090403784,10.19186160336452,112168.80145041578,20217.18790932012,8.932583155580364,112199.97262629704,-2640.5178486966065,17.8357578060484,112415.93144289729,6913.368215349215,29.727439138954875,0.946448140864972,102.0,96.0,71.0,239.0,310.0,6.0,827.0,830.0,6.0,2.0,4.0,0.3333333333333333,485.1054974884181,1693.0793557772868,10.0,2.0,8.0,0.2,498.77627222077376,435.01083881397017,21.0,11.0,10.0,0.5238095238095238,1108.7903517209131,19596.844639814088,18.0,13.0,5.0,0.7222222222222222,475.7794313508466,4394.73550058042,77.0,45.0,32.0,0.5844155844155844,376.34587508854383,6202.479685809969,0.0,0.0,0.0,0.0,112031.0,112037.0,112133.0,112141.0,112158.0,112179.0,112190.0,112204.0,112377.0,112443.0,0.30259420372866175,-0.2589687888716201,0.054843945493020865,-0.18018413758713936,0.0544374121796337
124,124,112891.92567084984,1467.9505966894044,8.352027678531107,112994.30135639945,-1620.7880444702791,10.191861599277573,113026.73705753696,19713.96306187725,8.907181883494452,113052.87669549928,-2604.933343852455,12.739827004320285,113267.53393401648,7174.616341375541,32.79639209737519,0.953910928338392,104.0,96.0,68.0,246.0,314.0,8.0,859.0,858.0,8.0,4.0,4.0,0.5,437.7983674937919,1775.6153977719964,8.0,2.0,6.0,0.25,417.8867834315661,222.3568500667659,20.0,11.0,9.0,0.55,1105.2847398713775,18446.832697113015,14.0,7.0,7.0,0.5,560.4156559416422,7196.758959901293,80.0,41.0,39.0,0.5125,422.3580648410132,7702.629264989823,0.0,0.0,0.0,0.0,112888.0,112896.0,112992.0,113000.0,113016.0,113036.0,113046.0,113060.0,113235.0,113306.0,0.29823780751282547,-0.2578293842043632,0.056066085565959635,-0.21513627489325288,0.05886838330368998
125,125,113742.15067819972,1713.6297769452212,5.095930801728113,113844.30135639945,-1877.5261861460203,6.566206158239461,113876.6442962702,19876.85207168327,8.62227293975003,113908.12330450072,-2632.4000357633636,12.739827004320285,114120.7618968128,6744.57460066412,29.25354499171762,0.9497677656379456,101.0,96.0,69.0,242.0,311.0,5.0,851.0,849.0,5.0,1.0,4.0,0.2,383.0309505069824,2180.364399672527,8.0,2.0,6.0,0.25,443.0620762834083,104.88179804892115,20.0,11.0,9.0,0.55,1128.0180695376512,19690.13953494681,19.0,11.0,8.0,0.5789473684210527,494.3781141798815,3751.5850210357457,74.0,36.0,38.0,0.4864864864864865,412.1655025644767,7352.656267993989,0.0,0.0,0.0,0.0,113741.0,113746.0,113842.0,113850.0,113866.0,113886.0,113897.0,113911.0,114088.0,114153.0,0.22352024670683962,-0.23598183586077034,0.056750337803471156,-0.1878050856493466,0.06111067442621094
126,126,114547.9343530792,1259.3623464654809,6.763066034485702,114652.15067819972,-1816.4693499906964,5.095930801721694,114682.61055941708,20953.84926729468,9.044083747419158,114716.39728720114,-2877.1020901320235,20.383723206912453,114925.40811747903,6907.0486019469445,29.204349506595157,0.9532559701229616,98.0,91.0,78.0,237.0,315.0,7.0,806.0,806.0,8.0,3.0,5.0,0.375,407.0440223748451,1563.0693929518188,13.0,10.0,3.0,0.7692307692307693,454.0392520232709,745.6389225791969,20.0,11.0,9.0,0.55,1140.646207243342,20192.76087674859,19.0,14.0,5.0,0.7368421052631579,427.4038798033234,3551.898132467078,79.0,40.0,39.0,0.5063291139240507,448.6997018536088,6464.4391625141825,0.0,0.0,0.0,0.0,114545.0,114552.0,114643.0,114655.0,114672.0,114692.0,114703.0,114721.0,114899.0,114958.0,0.3232143818792522,-0.24995701250097965,0.05443611780789568,-0.14855360234495912,0.06496258064944414
127,127,115353.57533909989,1329.941600104516,2.5479654008640567,115457.15067819972,-2431.4473963889072,5.095930801728113,115487.33823961408,19240.02196816853,8.658753827032825,115513.69864360055,-3328.9983821151736,10.191861603456228,115730.2327992967,6651.889435816267,27.667876669810344,0.9409490030032612,96.0,93.0,71.0,243.0,314.0,3.0,805.0,805.0,3.0,1.0,2.0,0.3333333333333333,397.2473699254504,1939.2619551435716,12.0,9.0,3.0,0.75,412.58728261341935,98.89043577329188,20.0,10.0,10.0,0.5,1179.0213852275456,19681.477287865742,14.0,8.0,6.0,0.5714285714285714,577.2244413423161,6132.1517922329995,72.0,38.0,34.0,0.5277777777777778,490.1600130985667,6566.451680386352,0.0,0.0,0.0,0.0,115353.0,115356.0,115449.0,115460.0,115478.0,115497.0,115508.0,115520.0,115703.0,115763.0,0.2986953486485662,-0.1696879328856459,0.061279627808022576,-0.17339282723699018,0.07368733618141056
128,128,116131.30135639945,1686.695781194795,9.629646210276688,116229.30135639945,-1968.553247928687,10.191861603456228,116265.92630478556,19588.02349469678,8.916410430645508,116292.6986435988,-3110.0489976896133,10.191861603456228,116509.2327992967,6965.422850831599,29.994768115284284,0.9502486446829388,103.0,90.0,72.0,243.0,315.0,13.0,779.0,779.0,20.0,13.0,7.0,0.65,397.2143000068453,1121.5907475270951,20.0,10.0,10.0,0.5,419.1330008792096,731.9355987304249,21.0,11.0,10.0,0.5238095238095238,1174.054861522079,19995.7427063786,14.0,8.0,6.0,0.5714285714285714,576.0525321523235,5871.087750456509,74.0,38.0,36.0,0.5135135135135135,466.3278509445424,7073.671351471104,0.0,0.0,0.0,0.0,116124.0,116137.0,116227.0,116239.0,116256.0,116276.0,116287.0,116299.0,116472.0,116542.0,0.2354984843357306,-0.2129142309562729,0.05993738275022695,-0.18522297641621085,0.066948965042211
129,129,116898.42466090011,1588.536175062611,2.547965400864046,117006.30135639945,-1824.7742044031468,4.335786618571646,117038.75055807516,20768.947926229324,8.88661235064789,117069.15067819972,-2353.4154368628983,5.095930801728113,117278.50868508988,7233.395747342639,33.632028122169075,0.950939083039842,103.0,91.0,72.0,244.0,316.0,12.0,765.0,771.0,12.0,1.0,11.0,0.0833333333333333,362.3440432049313,2359.6058772549018,14.0,8.0,6.0,0.5714285714285714,482.40708129993425,1092.9542419013064,21.0,11.0,10.0,0.5238095238095238,1143.9169732233672,21316.086260689743,12.0,9.0,3.0,0.75,538.2243317388052,4851.094282494276,82.0,42.0,40.0,0.5121951219512195,427.5601199812221,7485.937294381971,0.0,0.0,0.0,0.0,116897.0,116909.0,117000.0,117012.0,117028.0,117049.0,117060.0,117072.0,117242.0,117316.0,0.22809933377226982,-0.26436535552502594,0.05507823397152931,-0.2286992442168468,0.059109183973280674
130,130,117676.57533909989,1875.7907565794685,2.5479654008640567,117779.7260172996,-1658.9921262382825,7.6438962020858705,117810.8962129394,19846.45517302704,8.916186016346048,117836.69864360055,-3244.71060246881,10.191861603456228,118050.63121421724,7026.643157990667,31.054619527285052,0.9486992735617584,101.0,97.0,68.0,241.0,309.0,4.0,779.0,773.0,4.0,1.0,3.0,0.25,382.2608495733013,2352.602023952696,7.0,3.0,4.0,0.4285714285714285,434.522717942604,399.0554018801762,19.0,10.0,9.0,0.5263157894736842,1199.091904804671,21150.817731021973,20.0,6.0,14.0,0.3,661.8024492354457,6605.246923411225,72.0,36.0,36.0,0.5,462.3977429099237,8100.216043204053,0.0,0.0,0.0,0.0,117676.0,117680.0,117777.0,117784.0,117801.0,117820.0,117831.0,117845.0,118016.0,118086.0,0.2037865088270077,-0.26191969875581744,0.060418442202934824,-0.20396347481094265,0.06580635055931182
131,131,118482.7260172996,1354.703304001095,6.595717392204402,118587.15067819972,-2403.756963514664,5.095930801710159,118617.48451054994,19325.71941296535,8.602070375115861,118644.30135639945,-3313.635195718772,10.191861603456228,118856.77297790108,6578.148684882459,30.05060622985567,0.9495001395188414,97.0,90.0,73.0,243.0,316.0,7.0,807.0,807.0,13.0,8.0,5.0,0.6153846153846154,412.8628924502928,1414.123722135529,14.0,11.0,3.0,0.7857142857142857,478.5456048010878,156.85804127232404,20.0,10.0,10.0,0.5,1113.479557050467,19102.09213667674,14.0,8.0,6.0,0.5714285714285714,623.2105088379249,6627.157893674459,74.0,37.0,37.0,0.5,453.1790979808359,6757.236516255043,0.0,0.0,0.0,0.0,118480.0,118487.0,118577.0,118590.0,118607.0,118627.0,118636.0,118650.0,118823.0,118893.0,0.30476259357374325,-0.19908235818540496,0.057616460906673904,-0.18807456826964988,0.0688915863246307
132,132,119291.972626301,1915.1309498135515,14.76786150710037,119392.95449117268,-1198.6957310910427,3.3246726543483693,119425.3866647778,20461.572549957207,8.816237596828811,119452.15067819972,-1983.6391501888172,5.095930801728113,119664.7952247763,7630.596751481641,40.7734673503365,0.9425545981902964,108.0,92.0,65.0,250.0,315.0,16.0,805.0,808.0,19.0,13.0,6.0,0.6842105263157895,328.9477818465371,2316.6000891628228,5.0,3.0,2.0,0.6,399.5879674174168,263.02042686080347,22.0,11.0,11.0,0.5,1089.6050334300276,20595.53521603846,6.0,3.0,3.0,0.5,596.3652545930961,6188.126074663946,88.0,46.0,42.0,0.5227272727272727,466.4097509889676,8015.1401252697615,0.0,0.0,0.0,0.0,119282.0,119298.0,119390.0,119395.0,119414.0,119436.0,119449.0,119455.0,119627.0,119705.0,0.17176255330141366,-0.33335229037123143,0.05325128509892102,-0.3006420066554593,0.061123627178753
133,133,120063.84932180028,1451.404152758615,5.095930801728113,120167.1709670308,-1949.4691158195708,4.047437860529768,120199.75739302786,20296.512509254848,8.845428587749447,120223.45203467392,-2609.1474196032163,15.28779240518434,120438.5322476733,6307.031131214661,30.21396250389532,0.9546838460299908,102.0,96.0,71.0,238.0,309.0,6.0,774.0,774.0,14.0,6.0,8.0,0.4285714285714285,411.32753156152734,921.5665943542596,10.0,4.0,6.0,0.4,433.820943153155,55.77252979829598,20.0,11.0,9.0,0.55,1126.757985570645,19309.615680551593,15.0,4.0,11.0,0.2666666666666666,712.8656162880056,8863.154510362063,79.0,41.0,38.0,0.5189873417721519,462.5132632804032,6989.60407639719,0.0,0.0,0.0,0.0,120061.0,120067.0,120163.0,120173.0,120189.0,120209.0,120220.0,120234.0,120406.0,120472.0,0.28339972073232433,-0.22253286273313108,0.055514856803939264,-0.2732178377243299,0.07333296025626695
134,134,120831.7260172996,1551.0898024611358,7.64389620259217,120935.7260172996,-2036.9437163895743,5.531692137552745,120967.1381385148,20392.861385500273,8.93619219951691,120995.30135639945,-2714.7207169716107,10.191861603456228,121206.96500328596,6983.315426347805,31.47815295493997,0.9569694218701108,107.0,97.0,68.0,242.0,310.0,10.0,770.0,767.0,22.0,14.0,8.0,0.6363636363636364,396.8054044781175,1477.825362772648,12.0,8.0,4.0,0.6666666666666666,446.71328933302016,193.7088367091926,20.0,10.0,10.0,0.5,1167.019437056729,21967.58162514357,13.0,7.0,6.0,0.5384615384615384,539.8767009572442,6098.706322228888,71.0,35.0,36.0,0.4929577464788732,434.882912654638,8289.965651735216,0.0,0.0,0.0,0.0,120826.0,120836.0,120933.0,120940.0,120957.0,120977.0,120988.0,121001.0,121172.0,121243.0,0.2558236175935789,-0.2193056615844089,0.05722686066441381,-0.1988700707155984,0.06227456245408018
135,135,121612.15067819972,1923.6327163985463,5.095930801728113,121714.7260172996,-1821.1348228068216,4.583814569095567,121746.90203289856,20514.764122731016,8.971782635464063,121775.3836424948,-2555.1567674074695,10.191861603456228,121987.27023764736,7151.0894684178265,32.56307538583606,0.9592647961946472,102.0,97.0,67.0,243.0,310.0,5.0,780.0,780.0,5.0,1.0,4.0,0.2,409.7768932841027,2366.5564997324427,8.0,3.0,5.0,0.375,413.43890531448614,64.8571300318506,21.0,11.0,10.0,0.5238095238095238,1151.3912727410147,20970.16996281961,13.0,7.0,6.0,0.5384615384615384,562.9495902422354,6640.538372852205,78.0,37.0,41.0,0.4743589743589743,382.80884572102514,6841.061075931362,0.0,0.0,0.0,0.0,121611.0,121616.0,121713.0,121720.0,121736.0,121757.0,121769.0,121780.0,121951.0,122023.0,0.21302241836024347,-0.22702267846225355,0.05612500664656613,-0.22031900250622163,0.053531541929613326
136,136,122452.26653218716,1674.0088645461844,5.095930801728113,122553.7260172996,-2336.412037553183,7.64389620259217,122587.02049779914,19358.545082745182,8.577097378747878,122616.1294806408,-3171.3040463084403,12.739827004320285,122829.41787946528,6748.490577138305,29.95776894532491,0.9447525303377832,102.0,97.0,68.0,242.0,310.0,5.0,839.0,841.0,5.0,2.0,3.0,0.4,406.3424447835442,2110.1268139154363,9.0,3.0,6.0,0.3333333333333333,404.54097196841286,828.5803296918734,21.0,11.0,10.0,0.5238095238095238,1111.6593486813863,18840.688936150524,19.0,10.0,9.0,0.5263157894736842,551.167933239575,5301.7827335855,79.0,39.0,40.0,0.4936708860759494,357.5981995742998,6558.128605536049,0.0,0.0,0.0,0.0,122450.0,122455.0,122552.0,122560.0,122577.0,122597.0,122607.0,122620.0,122795.0,122862.0,0.24273613682069814,-0.17314624538232992,0.0574247364112213,-0.17379851480376426,0.052989360433535526
137,137,123349.57533909989,1763.3913177295444,2.5479654008640567,123447.30135639945,-1619.4438378101386,10.19186160320485,123480.81046741387,20192.62380096979,8.768205119500191,123510.9726261506,-2507.5958869360547,17.8357578060484,123722.67852385444,6988.477093806415,30.66620167194474,0.9478428394602988,96.0,92.0,70.0,244.0,314.0,4.0,898.0,893.0,4.0,1.0,3.0,0.25,342.42531099400753,1818.947061069054,11.0,3.0,8.0,0.2727272727272727,372.9889343303302,70.13963780245217,21.0,11.0,10.0,0.5238095238095238,1110.422703907626,19456.57537007291,19.0,12.0,7.0,0.631578947368421,464.5200102418739,4027.1759854434263,78.0,40.0,38.0,0.5128205128205128,438.2262924886994,7422.664814783903,0.0,0.0,0.0,0.0,123349.0,123353.0,123445.0,123455.0,123470.0,123491.0,123501.0,123515.0,123689.0,123759.0,0.194185662337783,-0.2303191537872022,0.05499150159249219,-0.18524516356957935,0.06270697987649991
