Unnamed: 0,cycle,p_center,p_height,p_width,q_center,q_height,q_width,r_center,r_height,r_width,s_center,s_height,s_width,t_center,t_height,t_width,r_squared,pr_interval,pr_segment,qrs_duration,st_segment,qt_interval,p_duration,pp_interval,rr_interval,fwhm_p,rise_time_p,decay_time_p,rise_decay_symmetry_p,sharpness_deriv_p,sharpness_diff_p,fwhm_q,rise_time_q,decay_time_q,rise_decay_symmetry_q,sharpness_deriv_q,sharpness_diff_q,fwhm_r,rise_time_r,decay_time_r,rise_decay_symmetry_r,sharpness_deriv_r,sharpness_diff_r,fwhm_s,rise_time_s,decay_time_s,rise_decay_symmetry_s,sharpness_deriv_s,sharpness_diff_s,fwhm_t,rise_time_t,decay_time_t,rise_decay_symmetry_t,sharpness_deriv_t,sharpness_diff_t,Average_Heart_Rate,SDNN,RMSSD,NN50,p_on,p_off,q_on,q_off,r_on,r_off,s_on,s_off,t_on,t_off,sharpness_deriv_p_norm,sharpness_deriv_q_norm,sharpness_deriv_r_norm,sharpness_deriv_s_norm,sharpness_deriv_t_norm
0,0,0.0,0.0,0.0,0.0,0.0,0.0,0.0,0.0,0.0,0.0,0.0,0.0,0.0,0.0,0.0,0.0,0.0,0.0,0.0,0.0,0.0,0.0,0.0,0.0,0.0,0.0,0.0,0.0,0.0,0.0,0.0,0.0,0.0,0.0,0.0,0.0,0.0,0.0,0.0,0.0,0.0,0.0,0.0,0.0,0.0,0.0,0.0,0.0,0.0,0.0,0.0,0.0,0.0,0.0,59.34017644464793,325.3121918008377,456.1424825125593,620.0,,,,,,,,,,,,,,,
1,1,1742.6921270947928,2507.626002688648,18.404833962951127,1851.972626301008,-6742.529656875106,13.198293000388643,1881.3834466434944,50602.63481389786,11.361733502471992,1907.452034599136,-11573.080356664586,9.916854646355404,2160.0039013012347,10653.970973540889,34.822961791019196,0.9905462266754952,118.0,72.0,84.0,280.0,364.0,46.0,,,48.0,25.0,23.0,0.5208333333333334,61.010914906031566,2486.7979544154914,20.0,16.0,4.0,0.8,959.1900747861654,5768.323377933143,26.0,13.0,13.0,0.5,2193.495782951274,48897.35450364815,19.0,4.0,15.0,0.2105263157894736,1462.241242196652,24365.295264107204,85.0,43.0,42.0,0.5058823529411764,68.03387859074647,11197.34425008253,0.0,0.0,0.0,0.0,1719.0,1765.0,1837.0,1856.0,1868.0,1894.0,1904.0,1921.0,2118.0,2201.0,0.024330149248977462,-0.1422596745730462,0.04334746186672551,-0.12634849125147493,0.0063857766047709765
2,2,2719.641564373575,2230.9816140770413,14.646918438826027,2825.9726263010007,-7499.908426224169,12.41942569751106,2855.0530763688357,49493.06129991359,11.396341059930476,2881.602712798848,-11871.55719055636,10.805193039693078,3131.311408982068,10475.791427741697,35.126235557378685,0.9914741102809757,110.0,72.0,85.0,278.0,363.0,38.0,975.0,973.0,39.0,19.0,20.0,0.4871794871794871,59.53754259322827,2087.3049025804557,20.0,16.0,4.0,0.8,993.0655601409272,5534.715888781674,25.0,13.0,12.0,0.52,2168.017961774688,46738.39065059244,19.0,5.0,14.0,0.2631578947368421,1307.7263103898554,22983.19658363652,86.0,43.0,43.0,0.5,67.74079604154625,11011.436521660236,0.0,0.0,0.0,0.0,2701.0,2739.0,2811.0,2830.0,2842.0,2867.0,2877.0,2896.0,3089.0,3174.0,0.026686702488966495,-0.1324103580609832,0.04380448298877954,-0.11015625746470155,0.00646641320694463
3,3,3636.0902033333314,2655.3758454170716,19.43569398584731,3739.073429040642,-5809.44317874947,9.595949598058173,3770.87514215692,50116.67874828114,11.169803553747126,3797.027373698993,-10821.914712638998,8.64581031421109,4047.656038345496,10990.167317625384,35.93182190463419,0.9934654710325228,114.0,62.0,82.0,282.0,364.0,52.0,915.0,916.0,54.0,24.0,30.0,0.4444444444444444,58.283610088835786,2540.4090627418027,18.0,12.0,6.0,0.6666666666666666,771.7745372988128,3132.3022552907323,27.0,14.0,13.0,0.5185185185185185,2157.99994336956,47294.12629824888,17.0,4.0,13.0,0.2352941176470588,1414.7689164149097,22807.65382356913,88.0,44.0,44.0,0.5,72.18613398532004,11622.299405052205,0.0,0.0,0.0,0.0,3613.0,3665.0,3727.0,3745.0,3757.0,3784.0,3793.0,3809.0,4005.0,4091.0,0.021949288342525148,-0.1328482805584379,0.04305951625821919,-0.13073184865914625,0.006568247042931927
4,4,4628.361071653973,2165.7384758026988,15.353478949734754,4734.972626301007,-6830.566115988246,13.434768559798952,4764.344735474985,50388.62465299862,11.406170733455491,4790.452034599137,-11654.829362620989,9.573378076858416,5043.481874743411,10394.899741002258,34.34224457554102,0.9900641294331964,110.0,75.0,84.0,281.0,365.0,35.0,994.0,994.0,37.0,19.0,18.0,0.5135135135135135,63.06935112436952,2127.7135227697677,21.0,17.0,4.0,0.8095238095238095,962.2745749233584,5778.5462349530535,26.0,13.0,13.0,0.5,2178.703457036251,48792.19193803519,19.0,4.0,15.0,0.2105263157894736,1468.0606756563868,24297.63688613838,85.0,42.0,43.0,0.4941176470588235,69.09996839020629,10925.220641989312,0.0,0.0,0.0,0.0,4610.0,4645.0,4720.0,4739.0,4751.0,4777.0,4787.0,4804.0,5002.0,5085.0,0.0291214067760392,-0.14087771914995023,0.04323800206971112,-0.12596157609691877,0.006647487721083473
5,5,5616.475007402337,2920.816089295856,17.62370565951629,5718.403736032085,-6407.500931710552,10.250499488546271,5749.278661384001,50532.457610602825,11.078765208206878,5775.452034599137,-10639.122789713329,9.07554024466246,6029.66377537395,10695.097871248572,35.59730352896477,0.9932453077819792,110.0,62.0,83.0,284.0,367.0,48.0,988.0,984.0,48.0,21.0,27.0,0.4375,64.90316177914968,2908.8515436818743,19.0,13.0,6.0,0.6842105263157895,816.5890897415104,2999.9410979926897,26.0,13.0,13.0,0.5,2207.9615611911345,49040.16093313487,18.0,4.0,14.0,0.2222222222222222,1435.887369218074,23373.005857950386,86.0,43.0,43.0,0.5,64.70112554909647,11194.282947193562,0.0,0.0,0.0,0.0,5595.0,5643.0,5705.0,5724.0,5736.0,5762.0,5772.0,5788.0,5988.0,6072.0,0.02222089984268623,-0.12744267982861035,0.043693927934505515,-0.13496294737817985,0.006049605747230353
6,6,6547.25195617308,2747.9452810341645,14.897490575489453,6647.269185603659,-6970.958444540935,11.446492408873048,6677.351605858264,50782.84861065484,11.155103669290428,6704.027373698993,-11276.098032757243,10.193959166584593,6957.210877650056,10852.659752930973,34.17403424281184,0.991956310115641,104.0,65.0,84.0,282.0,366.0,39.0,931.0,928.0,40.0,18.0,22.0,0.45,67.16169687354939,2709.6590344543415,19.0,14.0,5.0,0.7368421052631579,896.1852369288289,3795.707154912496,26.0,13.0,13.0,0.5,2229.8613221315054,49205.960928823246,19.0,5.0,14.0,0.2631578947368421,1355.8647287259266,23221.15594000936,85.0,43.0,42.0,0.5058823529411764,76.7886633084389,11418.882904388083,0.0,0.0,0.0,0.0,6529.0,6568.0,6633.0,6652.0,6664.0,6690.0,6700.0,6717.0,6916.0,6999.0,0.024440696595047804,-0.12855983062567894,0.043909732973578294,-0.12024236795273667,0.0070755616647523315
7,7,7378.1149514174385,1862.8242432578547,10.80384839701422,7479.397287201151,-6836.137222730252,20.383723206671057,7508.6514822710205,51745.157531837554,11.296409290967654,7535.027373698993,-11880.528305261085,11.98355539116207,7785.489450052695,10440.87996615453,32.374433849599214,0.986926192447969,100.0,69.0,87.0,276.0,363.0,31.0,832.0,832.0,31.0,15.0,16.0,0.4838709677419355,58.6308371170619,1775.0086542598856,22.0,17.0,5.0,0.7727272727272727,940.7858180787258,4096.195420862023,25.0,13.0,12.0,0.52,2170.8685943740293,44921.805101807,21.0,5.0,16.0,0.238095238095238,1365.9651406774835,24224.39536594599,82.0,41.0,41.0,0.5,70.15849056950016,10791.661756420004,0.0,0.0,0.0,0.0,7363.0,7394.0,7463.0,7484.0,7496.0,7521.0,7531.0,7550.0,7745.0,7826.0,0.03147416474166325,-0.1376195046159401,0.04195307731043907,-0.11497511773719606,0.006719595551038612
8,8,8241.858503514675,2676.9711274057427,14.615879472933354,8339.05107543628,-5846.8756772688,9.647438506637164,8370.621395727245,50120.14415934227,11.19307271711684,8396.452034599139,-11012.289460401737,9.066873917398464,8649.454199110625,10401.164589401142,32.665818445514375,0.9939657584655092,104.0,64.0,82.0,280.0,362.0,40.0,862.0,862.0,41.0,19.0,22.0,0.4634146341463415,59.01253049345419,2513.1928598094833,18.0,13.0,5.0,0.7222222222222222,791.2371928225039,3451.238128080103,26.0,14.0,12.0,0.5384615384615384,2176.6130137664823,46204.095884745504,18.0,4.0,14.0,0.2222222222222222,1470.6534266565798,23803.18200126879,81.0,40.0,41.0,0.4938271604938271,74.31726611868822,10891.15322615658,0.0,0.0,0.0,0.0,8223.0,8263.0,8327.0,8344.0,8357.0,8383.0,8393.0,8409.0,8609.0,8689.0,0.022044515119833713,-0.13532649512262376,0.04342790808515196,-0.13354656467620032,0.0071450908674609405
9,9,9219.176331009048,2927.401921116989,16.44925968493573,9316.126278229556,-6025.467864293128,9.803905134610057,9347.185672308802,50497.22586316433,11.13675969213878,9373.027373698991,-10714.158502958377,9.006627012730728,9627.179822370988,10643.80753551955,36.46321738847019,0.9950412907551364,105.0,60.0,83.0,284.0,367.0,45.0,978.0,976.0,45.0,21.0,24.0,0.4666666666666667,53.74900273139396,2839.0154018286876,18.0,13.0,5.0,0.7222222222222222,822.6457723975237,3756.6694543937742,26.0,13.0,13.0,0.5,2195.998824086581,48514.63870228652,17.0,4.0,13.0,0.2352941176470588,1423.816717903307,23073.802787150213,88.0,44.0,44.0,0.5,66.91715301168357,11239.232337365234,0.0,0.0,0.0,0.0,9198.0,9243.0,9303.0,9321.0,9334.0,9360.0,9369.0,9386.0,9584.0,9670.0,0.018360650221506077,-0.1365281154800469,0.0434875141465637,-0.13289113816172918,0.006286956315996292
10,10,10171.155498137552,2895.427998243921,16.164801950238786,10271.038683514436,-6979.16865499725,10.403392804946415,10301.189692593282,50256.617334365525,11.24343509161876,10327.60271279885,-11346.58971464417,10.242751573347489,10577.842779526649,11015.87979767406,36.88652360612204,0.9926070990240036,108.0,62.0,83.0,281.0,364.0,46.0,952.0,954.0,46.0,21.0,25.0,0.4565217391304347,55.82028636073524,2782.1109647539542,19.0,14.0,5.0,0.7368421052631579,921.705937487086,4392.092476670893,26.0,13.0,13.0,0.5,2197.93724647035,48050.60892751628,19.0,5.0,14.0,0.2631578947368421,1325.9130692050696,22716.409774992266,90.0,45.0,45.0,0.5,69.25815211763663,11650.769775644989,0.0,0.0,0.0,0.0,10150.0,10196.0,10258.0,10276.0,10288.0,10314.0,10323.0,10341.0,10534.0,10622.0,0.01927876859469145,-0.13206529073160064,0.04373428541453781,-0.11685564584165899,0.006287119448440249
11,11,11085.274998318644,2559.451567556208,14.967179662601032,11186.972626301009,-6477.757379098849,12.858994406802426,11217.148165900022,50226.67132741378,11.483054500592612,11243.027373698991,-11632.889563987816,9.749851190554404,11495.50334253128,10777.235359632376,33.0850521344964,0.9913162854102612,105.0,66.0,84.0,280.0,364.0,39.0,915.0,916.0,39.0,18.0,21.0,0.4615384615384615,65.91356224594703,2569.700937470001,21.0,16.0,5.0,0.7619047619047619,905.5570199082482,5046.071381311818,26.0,13.0,13.0,0.5,2159.8495582332775,47815.08118596346,18.0,4.0,14.0,0.2222222222222222,1435.614006864546,23836.786904392964,81.0,41.0,40.0,0.5061728395061729,74.19649350717403,11218.96915799296,0.0,0.0,0.0,0.0,11067.0,11106.0,11172.0,11191.0,11204.0,11230.0,11239.0,11256.0,11456.0,11536.0,0.0257530023546732,-0.13979483437124723,0.04300204455425317,-0.12340992312940087,0.006884557220035043
12,12,11962.46341727802,1727.2977761924278,9.887786119361405,12067.39728720115,-6841.497935697732,20.38372320683952,12096.65604122993,52152.543751144374,11.396855904936748,12122.027373698991,-12105.190549368932,11.121548007581392,12374.939516653145,10468.606600003392,30.993986189034043,0.984718037593693,101.0,74.0,86.0,277.0,363.0,27.0,878.0,880.0,27.0,13.0,14.0,0.4814814814814814,68.15418226925773,1710.067167345955,23.0,18.0,5.0,0.782608695652174,930.2653484711158,4749.23016482089,25.0,13.0,12.0,0.52,2201.369488102369,45437.82256448504,19.0,4.0,15.0,0.2105263157894736,1471.2303116427772,25036.68111218989,79.0,40.0,39.0,0.5063291139240507,76.19432497578643,10830.90239244649,0.0,0.0,0.0,0.0,11949.0,11976.0,12050.0,12072.0,12084.0,12109.0,12118.0,12136.0,12336.0,12413.0,0.03945711226439111,-0.13597392810968412,0.04221020356373441,-0.12153714604017328,0.007278363576654198
13,13,12897.59741124724,2771.630938231601,16.5728310459192,12999.768430582772,-6329.413576956707,11.39150882554162,13030.17920779482,50379.17284020395,11.297607035794815,13056.027373698991,-11360.258744072114,9.899644348139782,13308.160032939732,10997.45159021022,34.4878144141418,0.9915834108350424,108.0,64.0,83.0,281.0,364.0,44.0,933.0,933.0,44.0,20.0,24.0,0.4545454545454545,62.38403753477316,2701.973286550414,20.0,15.0,5.0,0.75,898.0277200859435,5080.421908722742,26.0,13.0,13.0,0.5,2196.945526523442,48016.38864135476,18.0,4.0,14.0,0.2222222222222222,1423.5081600776878,23723.531714599583,84.0,42.0,42.0,0.5,71.72926067218341,11481.560695327016,0.0,0.0,0.0,0.0,12878.0,12922.0,12986.0,13004.0,13017.0,13043.0,13052.0,13069.0,13267.0,13350.0,0.022508060750172025,-0.14188166236369262,0.04360820955699018,-0.12530596284353884,0.006522352936387174
14,14,14647.56028974598,2052.6155544206113,12.23498573636152,14747.39728720115,-5789.409627716378,20.38372224778388,14777.500015314165,51557.24087026913,11.407364162344695,14803.60271279885,-11876.518822286109,10.797679384179212,15054.974794940335,10375.15099967664,31.61291367829389,0.9868501399971452,101.0,68.0,85.0,277.0,362.0,33.0,1751.0,1748.0,34.0,17.0,17.0,0.5,60.78999298377073,1925.7530336770023,21.0,16.0,5.0,0.7619047619047619,868.2242800079546,4129.370207873279,26.0,14.0,12.0,0.5384615384615384,2159.389974810348,45046.137258130824,19.0,5.0,14.0,0.2631578947368421,1377.5838273687698,23780.8750404667,79.0,40.0,39.0,0.5063291139240507,72.87917159740785,10737.945688506665,0.0,0.0,0.0,0.0,14631.0,14664.0,14732.0,14752.0,14764.0,14790.0,14799.0,14817.0,15016.0,15094.0,0.029615868813256573,-0.14996767128920951,0.04188335020184481,-0.11599222364585104,0.007024396232852829
15,15,15522.87012769416,2101.573656848177,11.881624724376069,15622.972626301009,-5910.9158214387735,14.701963917492137,15653.013110066897,50568.628627958235,11.353486157256144,15679.027373698991,-11430.102910156967,9.593579532972536,15930.292086034668,10614.04059277428,33.84396364164711,0.9886569484858002,101.0,69.0,84.0,279.0,363.0,32.0,875.0,875.0,32.0,16.0,16.0,0.5,64.31553951434412,2003.13158582586,21.0,16.0,5.0,0.7619047619047619,886.6489704237576,5243.168470050025,26.0,13.0,13.0,0.5,2177.4989681366515,47682.77669994858,18.0,4.0,14.0,0.2222222222222222,1427.706884965532,23688.570115012484,84.0,42.0,42.0,0.5,68.6863068162452,11093.246791265012,0.0,0.0,0.0,0.0,15507.0,15539.0,15608.0,15627.0,15640.0,15666.0,15675.0,15692.0,15889.0,15971.0,0.03060351432592707,-0.1500019619984943,0.04306027328043383,-0.12490761423476332,0.006471268525485458
16,16,16452.99438822046,2695.1475386591046,17.709467766390713,16554.747891613133,-6253.324603570525,10.36263899761868,16585.61109094615,50324.95688306148,11.159066838064442,16611.45203459914,-10889.369991447806,9.162111135348162,16864.224454785803,10502.11443722762,33.887302056790354,0.9917114181724772,111.0,62.0,82.0,281.0,363.0,49.0,928.0,933.0,49.0,22.0,27.0,0.4489795918367347,56.55457536155589,2591.3078843636977,19.0,14.0,5.0,0.7368421052631579,866.8137967707054,4348.915797343518,26.0,14.0,12.0,0.5384615384615384,2208.611043196315,46639.097696641824,18.0,4.0,14.0,0.2222222222222222,1463.2267491334449,23740.44201656175,84.0,42.0,42.0,0.5,71.35422115552046,11021.123582579818,0.0,0.0,0.0,0.0,16431.0,16480.0,16542.0,16560.0,16572.0,16598.0,16608.0,16624.0,16823.0,16905.0,0.02098385136633115,-0.13861647231230756,0.04388699325323607,-0.13437202981280097,0.006794271913719193
17,17,17309.634786890852,1318.4670992137471,7.473684751563682,17416.397287201147,-7119.166702095132,20.383723206912453,17445.94594214368,52989.35181519896,11.222064095379698,17472.027373698995,-12038.405892995375,12.679535067252033,17722.902962430224,9712.106545254355,30.041022660865455,0.9809084841909488,101.0,80.0,87.0,275.0,362.0,21.0,859.0,860.0,21.0,11.0,10.0,0.5238095238095238,71.58579748936953,1296.964389226178,21.0,16.0,5.0,0.7619047619047619,933.737040430416,3369.4404809305847,25.0,13.0,12.0,0.52,2224.2450937197,46319.05771401803,21.0,5.0,16.0,0.238095238095238,1405.361824958669,25014.105955450083,78.0,39.0,39.0,0.5,68.40870453618851,9932.410004260146,0.0,0.0,0.0,0.0,17299.0,17320.0,17400.0,17421.0,17433.0,17458.0,17468.0,17487.0,17685.0,17762.0,0.05429471659327632,-0.1311581930165538,0.04197532178685225,-0.11673986053056976,0.007043652601774142
18,18,18935.332783487407,1972.3899234411288,12.187445188192369,19039.972626301005,-6318.510800550535,17.83575780574522,19069.643412126992,50506.11863399955,11.372235172280572,19096.027373698995,-11856.310490751472,9.888070046834688,19345.733569614866,9878.86517860984,32.09499250533391,0.9857757610901654,103.0,73.0,86.0,277.0,363.0,30.0,1625.0,1624.0,32.0,16.0,16.0,0.5,65.69395952429188,1932.525592986626,23.0,18.0,5.0,0.782608695652174,906.255102609124,5196.293748964512,25.0,13.0,12.0,0.52,2157.1666469084694,45836.45946267999,18.0,4.0,14.0,0.2222222222222222,1404.4800879746194,23815.576341297616,81.0,41.0,40.0,0.5061728395061729,70.98924301897951,10311.904620277874,0.0,0.0,0.0,0.0,18920.0,18950.0,19023.0,19044.0,19057.0,19082.0,19092.0,19109.0,19306.0,19386.0,0.033306781150898884,-0.143428591200661,0.04271099631592586,-0.11845844363389317,0.007185971438570554
19,19,19780.57065895365,1237.882130948376,6.605702040781959,19885.213506459982,-6749.696196744207,20.383723206912453,19917.139938065386,51617.44522630247,11.227950751783368,19943.027373698995,-11742.491818205326,12.155479599953592,20194.584125208843,9601.831464803434,30.407672135226775,0.9779377747011831,98.0,79.0,88.0,276.0,364.0,19.0,847.0,847.0,19.0,10.0,9.0,0.5263157894736842,77.15996176774183,1179.0772970979842,23.0,16.0,7.0,0.6956521739130435,737.7091544690364,584.3385129918809,25.0,13.0,12.0,0.52,2179.3838181918445,46122.21782550376,20.0,5.0,15.0,0.25,1409.802630134091,24606.52970585444,78.0,40.0,38.0,0.5128205128205128,68.24381349491328,9845.916790084546,0.0,0.0,0.0,0.0,19771.0,19790.0,19869.0,19892.0,19904.0,19929.0,19939.0,19957.0,20156.0,20233.0,0.062332236518049935,-0.10929516425122643,0.04222184590184455,-0.12005992015667075,0.007107374644625712
20,20,20643.858562912465,1836.6003621339432,10.851247324520926,20750.397287201147,-6330.629193183473,20.383723206911384,20780.41572243055,52673.497556351205,11.241419714361443,20806.602712798853,-11620.557073498616,11.8287888828849,21057.398733786355,9727.119846570193,31.758894922547235,0.9854533476426922,104.0,77.0,87.0,276.0,363.0,27.0,862.0,864.0,27.0,14.0,13.0,0.5185185185185185,71.10456740149202,1771.6819424315725,21.0,16.0,5.0,0.7619047619047619,876.4681187082821,3535.922667320326,26.0,13.0,13.0,0.5,2202.2989411885856,48260.20995886835,20.0,5.0,15.0,0.25,1357.7291336477351,23846.111073348315,80.0,40.0,40.0,0.5,75.17295858329301,10242.21905425705,0.0,0.0,0.0,0.0,20630.0,20657.0,20734.0,20755.0,20767.0,20793.0,20802.0,20821.0,21018.0,21097.0,0.03871531818651921,-0.13844881637547532,0.04181037985625542,-0.11683855817412735,0.007728182624356087
21,21,22238.46209800929,1783.9678483388366,12.32258336550142,22347.397287201147,-6159.462577886166,20.38372320586024,22377.00868863969,51052.712401280136,11.371382730608646,22403.027373698995,-11877.211136700593,11.120695216483824,22653.307765272108,9744.10669904281,30.42678155813696,0.9841320419256404,108.0,78.0,86.0,274.0,360.0,30.0,1596.0,1596.0,30.0,15.0,15.0,0.5,61.542220234722144,1793.1406953375526,22.0,17.0,5.0,0.7727272727272727,885.8394632801283,4516.448287474511,25.0,13.0,12.0,0.52,2140.2446723773905,45756.23874651722,19.0,4.0,15.0,0.2105263157894736,1406.8207872772596,24296.48068608378,76.0,38.0,38.0,0.5,77.14907495286947,10159.865133738478,0.0,0.0,0.0,0.0,22223.0,22253.0,22331.0,22352.0,22364.0,22389.0,22399.0,22417.0,22616.0,22691.0,0.03449738194106353,-0.14381765488120474,0.04192225195705222,-0.11844706396859293,0.007917511305623124
22,22,23084.38023800637,2089.779437117014,14.49066203669573,23194.972626301005,-6521.6136181722395,15.116139418468125,23224.545961326017,50215.89788032719,11.279263076026036,23251.027373698995,-11641.036600934587,10.28570346098111,23501.679633835553,9342.94980115108,29.796470422664047,0.988875638073766,112.0,79.0,85.0,275.0,360.0,33.0,845.0,848.0,33.0,17.0,16.0,0.5151515151515151,65.7274226237867,2114.2541845397236,22.0,17.0,5.0,0.7727272727272727,920.3546733559054,5104.77755572882,25.0,13.0,12.0,0.52,2188.113840800732,45660.52334542386,19.0,5.0,14.0,0.2631578947368421,1376.0201996820424,23606.999743136537,76.0,38.0,38.0,0.5,69.75017754878675,9585.687094442888,0.0,0.0,0.0,0.0,23067.0,23100.0,23179.0,23199.0,23212.0,23237.0,23247.0,23264.0,23464.0,23539.0,0.03145184676257602,-0.14112376587158898,0.04357412558897921,-0.11820426709865084,0.0074655412940561145
23,23,24006.003530935872,1743.3976761935633,12.829510350083568,24115.397287201147,-6513.818416368626,17.33101355641441,24144.653231402022,51247.11315535954,11.25677228369142,24171.027373698995,-11667.944273663754,10.633633677562624,24424.244575865265,9251.423568969309,31.883143054892287,0.9857269237599948,109.0,79.0,85.0,279.0,364.0,30.0,923.0,920.0,30.0,15.0,15.0,0.5,59.86351351272206,1742.4634713160683,21.0,16.0,5.0,0.7619047619047619,922.5888532425946,4604.4675169490265,25.0,13.0,12.0,0.52,2204.3393006589467,46212.70230405993,19.0,5.0,14.0,0.2631578947368421,1391.70677284,23940.61504427968,80.0,40.0,40.0,0.5,66.98684449845113,9571.515671013363,0.0,0.0,0.0,0.0,23991.0,24021.0,24100.0,24120.0,24132.0,24157.0,24167.0,24185.0,24384.0,24464.0,0.034337268157558117,-0.14163564199521034,0.04301392146668484,-0.11927609013194247,0.007240706686821179
24,24,24947.65968992429,1866.4122735644569,14.045194913081009,25058.397287201147,-7801.552866763355,14.192403997778165,25087.12825424983,50631.614512314445,11.39331830796595,25113.602712798853,-12255.577889184187,11.730161569228429,25366.343067899896,9569.58699938637,32.67535321146688,0.9892375986139136,113.0,79.0,85.0,278.0,363.0,34.0,940.0,942.0,34.0,18.0,16.0,0.5294117647058824,55.256457716196,1773.9679236511586,21.0,16.0,5.0,0.7619047619047619,995.6631731450728,4885.721756427209,25.0,13.0,12.0,0.52,2195.194327450051,47044.03573069724,20.0,5.0,15.0,0.25,1330.825353453739,23774.665131644975,81.0,40.0,41.0,0.4938271604938271,68.97936686835288,10035.233974155057,0.0,0.0,0.0,0.0,24930.0,24964.0,25043.0,25063.0,25074.0,25099.0,25109.0,25128.0,25327.0,25406.0,0.0296057085022634,-0.12762371673296696,0.04335619846600276,-0.10858935951345232,0.007208186400601827
25,25,25850.36591828521,1953.4216126671404,14.490861490454604,25959.972626301005,-6614.298996912118,14.265742839240144,25989.999318535298,50129.76902418512,11.461794858166757,26016.027373698995,-11716.595764325588,10.052625413668176,26267.51375663597,9979.144990509856,33.76407926013682,0.9907608287041104,112.0,79.0,85.0,278.0,363.0,33.0,904.0,903.0,33.0,17.0,16.0,0.5151515151515151,63.019213063223326,1989.658643524009,21.0,16.0,5.0,0.7619047619047619,906.3469770266984,4827.682242360537,26.0,13.0,13.0,0.5,2156.306242662257,47055.39292782414,19.0,4.0,15.0,0.2105263157894736,1417.3297956789534,23823.239220197054,83.0,42.0,41.0,0.5060240963855421,69.83302875601949,10496.463639784775,0.0,0.0,0.0,0.0,25833.0,25866.0,25945.0,25964.0,25977.0,26003.0,26012.0,26030.0,26227.0,26308.0,0.03226093775894026,-0.13702842545367633,0.04301448589603408,-0.12096771316412618,0.006997896996429107
26,26,26763.423085537008,1982.6286031020684,14.36327684885459,26871.972626301005,-6856.347123952811,14.853438232728546,26901.59371790111,50567.84502274057,11.479535717960545,26927.027373698995,-12119.369953346124,10.612387394415409,27180.822019802086,9656.922937414403,32.68622178269224,0.98907508628234,110.0,77.0,85.0,280.0,365.0,33.0,913.0,912.0,33.0,17.0,16.0,0.5151515151515151,62.52597975106082,1995.7273177866896,22.0,17.0,5.0,0.7727272727272727,942.8057252604934,5300.431267193726,26.0,14.0,12.0,0.5384615384615384,2188.2615740167603,45433.325104914366,19.0,4.0,15.0,0.2105263157894736,1464.8482329656822,24705.520303496203,82.0,41.0,41.0,0.5,62.08811400704247,9923.373103161306,0.0,0.0,0.0,0.0,26746.0,26779.0,26856.0,26876.0,26888.0,26914.0,26923.0,26941.0,27140.0,27221.0,0.03153690996550295,-0.13750845869031036,0.04327377551945688,-0.12086834865217079,0.006429388989580803
27,27,27644.673626279888,1688.8761701890833,12.08742765467764,27752.972626301005,-6749.195065729654,16.290181901355865,27782.62170360767,50881.39550912156,11.388400683245312,27808.027373698995,-12071.606016190102,11.007438812779482,28061.1000254524,9493.17218170435,31.595935320339233,0.9859022074957002,108.0,79.0,85.0,279.0,364.0,29.0,879.0,881.0,30.0,16.0,14.0,0.5333333333333333,60.20726967742129,1589.430681389516,22.0,17.0,5.0,0.7727272727272727,931.648616811298,4966.8735385884065,25.0,13.0,12.0,0.52,2195.811711396959,45239.04323077043,20.0,4.0,16.0,0.2,1456.6918788131577,24812.99210363556,82.0,41.0,41.0,0.5,69.2319027357662,9863.074011671046,0.0,0.0,0.0,0.0,27629.0,27658.0,27737.0,27757.0,27770.0,27795.0,27804.0,27822.0,28021.0,28101.0,0.035649309724513786,-0.1380384783278712,0.04315549307218418,-0.12067092620977549,0.007292810180899583
28,28,29205.86320946571,2853.3067073898037,19.710644219714936,29315.53880906184,-6406.300146355968,10.590213015314418,29346.355951161015,48975.57832378823,11.262071256096563,29372.602712798853,-11654.804946194014,9.97271197114683,29618.524479685027,10206.548404229,35.060953386569096,0.9926907300375912,120.0,66.0,84.0,275.0,359.0,54.0,1561.0,1563.0,56.0,25.0,31.0,0.4464285714285714,53.9664820869162,2676.720385100089,19.0,14.0,5.0,0.7368421052631579,877.5375728056903,4562.778779186327,26.0,13.0,13.0,0.5,2135.8301888697615,47054.41003274818,19.0,5.0,14.0,0.2631578947368421,1336.8951315441816,22810.824838962333,85.0,43.0,42.0,0.5058823529411764,63.69532794390853,10708.74926009235,0.0,0.0,0.0,0.0,29182.0,29236.0,29302.0,29321.0,29333.0,29359.0,29368.0,29386.0,29578.0,29661.0,0.018913663205973597,-0.13698040253465976,0.04361010654635505,-0.11470763669715102,0.00624063350520308
29,29,30835.976687615777,1670.794670320954,12.739702653423205,30947.972626301005,-6328.028293906004,17.835757806047305,30977.54507186991,50905.66713475047,11.279642484280668,31003.45203459914,-11658.602629870811,10.037427812580994,31253.659693641825,9655.4640100172,31.883767200093207,0.9879016730188094,112.0,81.0,85.0,276.0,361.0,31.0,1632.0,1632.0,31.0,16.0,15.0,0.5161290322580645,53.924008300434934,1622.1697288126124,22.0,17.0,5.0,0.7727272727272727,920.9032425501936,5002.591618676448,25.0,13.0,12.0,0.52,2192.5312017890788,45676.30799559897,19.0,4.0,15.0,0.2105263157894736,1469.583309315374,24555.263768877227,79.0,40.0,39.0,0.5063291139240507,68.81121497253798,9985.419213563622,0.0,0.0,0.0,0.0,30820.0,30851.0,30932.0,30952.0,30965.0,30990.0,31000.0,31017.0,31214.0,31293.0,0.032274467508372116,-0.14552767462134114,0.043070473784093864,-0.12605141078829774,0.007126660603897317
30,30,31784.13863266292,1873.022328659144,13.96863197722083,31893.972626301005,-6673.092207060979,16.784843251401867,31923.196575933092,51326.10167805973,11.3471402656141,31949.027373698995,-11739.841088262056,10.695155443562031,32201.929874666916,9489.742608570978,31.90089666781172,0.989382411042801,111.0,78.0,85.0,278.0,363.0,33.0,948.0,945.0,33.0,17.0,16.0,0.5151515151515151,57.718682569516915,1853.605075783854,21.0,17.0,4.0,0.8095238095238095,967.524381218282,5648.148590329079,26.0,13.0,13.0,0.5,2193.6862452033215,47754.56539888542,19.0,4.0,15.0,0.2105263157894736,1432.1860265810576,24355.585017258418,81.0,41.0,40.0,0.5061728395061729,62.0738150089787,9755.13028489714,0.0,0.0,0.0,0.0,31767.0,31800.0,31878.0,31898.0,31910.0,31936.0,31945.0,31963.0,32162.0,32241.0,0.030815800584094725,-0.14498891236577224,0.04274016871499618,-0.1219936467464634,0.006541148434617674
31,31,32721.54204798609,2555.757072472629,17.18506926137879,32828.97262630059,-7179.98317641424,11.695879533379044,32858.14834612375,49960.23441689218,11.363731724393556,32884.027373699006,-11660.049660386,10.164740551513832,33135.19912537287,10087.60231401341,34.848044199826916,0.9936648976686184,113.0,69.0,84.0,279.0,363.0,44.0,937.0,935.0,45.0,21.0,24.0,0.4666666666666667,59.83201163827293,2466.3473475291858,20.0,16.0,4.0,0.8,987.05795627051,5867.401509526135,26.0,13.0,13.0,0.5,2196.3170364550388,47633.959949929405,19.0,4.0,15.0,0.2105263157894736,1413.9998864894696,23821.71460741163,85.0,42.0,43.0,0.4941176470588235,67.75269022380884,10612.3377120833,0.0,0.0,0.0,0.0,32701.0,32745.0,32814.0,32833.0,32845.0,32871.0,32880.0,32898.0,33094.0,33177.0,0.023410680257019503,-0.1374735750792465,0.043961303666590415,-0.12126877051762573,0.0067164315280043045
32,32,33563.079552958196,1414.6036956207931,10.579525217996284,33669.972626301,-6602.3726375339775,17.83575773736507,33699.29793445804,50824.773447242056,11.357317320199773,33725.60271279886,-12127.395185967202,11.61428574105378,33974.91885370369,9659.718955209097,30.7032661408371,0.983033656018748,105.0,79.0,86.0,274.0,360.0,26.0,840.0,841.0,26.0,14.0,12.0,0.5384615384615384,56.667182624833686,1377.0729491558673,22.0,17.0,5.0,0.7727272727272727,953.332249532746,5307.311955854749,26.0,13.0,13.0,0.5,2147.433790975412,46700.443243918446,20.0,5.0,15.0,0.25,1342.5405629106965,23781.797631517933,78.0,39.0,39.0,0.5,70.18752403329071,9976.912813448029,0.0,0.0,0.0,0.0,33549.0,33575.0,33654.0,33674.0,33686.0,33712.0,33721.0,33740.0,33936.0,34014.0,0.040058698277304815,-0.14439237254091444,0.042251713983625046,-0.11070312646067403,0.007266000631979195
33,33,34425.22335925586,1648.8342292862596,11.29135330529884,34535.972626301,-6736.886701798282,17.8357578060484,34565.74639739714,51030.68939020774,11.389490724531834,34591.60271279886,-12189.332464215511,11.646870485212006,34842.192297625494,9647.036129826243,30.65924193536573,0.981874376633817,110.0,81.0,86.0,275.0,361.0,29.0,864.0,867.0,29.0,15.0,14.0,0.5172413793103449,61.18191616975378,1602.1115997089848,23.0,18.0,5.0,0.782608695652174,922.381559134522,4709.791448699196,25.0,13.0,12.0,0.52,2169.889980362994,45034.39625969183,19.0,5.0,14.0,0.2631578947368421,1386.7088846303002,24278.193103070444,78.0,39.0,39.0,0.5,73.88123610866585,10040.128568619468,0.0,0.0,0.0,0.0,34410.0,34439.0,34520.0,34540.0,34553.0,34578.0,34587.0,34606.0,34804.0,34881.0,0.03710616572791429,-0.13691510633365855,0.04252127506588953,-0.11376413669093789,0.007658438831823526
34,34,35305.681651918436,1888.718403633849,14.633166295161008,35415.972626301,-6539.0990974940405,15.151875497337656,35445.29364019766,50518.09810444575,11.376827016135682,35471.027373699,-11814.5452678784,10.374696337712418,35722.626345365876,9939.766572355256,31.853884747875252,0.987941537031966,113.0,78.0,85.0,277.0,362.0,35.0,880.0,879.0,35.0,19.0,16.0,0.5428571428571428,55.87133016253815,1800.652173749856,21.0,17.0,4.0,0.8095238095238095,946.1911120635576,5804.931887364828,26.0,13.0,13.0,0.5,2179.244953213621,47742.91721984493,19.0,4.0,15.0,0.2105263157894736,1436.8768158545186,24271.088842586498,79.0,40.0,39.0,0.5063291139240507,64.99695438757122,10246.976529630483,0.0,0.0,0.0,0.0,35287.0,35322.0,35400.0,35420.0,35432.0,35458.0,35467.0,35485.0,35683.0,35762.0,0.0295816094421715,-0.14469747253504137,0.04313790572060037,-0.12161930766485997,0.006539082574468347
35,35,36211.332720760096,2320.224574798429,15.934101078748238,36318.63879767544,-6889.395191304908,11.798690961908186,36348.42094067128,50226.5148935205,11.213131697749407,36375.027373699,-11470.94385669508,10.252974937242955,36625.417778528106,9950.374797269344,32.948817686375826,0.9907968670665084,113.0,71.0,84.0,278.0,362.0,42.0,905.0,903.0,43.0,20.0,23.0,0.4651162790697674,57.65840427920914,2222.7983689699713,20.0,15.0,5.0,0.75,960.019651670178,5431.982347756491,26.0,13.0,13.0,0.5,2200.0644386494114,48760.07940581951,19.0,5.0,14.0,0.2631578947368421,1360.8880952909465,23341.965852381913,84.0,42.0,42.0,0.5,65.96439695178651,10390.911123008447,0.0,0.0,0.0,0.0,36191.0,36233.0,36304.0,36323.0,36335.0,36361.0,36371.0,36388.0,36585.0,36666.0,0.024850354963686327,-0.1393474499592964,0.043802848820259914,-0.11863784813981604,0.006629337918998685
36,36,37031.931147340765,1284.462138020441,8.416007642554352,37142.39728720114,-6770.896647724465,20.383723206912453,37171.930494553744,51779.26641753592,11.266385427146838,37198.027373699,-11922.585465271182,12.979837487248275,37446.692902170296,9537.839033433596,30.51705443907414,0.9826545902362198,106.0,83.0,87.0,272.0,359.0,23.0,823.0,824.0,23.0,12.0,11.0,0.5217391304347826,62.799045356210534,1234.7023732924222,22.0,17.0,5.0,0.7727272727272727,910.8117160939648,3670.37543806346,25.0,13.0,12.0,0.52,2160.587686686682,44927.07052908121,21.0,5.0,16.0,0.238095238095238,1373.8192377457976,24608.569079453337,79.0,40.0,39.0,0.5063291139240507,71.86033345450717,9890.12561121282,0.0,0.0,0.0,0.0,37020.0,37043.0,37126.0,37147.0,37159.0,37184.0,37194.0,37213.0,37408.0,37485.0,0.04889131683787409,-0.13451862633290476,0.041726888698349014,-0.11522829857228033,0.007534236340392258
37,37,37869.869226203984,1378.134412421362,9.466595809053532,37980.972626301,-6805.042914259701,17.83575780593004,38010.54995489149,50773.54018419838,11.436399431528796,38036.027373699,-12409.21675551701,10.919355445773729,38286.87245257557,9582.122929459609,30.58041889152935,0.9836500611580652,107.0,82.0,86.0,275.0,361.0,25.0,838.0,839.0,25.0,13.0,12.0,0.52,60.25988528469353,1303.7967395985938,23.0,18.0,5.0,0.782608695652174,933.6188524872476,4984.292695410702,25.0,13.0,12.0,0.52,2174.8327622581655,44525.519308978844,19.0,4.0,15.0,0.2105263157894736,1465.71182436311,25031.83002620799,77.0,39.0,38.0,0.5064935064935064,74.27991833545684,10006.40286628671,0.0,0.0,0.0,0.0,37857.0,37882.0,37964.0,37985.0,37998.0,38023.0,38032.0,38050.0,38249.0,38325.0,0.043725695216345256,-0.1371951454605651,0.042833979162536555,-0.11811477333663864,0.007751927091969161
38,38,38727.07209958791,1784.63417250019,10.936145520029894,38839.39728720114,-6377.515955626237,20.383723206912453,38868.77143418086,52277.863740018154,11.264370025532868,38894.60271279886,-11632.944956058893,11.91623843337949,39146.53726016181,9434.583232001283,29.845989309330804,0.9820671925517572,109.0,81.0,87.0,275.0,362.0,28.0,857.0,858.0,28.0,14.0,14.0,0.5,68.60470036571184,1739.846031383456,23.0,18.0,5.0,0.782608695652174,911.933837061501,4685.28644752494,25.0,13.0,12.0,0.52,2201.3650439857697,45677.131524125274,19.0,5.0,14.0,0.2631578947368421,1380.023899675955,24046.61351492095,77.0,40.0,37.0,0.5194805194805194,68.71625087180722,9674.8480584192,0.0,0.0,0.0,0.0,38713.0,38741.0,38822.0,38844.0,38856.0,38881.0,38890.0,38909.0,39108.0,39184.0,0.03844188429363079,-0.1429920118438895,0.04210893266284422,-0.11863065671579444,0.00728344317730196
39,39,39625.861296264746,2460.6545358092694,16.23918928493444,39733.972626301,-6912.902688863781,12.223607497173608,39763.522831857685,50219.775523849166,11.23183469798324,39790.027373699,-11295.62838758177,9.786089532793238,40040.396006715535,9618.437025994032,34.17528894649387,0.9935538554755686,112.0,74.0,84.0,279.0,363.0,38.0,896.0,895.0,40.0,20.0,20.0,0.5,66.50254930364541,2373.087064937114,20.0,15.0,5.0,0.75,944.712092757238,5119.3291675148985,25.0,13.0,12.0,0.52,2214.5215106052037,46447.549707059195,18.0,4.0,14.0,0.2222222222222222,1371.4859593611852,23153.58888194267,84.0,42.0,42.0,0.5,65.18161180714496,10134.497723306684,0.0,0.0,0.0,0.0,39607.0,39645.0,39719.0,39738.0,39751.0,39776.0,39786.0,39803.0,39999.0,40082.0,0.027026365682728315,-0.13665924941762964,0.0440966031310422,-0.12141741143582367,0.0067767363482227165
40,40,41283.72902221734,1243.8608474378843,8.865868151893752,41395.39728720114,-6818.663275705794,20.383723206912453,41425.146277901826,51758.52006755213,11.36386806794088,41451.027373699,-12005.654483453429,12.13888130477645,41701.89263316399,9153.511573694896,28.10384257847105,0.979204323679328,106.0,82.0,87.0,273.0,360.0,24.0,1660.0,1661.0,24.0,12.0,12.0,0.5,57.15822323701584,1152.714062471453,24.0,19.0,5.0,0.7916666666666666,886.3684991722272,3891.405597584372,25.0,13.0,12.0,0.52,2159.17104419001,46004.31334296272,19.0,4.0,15.0,0.2105263157894736,1419.7146171285135,24790.329835930857,73.0,37.0,36.0,0.5068493150684932,75.42750148501194,9391.894687233818,0.0,0.0,0.0,0.0,41272.0,41296.0,41378.0,41400.0,41412.0,41437.0,41447.0,41465.0,41666.0,41738.0,0.04595226496175264,-0.12999153401961763,0.041716243844916526,-0.11825382940057194,0.008240280342439657
41,41,42111.67651271527,1237.732457688223,8.501938535749455,42223.30289730716,-7077.848343419867,20.383723206912453,42254.5846372743,52019.4643635074,11.244009088599393,42280.027373699,-12194.821070405416,12.394067621516689,42530.182388080626,9333.957450473652,29.483542597856943,0.9827877651998392,107.0,84.0,88.0,272.0,360.0,23.0,830.0,830.0,23.0,12.0,11.0,0.5217391304347826,59.424025908285536,1117.6101080104827,23.0,16.0,7.0,0.6956521739130435,781.4885351013083,1054.5212990023697,25.0,13.0,12.0,0.52,2206.975753492229,44256.52045862896,20.0,4.0,16.0,0.2,1448.1334848281736,25353.539063858945,76.0,38.0,38.0,0.5,73.1065263135666,9649.181439168797,0.0,0.0,0.0,0.0,42100.0,42123.0,42207.0,42230.0,42242.0,42267.0,42276.0,42295.0,42493.0,42567.0,0.048010396381844,-0.11041329189086715,0.042425960753268786,-0.11874987557976777,0.007832318360296018
42,42,43662.565428535614,2206.780909129565,16.435404260637917,43774.24690578044,-5981.811028540089,11.4570514062594,43805.70327342311,49052.87269934664,11.281380873661076,43832.027373699,-11495.252598187131,9.488661804925425,44077.88998537883,9888.985530229904,31.40583853652348,0.9916717078621448,119.0,82.0,84.0,272.0,356.0,37.0,1548.0,1551.0,37.0,21.0,16.0,0.5675675675675675,61.64667005026262,2092.8322465400215,19.0,13.0,6.0,0.6842105263157895,769.3325030777305,2813.2545167833377,26.0,14.0,12.0,0.5384615384615384,2133.311437275565,45423.23405939821,17.0,4.0,13.0,0.2352941176470588,1386.036306719247,23228.31267483293,79.0,40.0,39.0,0.5063291139240507,66.65982507192602,10193.090586073966,0.0,0.0,0.0,0.0,43642.0,43679.0,43761.0,43780.0,43792.0,43818.0,43828.0,43845.0,44039.0,44117.0,0.027935111181734088,-0.12861197042285913,0.04349004084533421,-0.12057467157684147,0.006740815310948917
43,43,44535.01468678744,1554.81105517621,11.891610883227177,44644.972626301,-5950.9368082953415,16.256557702012987,44674.730347599216,50387.23995208873,11.2985263893173,44701.027373699,-11310.07063519987,9.340888392493383,44949.271236940695,9674.54642926857,31.85805925322751,0.9874800266009772,110.0,82.0,84.0,275.0,359.0,28.0,873.0,869.0,28.0,15.0,13.0,0.5357142857142857,59.47995346926293,1525.171851612992,21.0,17.0,4.0,0.8095238095238095,896.9368141062387,5278.330633638685,25.0,13.0,12.0,0.52,2165.897799543188,46699.65228158225,17.0,4.0,13.0,0.2352941176470588,1404.5598941929477,23308.694246162497,80.0,40.0,40.0,0.5,66.37376788655493,10042.900829287208,0.0,0.0,0.0,0.0,44520.0,44548.0,44630.0,44649.0,44662.0,44687.0,44697.0,44714.0,44910.0,44989.0,0.03825542227220782,-0.1507219523581478,0.04298504545203619,-0.12418665979163679,0.006860659398538131
44,44,45494.31680094974,1998.9830375195684,16.18509613332123,45599.972626301,-7090.674508162412,12.48236380486992,45629.59744808243,49816.796046717216,11.350327522182244,45656.027373699,-11672.100313130588,10.4877003524706,45904.96969993947,9868.553232797583,33.45663280043916,0.9917515251990524,112.0,65.0,85.0,276.0,361.0,47.0,958.0,955.0,48.0,21.0,27.0,0.4375,43.02035319990036,1938.1151295272423,21.0,16.0,5.0,0.7619047619047619,944.6526120045768,4978.74841214487,26.0,14.0,12.0,0.5384615384615384,2181.794056163082,45719.51064893813,19.0,4.0,15.0,0.2105263157894736,1367.8503031298062,23537.4827384385,84.0,42.0,42.0,0.5,62.53568133440743,10249.065378829851,0.0,0.0,0.0,0.0,45473.0,45520.0,45585.0,45604.0,45616.0,45642.0,45652.0,45670.0,45864.0,45946.0,0.021521119685578738,-0.13322464751655747,0.04379635442867579,-0.11718973161934156,0.006336864164300558
45,45,46374.18166368856,2538.3534987267344,18.63733259896151,46481.79443696908,-6684.071931849595,11.744592182269493,46512.27990364959,49330.11143571629,11.469312596523723,46538.027373699,-12105.936273662031,10.222916676187412,46786.8537845846,10269.840004077676,32.74854091207033,0.9924163966515488,117.0,68.0,84.0,275.0,359.0,49.0,881.0,882.0,49.0,23.0,26.0,0.4693877551020408,58.09022700589002,2531.26249188416,20.0,15.0,5.0,0.75,899.1114801770343,4662.469377246589,26.0,13.0,13.0,0.5,2138.422205660835,46836.690808098036,19.0,4.0,15.0,0.2105263157894736,1429.370064398913,24191.86307773221,81.0,41.0,40.0,0.5061728395061729,74.9801288989295,10809.053287897954,0.0,0.0,0.0,0.0,46351.0,46400.0,46468.0,46486.0,46499.0,46525.0,46534.0,46552.0,46747.0,46827.0,0.022885002831571216,-0.1345155302552579,0.043349227143901436,-0.11807183121463188,0.0073010026318967355
46,46,47292.983549198165,1833.9536753986552,14.799364246465984,47402.972626301,-6266.3866091647715,14.547239475280628,47432.94813074234,49852.30690032996,11.396169399858016,47459.027373699,-11767.44486564829,9.544508882987827,47709.70378748187,10112.59838815708,32.380745143458924,0.9897471986708352,113.0,79.0,84.0,278.0,362.0,34.0,919.0,921.0,34.0,18.0,16.0,0.5294117647058824,56.198365002408245,1796.1749196314845,21.0,16.0,5.0,0.7619047619047619,892.5063093583136,5029.28179855949,26.0,13.0,13.0,0.5,2153.4711873824103,46816.13619465198,18.0,4.0,14.0,0.2222222222222222,1426.3651821523104,23788.4560579802,81.0,41.0,40.0,0.5061728395061729,72.75977078530613,10529.520657867675,0.0,0.0,0.0,0.0,47275.0,47309.0,47388.0,47407.0,47420.0,47446.0,47455.0,47472.0,47670.0,47750.0,0.030643284918411118,-0.1424275846710443,0.043197021788537474,-0.121212820492253,0.007194962955368178
47,47,48239.05388284165,1693.1937332887333,12.723680271225025,48346.39728720114,-6925.244857533395,13.723050348336145,48375.7062923373,50279.88976250757,11.358579896919537,48402.027373699,-11716.005186296654,9.89515905520734,48652.45311553104,10112.224461616512,33.62647553847772,0.9903005095047536,108.0,77.0,84.0,279.0,363.0,31.0,945.0,943.0,31.0,16.0,15.0,0.5161290322580645,57.263780692033066,1664.4650197931785,21.0,16.0,5.0,0.7619047619047619,923.9270115693096,4801.947270551002,25.0,13.0,12.0,0.52,2195.190044847745,46720.43761278584,18.0,4.0,14.0,0.2222222222222222,1402.217139679896,23692.01957211708,84.0,42.0,42.0,0.5,69.60735017889147,10577.170782796196,0.0,0.0,0.0,0.0,48223.0,48254.0,48331.0,48351.0,48363.0,48388.0,48398.0,48415.0,48611.0,48694.0,0.03381998147418616,-0.1334143457128807,0.04365940448987703,-0.1196838954390329,0.006883485472766516
48,48,49097.0612345657,1607.1734979866376,10.5217525007172,49204.39728720114,-7311.742011323242,15.039752811513171,49233.9768647923,50037.784321540516,11.403274977893606,49260.027373699,-12027.137235340177,11.71139960779592,49509.2436272602,9754.034983221389,31.489447458586763,0.9855411441120993,106.0,79.0,86.0,273.0,359.0,27.0,858.0,858.0,27.0,14.0,13.0,0.5185185185185185,61.62428322816543,1567.067076347245,21.0,16.0,5.0,0.7619047619047619,910.9300335719312,3759.548511632641,25.0,13.0,12.0,0.52,2158.8933340707504,45649.66808132385,20.0,4.0,16.0,0.2,1380.5367766733248,24237.399985409967,80.0,40.0,40.0,0.5,72.06570867119784,10201.739911166362,0.0,0.0,0.0,0.0,49083.0,49110.0,49189.0,49209.0,49221.0,49246.0,49256.0,49275.0,49470.0,49548.0,0.03834326742281672,-0.12458454252915793,0.043145262392071566,-0.11478515208230909,0.007388297129871197
49,49,50010.26166395644,2034.1966773315924,16.08350640838087,50116.972626301,-6522.890105107774,12.803028113024036,50147.04358872196,49784.49752538678,11.405283923106383,50173.027373699,-11671.070822953494,9.734113456803778,50424.25924940511,10153.868246703918,33.57472618938425,0.989132664912896,112.0,70.0,84.0,279.0,363.0,42.0,913.0,913.0,43.0,20.0,23.0,0.4651162790697674,53.066662289704475,1941.3984419308608,21.0,16.0,5.0,0.7619047619047619,903.2499283175388,4905.832656709576,26.0,13.0,13.0,0.5,2159.2567626354707,47094.828956722704,18.0,4.0,14.0,0.2222222222222222,1424.2157858414046,23771.884914996117,85.0,43.0,42.0,0.5058823529411764,68.41633839247042,10619.6636542048,0.0,0.0,0.0,0.0,49990.0,50032.0,50102.0,50121.0,50134.0,50160.0,50169.0,50186.0,50382.0,50465.0,0.026087281962979103,-0.1384738840855598,0.04337207102541094,-0.12202957273126983,0.006737958059942257
50,50,50952.33319684215,3104.3423387458683,22.211369172760996,51059.40952012785,-6086.8780238116115,9.72299870388444,51090.417228894425,50388.59000334635,11.057098648598146,51116.45203459914,-10467.128422064094,8.7994643133041,51366.29217754991,10451.343554501593,37.49930405840577,0.995210358789846,122.0,62.0,82.0,282.0,364.0,60.0,942.0,944.0,60.0,27.0,33.0,0.45,61.29440958355849,3097.174414154787,18.0,12.0,6.0,0.6666666666666666,799.0417591922359,3145.3742425002315,26.0,13.0,13.0,0.5,2190.1580803818574,49263.85798137176,18.0,4.0,14.0,0.2222222222222222,1442.9569573765807,23201.581970619423,89.0,44.0,45.0,0.4943820224719101,62.81923904719751,11100.150068332992,0.0,0.0,0.0,0.0,50925.0,50985.0,51047.0,51065.0,51077.0,51103.0,51113.0,51129.0,51323.0,51411.0,0.01974473266641107,-0.13127283905910683,0.043465357539006495,-0.13785604792379463,0.006010637648605482
51,51,52702.70842031048,1015.965965272877,7.050869896804128,52811.71496087174,-6599.811729475502,20.383723206912453,52843.70482423505,51637.00752537505,11.324813507316296,52869.027373699,-12296.324799612155,12.386936113550364,53120.68858620191,9591.802665063313,29.179500367659248,0.9797367997114108,104.0,83.0,88.0,274.0,362.0,21.0,1752.0,1753.0,21.0,11.0,10.0,0.5238095238095238,59.759588733481145,911.8454888714364,22.0,16.0,6.0,0.7272727272727273,782.2236590835862,1499.2879698784757,26.0,14.0,12.0,0.5384615384615384,2172.634525922083,44144.10811122045,20.0,4.0,16.0,0.2,1463.3986498651698,25484.658264845697,75.0,38.0,37.0,0.5066666666666667,73.75762298478976,9801.396983094906,0.0,0.0,0.0,0.0,52692.0,52713.0,52796.0,52818.0,52830.0,52856.0,52865.0,52884.0,53083.0,53158.0,0.05882046325974157,-0.11852211716738635,0.042075143972168105,-0.11901106011052405,0.0076896518371297115
52,52,53608.45655765749,2324.0190064973413,16.261153993577064,53717.39728720114,-6716.843892041287,13.165506578459851,53747.11812538443,50089.93233706618,11.33060469311549,53773.027373699,-11548.536697844542,9.893941078252803,54023.88070056122,9806.560307114283,32.22667850374592,0.9900858434795444,115.0,74.0,83.0,278.0,361.0,41.0,905.0,903.0,41.0,20.0,21.0,0.4878048780487805,61.74119982834008,2328.4182849749923,20.0,15.0,5.0,0.75,892.0516285685386,4282.893361121554,26.0,13.0,13.0,0.5,2187.508190045122,47584.63188777263,18.0,4.0,14.0,0.2222222222222222,1421.721709967579,23799.98738532677,81.0,40.0,41.0,0.4938271604938271,63.848345773957405,10117.475369294243,0.0,0.0,0.0,0.0,53588.0,53629.0,53703.0,53722.0,53734.0,53760.0,53769.0,53786.0,53984.0,54064.0,0.02656656406669999,-0.1328081525946316,0.04367161399470252,-0.12310838569123082,0.006510778884175921
53,53,54557.296277487214,1626.5064203459835,11.636024913136296,54666.39728720114,-6373.483462027495,18.62395138197244,54695.626193922624,51813.58114366268,11.200785810664655,54722.027373699,-11246.352293160544,10.239311275262445,54974.228572259584,9539.831966546655,31.914999024431808,0.9875689579074264,108.0,80.0,84.0,279.0,363.0,28.0,949.0,949.0,28.0,14.0,14.0,0.5,60.424550857414474,1619.4123414907783,21.0,16.0,5.0,0.7619047619047619,926.2543858617734,4601.688382838998,25.0,13.0,12.0,0.52,2216.177541297245,46772.835230512545,18.0,4.0,14.0,0.2222222222222222,1386.7004379188645,23569.0086255939,82.0,41.0,41.0,0.5,73.4093763080135,10002.463708152947,0.0,0.0,0.0,0.0,54543.0,54571.0,54651.0,54671.0,54683.0,54708.0,54718.0,54735.0,54934.0,55014.0,0.037149899995206424,-0.14532937778536556,0.042772136038087875,-0.12330224074184344,0.007695038714040068
54,54,55456.45809199109,1984.4649605269235,14.881065830105594,55563.972626301,-7045.216576106397,12.927082983450848,55593.15604503512,50060.32888019757,11.322619511945913,55619.60271279886,-11438.33835161932,10.442828918444896,55870.11888260175,10128.23754917328,33.72047391281035,0.9902148690247068,111.0,73.0,84.0,278.0,362.0,38.0,899.0,897.0,38.0,18.0,20.0,0.4736842105263157,57.62216135573632,1968.85978167134,20.0,16.0,4.0,0.8,972.708427300916,5647.756031264078,26.0,13.0,13.0,0.5,2186.3961405676605,47736.56738085046,19.0,5.0,14.0,0.2631578947368421,1319.5290306274403,22751.9214885697,84.0,42.0,42.0,0.5,69.42616339003659,10630.913756744078,0.0,0.0,0.0,0.0,55438.0,55476.0,55549.0,55568.0,55580.0,55606.0,55615.0,55633.0,55829.0,55911.0,0.029036623221826117,-0.13806650466925635,0.0436752252627037,-0.11536020268543946,0.006854713177190786
55,55,56370.848753355574,1929.931505980339,12.981968341358602,56479.972626301,-6987.406391448484,15.430011471309504,56509.261755722306,50776.41595887325,11.414119951604816,56535.027373699,-11977.112571152918,10.883594930539116,56789.00700905099,9767.905625990496,31.650725476578064,0.9866242356285804,109.0,79.0,85.0,279.0,364.0,30.0,915.0,916.0,30.0,16.0,14.0,0.5333333333333333,67.62150779011266,1908.332470544383,21.0,17.0,4.0,0.8095238095238095,970.3440828050956,5485.304071382638,26.0,13.0,13.0,0.5,2180.81570647408,47506.8018277543,19.0,4.0,15.0,0.2105263157894736,1435.1805429694937,24509.57275130788,80.0,40.0,40.0,0.5,66.20193454909925,10045.859733356174,0.0,0.0,0.0,0.0,56355.0,56385.0,56464.0,56484.0,56496.0,56522.0,56531.0,56549.0,56749.0,56828.0,0.03503829414700563,-0.13887042322207682,0.04294938241092968,-0.11982692276151355,0.006777495307996095
56,56,57230.787967726435,1377.5383107217244,8.972060438930416,57341.39728720114,-6662.185171437716,20.383723206912453,57370.68152999858,51831.53490074,11.210340384813149,57397.027373699,-11528.482588058534,11.177187455203002,57649.176739818635,9239.604054888536,29.857723169127052,0.9811061430677558,106.0,82.0,86.0,276.0,362.0,24.0,860.0,862.0,24.0,12.0,12.0,0.5,64.30106517951715,1307.870966837421,22.0,17.0,5.0,0.7727272727272727,919.6849388341176,4178.074005776787,25.0,13.0,12.0,0.52,2201.605642092589,45774.38037576563,19.0,5.0,14.0,0.2631578947368421,1377.1628229507608,23943.87556060595,78.0,39.0,39.0,0.5,71.12506461995198,9544.847784476096,0.0,0.0,0.0,0.0,57219.0,57243.0,57325.0,57346.0,57358.0,57383.0,57393.0,57411.0,57611.0,57687.0,0.0466782409454938,-0.13804553838836744,0.042476180694026804,-0.11945742316315397,0.007697847678042089
57,57,59514.07017508926,2827.60846134188,18.9023547671952,59625.39728720114,-6191.707183527637,13.213376354229585,59655.32321105396,49457.146377571386,11.39030626821673,59681.027373699,-11762.568085678244,9.61747241410796,59929.33323437839,10293.917121067989,34.21519110722293,0.9921053069419664,118.0,71.0,84.0,276.0,360.0,47.0,2283.0,2284.0,47.0,22.0,25.0,0.4680851063829787,64.94090952842302,2854.067814934026,20.0,15.0,5.0,0.75,854.4805370376964,4527.027120543534,26.0,13.0,13.0,0.5,2147.2844204341254,47489.452030411856,18.0,4.0,14.0,0.2222222222222222,1439.6248878058702,23873.79841180457,83.0,41.0,42.0,0.4939759036144578,69.69577101676883,10813.682215579523,0.0,0.0,0.0,0.0,59492.0,59539.0,59610.0,59630.0,59642.0,59668.0,59677.0,59694.0,59888.0,59970.0,0.02296672626930973,-0.13800402889060207,0.04341707069067596,-0.12239035534754651,0.006770578215956913
58,58,60359.94345036952,1503.5584879840017,9.314705420309078,60471.39728720114,-6875.058652312854,20.38372320691071,60500.77113350871,52342.97228458979,11.397981388590091,60526.027373699,-12253.089516665912,11.753738882785235,60776.51177573394,9194.819588085837,31.23390668329295,0.9840964740217104,107.0,82.0,87.0,275.0,362.0,25.0,846.0,846.0,25.0,13.0,12.0,0.52,67.89551950645838,1458.5570553812972,23.0,18.0,5.0,0.782608695652174,926.8711194369082,4538.392839994203,25.0,13.0,12.0,0.52,2199.319967630832,45378.4698053678,20.0,4.0,16.0,0.2,1476.3856122520635,25363.925852748067,80.0,41.0,39.0,0.5125,59.93377697348117,9368.845240113034,0.0,0.0,0.0,0.0,60347.0,60372.0,60454.0,60476.0,60488.0,60513.0,60522.0,60541.0,60737.0,60816.0,0.04515655363529883,-0.13481646722026108,0.04201748337242075,-0.12049088601237859,0.006518211303584489
59,59,61290.112013160666,2239.1687614394473,15.64110179267698,61397.08245622245,-7189.18626428106,11.388586982020756,61426.55302326125,49902.31365847077,11.272259707208274,61453.027373699,-11511.205862355506,10.170538050475168,61702.34540510649,9370.170992911992,34.20741283731978,0.9937073714702016,113.0,71.0,84.0,276.0,360.0,42.0,929.0,926.0,42.0,20.0,22.0,0.4761904761904761,55.9918607160243,2122.083090039613,20.0,15.0,5.0,0.75,957.7853883294148,4945.491552339805,26.0,14.0,12.0,0.5384615384615384,2202.631888372773,46004.658234468574,18.0,4.0,14.0,0.2222222222222222,1364.7550598447192,23313.468114936262,83.0,41.0,42.0,0.4939759036144578,62.97451609156518,9872.439495965562,0.0,0.0,0.0,0.0,61270.0,61312.0,61383.0,61402.0,61413.0,61439.0,61449.0,61467.0,61662.0,61743.0,0.025005645702215848,-0.13322584130113593,0.04413887306804026,-0.11855882660458765,0.006720743531703089
60,60,62211.495602975505,2285.883259705057,17.950416986772556,62316.95889546303,-5827.749676377888,9.662165955522422,62348.22217206879,50066.3566136822,11.259830013452603,62374.027373699,-11039.528028489973,9.108811769758631,62623.99822672198,10108.723725353326,34.586217632232824,0.9927946520942326,115.0,66.0,83.0,278.0,361.0,49.0,921.0,921.0,50.0,22.0,28.0,0.44,54.338608560218525,2234.548998351994,18.0,13.0,5.0,0.7222222222222222,820.6706697633495,4149.970654806813,26.0,13.0,13.0,0.5,2153.9686940055394,47969.97719473304,18.0,4.0,14.0,0.2222222222222222,1433.4284756413203,23259.5383338482,84.0,42.0,42.0,0.5,66.8197589081626,10666.435722639557,0.0,0.0,0.0,0.0,62189.0,62238.0,62304.0,62322.0,62335.0,62361.0,62370.0,62387.0,62583.0,62665.0,0.023771383918892573,-0.14082119434364923,0.04302227762698634,-0.1298450868499122,0.00661010833054764
61,61,63183.25842501819,2426.3354829939103,17.180313048872407,63288.76282892069,-6324.459943142337,11.106141618261937,63319.410714621874,49999.092635141744,11.183391793458838,63345.45203459914,-11126.16666187128,9.116616511816186,63597.245746097586,10057.80902552802,35.07084587875148,0.9933507345691976,112.0,66.0,83.0,281.0,364.0,46.0,971.0,972.0,48.0,21.0,27.0,0.4375,61.31081743132122,2345.378598901665,19.0,14.0,5.0,0.7368421052631579,875.3496549038864,4387.909742763814,26.0,13.0,13.0,0.5,2180.5397711198134,48770.206450934726,18.0,4.0,14.0,0.2222222222222222,1456.12400302674,23768.017723103698,86.0,43.0,43.0,0.5,68.45424360928118,10623.787399650886,0.0,0.0,0.0,0.0,63163.0,63209.0,63275.0,63294.0,63306.0,63332.0,63342.0,63358.0,63555.0,63639.0,0.025268895361357208,-0.13840702016826514,0.04361158685482276,-0.13087382629426103,0.006806079080994226
62,62,64171.70324085788,2458.362977112449,17.643366144547464,64279.04852052403,-6516.867898929275,12.082250199711508,64308.81072578461,49973.44787670639,11.179344194259608,64335.027373699,-11284.412571025769,9.509586561726978,64588.29165867047,10445.991464462872,35.70245318332222,0.9922316636134498,115.0,68.0,83.0,283.0,366.0,47.0,989.0,989.0,48.0,22.0,26.0,0.4583333333333333,57.81867542635043,2339.6303216807178,20.0,15.0,5.0,0.75,908.282363140869,4873.778196721869,25.0,13.0,12.0,0.52,2210.396732686336,47011.768300369455,18.0,4.0,14.0,0.2222222222222222,1395.361398506053,23316.53041492492,86.0,43.0,43.0,0.5,67.01347295430575,11043.741035091129,0.0,0.0,0.0,0.0,64150.0,64197.0,64265.0,64284.0,64296.0,64321.0,64331.0,64348.0,64546.0,64631.0,0.023519177584696325,-0.13937406392572424,0.044231423417887585,-0.12365388005121589,0.006415233363179046
63,63,65890.0133113811,1760.6568418821396,12.888861641959435,66000.39728720114,-6790.017176473562,15.54649171856632,66030.18199092877,49772.07065776477,11.430000008839338,66056.60271279886,-11867.480157381233,10.809314897046995,66304.81573298125,9660.041526440284,31.555075228302492,0.9871493582524952,111.0,81.0,86.0,273.0,359.0,30.0,1718.0,1721.0,30.0,16.0,14.0,0.5333333333333333,61.779569263697155,1682.8963159272605,21.0,16.0,5.0,0.7619047619047619,882.1799621253347,3885.136094198087,26.0,13.0,13.0,0.5,2127.7573855445808,46651.645367056575,19.0,5.0,14.0,0.2631578947368421,1328.0847430428798,23146.978823594214,80.0,40.0,40.0,0.5,66.32378698302227,9985.304186747024,0.0,0.0,0.0,0.0,65874.0,65904.0,65985.0,66005.0,66017.0,66043.0,66052.0,66071.0,66266.0,66344.0,0.03508893260407002,-0.12992308254859236,0.04275002742351521,-0.11190958193571103,0.006865786943201944
64,64,66705.9435053588,1554.129695435307,10.644404634304376,66819.39728720114,-6215.567386088377,20.383723206910297,66848.97578821855,51208.77678273438,11.372783533647288,66875.027373699,-11822.796428329582,10.630969755265747,67124.23456717558,9845.076861295976,31.82327219351768,0.9845604691441756,111.0,84.0,86.0,275.0,361.0,27.0,819.0,819.0,27.0,14.0,13.0,0.5185185185185185,61.55180551535064,1489.9386668230009,22.0,17.0,5.0,0.7727272727272727,890.0784454907024,4503.239421301359,26.0,13.0,13.0,0.5,2150.386856434625,46228.59442393448,19.0,4.0,15.0,0.2105263157894736,1413.1940253664798,24180.42306626842,81.0,40.0,41.0,0.4938271604938271,67.35541978758974,10173.6495932235,0.0,0.0,0.0,0.0,66692.0,66719.0,66803.0,66824.0,66836.0,66862.0,66871.0,66889.0,67085.0,67164.0,0.03960532103346122,-0.14320147947922943,0.041992544863123,-0.11953128296958648,0.006841533157794288
65,65,67596.65624235086,2014.3410196521727,13.454970397490998,67706.39728720114,-6593.694135979148,14.721249727079355,67735.83314989295,50382.70715437949,11.333651469770729,67762.027373699,-11653.146213178585,9.820926980834706,68013.38916861372,9532.699515225551,31.20163771204741,0.9899488161844092,111.0,80.0,84.0,277.0,361.0,31.0,888.0,887.0,32.0,17.0,15.0,0.53125,66.32052475412266,1927.3385007941336,21.0,16.0,5.0,0.7619047619047619,906.0968630529308,4681.540957868623,25.0,13.0,12.0,0.52,2188.7661281609267,46966.81462459301,18.0,4.0,14.0,0.2222222222222222,1414.2935478118534,23761.339003634497,80.0,40.0,40.0,0.5,63.70027159431866,9822.924510029929,0.0,0.0,0.0,0.0,67580.0,67611.0,67691.0,67711.0,67723.0,67748.0,67758.0,67775.0,67974.0,68052.0,0.03292417922640258,-0.13741869798126108,0.043442805116728815,-0.12136581159622144,0.00668229093894936
66,66,68467.33584813285,2378.361971681717,17.10504779005605,68578.39728720114,-7386.848016798304,12.724899888272192,68607.8355798819,49531.684533874504,11.3685764043624,68634.027373699,-11918.693323703912,11.812282095498611,68883.29584669038,9796.73571933338,32.68654294285195,0.9909475616161264,115.0,78.0,86.0,275.0,361.0,37.0,873.0,872.0,37.0,19.0,18.0,0.5135135135135135,70.92904695927994,2465.623944752781,20.0,15.0,5.0,0.75,925.2069045431004,4117.318217249248,25.0,13.0,12.0,0.52,2165.7083758200088,45141.78827400082,20.0,4.0,16.0,0.2,1353.18073753947,23954.205808697043,82.0,41.0,41.0,0.5,66.04665175302486,10230.561901187044,0.0,0.0,0.0,0.0,68448.0,68485.0,68563.0,68583.0,68595.0,68620.0,68630.0,68649.0,68843.0,68924.0,0.029822645923457434,-0.12525056728378645,0.04372369718899607,-0.1135343196429312,0.006741699852399307
67,67,69303.82128727171,1668.0185245412156,12.434962640233866,69414.972626301,-6610.308867283865,17.83575780586942,69444.69590470979,50685.93035771229,11.45726363417695,69471.027373699,-12248.291867804002,11.49981332195368,69720.10164255108,9567.812953283785,29.91607348123998,0.9841258925801072,109.0,80.0,87.0,273.0,360.0,29.0,836.0,837.0,30.0,16.0,14.0,0.5333333333333333,61.262279447890315,1634.71191887786,23.0,18.0,5.0,0.782608695652174,923.5370440448404,4997.147088636313,25.0,13.0,12.0,0.52,2140.2701162142725,44903.1440360913,20.0,5.0,15.0,0.25,1391.0501946713546,24411.310628757805,77.0,39.0,38.0,0.5064935064935064,67.99890998192583,9814.073310987644,0.0,0.0,0.0,0.0,69289.0,69318.0,69398.0,69419.0,69432.0,69457.0,69467.0,69485.0,69682.0,69758.0,0.036727577389909595,-0.13971163263121714,0.04222611878897104,-0.1135709541938566,0.00710704842516678
68,68,70200.80533052312,1753.8728552365765,13.083332056381982,70310.972626301,-6108.754932742602,17.83575780558725,70340.83073447742,50856.09375840233,11.341680328583136,70367.027373699,-11526.365075949618,9.771945638528274,70616.92362845916,10364.548358314829,31.79127989461298,0.9875309750616332,111.0,79.0,85.0,276.0,361.0,32.0,897.0,896.0,32.0,17.0,15.0,0.53125,57.86139462402589,1708.6693721744086,22.0,17.0,5.0,0.7727272727272727,902.5716353242864,4926.062738094683,26.0,13.0,13.0,0.5,2164.160820287579,46783.099560626506,18.0,4.0,14.0,0.2222222222222222,1414.2225317675095,23692.167656844504,80.0,40.0,40.0,0.5,78.87717530046272,10833.886588588332,0.0,0.0,0.0,0.0,70184.0,70216.0,70295.0,70315.0,70328.0,70354.0,70363.0,70380.0,70578.0,70656.0,0.032990643792261146,-0.1477505064880816,0.04255460182546996,-0.1226945808543199,0.0076102858102046
69,69,71152.77837321344,1835.1689238599945,14.406459873404224,71260.972626301,-7211.981625168564,13.515806171634129,71290.18045442867,50612.86700316938,11.464589528767853,71316.027373699,-11761.04488222253,10.156867183402031,71566.93099482922,9926.144576378125,33.751981992133686,0.9902896531922284,110.0,75.0,85.0,278.0,363.0,35.0,952.0,949.0,35.0,18.0,17.0,0.5142857142857142,54.13354363987272,1788.4198451416523,21.0,17.0,4.0,0.8095238095238095,984.9506632030208,5851.932814463224,26.0,13.0,13.0,0.5,2191.5934215041725,48199.85745845716,19.0,4.0,15.0,0.2105263157894736,1434.1647089031414,24041.58157931522,85.0,43.0,42.0,0.5058823529411764,72.92929549316611,10469.626986258414,0.0,0.0,0.0,0.0,71135.0,71170.0,71245.0,71265.0,71277.0,71303.0,71312.0,71330.0,71525.0,71608.0,0.02949785326901197,-0.1365714327066106,0.0433011119754772,-0.12194194676282213,0.00734719255114625
70,70,72048.94127035972,1290.9884191265055,8.198110956284458,72158.39728720114,-7086.983546562351,20.383723206912453,72187.6478010922,52169.954924830665,11.36153873497147,72213.60271279886,-12194.070314754852,12.823583624801252,72464.07469578051,9646.592523771076,29.531075333464617,0.9792225296798824,103.0,81.0,87.0,274.0,361.0,22.0,896.0,898.0,22.0,11.0,11.0,0.5,64.97638919352961,1229.852320382715,23.0,18.0,5.0,0.782608695652174,946.9643540231094,4303.449352246162,25.0,13.0,12.0,0.52,2166.665731569864,44303.25047443521,20.0,5.0,15.0,0.25,1373.936284523908,24527.503461523746,76.0,38.0,38.0,0.5,70.22421046265605,9881.774412748917,0.0,0.0,0.0,0.0,72038.0,72060.0,72141.0,72163.0,72175.0,72200.0,72209.0,72228.0,72426.0,72502.0,0.05033072971908859,-0.13362022753424466,0.04153091055362641,-0.11267249155201622,0.007279690760194334
71,71,73044.17421755655,2583.732717830244,18.61615112259416,73151.30003836757,-6339.78921080192,10.265686706870977,73182.69357826114,50166.16067506778,11.125802733144807,73209.027373699,-10924.53416959474,9.329946187351547,73461.89987031138,10492.544505163509,35.3475616667233,0.991248997519002,117.0,69.0,84.0,282.0,366.0,48.0,996.0,995.0,48.0,23.0,25.0,0.4791666666666667,60.24237881552474,2618.6433370854015,19.0,13.0,6.0,0.6842105263157895,790.603218175956,2565.447621985021,26.0,14.0,12.0,0.5384615384615384,2192.3604714526227,46673.04953026982,17.0,4.0,13.0,0.2352941176470588,1382.5876109745743,22935.56898033261,87.0,44.0,43.0,0.5057471264367817,66.7692372152925,10989.359548144395,0.0,0.0,0.0,0.0,73021.0,73069.0,73138.0,73157.0,73169.0,73195.0,73205.0,73222.0,73419.0,73504.0,0.02331602584113841,-0.1247049691855532,0.04370197842431681,-0.12655803803722857,0.006363493353059837
72,72,74039.55512804666,2647.008108988864,18.84633979648807,74144.1153947866,-6402.797016831812,10.300677543855636,74174.67214424211,50514.88654511276,11.186109316053845,74201.027373699,-11154.355811712472,9.942210060666794,74453.71660466744,10148.773790580204,34.53539542129284,0.9933821038028812,114.0,64.0,83.0,282.0,365.0,50.0,992.0,992.0,52.0,24.0,28.0,0.4615384615384615,53.83766025110863,2523.3691093414764,18.0,13.0,5.0,0.7222222222222222,867.3532630947045,4156.289715906768,26.0,14.0,12.0,0.5384615384615384,2210.6846643158487,46736.27815167045,18.0,4.0,14.0,0.2222222222222222,1378.0235919309391,23242.08339614117,85.0,43.0,42.0,0.5058823529411764,66.61631742114939,10594.757713099836,0.0,0.0,0.0,0.0,74017.0,74067.0,74131.0,74149.0,74161.0,74187.0,74197.0,74214.0,74412.0,74496.0,0.020339061322964435,-0.13546474467558278,0.04376303334545902,-0.1235412976950193,0.0065639769686245955
73,73,74927.90825787462,1635.16580738921,13.23381374962406,75036.972626301,-6626.841136217755,17.59525696428135,75066.22313676061,51196.94044929796,11.323788872722089,75092.60271279886,-11806.494720221432,11.910184712834258,75344.61158208775,10165.794195110464,31.94083123911769,0.9851565213282844,110.0,79.0,86.0,277.0,363.0,31.0,890.0,891.0,32.0,17.0,15.0,0.53125,54.53629848989546,1586.8419367025426,22.0,17.0,5.0,0.7727272727272727,965.2579112557833,5430.74551300163,26.0,13.0,13.0,0.5,2161.2257652951457,46840.93848085773,20.0,5.0,15.0,0.25,1329.177332982287,23570.55786294985,81.0,41.0,40.0,0.5061728395061729,73.44304689421739,10584.71441381305,0.0,0.0,0.0,0.0,74911.0,74942.0,75021.0,75041.0,75053.0,75079.0,75088.0,75107.0,75305.0,75384.0,0.03335215196125641,-0.1456588277000255,0.042213963301878946,-0.11258018272821946,0.007224526238150873
74,74,75847.89533297133,2444.1307286765805,16.55598892192859,75952.967915358,-6424.683009318018,11.270908925014616,75983.49018109869,50301.4590657068,11.269572141325318,76009.45203459915,-11270.938475326151,9.680392655512415,76263.09776715458,10023.47712396307,32.96378471857098,0.9910800294592512,111.0,67.0,84.0,280.0,364.0,44.0,919.0,918.0,45.0,20.0,25.0,0.4444444444444444,61.0114566419819,2339.3259778071074,19.0,14.0,5.0,0.7368421052631579,877.9926533975192,4376.282979009256,26.0,13.0,13.0,0.5,2184.6444979035687,48976.90884581472,19.0,4.0,15.0,0.2105263157894736,1456.981502594782,24072.35077181754,82.0,41.0,41.0,0.5,72.64533142105537,10508.273239103308,0.0,0.0,0.0,0.0,75828.0,75872.0,75939.0,75958.0,75970.0,75996.0,76006.0,76023.0,76222.0,76303.0,0.024962435898433992,-0.13665929542735814,0.04343103636516496,-0.1292688719563453,0.007247518054127404
75,75,76779.7374010294,2582.9808435118257,14.978438420344618,76884.97262626894,-7199.372610960326,11.901861855275213,76914.38008481388,50816.701520812705,11.414843966948768,76940.027373699,-11753.68581109707,10.740554016385742,77193.41591285773,10231.533316322331,33.145425421903404,0.9919989565520612,108.0,71.0,84.0,279.0,363.0,37.0,932.0,930.0,39.0,18.0,21.0,0.4615384615384615,74.84008775984124,2495.0115030496754,20.0,16.0,4.0,0.8,987.5745285720798,5762.8799243737285,26.0,13.0,13.0,0.5,2213.9611832846995,48605.03944490912,20.0,4.0,16.0,0.2,1435.0649768941848,24316.819678435648,81.0,40.0,41.0,0.4938271604938271,74.76681963528924,10796.007712095328,0.0,0.0,0.0,0.0,76762.0,76799.0,76870.0,76889.0,76901.0,76927.0,76936.0,76954.0,77154.0,77233.0,0.02897431002937231,-0.13717508204375978,0.0435675893363118,-0.1220948900590221,0.007307489241716487
76,76,77636.45561107622,1379.1314712885226,7.61787340854405,77744.31682674254,-7278.113605687773,20.383723206912453,77774.41255673543,52687.945724886275,11.224965730993375,77800.60271279886,-11704.215864708058,13.868228632749975,78052.38299776241,9500.45457561703,29.054598358972576,0.978538132310483,101.0,80.0,89.0,274.0,363.0,21.0,859.0,860.0,21.0,10.0,11.0,0.4761904761904761,74.53808022341742,1396.6660576808342,23.0,17.0,6.0,0.7391304347826086,883.6230805910071,2609.068250784728,26.0,13.0,13.0,0.5,2176.025061513652,46793.24847565294,20.0,5.0,15.0,0.25,1337.501837774426,24164.020554964976,76.0,38.0,38.0,0.5,67.85662855259822,9659.175392395562,0.0,0.0,0.0,0.0,77626.0,77647.0,77727.0,77750.0,77761.0,77787.0,77796.0,77816.0,78015.0,78090.0,0.05404711717134299,-0.12140825610367836,0.04130024489616498,-0.11427521956489374,0.007142461238302496
77,77,78491.70206375352,1510.0283146573192,9.350546236638806,78601.39728720114,-7063.223588853645,20.383723206912453,78630.62816649274,52406.584832515466,11.382795334419455,78656.027373699,-12139.68747971965,12.156495425115754,78907.192711872,9636.629031608696,30.41439424353311,0.9813490948108587,105.0,80.0,87.0,275.0,362.0,25.0,854.0,857.0,25.0,13.0,12.0,0.52,66.9099263559343,1443.25408401685,23.0,18.0,5.0,0.782608695652174,944.00265566296,4562.194082226613,25.0,13.0,12.0,0.52,2193.2608439015617,44750.58492716336,20.0,4.0,16.0,0.2,1460.4895419930522,25299.58086055654,78.0,39.0,39.0,0.5,69.51770528057622,9938.254719087025,0.0,0.0,0.0,0.0,78479.0,78504.0,78584.0,78606.0,78618.0,78643.0,78652.0,78671.0,78869.0,78946.0,0.04431037862433634,-0.13365039967765918,0.041850863797191405,-0.12030701321042411,0.007213902813167775
78,78,79402.79856089198,1698.2258096641194,12.159509934906872,79511.39728720114,-7141.508199253357,14.600164243908646,79540.5799540448,50931.49328725678,11.30454685112072,79567.027373699,-11880.786802455606,11.424784155657289,79818.78097138983,9709.422384434403,31.19892987210766,0.9873291953975812,108.0,79.0,85.0,277.0,362.0,29.0,911.0,910.0,29.0,15.0,14.0,0.5172413793103449,61.84241990327328,1669.8663190803888,21.0,16.0,5.0,0.7619047619047619,948.4536329501624,4524.691403311506,25.0,13.0,12.0,0.52,2214.673402461038,45784.42436523048,20.0,5.0,15.0,0.25,1376.379548386703,24116.666219186576,80.0,41.0,39.0,0.5125,66.29877451058056,9988.689772654296,0.0,0.0,0.0,0.0,79388.0,79417.0,79496.0,79516.0,79528.0,79553.0,79563.0,79581.0,79779.0,79858.0,0.036415899199827066,-0.13280858979470514,0.04348337854478648,-0.11584919174731954,0.006828292341763502
79,79,81142.8495403376,1859.4407884464329,14.075980871569453,81251.972626301,-6268.363739273309,13.75325363956953,81282.12710389298,49845.469519560946,11.480902877479814,81308.027373699,-12164.161402063974,9.974708673004132,81560.86742684635,9658.895063069258,30.960559743256344,0.9889912381607064,111.0,79.0,84.0,278.0,362.0,32.0,1742.0,1741.0,32.0,17.0,15.0,0.53125,60.64679063000697,1836.4344765833052,21.0,16.0,5.0,0.7619047619047619,890.2750661421157,5070.422458227407,26.0,13.0,13.0,0.5,2147.6734254629614,46953.268855267466,18.0,4.0,14.0,0.2222222222222222,1444.4575944032351,24317.144779340073,79.0,40.0,39.0,0.5063291139240507,71.90850439570592,10022.827276306927,0.0,0.0,0.0,0.0,81126.0,81158.0,81237.0,81256.0,81269.0,81295.0,81304.0,81321.0,81522.0,81599.0,0.03261560734110684,-0.14202670795318673,0.04308663246957973,-0.11874699345555745,0.007444796110338517
80,80,82102.92864565148,1981.4588938352188,14.83997840536872,82212.972626301,-6710.67027238324,13.206275790242804,82242.5970580058,50406.311363626155,11.369145270371812,82268.45203459915,-11674.397918661678,9.959408736333948,82522.15905578634,10277.023297422247,32.47335683025438,0.9905768456836914,114.0,78.0,84.0,280.0,364.0,36.0,960.0,961.0,36.0,19.0,17.0,0.5277777777777778,57.978028983159824,1947.580286696038,21.0,16.0,5.0,0.7619047619047619,941.6880715477216,5398.780371988815,26.0,14.0,12.0,0.5384615384615384,2204.285433556945,46235.97075461531,19.0,4.0,15.0,0.2105263157894736,1475.290604518164,24545.51179827207,82.0,41.0,41.0,0.5,66.22479011166567,10622.40255866618,0.0,0.0,0.0,0.0,82084.0,82120.0,82198.0,82217.0,82229.0,82255.0,82265.0,82282.0,82482.0,82562.0,0.02926027340942727,-0.1403269767884585,0.043730345941313725,-0.12636973784831274,0.006443966136408061
81,81,83021.22345923752,1615.466679820775,12.64152284769624,83131.39728720114,-7419.440464978873,16.735022819768822,83160.12083279918,51471.46793113674,11.282385550656176,83186.60271279886,-11813.773685537795,13.34340588646409,83437.53958294653,9759.470543483112,31.925628825267054,0.9847684073207584,110.0,80.0,87.0,276.0,363.0,30.0,917.0,917.0,31.0,16.0,15.0,0.5161290322580645,54.39988133049569,1572.1833975581933,22.0,17.0,5.0,0.7727272727272727,985.2343433635716,4782.895758795492,25.0,13.0,12.0,0.52,2176.08116830617,46159.883399442595,20.0,5.0,15.0,0.25,1302.7188124764607,23691.76400776409,82.0,42.0,40.0,0.5121951219512195,61.460800009330434,9986.303568529866,0.0,0.0,0.0,0.0,83005.0,83035.0,83115.0,83136.0,83147.0,83172.0,83182.0,83202.0,83397.0,83478.0,0.033674406293871056,-0.13279092244409257,0.042277425839448206,-0.1102711840562195,0.006297554742902615
82,82,83917.62816792671,2037.2681416700912,15.785211920022263,84025.97262630098,-6413.1299730115115,12.413366683371711,84056.28789538097,49658.4608794595,11.457385731671923,84082.027373699,-11877.314174800607,9.941600548634812,84334.66073924222,10255.849700847888,32.94272987668385,0.9905287671467324,114.0,75.0,85.0,279.0,364.0,39.0,897.0,896.0,39.0,21.0,18.0,0.5384615384615384,55.30884848749505,1943.067582924894,20.0,15.0,5.0,0.75,884.9059899844164,4803.032869381897,26.0,13.0,13.0,0.5,2146.0609540393357,47400.49361355955,19.0,4.0,15.0,0.2105263157894736,1437.8875195534215,24047.041625899303,83.0,42.0,41.0,0.5060240963855421,74.12944327643709,10728.890718545885,0.0,0.0,0.0,0.0,83897.0,83936.0,84011.0,84030.0,84043.0,84069.0,84078.0,84096.0,84294.0,84375.0,0.02714853649169349,-0.13798347978418993,0.04321642104955014,-0.12106167256264906,0.007228015760635469
83,83,84800.34996030461,1924.3829239754295,13.970381372000896,84910.39728720114,-6636.304981218057,14.280848361176202,84940.00412946001,50433.242335742805,11.345368207836296,84966.027373699,-11664.563666718184,10.226777284378898,85217.85063662956,10162.65054216754,32.63632864017093,0.988294022849246,112.0,79.0,85.0,278.0,363.0,33.0,882.0,884.0,33.0,17.0,16.0,0.5151515151515151,61.44166320572022,1909.1093409964176,20.0,15.0,5.0,0.75,897.9867123589543,4454.077250951812,26.0,13.0,13.0,0.5,2191.422282363897,47252.29660779952,18.0,4.0,14.0,0.2222222222222222,1416.3205473581668,23959.14631104802,82.0,41.0,41.0,0.5,68.23469526862803,10522.700045125042,0.0,0.0,0.0,0.0,84783.0,84816.0,84895.0,84915.0,84927.0,84953.0,84962.0,84980.0,85177.0,85258.0,0.03192798192097484,-0.13531426221374981,0.04345194123699643,-0.12142079102360864,0.006714261696346257
84,84,85641.29224424234,725.8778430457332,5.525594876328573,85749.35674592444,-6853.606031655488,22.93168860777651,85783.18833253933,54490.03831719763,10.929088515642023,85809.027373699,-10964.976377749346,17.83575780301993,86060.91436372935,9199.399449084603,27.855212253710263,0.975165743572416,102.0,85.0,90.0,272.0,362.0,17.0,842.0,843.0,17.0,8.0,9.0,0.4705882352941176,57.413446249130054,666.9544562127344,24.0,14.0,10.0,0.5833333333333334,602.3254774834294,2823.926102428977,25.0,13.0,12.0,0.52,2195.020151577509,45580.65014086381,22.0,5.0,17.0,0.2272727272727272,1404.945109607963,25525.114994363707,73.0,37.0,36.0,0.5068493150684932,74.43988204471003,9366.365425759364,0.0,0.0,0.0,0.0,85633.0,85650.0,85735.0,85759.0,85770.0,85795.0,85805.0,85825.0,86024.0,86097.0,0.07909519046376619,-0.08788446180031416,0.04028296215906197,-0.12813024499158474,0.008091819738528395
85,85,87949.22489193534,1526.7279402219326,10.968865503059634,88062.39728720114,-6067.579007946235,20.38372320587532,88092.20159084887,51272.76973043954,11.274982087602384,88118.027373699,-11817.573264153529,10.58713563321758,88365.9905206786,10029.794483708907,31.492429744298512,0.9851606676203613,111.0,83.0,86.0,273.0,359.0,28.0,2309.0,2309.0,28.0,14.0,14.0,0.5,60.228581441947455,1502.938058751973,21.0,16.0,5.0,0.7619047619047619,872.7257700231947,3931.613280354478,26.0,13.0,13.0,0.5,2167.8429085912085,46854.47923296418,19.0,4.0,15.0,0.2105263157894736,1430.9746203209838,24393.18308693601,79.0,40.0,39.0,0.5063291139240507,70.86811955344916,10356.022275942809,0.0,0.0,0.0,0.0,87935.0,87963.0,88046.0,88067.0,88079.0,88105.0,88114.0,88132.0,88327.0,88405.0,0.03944945255484899,-0.14383426550857498,0.042280589092190325,-0.12108870309791829,0.0070657598885558535
86,86,88947.01232456407,1846.7203669781725,13.716891264240362,89055.39728720114,-6661.905180733865,13.19703972972707,89085.18483210674,50974.03738814058,11.405963394774108,89111.027373699,-11612.8771229124,10.159258281088531,89362.50985338511,9604.13826389074,31.69424470783295,0.990755753104474,109.0,78.0,85.0,277.0,362.0,31.0,995.0,993.0,33.0,17.0,16.0,0.5151515151515151,60.551280944268214,1819.7601382431264,20.0,15.0,5.0,0.75,900.2445697994121,4631.640276404747,26.0,13.0,13.0,0.5,2206.0378870196027,48468.7468188448,19.0,4.0,15.0,0.2105263157894736,1438.6730901178985,24083.937899808498,80.0,41.0,39.0,0.5125,69.45752753371589,9943.674310653996,0.0,0.0,0.0,0.0,88931.0,88962.0,89040.0,89060.0,89072.0,89098.0,89107.0,89125.0,89323.0,89402.0,0.03278854883879878,-0.1351332006950364,0.04327767624568916,-0.12388601678040428,0.007232041608028443
87,87,89916.44839261124,1904.450140139773,15.243451164617449,90023.972626301,-6744.149894712733,12.863123486212904,90053.3233338895,50284.212688121894,11.46262019790604,90079.027373699,-11920.297964160723,9.902710665990194,90330.6991730033,9922.325010337978,33.26349503574162,0.9909681658560424,111.0,70.0,84.0,278.0,362.0,41.0,969.0,968.0,44.0,19.0,25.0,0.4318181818181818,53.743374214277,1850.639021628176,20.0,16.0,4.0,0.8,963.5965234574028,6118.627628445483,26.0,13.0,13.0,0.5,2179.52810809924,48280.73435066188,19.0,4.0,15.0,0.2105263157894736,1453.285160861438,24209.82334375543,82.0,42.0,40.0,0.5121951219512195,67.4743958831555,10364.738087938733,0.0,0.0,0.0,0.0,89898.0,89939.0,90009.0,90028.0,90040.0,90066.0,90075.0,90093.0,90290.0,90371.0,0.028219890393314583,-0.1428788710957984,0.04334418282766684,-0.12191684849077176,0.006800260605538979
88,88,90926.92287440148,2475.423401659049,18.70392825692956,91035.972626301,-6231.964675514606,11.904562748995367,91066.1302530081,50117.873418454226,11.29053393092017,91092.027373699,-11390.369542978384,9.693234724657506,91344.6032797808,10185.607924916165,34.879891192419024,0.991437384413832,118.0,68.0,83.0,282.0,365.0,50.0,1011.0,1013.0,51.0,24.0,27.0,0.4705882352941176,57.1739982809168,2463.431869015287,20.0,15.0,5.0,0.75,889.9035670102951,5012.8253780902905,26.0,13.0,13.0,0.5,2188.023293112744,47731.788156948955,18.0,4.0,14.0,0.2222222222222222,1423.8510789309985,23652.697663124884,85.0,43.0,42.0,0.5058823529411764,64.74581331123906,10662.321532926728,0.0,0.0,0.0,0.0,90904.0,90954.0,91022.0,91040.0,91053.0,91079.0,91088.0,91105.0,91302.0,91387.0,0.023096654189581595,-0.14279663209689344,0.04365754458183131,-0.12500481863722623,0.006356597837705594
89,89,91954.42442591018,2561.3326431169903,18.43702943882119,92060.56301417956,-6429.42142086599,10.044152097212052,92091.41690810416,50538.98016900166,11.067105534005265,92118.027373699,-10539.4433257396,9.244664915255292,92369.9535005316,10231.98862264364,35.30062326749593,0.994151295203384,116.0,65.0,83.0,282.0,365.0,51.0,1027.0,1025.0,51.0,22.0,29.0,0.4313725490196078,62.93751911584041,2544.390270543716,19.0,14.0,5.0,0.7368421052631579,886.2615214452536,4443.269984501538,26.0,13.0,13.0,0.5,2197.1380132770837,49530.19178671371,17.0,4.0,13.0,0.2352941176470588,1352.933201448771,22392.013007394635,87.0,43.0,44.0,0.4942528735632184,61.7563897308885,10684.821543105303,0.0,0.0,0.0,0.0,91932.0,91983.0,92048.0,92066.0,92078.0,92104.0,92114.0,92131.0,92328.0,92413.0,0.024572177020806316,-0.13784467737158868,0.04347412642538263,-0.12836856365502866,0.006035619468362202
90,90,92916.114172296,1972.896794538403,14.776388905289227,93022.39728720114,-6982.710691482204,13.209378682192224,93051.73866474903,50011.062433024046,11.384445888086146,93078.027373699,-11952.07655246479,10.472015232337853,93330.72297474663,10485.131432939384,34.34230604392943,0.9879170834213732,110.0,68.0,85.0,281.0,366.0,42.0,960.0,961.0,43.0,19.0,24.0,0.4418604651162791,52.50807700887514,1844.6799044566037,20.0,15.0,5.0,0.75,931.9893019246272,4701.076630203497,25.0,13.0,12.0,0.52,2185.893956724133,46118.69341569208,19.0,4.0,15.0,0.2105263157894736,1395.1470683012744,23958.99158349968,86.0,44.0,42.0,0.5116279069767442,67.95239290299408,10940.4006825341,0.0,0.0,0.0,0.0,92897.0,92939.0,93007.0,93027.0,93039.0,93064.0,93074.0,93092.0,93288.0,93373.0,0.02661471048776295,-0.13347098900452883,0.0437082087518443,-0.11672842473666747,0.006480833677441506
91,91,93882.33617361602,2485.6485074938446,17.078853644608643,93991.39728720114,-6711.95962455959,12.90292243134436,94021.09149956456,50285.32537939125,11.34322594895772,94047.027373699,-11400.899241943009,9.836667070405705,94301.31247043263,10249.012311472752,34.72422914656703,0.99034440385527,115.0,74.0,83.0,284.0,367.0,41.0,970.0,969.0,41.0,20.0,21.0,0.4878048780487805,64.16490266802674,2555.42514821651,20.0,15.0,5.0,0.75,898.9174352914808,4446.260487437818,26.0,13.0,13.0,0.5,2191.635412704437,47829.31950577018,18.0,4.0,14.0,0.2222222222222222,1418.5603436806662,23667.5684210113,86.0,43.0,43.0,0.5,68.1344897157244,10747.343266416368,0.0,0.0,0.0,0.0,93862.0,93903.0,93977.0,93996.0,94008.0,94034.0,94043.0,94060.0,94260.0,94344.0,0.02581414969758577,-0.13392771792045216,0.04358399585105695,-0.12442530309029437,0.006647907880787166
92,92,94847.9261735547,2081.7549319970403,15.423461665654756,94956.972626301,-6936.785073073293,12.786648858457845,94986.4176027038,50476.72550674767,11.368505194155327,95012.027373699,-11680.42729770293,10.227462607697602,95266.06930027176,10051.530445706932,33.81396574719528,0.990872633392472,114.0,77.0,84.0,282.0,366.0,37.0,965.0,965.0,37.0,20.0,17.0,0.5405405405405406,59.40561029791181,2032.1357209964187,20.0,16.0,4.0,0.8,960.8211245091854,5551.415863072034,26.0,13.0,13.0,0.5,2202.6655272664557,48598.0636512303,19.0,4.0,15.0,0.2105263157894736,1441.1887110394164,24177.35365636133,85.0,43.0,42.0,0.5058823529411764,63.656537534190406,10424.40787078915,0.0,0.0,0.0,0.0,94828.0,94865.0,94942.0,94961.0,94973.0,94999.0,95008.0,95026.0,95224.0,95308.0,0.028536312985181035,-0.1385110125782664,0.04363725073592592,-0.12338493056010374,0.006333019422070048
93,93,95730.74533115613,1666.8907994199951,11.933869282673053,95838.39728720114,-7044.2609858243995,17.14968653492802,95867.7826362292,51037.65066251092,11.242921253027252,95894.027373699,-11872.787179098395,12.095455666373674,96145.33390744423,9817.844707159727,32.11151518912199,0.98397699923278,107.0,78.0,86.0,276.0,362.0,29.0,882.0,882.0,30.0,16.0,14.0,0.5333333333333333,58.047848089212565,1601.0456244170275,21.0,16.0,5.0,0.7619047619047619,919.5896922896806,3734.3442168565625,25.0,13.0,12.0,0.52,2192.2382339482633,45395.53800262074,21.0,5.0,16.0,0.238095238095238,1365.824866171676,24249.201328005372,82.0,41.0,41.0,0.5,75.67040743376947,10340.439109165534,0.0,0.0,0.0,0.0,95716.0,95745.0,95823.0,95843.0,95855.0,95880.0,95890.0,95909.0,96106.0,96185.0,0.03482402573066614,-0.13054452328501565,0.04295335317145672,-0.11503826738983078,0.00770743576526387
94,94,96631.66688254794,2090.872655514878,14.394586262816546,96741.39728720114,-6468.133528776244,14.004003454757472,96771.23260198368,50705.817693800615,11.43699832870398,96797.027373699,-11532.10671859108,9.862608302287828,97049.65047364416,10371.71771950945,33.48437396234537,0.9903587486823344,112.0,79.0,85.0,280.0,365.0,33.0,902.0,903.0,33.0,18.0,15.0,0.5454545454545454,65.25806054764159,2008.8191780288632,20.0,15.0,5.0,0.75,888.7137439646683,4612.9500276922045,26.0,13.0,13.0,0.5,2179.483465117126,48391.0931454364,19.0,4.0,15.0,0.2105263157894736,1439.6953091507644,23904.327615130213,83.0,42.0,41.0,0.5060240963855421,69.26047838373707,10803.338225920528,0.0,0.0,0.0,0.0,96614.0,96647.0,96726.0,96746.0,96758.0,96784.0,96793.0,96811.0,97009.0,97091.0,0.03121092065340143,-0.13739879364129498,0.042982907371269814,-0.1248423505160432,0.00667782138473133
95,95,97579.04073981733,2258.5937990617986,16.903546972729696,97687.92910593536,-6318.369445096285,11.703585802223143,97717.98154198584,50467.2455160282,11.217102686552986,97744.027373699,-10987.526354004876,9.19247642839083,97996.14023131084,10466.93693959344,32.90366011319482,0.992556530569147,116.0,75.0,83.0,280.0,363.0,41.0,946.0,947.0,42.0,22.0,20.0,0.5238095238095238,57.96631422783239,2195.3382418429474,20.0,15.0,5.0,0.75,902.2195274226726,5115.263778035953,26.0,13.0,13.0,0.5,2210.2455205466163,48151.20898807442,18.0,4.0,14.0,0.2222222222222222,1416.1849954724375,23187.502631925796,83.0,42.0,41.0,0.5060240963855421,72.21200125965812,10903.693947211215,0.0,0.0,0.0,0.0,97558.0,97599.0,97674.0,97692.0,97705.0,97731.0,97740.0,97757.0,97955.0,98037.0,0.025664780560325246,-0.14279309484235514,0.04379564404490138,-0.12889024789062262,0.006899057639919536
96,96,98508.33632070122,2100.6082644578023,16.250661107948833,98616.972626301,-7458.822500117201,13.358792742571588,98645.9267152564,50459.98056358749,11.368275977901906,98672.027373699,-11810.633359132638,10.732151348738167,98923.19445966126,10329.000371167718,33.63626818642206,0.9902967960887156,114.0,69.0,84.0,278.0,362.0,45.0,929.0,928.0,46.0,21.0,25.0,0.4565217391304347,49.03861784495653,2052.277567916173,20.0,16.0,4.0,0.8,1004.8934151114717,5741.581905684213,25.0,13.0,12.0,0.52,2210.673184742492,47084.1207306688,19.0,4.0,15.0,0.2105263157894736,1398.3204882705156,24019.078479236447,82.0,41.0,41.0,0.5,76.44168798550267,10904.481690963474,0.0,0.0,0.0,0.0,98488.0,98533.0,98602.0,98621.0,98633.0,98658.0,98668.0,98686.0,98883.0,98964.0,0.02334496092140917,-0.13472547645364688,0.04381042481688429,-0.11839504671349878,0.007400685955911216
97,97,99357.00497118018,871.2719359532501,6.124117500066147,99465.72681165634,-6753.021256292524,20.383723206912453,99498.46647147428,54451.31407422486,10.901862788656793,99524.60271279886,-10358.660471912295,20.38372320464737,99774.51867877146,9870.908847063009,28.898549496298457,0.9739073507548032,103.0,85.0,89.0,272.0,361.0,18.0,851.0,852.0,18.0,9.0,9.0,0.5,60.075408039454594,864.9600700755905,23.0,15.0,8.0,0.6521739130434783,718.6789935092133,792.6440491451488,25.0,12.0,13.0,0.48,2158.0826932575405,46338.827568974186,21.0,5.0,16.0,0.238095238095238,1349.4467423824094,24704.251831977523,75.0,38.0,37.0,0.5066666666666667,67.74645911936378,9925.254621483524,0.0,0.0,0.0,0.0,99348.0,99366.0,99451.0,99474.0,99486.0,99511.0,99520.0,99540.0,99737.0,99812.0,0.06895138654239641,-0.1064233276090375,0.039633252749709,-0.1302723210246595,0.006863244324206384
98,98,100320.16987484462,2940.4863153319125,20.074267485163663,100427.59131382134,-5754.45740160518,9.24036128481722,100459.09079587182,50210.70794729732,11.131635014443557,100485.027373699,-10816.77476246596,8.746568032607218,100737.56892290956,10706.086222174305,34.14692594367095,0.9944337142277604,121.0,68.0,82.0,282.0,364.0,53.0,962.0,961.0,53.0,26.0,27.0,0.490566037735849,62.773971203642944,2908.6890110438,18.0,13.0,5.0,0.7222222222222222,828.9167418883559,4324.090067730877,26.0,13.0,13.0,0.5,2169.549322590327,47875.7600226412,17.0,4.0,13.0,0.2352941176470588,1427.0448479010645,23019.865503733618,83.0,42.0,41.0,0.5060240963855421,69.18879341041739,11180.672504767514,0.0,0.0,0.0,0.0,100294.0,100347.0,100415.0,100433.0,100446.0,100472.0,100481.0,100497.0,100697.0,100779.0,0.021348159614392636,-0.14404776750230755,0.04320889729074427,-0.13192886782230945,0.006462566429468359
99,99,101337.66892576832,1801.2505901061488,14.497010921094349,101445.39728720114,-6903.663757692328,12.91359628420092,101475.23648767007,51055.7212300557,11.426258229977035,101501.027373699,-11743.735888004569,10.092403326474836,101753.83388298098,10666.923909612386,33.39831819519753,0.9907670187805088,112.0,75.0,84.0,280.0,364.0,37.0,1017.0,1016.0,39.0,20.0,19.0,0.5128205128205128,47.318379004301896,1671.122478134568,20.0,15.0,5.0,0.75,909.4064977107367,4398.631635290943,26.0,13.0,13.0,0.5,2211.2965848979384,48765.665565675496,19.0,4.0,15.0,0.2105263157894736,1449.617653057733,24222.338322472813,83.0,41.0,42.0,0.4939759036144578,64.33147294408694,11033.393312753133,0.0,0.0,0.0,0.0,101319.0,101356.0,101431.0,101450.0,101462.0,101488.0,101497.0,101515.0,101714.0,101795.0,0.026269736850725138,-0.13172809824311635,0.04331143565544585,-0.12343752166109417,0.006030930143423571
100,100,102235.84678677013,1693.7420946759744,12.0519023319164,102344.39728720114,-6966.041518301341,12.856869472010878,102374.18841373832,49399.83301925006,11.396313895362905,102400.60271279886,-11871.639353126437,11.26477449979977,102651.18054078768,10150.397105893797,32.1458417958966,0.9872440387644856,109.0,80.0,85.0,276.0,361.0,29.0,897.0,899.0,30.0,16.0,14.0,0.5333333333333333,61.037667019012495,1632.5035855063732,20.0,15.0,5.0,0.75,893.2760546661409,3995.148333811514,26.0,13.0,13.0,0.5,2143.9902976204894,46402.91136753737,20.0,5.0,15.0,0.25,1311.039742464364,23133.1105481326,81.0,40.0,41.0,0.4938271604938271,72.39870968868793,10571.996699866791,0.0,0.0,0.0,0.0,102221.0,102250.0,102330.0,102349.0,102361.0,102387.0,102396.0,102415.0,102612.0,102691.0,0.03603716717608619,-0.1282329501366459,0.043400760014411836,-0.1104345999290399,0.0071325987479494615
101,101,103173.11341334668,2572.610267818773,17.786482849347383,103280.3426705529,-6359.954690303354,11.443828448581954,103311.85073709703,49554.65155624743,11.260379000210804,103338.027373699,-11541.34583400155,9.563284598440962,103590.4726073582,10713.877839072233,32.824944989999864,0.9903594299613676,116.0,71.0,84.0,280.0,364.0,45.0,939.0,938.0,45.0,22.0,23.0,0.4888888888888889,61.63368785524242,2558.1500012371307,19.0,13.0,6.0,0.6842105263157895,774.8969104971977,2281.654119891913,25.0,13.0,12.0,0.52,2162.899884063575,46295.32247475391,17.0,4.0,13.0,0.2352941176470588,1403.8182361498607,23524.476820423428,82.0,41.0,41.0,0.5,70.50020913868387,11123.675458140162,0.0,0.0,0.0,0.0,103151.0,103196.0,103267.0,103286.0,103299.0,103324.0,103334.0,103351.0,103550.0,103631.0,0.02395764668524762,-0.12184000487906574,0.04364675799624092,-0.12163384204415066,0.006580270019654138
102,102,104158.81447747687,2677.2382689930128,19.351317063712056,104266.2684378237,-6172.223889635796,9.388497433671647,104297.29245852918,50534.696838340606,11.15348542117771,104323.027373699,-10948.938527297352,9.229375366255198,104576.36197491224,10845.223514284373,35.190651483548685,0.9933990552628272,119.0,72.0,82.0,282.0,364.0,47.0,986.0,985.0,47.0,24.0,23.0,0.5106382978723404,65.50741302977393,2686.7123332734727,17.0,12.0,5.0,0.7058823529411765,827.9297539408888,3539.8182337208295,26.0,13.0,13.0,0.5,2195.595673995604,48589.30302301131,18.0,4.0,14.0,0.2222222222222222,1436.791079665509,23416.19958938164,85.0,42.0,43.0,0.4941176470588235,72.71632254632756,11475.684515064866,0.0,0.0,0.0,0.0,104135.0,104182.0,104254.0,104271.0,104284.0,104310.0,104319.0,104336.0,104535.0,104618.0,0.024468279042796283,-0.13413799770470453,0.04344729089835577,-0.13122651808514338,0.0067049169111685
103,103,105103.9160605888,2082.8294645444735,14.758504773711136,105211.39728720114,-7516.59228380936,13.90579241093922,105240.71799870548,49810.13039788137,11.410067313293691,105267.027373699,-12119.557747646802,11.954571644763456,105518.24285445958,10687.16159525469,33.35200652881608,0.9883723685558023,110.0,71.0,86.0,277.0,363.0,39.0,943.0,944.0,41.0,19.0,22.0,0.4634146341463415,56.52458385821612,1999.6729349005032,21.0,16.0,5.0,0.7619047619047619,935.9579572464272,4118.061696158435,25.0,13.0,12.0,0.52,2162.075076521349,44841.52966993878,21.0,5.0,16.0,0.238095238095238,1354.8486872491555,24131.421499803215,83.0,41.0,42.0,0.4939759036144578,69.64818561079743,11118.549368034746,0.0,0.0,0.0,0.0,105086.0,105125.0,105196.0,105216.0,105228.0,105253.0,105263.0,105282.0,105478.0,105559.0,0.027138363855716992,-0.12451892053031374,0.043406332391639574,-0.1117902744852402,0.006516995648472517
104,104,106025.87888891612,1719.2280953878308,13.38135378050088,106133.39728720114,-6541.647939198471,15.145629973381954,106163.33646903264,50615.94832871407,11.529159744599552,106189.027373699,-12132.27141314576,10.190785219128085,106442.5132941736,10720.696329051636,31.98707626542202,0.9889855374738236,108.0,78.0,85.0,279.0,364.0,30.0,923.0,923.0,30.0,16.0,14.0,0.5333333333333333,60.03626007293493,1679.2235799512994,21.0,16.0,5.0,0.7619047619047619,887.1699153035787,4391.3901026280955,26.0,13.0,13.0,0.5,2154.9026819102423,47940.36732524276,19.0,4.0,15.0,0.2105263157894736,1464.125922382846,24536.28926647658,80.0,41.0,39.0,0.5125,75.21468211440983,11118.651887360054,0.0,0.0,0.0,0.0,106010.0,106040.0,106118.0,106138.0,106150.0,106176.0,106185.0,106203.0,106403.0,106482.0,0.03492047403947973,-0.1356187192507766,0.04257359099380504,-0.12068028092385175,0.007015839252025842
105,105,107007.4142727304,2422.6005262844205,17.402286572748757,107114.41839441408,-6222.297966585179,10.802188108711718,107145.53979592516,50353.307856909414,11.220917065996035,107171.45203459916,-11386.603968328249,9.717788958712278,107424.93474507134,10708.6485229201,33.83658619017042,0.9916084066309712,115.0,73.0,84.0,281.0,365.0,42.0,982.0,982.0,42.0,21.0,21.0,0.5,62.179230715821696,2433.2352089157475,19.0,13.0,6.0,0.6842105263157895,796.4279386630546,3012.0027922127074,26.0,14.0,12.0,0.5384615384615384,2207.095525067112,45956.22689024801,19.0,4.0,15.0,0.2105263157894736,1466.410530981248,24280.93836233903,84.0,42.0,42.0,0.5,74.15260820258372,11226.785552628968,0.0,0.0,0.0,0.0,106986.0,107028.0,107101.0,107120.0,107132.0,107158.0,107168.0,107185.0,107384.0,107466.0,0.02566631602742485,-0.12799578916664084,0.0438321853916546,-0.12878383537884144,0.006924553368604102
106,106,107998.59407208662,2201.950086609339,16.865120197718234,108104.97262630083,-7252.5621158378735,11.912794826742486,108134.44388620998,50115.4681571382,11.31794692651817,108161.027373699,-11407.172777780386,10.420288540220763,108413.60769813089,10563.89263144091,34.79563919676321,0.9909249625759182,112.0,65.0,85.0,281.0,366.0,47.0,990.0,989.0,47.0,21.0,26.0,0.4468085106382978,52.88113834336886,2075.290986532721,20.0,15.0,5.0,0.75,971.652629354517,5167.12528316446,26.0,13.0,13.0,0.5,2184.8251960158336,48768.04063621146,19.0,4.0,15.0,0.2105263157894736,1351.5543116942683,23214.8241280162,87.0,44.0,43.0,0.5057471264367817,67.2980743243051,11029.766371239211,0.0,0.0,0.0,0.0,107978.0,108025.0,108090.0,108109.0,108121.0,108147.0,108157.0,108175.0,108371.0,108456.0,0.02401559357087771,-0.13397370664811797,0.04359582532812552,-0.11848284741745224,0.0063705753808977975
107,107,108941.31140251808,2691.645521227697,20.102612901573146,109049.16196044728,-6125.9415363634635,10.034156248846806,109080.41373464442,50176.959954026875,11.170431103085614,109106.45203459916,-10983.83473857571,9.26054313531508,109358.69788754046,11326.041876109926,35.480299274799634,0.99234909296333,120.0,66.0,83.0,283.0,366.0,54.0,944.0,945.0,55.0,25.0,30.0,0.4545454545454545,60.52557362810698,2722.712912711909,18.0,13.0,5.0,0.7222222222222222,807.4751874430827,3308.473617847694,26.0,13.0,13.0,0.5,2172.379094319385,48705.29466406792,18.0,4.0,14.0,0.2222222222222222,1448.8839558307432,23685.51973096042,86.0,43.0,43.0,0.5,73.18949732095219,11926.421560184604,0.0,0.0,0.0,0.0,108916.0,108970.0,109036.0,109054.0,109067.0,109093.0,109103.0,109119.0,109317.0,109402.0,0.022486457875218437,-0.13181242142941238,0.043294354546583966,-0.13191057497817216,0.0064620542747004265
108,108,109955.92382448928,2586.4278907410508,18.587608987429498,110063.03951032416,-6175.110156523277,10.518067645450277,110093.9736676231,50557.32703021934,11.14870959018683,110120.027373699,-10920.825892971228,9.139027339848672,110374.78438586912,10676.08511578637,35.021960608970645,0.9931861976355904,116.0,69.0,83.0,284.0,367.0,47.0,1013.0,1014.0,48.0,22.0,26.0,0.4583333333333333,64.23215617941884,2555.3151001717783,18.0,13.0,5.0,0.7222222222222222,836.6006918561023,3830.0825548809216,26.0,13.0,13.0,0.5,2209.681858410842,48026.38686554234,17.0,4.0,13.0,0.2352941176470588,1415.4484544003978,23167.33985993956,86.0,44.0,42.0,0.5116279069767442,68.69974437821365,11212.298545530204,0.0,0.0,0.0,0.0,109934.0,109981.0,110050.0,110068.0,110081.0,110107.0,110116.0,110133.0,110333.0,110417.0,0.02483431160379861,-0.1354794765842893,0.0437064613224125,-0.12961001926707733,0.006434919133103354
109,109,110957.35465126958,2269.397199324973,16.105330940038296,111064.972626301,-7135.125153762925,13.223844974387584,111094.31019440896,50815.710410877706,11.283314705442354,111121.027373699,-11553.348657215549,10.764425611559542,111374.92429841968,10424.403129139486,33.42843112297109,0.990179696000281,113.0,69.0,85.0,281.0,366.0,44.0,1002.0,1000.0,45.0,20.0,25.0,0.4444444444444444,56.99556342336883,2168.9183250316164,21.0,16.0,5.0,0.7619047619047619,971.882143272594,5340.947015024403,26.0,13.0,13.0,0.5,2211.7984692148416,48751.58701032149,20.0,5.0,15.0,0.25,1352.9989233223137,23503.5169536767,84.0,42.0,42.0,0.5,62.50269434088331,10749.307322013796,0.0,0.0,0.0,0.0,110937.0,110981.0,111050.0,111069.0,111081.0,111107.0,111117.0,111135.0,111334.0,111416.0,0.025114846991228346,-0.13621094547445217,0.04352587912932887,-0.11710881091408154,0.005995805569545619
110,110,111870.67143989718,2057.5339837154515,14.543733552278423,111980.39728720108,-6593.856868707464,11.923855698056736,112010.07412805918,50158.23427601124,11.337855089596925,112036.027373699,-11423.622465805563,9.559163597363757,112288.26664040408,10909.35824519375,34.16915963819131,0.9881611348656104,114.0,79.0,83.0,281.0,364.0,35.0,914.0,916.0,35.0,19.0,16.0,0.5428571428571428,61.281827045282405,1970.3206951392492,20.0,15.0,5.0,0.75,903.0768558177756,4732.097581956618,26.0,13.0,13.0,0.5,2190.8891636087947,47881.836377512795,18.0,4.0,14.0,0.2222222222222222,1423.8493275469668,23584.1385440382,85.0,42.0,43.0,0.4941176470588235,73.50633868364706,11448.783609897084,0.0,0.0,0.0,0.0,111852.0,111887.0,111966.0,111985.0,111997.0,112023.0,112032.0,112049.0,112247.0,112330.0,0.029784114153303544,-0.13695730341122764,0.04367955122887197,-0.12464078989033368,0.006737915927917316
111,111,112827.39116632684,2995.4854344139144,20.854204214102324,112936.64452112404,-6262.087745030211,9.672808376308522,112967.46646151562,50513.04258324752,11.07554452654092,112993.45203459916,-10765.028599212255,8.988196676875777,113247.95065563243,10965.460322779716,35.75887711697647,0.9941081047330832,122.0,68.0,82.0,284.0,366.0,54.0,957.0,958.0,55.0,25.0,30.0,0.4545454545454545,61.6205677591104,2997.3407184625516,18.0,13.0,5.0,0.7222222222222222,883.1958247339069,4551.168117710529,26.0,13.0,13.0,0.5,2201.5458343749824,49428.53933754211,18.0,4.0,14.0,0.2222222222222222,1457.3849940402745,23589.94857525603,86.0,43.0,43.0,0.5,70.36913670448133,11546.28546772807,0.0,0.0,0.0,0.0,112802.0,112856.0,112924.0,112942.0,112954.0,112980.0,112990.0,113006.0,113206.0,113290.0,0.020571145848741826,-0.14103855785713618,0.043583710697029314,-0.1353814326277703,0.006417344519344623
112,112,113829.09616035529,2486.8873579475035,17.111245914288837,113938.972626301,-6904.898956471965,12.60783083740336,113968.53438149278,50701.76520609242,11.306965881278842,113994.45203459916,-11337.147687682502,9.843815115119334,114249.94664838607,10577.113062569098,33.17769144440061,0.9913130273971792,117.0,74.0,84.0,283.0,367.0,43.0,1002.0,1001.0,43.0,22.0,21.0,0.5116279069767442,61.61634835746498,2472.3906938863092,21.0,16.0,5.0,0.7619047619047619,954.0277439319904,5339.781130365003,26.0,14.0,12.0,0.5384615384615384,2228.738327466756,46639.89328202036,19.0,4.0,15.0,0.2105263157894736,1462.7998268689162,24235.1392091694,83.0,42.0,41.0,0.5060240963855421,73.19022208524936,11056.648198692556,0.0,0.0,0.0,0.0,113807.0,113850.0,113924.0,113943.0,113955.0,113981.0,113991.0,114008.0,114209.0,114291.0,0.024776493459003564,-0.1381667928735988,0.043957805382265985,-0.12902714749479782,0.006919678522134661
113,113,114808.41742032285,1953.0464437264752,14.901305473631425,114915.39728720114,-7345.013569035967,12.68939521148076,114944.77153553104,50674.27075473409,11.34317654287142,114971.027373699,-11892.32015130434,11.384376150468722,115223.66081126108,10647.684709791807,33.80720771719369,0.9880749802163312,110.0,70.0,85.0,280.0,365.0,40.0,977.0,976.0,42.0,19.0,23.0,0.4523809523809524,52.82900696285465,1869.2982446077287,20.0,15.0,5.0,0.75,944.3438910564466,4485.321648566793,25.0,13.0,12.0,0.52,2218.350043728039,46390.504931226584,19.0,4.0,15.0,0.2105263157894736,1382.498323273271,24146.310672251304,85.0,43.0,42.0,0.5058823529411764,68.56221514326838,11073.37882468458,0.0,0.0,0.0,0.0,114790.0,114830.0,114900.0,114920.0,114932.0,114957.0,114967.0,114985.0,115182.0,115265.0,0.027049539519426485,-0.1285693868609683,0.04377665451694332,-0.1162513542928492,0.006439166542959081
114,114,115801.0266489258,1773.9969429904766,13.582636721524125,115908.972626301,-6435.722142291155,14.955748885429744,115938.33767823792,50965.55519037607,11.324913850333326,115965.027373699,-11278.262321009011,9.456556066918578,116219.39418346708,10561.854312750756,32.77886785318681,0.987780689748614,109.0,76.0,85.0,282.0,367.0,33.0,995.0,994.0,33.0,17.0,16.0,0.5151515151515151,55.501165581126,1711.6304757301343,21.0,17.0,4.0,0.8095238095238095,948.8272972136008,5875.058383472506,26.0,13.0,13.0,0.5,2178.8641775854608,49378.032451372,17.0,4.0,13.0,0.2352941176470588,1383.828060785126,23149.986292987283,84.0,42.0,42.0,0.5,70.96574649359954,10965.016446211432,0.0,0.0,0.0,0.0,115784.0,115817.0,115893.0,115913.0,115925.0,115951.0,115961.0,115978.0,116178.0,116260.0,0.031285942064570936,-0.14743136453616573,0.042751701015451705,-0.12269869430216636,0.00671906129285711
115,115,116827.04360664384,2430.4591579706725,17.57224345299904,116935.972626301,-6404.957411821408,13.039274461756976,116965.15874238964,50978.55878984595,11.30416337913891,116991.45203459916,-11070.215631378283,9.042668395292417,117247.05403975262,10702.469517696089,34.54023004151371,0.9929731080034372,117.0,69.0,83.0,285.0,368.0,48.0,1025.0,1027.0,48.0,23.0,25.0,0.4791666666666667,54.828052416421805,2356.00999280808,20.0,16.0,4.0,0.8,965.0377830126804,6489.596843621168,26.0,13.0,13.0,0.5,2204.634118664157,49365.36770270019,18.0,4.0,14.0,0.2222222222222222,1457.6338584318437,23691.1895104805,86.0,43.0,43.0,0.5,65.54931929030785,11117.696211723984,0.0,0.0,0.0,0.0,116804.0,116852.0,116921.0,116940.0,116952.0,116978.0,116988.0,117004.0,117205.0,117289.0,0.022558721975069453,-0.15067044493247428,0.043246301405901695,-0.13167167713519623,0.006124691052090807
116,116,117783.58814923024,2528.3671955022614,18.795373502077588,117889.94917465036,-7016.809103767353,10.52148914348987,117919.89334198338,49070.26274619665,11.322620167198496,117946.027373699,-11685.324642936575,11.2578078777622,118197.57434457687,11022.776112165566,35.34825377898675,0.9916265252295816,116.0,62.0,85.0,279.0,364.0,54.0,954.0,954.0,56.0,25.0,31.0,0.4464285714285714,48.71509814232397,2284.632100686164,19.0,14.0,5.0,0.7368421052631579,929.4463730148308,4761.860469033714,25.0,13.0,12.0,0.52,2150.596745165469,45173.91411339,20.0,4.0,16.0,0.2,1346.3409564638412,23575.387590828905,86.0,43.0,43.0,0.5,72.24947272280939,11631.16752692616,0.0,0.0,0.0,0.0,117760.0,117814.0,117876.0,117895.0,117907.0,117932.0,117942.0,117961.0,118156.0,118240.0,0.019267414254141472,-0.13245997707359708,0.043826884650870514,-0.11521639300604827,0.006554562297883328
117,117,118671.84729833611,1169.0510717276602,7.959379960173493,118781.39728720114,-6634.6635882182945,20.383723206912453,118811.40242128247,52467.004353330165,11.399313849129378,118837.027373699,-12115.807380592609,13.24835965391773,119090.87869793852,10209.571115735416,30.2390173729668,0.980459683827295,104.0,82.0,87.0,277.0,364.0,22.0,892.0,891.0,22.0,11.0,11.0,0.5,59.97514167501961,1130.1502781063955,22.0,17.0,5.0,0.7727272727272727,889.3665129384394,3739.295696552173,26.0,13.0,13.0,0.5,2144.4302175375637,46442.561312789134,20.0,4.0,16.0,0.2,1445.729395541607,25359.953200521213,79.0,40.0,39.0,0.5063291139240507,70.0756795136931,10432.067413009754,0.0,0.0,0.0,0.0,118661.0,118683.0,118765.0,118786.0,118798.0,118824.0,118833.0,118852.0,119052.0,119129.0,0.05130241366306304,-0.134048471503176,0.04087197742596969,-0.11932588148086697,0.006863724119193366
118,118,119648.7812550125,2235.3872405089646,16.031409256707025,119758.39728720114,-6248.9306652841215,13.457776143869465,119788.5728816472,50531.15989183105,11.44917532972024,119814.45203459916,-11779.115499545287,9.87812619017978,120070.6765841268,10884.492367356532,32.32764663500424,0.990221313456904,114.0,79.0,84.0,282.0,366.0,35.0,977.0,978.0,35.0,19.0,16.0,0.5428571428571428,66.56850171814375,2199.0099253946332,20.0,15.0,5.0,0.75,862.3452734713816,4426.55025744251,26.0,14.0,12.0,0.5384615384615384,2186.96608111767,46198.526461613656,19.0,4.0,15.0,0.2105263157894736,1485.0769622017676,24600.48785869977,81.0,41.0,40.0,0.5061728395061729,78.14656320982073,11339.171369871488,0.0,0.0,0.0,0.0,119630.0,119665.0,119744.0,119763.0,119775.0,119801.0,119811.0,119828.0,120031.0,120110.0,0.029779404888697087,-0.13799885446995483,0.04327955435416828,-0.126077120328695,0.007179624053409101
119,119,120691.4149960189,2139.094441667465,15.00217231140686,120797.49072176933,-6887.378187686617,11.910441384488928,120827.30819682997,50554.65058651675,11.30285897803331,120853.60271279886,-11556.863840562371,10.52779673567139,121109.75809976792,10693.53026338244,33.75441720042053,0.9903000394596873,111.0,72.0,84.0,284.0,368.0,39.0,1041.0,1038.0,39.0,19.0,20.0,0.4871794871794871,56.984548384052424,2061.1522508398925,19.0,14.0,5.0,0.7368421052631579,897.2828642845161,4115.251272544847,26.0,13.0,13.0,0.5,2204.2305742342073,48439.24915131733,19.0,5.0,14.0,0.2631578947368421,1345.4781489400827,23152.294472333266,85.0,43.0,42.0,0.5058823529411764,68.14276396892832,11062.805874374084,0.0,0.0,0.0,0.0,120672.0,120711.0,120783.0,120802.0,120814.0,120840.0,120849.0,120867.0,121068.0,121151.0,0.026639566385686028,-0.13027930800848067,0.043600945682771466,-0.11642242804814512,0.006372335635713091
120,120,121612.05752733744,2475.6704152125517,18.140803442009688,121717.79461308446,-6796.457668955081,10.151551749851802,121748.28805421614,49274.55564321646,11.18654530636831,121775.027373699,-11232.756380113608,10.4717189463696,122027.24080276689,11227.386234616832,35.23859350785111,0.9907455096825516,115.0,65.0,84.0,281.0,365.0,50.0,919.0,921.0,51.0,22.0,29.0,0.4313725490196078,52.017051941429926,2361.3477102507895,19.0,14.0,5.0,0.7368421052631579,898.8586044022385,4202.845233016957,26.0,13.0,13.0,0.5,2153.1811982513236,47228.935190929566,19.0,5.0,14.0,0.2631578947368421,1313.309835813819,22775.97185792878,87.0,43.0,44.0,0.4942528735632184,73.26815331465792,11788.197557578442,0.0,0.0,0.0,0.0,121590.0,121640.0,121705.0,121723.0,121735.0,121761.0,121771.0,121789.0,121985.0,122070.0,0.0210112992512228,-0.13225398408763034,0.043697627916564445,-0.1169178598174615,0.0065258424163545685
121,121,122556.8766938996,2615.517082194094,16.124098581784597,122661.53268844092,-6293.672240235713,10.650662494644754,122693.03013699091,49678.77069465991,11.22875390184383,122719.027373699,-11283.106238459222,9.382799799609208,122974.38607320888,10973.302804481538,33.09085793889932,0.9920440095288202,111.0,70.0,84.0,283.0,367.0,41.0,946.0,945.0,41.0,20.0,21.0,0.4878048780487805,67.8154995719621,2488.8896917154066,19.0,14.0,5.0,0.7368421052631579,839.8568729297233,3758.4882377588574,26.0,13.0,13.0,0.5,2162.3609435152566,46985.63752699455,17.0,4.0,13.0,0.2352941176470588,1414.351408763699,23386.32673694807,83.0,41.0,42.0,0.4939759036144578,69.12432197810031,11362.046431129713,0.0,0.0,0.0,0.0,122537.0,122578.0,122648.0,122667.0,122680.0,122706.0,122715.0,122732.0,122934.0,123015.0,0.025928142482278618,-0.13344464739686995,0.0435268609363495,-0.1253512444953135,0.00629931782706932
122,122,123557.8593327608,2446.1877870327144,16.83291739834016,123664.46463977438,-6547.169298724551,11.63435687257356,123694.61618512322,50230.59296494725,11.303138090460305,123720.45203459916,-11226.741483836608,9.462684071751063,123976.79079940292,10832.018136224662,34.15024637773568,0.9909101747470742,113.0,69.0,84.0,284.0,368.0,44.0,1001.0,1002.0,44.0,21.0,23.0,0.4772727272727273,61.02669570158685,2370.990343681566,19.0,14.0,5.0,0.7368421052631579,866.3820536994647,3951.9006253797897,26.0,14.0,12.0,0.5384615384615384,2200.745806215284,46540.55958718827,19.0,4.0,15.0,0.2105263157894736,1467.9563611766714,24025.65029482444,85.0,43.0,42.0,0.5058823529411764,78.96383398708403,11438.60305016294,0.0,0.0,0.0,0.0,123537.0,123581.0,123650.0,123669.0,123681.0,123707.0,123717.0,123734.0,123935.0,124018.0,0.024947674101346785,-0.13232925775544616,0.04381285739053579,-0.1307553365587086,0.007289854299912176
123,123,124470.80857372812,1666.892531667541,12.31630466303542,124577.39728720114,-6840.727764697385,20.383723206897855,124606.70210438895,52440.13216232443,11.233413753846104,124633.027373699,-11527.262526482802,13.116347546689807,124886.38293682024,10436.507244763832,32.46323499522951,0.9834008399723926,107.0,73.0,87.0,279.0,366.0,34.0,912.0,912.0,36.0,17.0,19.0,0.4722222222222222,48.79911070207244,1523.654356796898,22.0,17.0,5.0,0.7727272727272727,934.5462331765506,4023.0549500446496,25.0,13.0,12.0,0.52,2184.180443846181,45105.16666658158,21.0,5.0,16.0,0.238095238095238,1347.449364620965,24197.249897573205,83.0,41.0,42.0,0.4939759036144578,70.17614876966454,10810.366145337604,0.0,0.0,0.0,0.0,124454.0,124488.0,124561.0,124582.0,124594.0,124619.0,124629.0,124648.0,124845.0,124927.0,0.0292754990348744,-0.13661503064036817,0.04165093324107607,-0.11689239847928568,0.006724102913345177
124,124,125291.14178247328,1334.361183223847,9.181301486756531,125403.39728720114,-7092.77657264293,20.383723206912453,125433.54124015044,52200.10992529046,11.34542494622685,125459.60271279886,-11973.460621647797,13.221633074075822,125712.32341123966,9829.089847070483,29.376776582403345,0.9796915370569464,107.0,83.0,88.0,276.0,364.0,24.0,824.0,827.0,24.0,12.0,12.0,0.5,60.680751184964606,1298.9541625552315,23.0,17.0,6.0,0.7391304347826086,876.5287628980856,2892.808891612074,26.0,14.0,12.0,0.5384615384615384,2164.9268856430435,43985.17630766154,20.0,5.0,15.0,0.25,1358.629497138777,24319.348579555444,77.0,38.0,39.0,0.4935064935064935,71.27954322706744,10070.657834049682,0.0,0.0,0.0,0.0,125279.0,125303.0,125386.0,125408.0,125420.0,125446.0,125455.0,125474.0,125675.0,125750.0,0.04547550689263796,-0.1235804841617154,0.0414736077901276,-0.11347007687004038,0.007251896598372431
125,125,126158.34870211632,1191.6890957626165,8.597166792337934,126267.81910148106,-6313.453275583394,20.383723206912453,126300.21337313582,54344.52880318466,10.989663646231554,126326.027373699,-10190.243052082553,17.8357578034818,126579.92783981032,10025.299333727336,29.504760356595103,0.9747844567046338,106.0,83.0,87.0,278.0,365.0,23.0,867.0,866.0,23.0,11.0,12.0,0.4782608695652174,57.44513587685944,1192.609365040298,22.0,15.0,7.0,0.6818181818181818,747.5266387435173,566.9484088809772,25.0,13.0,12.0,0.52,2178.242238742397,46376.55723567457,19.0,4.0,15.0,0.2105263157894736,1426.7355526366198,24977.48372640113,76.0,38.0,38.0,0.5,75.67248044540347,10269.132267126944,0.0,0.0,0.0,0.0,126147.0,126170.0,126253.0,126275.0,126287.0,126312.0,126322.0,126340.0,126542.0,126618.0,0.04820480113573387,-0.11840218120160906,0.04008208897405601,-0.1400099629954402,0.007548151723592373
126,126,127176.1880070958,3272.3226212035374,23.56884027709828,127283.4385283953,-5709.030130908078,8.718454299589077,127314.44988686322,50875.02198921281,11.041472379103196,127340.45203459916,-10473.192689485417,8.777160053695384,127594.55071045106,11050.71898833283,36.91805461344833,0.994826128759357,122.0,61.0,82.0,285.0,367.0,61.0,1016.0,1015.0,61.0,27.0,34.0,0.4426229508196721,59.29992837661087,3270.0591473927325,17.0,12.0,5.0,0.7058823529411765,800.7617202882417,3653.316767792364,26.0,13.0,13.0,0.5,2195.592341093351,49644.049256296195,18.0,4.0,14.0,0.2222222222222222,1458.3308954506306,23371.628325434373,89.0,45.0,44.0,0.5056179775280899,72.5435493540533,11679.545921536426,0.0,0.0,0.0,0.0,127149.0,127210.0,127271.0,127288.0,127301.0,127327.0,127337.0,127353.0,127551.0,127638.0,0.018121663185765215,-0.14026230409137333,0.04315658755997962,-0.1392441577929455,0.006564599953237758
127,127,128223.84589276428,2913.5112670640733,20.43946694306228,128328.67706525882,-6553.947540530006,9.747307188858525,128358.73451641442,50042.62208568568,11.217951592783358,128385.027373699,-11039.93501925884,9.909020622762268,128640.29472500652,10877.969534198848,36.2652422442126,0.9945643275724322,117.0,61.0,83.0,285.0,368.0,56.0,1047.0,1044.0,58.0,26.0,32.0,0.4482758620689655,52.05275101142591,2786.815033299581,18.0,14.0,4.0,0.7777777777777778,946.2580811784844,5625.256786624289,26.0,14.0,12.0,0.5384615384615384,2189.1403687689813,46600.41319129024,19.0,4.0,15.0,0.2105263157894736,1366.8217914923673,22976.78861287531,89.0,44.0,45.0,0.4943820224719101,68.13640856225338,11450.079735925345,0.0,0.0,0.0,0.0,128199.0,128255.0,128316.0,128333.0,128345.0,128371.0,128381.0,128399.0,128597.0,128684.0,0.017865985829489905,-0.14437986806070197,0.04374551687200996,-0.12380705041361086,0.006263706507730311
128,128,129235.54766358132,1703.1288615581868,12.802675955543396,129342.972626301,-6536.641274385591,17.83575780387763,129372.50413346953,51279.74940219943,11.393745604275953,129399.027373699,-11910.381377261554,10.65369567765465,129655.18450576389,10572.59102655115,31.323188182234237,0.9846231079736462,108.0,77.0,86.0,281.0,367.0,31.0,1013.0,1014.0,31.0,17.0,14.0,0.5483870967741935,57.231175642674415,1613.7282265490005,21.0,17.0,4.0,0.8095238095238095,946.975830108724,5309.457577889771,26.0,14.0,12.0,0.5384615384615384,2176.940280805332,45664.08345002992,19.0,5.0,14.0,0.2631578947368421,1394.1402576532914,24049.390555391805,80.0,40.0,40.0,0.5,72.77448021941146,10929.13285225289,0.0,0.0,0.0,0.0,129219.0,129250.0,129327.0,129347.0,129359.0,129385.0,129395.0,129413.0,129616.0,129694.0,0.03360354987485434,-0.14487192892465017,0.04245224101489001,-0.11705252867174212,0.006883315550242274
129,129,130329.8766289774,2776.710196993481,20.878367800008338,130435.64682463264,-5855.608718152941,9.223348815552248,130466.58613502583,51129.88950524937,11.10607769691227,130492.45203459916,-10372.528597092389,8.644128199117088,130749.72732739351,11198.852356113312,35.426685561646025,0.9942895146467808,119.0,62.0,82.0,287.0,369.0,57.0,1094.0,1094.0,57.0,26.0,31.0,0.4561403508771929,53.55114012031732,2702.0239433791894,18.0,13.0,5.0,0.7222222222222222,874.1951249157802,5031.803831834137,26.0,14.0,12.0,0.5384615384615384,2219.9866682593847,47523.45515466535,17.0,3.0,14.0,0.1764705882352941,1471.8590968855185,23336.012470877504,87.0,44.0,43.0,0.5057471264367817,70.58094923781233,11737.14781137262,0.0,0.0,0.0,0.0,130304.0,130361.0,130423.0,130440.0,130453.0,130479.0,130489.0,130505.0,130707.0,130792.0,0.019285822545795566,-0.14929192966833535,0.043418569641764326,-0.14189973863249775,0.006302516275186278
130,130,131383.5361100883,2586.175197667662,19.248772261052174,131487.74126475456,-6412.072912501785,10.457942985938496,131518.12142280632,50450.62024048272,11.118858567315453,131545.02737369903,-10738.932383740335,9.19347277211932,131799.0343571093,11470.53103276148,37.906462025113534,0.9924430624900028,113.0,61.0,84.0,286.0,370.0,52.0,1053.0,1051.0,52.0,23.0,29.0,0.4423076923076923,52.535124735288335,2552.2441104613554,19.0,14.0,5.0,0.7368421052631579,902.8380230811988,4860.798036834849,26.0,13.0,13.0,0.5,2196.301140974923,48815.8248186722,18.0,5.0,13.0,0.2777777777777778,1339.2480649017475,22268.800662519017,92.0,46.0,46.0,0.5,68.81438146150649,12076.514732286218,0.0,0.0,0.0,0.0,131361.0,131413.0,131474.0,131493.0,131505.0,131531.0,131541.0,131558.0,131754.0,131844.0,0.02031383054893847,-0.14080283168971958,0.04353367967540984,-0.12470960958181318,0.0059992324038845935
131,131,132347.82981518414,2895.992056510055,22.145777897104328,132453.92154859053,-5999.368328876504,9.13148021971334,132484.9282359001,50504.18225752043,11.149101731768026,132511.02737369903,-10727.313387534825,8.96422912698113,132766.96592174104,11689.02794255438,36.41850491639764,0.9932845925382472,122.0,61.0,82.0,286.0,368.0,61.0,964.0,967.0,61.0,28.0,33.0,0.4590163934426229,55.61161287411084,2846.335201178737,18.0,13.0,5.0,0.7222222222222222,850.6819096254015,4329.5675187239485,27.0,14.0,13.0,0.5185185185185185,2186.1149764369984,47797.56728265672,17.0,4.0,13.0,0.2352941176470588,1408.8770526888786,22869.400777270355,88.0,44.0,44.0,0.5,75.72147531511837,12408.05852965739,0.0,0.0,0.0,0.0,132320.0,132381.0,132442.0,132459.0,132471.0,132498.0,132507.0,132524.0,132724.0,132810.0,0.01920295767010083,-0.14179524626465265,0.04328582067302893,-0.13133549862782964,0.006477995919528199
132,132,133290.4817927687,1868.4422373854377,13.103949982824188,133399.97262630097,-6706.191782535979,15.933631152637442,133429.530407992,50953.60503521197,11.325346395294329,133456.02737369903,-11589.611315395514,10.646348909911318,133713.41926216957,10596.794654227426,31.628203248357355,0.9864937881544128,111.0,79.0,85.0,282.0,367.0,32.0,945.0,945.0,32.0,16.0,16.0,0.5,60.50573137164799,1867.9836679335144,21.0,16.0,5.0,0.7619047619047619,944.5919876287312,5021.117331515916,25.0,13.0,12.0,0.52,2194.4862861817405,45975.498122566154,19.0,5.0,14.0,0.2631578947368421,1377.4735379675476,23720.938626750947,80.0,40.0,40.0,0.5,79.51651478906491,11064.20520429677,0.0,0.0,0.0,0.0,133274.0,133306.0,133385.0,133404.0,133417.0,133442.0,133452.0,133470.0,133674.0,133752.0,0.032382982016246495,-0.14085370926739724,0.043068322342751215,-0.1188541617558586,0.007503827089575907
133,133,134192.11267352375,2064.419042779388,16.282826100435226,134301.97262630097,-6901.015780314621,12.543054315787275,134331.21543663283,50515.57786573056,11.359138970391616,134357.02737369903,-11764.506694762837,10.357028449880424,134613.04007122354,11100.014243951338,31.96328342720819,0.989784304372687,115.0,77.0,84.0,282.0,366.0,38.0,900.0,901.0,39.0,20.0,19.0,0.5128205128205128,57.38491995491492,2027.1773341182288,20.0,16.0,4.0,0.8,973.7317418956518,5991.798836493803,26.0,13.0,13.0,0.5,2212.0619860342326,48058.9976267338,19.0,4.0,15.0,0.2105263157894736,1430.650795392277,24171.872143840817,81.0,41.0,40.0,0.5061728395061729,88.05007221083027,11664.633501537326,0.0,0.0,0.0,0.0,134172.0,134210.0,134287.0,134306.0,134318.0,134344.0,134353.0,134371.0,134573.0,134653.0,0.027797127795166975,-0.14109977036616178,0.04378969972220948,-0.12160737653616659,0.007932428758711805
134,134,135889.00278308327,1742.8399688358345,11.76789573183091,135999.97262630097,-6600.630183725736,17.835757792763822,136029.82986246367,50993.27783565093,11.407819122034208,136056.02737369903,-12002.01950299909,10.42870169188453,136309.57812501793,10300.755719033634,30.029710920264804,0.9842210316064294,109.0,80.0,86.0,278.0,364.0,29.0,1699.0,1699.0,29.0,15.0,14.0,0.5172413793103449,63.84898409335348,1700.6688015021216,23.0,18.0,5.0,0.782608695652174,908.6528518484316,4790.628857883879,25.0,13.0,12.0,0.52,2171.3105700971196,46431.66319891289,18.0,4.0,14.0,0.2222222222222222,1420.6547703464578,24230.17955202522,77.0,39.0,38.0,0.5064935064935064,74.74661291645613,10594.885413987307,0.0,0.0,0.0,0.0,135874.0,135903.0,135983.0,136004.0,136017.0,136042.0,136052.0,136069.0,136272.0,136347.0,0.03663502400395528,-0.13766153027157493,0.042580329452347764,-0.11836797715513306,0.0072564203011183034
135,135,136921.21257109512,2222.5662175208604,17.706626412827458,137030.60892699062,-6310.170446740395,10.724937948334246,137061.6524984869,50235.91035455161,11.223763154887951,137087.45203459918,-11011.069991386945,9.195237869900769,137343.54510461018,10721.615457715776,33.52614496002273,0.9935857759358788,118.0,74.0,83.0,284.0,367.0,44.0,1031.0,1032.0,44.0,22.0,22.0,0.5,54.113526673263465,2213.082921720551,19.0,14.0,5.0,0.7368421052631579,867.5223842903373,4340.189339400429,26.0,14.0,12.0,0.5384615384615384,2196.220693599446,46621.70515519829,18.0,4.0,14.0,0.2222222222222222,1470.4174520782776,23848.153911053058,83.0,42.0,41.0,0.5060240963855421,72.76570215060225,11132.679498622105,0.0,0.0,0.0,0.0,136899.0,136943.0,137017.0,137036.0,137048.0,137074.0,137084.0,137100.0,137303.0,137384.0,0.024347318089637783,-0.13748002397280218,0.04371814262146556,-0.13353992420613658,0.00678682260500554
136,136,138000.45161258776,2236.862354077145,16.249612621104845,138107.97262630097,-7112.408453972246,13.120699678501598,138137.59759499624,50722.56506699501,11.357254578036857,138164.02737369903,-11533.77310388006,10.1156851544281,138418.87055116013,11133.655723581973,35.18333884759861,0.9912596467739312,113.0,69.0,85.0,284.0,369.0,44.0,1078.0,1076.0,44.0,20.0,24.0,0.4545454545454545,56.58434648356197,2205.740123964319,21.0,16.0,5.0,0.7619047619047619,954.4222511103218,5053.877752442439,25.0,13.0,12.0,0.52,2211.2120439437554,46879.2572777545,18.0,4.0,14.0,0.2222222222222222,1390.2832193729705,23562.785400514007,87.0,44.0,43.0,0.5057471264367817,74.54368464356666,11762.813044518618,0.0,0.0,0.0,0.0,137980.0,138024.0,138093.0,138112.0,138125.0,138150.0,138160.0,138178.0,138376.0,138462.0,0.02529630237659697,-0.1341911473851423,0.04359424727482055,-0.12054019156188077,0.006695346658301745
