Unnamed: 0,cycle,p_center,p_height,p_width,q_center,q_height,q_width,r_center,r_height,r_width,s_center,s_height,s_width,t_center,t_height,t_width,r_squared,pr_interval,pr_segment,qrs_duration,st_segment,qt_interval,p_duration,pp_interval,rr_interval,fwhm_p,rise_time_p,decay_time_p,rise_decay_symmetry_p,sharpness_deriv_p,sharpness_diff_p,fwhm_q,rise_time_q,decay_time_q,rise_decay_symmetry_q,sharpness_deriv_q,sharpness_diff_q,fwhm_r,rise_time_r,decay_time_r,rise_decay_symmetry_r,sharpness_deriv_r,sharpness_diff_r,fwhm_s,rise_time_s,decay_time_s,rise_decay_symmetry_s,sharpness_deriv_s,sharpness_diff_s,fwhm_t,rise_time_t,decay_time_t,rise_decay_symmetry_t,sharpness_deriv_t,sharpness_diff_t,Average_Heart_Rate,SDNN,RMSSD,NN50,p_on,p_off,q_on,q_off,r_on,r_off,s_on,s_off,t_on,t_off,sharpness_deriv_p_norm,sharpness_deriv_q_norm,sharpness_deriv_r_norm,sharpness_deriv_s_norm,sharpness_deriv_t_norm
0,0,,,,,,,,,,,,,,,,,,,,,,,,,,,,,,,,,,,,,,,,,,,,,,,,,,,,,,,59.61370496700226,106.93371716641832,122.61361071933362,148.0,,,,,,,,,,,,,,,
1,1,1783.5913087268116,2951.7210817834953,16.520362357259362,1869.2466089997868,-3741.744822629234,25.479654008621225,1901.2970946962323,40174.86320170904,11.388285584249749,1925.452034599136,-10748.398318590813,8.558482662970853,2205.9472448175416,15466.56454750616,33.7127652012861,0.9576495905665028,69.0,34.0,102.0,311.0,413.0,35.0,,,35.0,18.0,17.0,0.5142857142857142,134.22790362865152,3091.174413870665,42.0,36.0,6.0,0.8571428571428571,503.6923852418815,2768.545757454025,26.0,13.0,13.0,0.5,1723.3652243811632,36542.05549007257,16.0,3.0,13.0,0.1875,1350.6055289129504,21506.59763921329,84.0,42.0,42.0,0.5,126.34429174180254,16147.12933212338,,,,,1766.0,1801.0,1835.0,1875.0,1888.0,1914.0,1922.0,1937.0,2165.0,2248.0,0.045474453686372034,-0.13461430672547814,0.04289660466865886,-0.1256564456284519,0.00816886590126276
2,2,2827.7260332939295,3739.005540239315,17.11670560565994,2905.6027128002574,-2485.641610221027,20.383723206912453,2944.961551502315,41099.57252635529,11.009363040981237,2969.0273736989925,-11556.35169746798,8.069283363892419,3247.6841776096276,16097.583645565985,34.8598327815189,0.9714325303599296,62.0,29.0,105.0,311.0,416.0,33.0,1044.0,1044.0,33.0,15.0,18.0,0.4545454545454545,139.64899076435407,4270.901733485672,46.0,34.0,12.0,0.7391304347826086,196.7357060382483,449.3846829236088,25.0,13.0,12.0,0.52,1858.6327422680404,37467.572324271736,16.0,4.0,12.0,0.25,1420.7836279337555,22304.508793480876,86.0,43.0,43.0,0.5,125.16661212490376,16544.83283060844,,,,,2813.0,2846.0,2875.0,2917.0,2932.0,2957.0,2965.0,2980.0,3205.0,3291.0,0.03734923344227402,-0.07914886250264948,0.04522267819394432,-0.12294395888323925,0.007775490712196449
3,3,3817.1450583898745,3229.125983152618,13.094192024472951,3898.261126702988,-3835.2239709915098,22.9316886077758,3934.046397571569,43491.75618223265,11.0169390083225,3957.452034599136,-13312.608211055176,8.242168065345314,4236.439494117364,15236.300593877551,32.34635369837247,0.9665851965303672,63.0,34.0,103.0,307.0,410.0,29.0,991.0,989.0,29.0,14.0,15.0,0.4827586206896552,134.78278543486482,3411.196950686601,43.0,33.0,10.0,0.7674418604651163,344.0130044307603,260.61710335394446,25.0,13.0,12.0,0.52,2003.7215516785652,38815.44829785844,16.0,3.0,13.0,0.1875,1605.5721583366983,25524.086745829467,81.0,40.0,41.0,0.4938271604938271,142.80350770689304,16014.729640106283,,,,,3803.0,3832.0,3866.0,3908.0,3921.0,3946.0,3954.0,3969.0,4198.0,4276.0,0.041739711035763134,-0.08969828282070931,0.04607129551823271,-0.12060537896723984,0.009372584035541818
4,4,4798.378898741921,3632.603762182794,17.621289318902978,4882.4520346120025,-3497.2548346103517,15.287792401924987,4918.349567259999,45556.91134605335,11.006490437898377,4941.452034599137,-13520.662699346882,7.7310939648815395,5219.994879582221,16270.760111683268,33.56920132734842,0.9766023038045828,72.0,29.0,104.0,309.0,413.0,43.0,981.0,985.0,44.0,22.0,22.0,0.5,107.63349130292386,3722.012481629228,43.0,34.0,9.0,0.7906976744186046,302.92814132445886,533.2952852481139,25.0,13.0,12.0,0.52,2113.169625892355,42491.111298103715,16.0,3.0,13.0,0.1875,1715.4910823905666,26042.733876748673,83.0,42.0,41.0,0.5060240963855421,113.44402236370698,16830.699624540153,,,,,4776.0,4819.0,4848.0,4891.0,4905.0,4930.0,4938.0,4952.0,5178.0,5261.0,0.029629846344223353,-0.08661883552967044,0.04638526984063026,-0.1268792159480048,0.0069722632246448125
5,5,5812.549771092363,3225.488022620684,19.12410296893831,5897.257944753756,-3406.886794816756,25.479654006380336,5930.808504870481,49636.30177877684,10.933007772615223,5954.452034599137,-12906.987088746968,7.413177198548933,6232.535992725735,17073.848414652857,34.405602630921095,0.9754918022615188,72.0,31.0,100.0,309.0,409.0,41.0,1012.0,1012.0,44.0,23.0,21.0,0.5227272727272727,116.11309478380834,3241.4800826240817,39.0,32.0,7.0,0.8205128205128205,442.1558300771474,2542.336084206194,25.0,13.0,12.0,0.52,2247.4980517394984,44739.59968313835,15.0,3.0,12.0,0.2,1747.1247069258604,26329.698654952823,84.0,42.0,42.0,0.5,142.90603700901036,17915.378909340747,,,,,5793.0,5834.0,5865.0,5904.0,5918.0,5943.0,5951.0,5965.0,6191.0,6274.0,0.035998612913610305,-0.12978295338425808,0.04527932120640923,-0.13536270664197855,0.008369878514697818
6,6,6897.3268102907,3616.805814195296,16.74122070354328,6979.452034599137,-2651.9614478560693,15.28779240518434,7015.870122274317,44077.52187018886,10.919721967113093,7039.452034599137,-11432.353272259545,7.284671464390429,7319.56343708062,15572.677313896937,34.828944923014085,0.9784098168378688,71.0,36.0,98.0,312.0,410.0,35.0,1088.0,1085.0,39.0,19.0,20.0,0.4871794871794871,102.68865273573218,4038.7685253786726,37.0,28.0,9.0,0.7567567567567568,286.1750384816677,718.3869334102,25.0,13.0,12.0,0.52,2011.9725088831008,40682.03291098604,15.0,3.0,12.0,0.2,1580.2866916849764,23504.148014274375,86.0,44.0,42.0,0.5116279069767442,121.6066633969078,16228.64461667878,,,,,6881.0,6916.0,6952.0,6988.0,7003.0,7028.0,7036.0,7050.0,7277.0,7362.0,0.028392083515431807,-0.10791070839774868,0.04564622563873916,-0.13822934386741892,0.007808975999803641
7,7,8044.977780761578,4044.3882370517504,22.52669548055839,8131.876695499283,-2134.5695692157788,12.739827004320205,8166.641327469622,41597.920370608816,10.901271442515885,8190.876695499281,-9228.323619723633,6.783643493510218,8471.759243644457,15351.669408595222,37.1653544457954,0.9776620416199964,101.0,45.0,84.0,315.0,399.0,56.0,1150.0,1151.0,61.0,31.0,30.0,0.5081967213114754,123.53074502843374,4060.637237683982,22.0,15.0,7.0,0.6818181818181818,373.4702495707969,2321.3255849962597,26.0,14.0,12.0,0.5384615384615384,1840.2527799359057,38381.02583833697,13.0,3.0,10.0,0.2307692307692307,1355.7807354510417,19813.519551797617,89.0,45.0,44.0,0.5056179775280899,95.07683456864548,16007.775094042929,,,,,8016.0,8072.0,8117.0,8139.0,8153.0,8179.0,8188.0,8201.0,8427.0,8516.0,0.03054374055802425,-0.17496279107361512,0.044239057230277885,-0.14691517022152764,0.0061932570353171535
8,8,9200.442682418468,3575.68084778951,18.31824089521609,9285.200430142228,-2657.4158343578474,20.383723177483304,9322.779304945683,40607.088266658306,10.918809799747468,9347.45203459914,-9532.238519671017,7.40218850798144,9629.643420114187,14922.87651022968,35.02498303829773,0.9711350569558154,80.0,37.0,102.0,314.0,416.0,43.0,1153.0,1156.0,45.0,25.0,20.0,0.5555555555555556,126.47446047690543,3862.23143268356,40.0,29.0,11.0,0.725,214.4079149499507,179.40569268134493,25.0,13.0,12.0,0.52,1795.1795686553892,37472.793372095664,14.0,3.0,11.0,0.2142857142857142,1338.8440253978986,20459.162899488507,85.0,43.0,42.0,0.5058823529411764,111.62898819120224,15674.306786727291,,,,,9176.0,9219.0,9256.0,9296.0,9310.0,9335.0,9344.0,9358.0,9587.0,9672.0,0.03537073521399207,-0.08068286196607292,0.04420852726171397,-0.14045431433917852,0.007480393482763206
9,9,10343.03829567822,3600.3476233002357,16.98902387811116,10429.027373699008,-3191.7325809996432,17.8357578060484,10465.51857244338,39547.10945856573,11.140318418456012,10489.45203459914,-10327.73936810655,8.152703022019029,10773.006402313118,14719.497857899714,34.4473155176569,0.968609078682469,73.0,34.0,105.0,314.0,419.0,39.0,1143.0,1143.0,39.0,20.0,19.0,0.5128205128205128,135.57767403378205,3742.9275156410017,43.0,33.0,10.0,0.7674418604651163,274.52503660059836,84.68038793513858,26.0,14.0,12.0,0.5384615384615384,1777.3516828306715,35276.4214073408,16.0,3.0,13.0,0.1875,1372.2586018505497,21142.69230461944,84.0,42.0,42.0,0.5,105.63267652339886,15320.6368423487,,,,,10323.0,10362.0,10396.0,10439.0,10452.0,10478.0,10486.0,10501.0,10731.0,10815.0,0.03765682878963383,-0.08601128999178802,0.04494264453620403,-0.1328711495265139,0.007176377723150897
10,10,11461.304123483904,3576.4005599181305,19.416074660579177,11544.913270154091,-2550.4057007494675,17.835757805837414,11580.607614204817,39606.06419901783,10.94078338621642,11605.45203459914,-9599.90936246715,7.313995561162185,11886.86893590618,14907.09477861342,35.65648154284242,0.9724919689166504,75.0,40.0,96.0,314.0,410.0,35.0,1114.0,1115.0,37.0,16.0,21.0,0.4324324324324324,124.89738065093454,4196.873927475189,38.0,29.0,9.0,0.7631578947368421,319.6736342288884,909.3245624484936,26.0,14.0,12.0,0.5384615384615384,1748.8345874622182,36170.22049074289,15.0,4.0,11.0,0.2666666666666666,1316.7261012981392,19942.31687124216,88.0,44.0,44.0,0.5,112.91429823431385,15507.05030891276,,,,,11445.0,11480.0,11520.0,11553.0,11567.0,11593.0,11602.0,11616.0,11844.0,11930.0,0.03492264878008901,-0.12534226775565488,0.044155727735895225,-0.13716026387146474,0.007574534133660117
11,11,12573.729134358478,3963.024503174955,21.403325656687176,12659.972626301009,-2650.381526931765,17.47050890364178,12691.43484731905,39618.89503847605,11.07474828591989,12716.45203459914,-9947.278859147613,7.656556235142496,12998.028034392875,15374.860665537804,35.7050312702342,0.9717389186355174,92.0,44.0,84.0,315.0,399.0,48.0,1115.0,1111.0,48.0,23.0,25.0,0.4791666666666667,111.04287148106252,4292.453806294425,23.0,19.0,4.0,0.8260869565217391,540.2364724318993,4384.687763915457,26.0,13.0,13.0,0.5,1726.292575286193,37957.45790488379,16.0,4.0,12.0,0.25,1312.4385856941872,20313.62970085921,88.0,44.0,44.0,0.5,118.5117346810986,16166.03588107252,,,,,12551.0,12599.0,12643.0,12664.0,12678.0,12704.0,12713.0,12727.0,12956.0,13042.0,0.028019728717826785,-0.20383347338573865,0.04357245636481525,-0.1319394584466943,0.007708150158832879
12,12,13649.8247858974,2939.9957045982883,16.24939197268387,13735.24660899934,-3278.4063181769197,23.074383250522665,13767.82352454964,41492.0824635675,11.32609900938906,13791.452034599151,-11885.694944228604,8.627168585516733,14071.128514625952,15500.698577048865,34.920956668703965,0.9654278942419428,71.0,41.0,96.0,311.0,407.0,30.0,1076.0,1076.0,34.0,17.0,17.0,0.5,127.24800438736176,3153.448815914431,37.0,31.0,6.0,0.8378378378378378,473.48553671928,3074.325513855975,25.0,13.0,12.0,0.52,1845.29744057117,36557.89912218219,17.0,3.0,14.0,0.1764705882352941,1456.0864330931363,23034.79149892562,89.0,45.0,44.0,0.5056179775280899,116.36577633749384,16131.197706207502,,,,,13636.0,13666.0,13707.0,13741.0,13755.0,13780.0,13788.0,13803.0,14029.0,14114.0,0.043281697380829515,-0.14442551983079976,0.04447348339749999,-0.1225074713700418,0.007507131098581004
13,13,14684.823309385434,3271.001103218803,15.658628293560506,14766.46543693932,-3607.403883761184,25.479654007663697,14804.095886345944,40258.875620198305,11.292260335905016,14827.876695499284,-11442.39367171847,8.765132085497273,15110.464535680683,14676.94423557885,32.78646397855965,0.9606882658295172,65.0,31.0,108.0,311.0,419.0,34.0,1035.0,1036.0,35.0,18.0,17.0,0.5142857142857142,114.15583337108562,3249.694384415274,48.0,36.0,12.0,0.75,240.23777632486537,1045.4319306651894,25.0,13.0,12.0,0.52,1784.2156918986236,35988.118897850174,16.0,4.0,12.0,0.25,1363.2255850606468,21990.79469464728,83.0,41.0,42.0,0.4939759036144578,110.4939404310621,15106.776669875104,,,,,14667.0,14701.0,14732.0,14777.0,14791.0,14816.0,14825.0,14840.0,15070.0,15151.0,0.03489935642600409,-0.06659575253170336,0.04431856738203249,-0.1191381475040538,0.007528402278943747
14,14,15745.027648357453,3539.52459716525,18.124799399172858,15832.316789896657,-3098.521991437671,25.47965400864012,15865.576162665322,40051.10478661476,11.148327527874212,15889.876695499284,-10129.069452397092,7.9651396424317635,16172.15486034126,14688.380351596468,33.63334979338424,0.9669180772932624,73.0,33.0,104.0,313.0,417.0,40.0,1062.0,1062.0,47.0,26.0,21.0,0.5531914893617021,119.93117715030776,3817.496011332277,42.0,35.0,7.0,0.8333333333333334,416.0625667859893,2031.0160155115088,26.0,14.0,12.0,0.5384615384615384,1756.2592545679368,35434.560103247946,15.0,4.0,11.0,0.2666666666666666,1307.613077701598,20386.40379727776,85.0,43.0,42.0,0.5058823529411764,99.91062196096094,15111.006518926546,,,,,15724.0,15764.0,15797.0,15839.0,15852.0,15878.0,15887.0,15901.0,16130.0,16214.0,0.03388341396083496,-0.13427775175897397,0.0438504571577982,-0.1290950845827348,0.0068020176200095294
15,15,16804.106614700744,3635.8110092945303,18.10739948211541,16891.99913342717,-3250.010637666959,22.93168860582018,16924.927544643248,39737.767057442354,11.251890027083112,16948.876695499283,-10421.327295724946,8.35750360739463,17231.68783306096,14693.277873316749,33.82455516997729,0.9665399483480256,80.0,36.0,100.0,313.0,413.0,44.0,1059.0,1059.0,45.0,25.0,20.0,0.5555555555555556,113.4579774151648,3815.074982619371,40.0,34.0,6.0,0.85,456.5451487930171,2594.5656949512595,25.0,13.0,12.0,0.52,1748.3778138242803,35842.84312248313,16.0,4.0,12.0,0.25,1312.0714048171897,20765.669415047163,85.0,43.0,42.0,0.5058823529411764,117.69756514525793,15240.334758284762,,,,,16780.0,16824.0,16860.0,16898.0,16912.0,16937.0,16946.0,16960.0,17190.0,17273.0,0.031205686193567984,-0.14047497060525038,0.04399788773478233,-0.12590252350633202,0.008010300095052226
16,16,17855.687402990177,3729.1063929064057,17.038008142449875,17938.027373698995,-3003.7551611092813,17.8357578060484,17975.49460690532,38834.70465129334,10.966161707402856,18000.45203459914,-9685.467937080612,7.918727988418671,18281.68907248362,14638.465577634694,33.893352167671225,0.9682389479859792,71.0,35.0,102.0,312.0,414.0,36.0,1053.0,1051.0,43.0,23.0,20.0,0.5348837209302325,114.09381518287046,3966.923710576417,42.0,31.0,11.0,0.7380952380952381,237.9528365254331,383.72483042897295,26.0,13.0,13.0,0.5,1711.5843360163483,37169.44844986648,15.0,4.0,11.0,0.2666666666666666,1285.8525929441928,20192.812354252408,85.0,43.0,42.0,0.5058823529411764,114.83516889676132,14993.95805759612,,,,,17838.0,17874.0,17909.0,17948.0,17962.0,17988.0,17997.0,18011.0,18240.0,18323.0,0.030595484054813347,-0.07921845282408356,0.044073576750102726,-0.132761019012962,0.00784475451253659
17,17,18893.013826584054,3371.6857747431977,15.89287131929322,18974.602712798867,-3505.0107517534543,20.38372320691229,19013.190705109464,38998.82869398938,11.24245284642023,19036.876695499283,-10517.731820156923,8.365489454506998,19319.08336054418,14676.108177298274,33.52612234386514,0.967245247040078,66.0,31.0,106.0,312.0,418.0,35.0,1037.0,1037.0,37.0,19.0,18.0,0.5135135135135135,127.2986375793997,3508.9562287751432,45.0,33.0,12.0,0.7333333333333333,223.6440273799946,859.5954673959286,25.0,13.0,12.0,0.52,1730.168722693148,36013.96796421017,16.0,4.0,12.0,0.25,1318.7194147967318,20587.821052945317,84.0,42.0,42.0,0.5,109.09039061493034,15287.6094694735,,,,,18876.0,18911.0,18942.0,18986.0,19000.0,19025.0,19034.0,19048.0,19278.0,19360.0,0.037755190158280785,-0.06380694474848958,0.044364633006524296,-0.12538058940326324,0.007433196137357227
18,18,19932.395296087932,3138.5702473452675,16.269129895367513,20014.80367992916,-3630.776919094154,25.47965400863624,20052.52260978817,38963.867370383225,11.136892355592384,20077.027373698995,-10540.128039287489,8.731851308780108,20358.4024415875,14197.487554584282,32.51865185368209,0.9596203591198568,65.0,32.0,107.0,310.0,417.0,33.0,1038.0,1040.0,33.0,16.0,17.0,0.4848484848484848,121.04120053678794,3296.067095262887,47.0,36.0,11.0,0.7659574468085106,230.81390658438735,1011.3702987279956,26.0,14.0,12.0,0.5384615384615384,1737.7429709152789,34011.010146177985,16.0,4.0,12.0,0.25,1279.8132782165983,20865.245075484858,81.0,40.0,41.0,0.4938271604938271,110.01297616247696,14675.54337864628,,,,,19916.0,19949.0,19981.0,20026.0,20039.0,20065.0,20073.0,20088.0,20318.0,20398.0,0.0385657133655586,-0.06357149219786638,0.044598831897168206,-0.1214229346594459,0.007748763697768091
19,19,20984.34445033606,3572.5711855228956,18.474166525701204,21066.744391352724,-2810.9726263732905,20.38372320691224,21105.102092160058,39059.227272629854,11.03403759856706,21129.45203459914,-10188.94832558287,8.178985731619301,21410.08383231512,15129.514259883192,34.56249988641201,0.9661185164140056,70.0,33.0,104.0,312.0,416.0,37.0,1051.0,1052.0,41.0,21.0,20.0,0.5121951219512195,128.20590341208828,3922.0976451224897,44.0,33.0,11.0,0.75,209.57837059794025,539.029067057049,25.0,13.0,12.0,0.52,1736.3133538112204,36188.867545041925,16.0,3.0,13.0,0.1875,1336.1147093013597,20750.413760235468,86.0,43.0,43.0,0.5,111.17123622687,15762.600887223038,,,,,20966.0,21003.0,21036.0,21078.0,21092.0,21117.0,21126.0,21140.0,21368.0,21452.0,0.03588617182258429,-0.07455724350768143,0.044453346239850346,-0.13113372122484737,0.007347971277679889
20,20,22020.173501616813,2978.8691366600046,15.494124290924258,22100.027373698995,-3421.344917773704,17.835757806048335,22138.038925840596,40727.68851270569,11.177054236157892,22162.027373698995,-12196.380412218276,8.375978630260267,22441.31965987499,15132.63248377841,32.99960149656167,0.9660653926051312,64.0,31.0,106.0,308.0,414.0,33.0,1037.0,1033.0,35.0,16.0,19.0,0.4571428571428571,105.15792031057228,3074.0141822267756,44.0,33.0,11.0,0.75,241.3567887672023,343.8600914001863,25.0,13.0,12.0,0.52,1851.9404374616645,37049.39871920899,16.0,4.0,12.0,0.25,1426.9622681775247,22869.045068546824,82.0,40.0,42.0,0.4878048780487805,120.97714742690565,15733.77462136998,,,,,22004.0,22037.0,22068.0,22110.0,22125.0,22150.0,22158.0,22174.0,22402.0,22482.0,0.03530128900810944,-0.07054441880833665,0.04547128759551185,-0.11699883243622024,0.007994454868086462
21,21,23038.53589243748,3252.343801809475,15.671204806660253,23123.02737369953,-3765.8640447290018,17.835757806001705,23159.29486365411,39714.60685365549,10.95188931005734,23184.027373698995,-10093.81826389682,7.674334131419852,23464.650058745217,14651.181194583558,33.061610755380826,0.967862321831632,70.0,37.0,101.0,312.0,413.0,33.0,1018.0,1022.0,33.0,16.0,17.0,0.4848484848484848,118.95862065724408,3452.0118423487665,40.0,30.0,10.0,0.75,292.90406227491684,391.6646273556919,26.0,13.0,13.0,0.5,1774.923278059662,37804.546835541696,15.0,4.0,11.0,0.2666666666666666,1308.6037749244072,20400.015195719123,83.0,42.0,41.0,0.5060240963855421,118.88651450624668,15022.550104699458,,,,,23023.0,23056.0,23093.0,23133.0,23146.0,23172.0,23180.0,23194.0,23424.0,23506.0,0.036576274805591044,-0.07777871394079887,0.044691951366913535,-0.1296440792484813,0.00811446619404299
22,22,24089.36254057295,2962.568998617398,16.725857146906492,24172.870640180972,-3282.969036788867,25.479654008271854,24209.392413558056,39296.05482022223,11.205621008131825,24233.45203459914,-10459.383612664678,8.323989993838875,24516.43766505636,14340.19983492724,33.09937556084855,0.962276444283543,68.0,30.0,107.0,312.0,419.0,38.0,1050.0,1050.0,38.0,19.0,19.0,0.5,104.82416018648226,3093.783228483836,45.0,35.0,10.0,0.7777777777777778,288.6671116720361,300.9756896797571,26.0,13.0,13.0,0.5,1712.7025618560915,36382.58509883817,16.0,3.0,13.0,0.1875,1340.2276390566387,21084.369719207207,83.0,41.0,42.0,0.4939759036144578,110.28489333418844,14845.553380091957,,,,,24070.0,24108.0,24138.0,24183.0,24196.0,24222.0,24230.0,24245.0,24475.0,24557.0,0.035382858672794684,-0.08792867323366131,0.043584593152967456,-0.12813638821257425,0.0076906106333034935
23,23,25165.09109651836,3569.025011490325,17.747025125520217,25251.124617859656,-3210.949555799533,20.383723206117672,25285.22943958219,39095.43918462239,11.177603086054592,25309.45203459914,-10363.26392046752,8.079816980612588,25592.02253614148,14473.790981794942,33.247885116186914,0.9656265260824426,80.0,39.0,98.0,312.0,410.0,41.0,1078.0,1076.0,42.0,22.0,20.0,0.5238095238095238,114.58961050537482,3858.5371309343072,36.0,28.0,8.0,0.7777777777777778,385.8014620286449,1332.656653421058,26.0,13.0,13.0,0.5,1722.7317804944037,36370.819103237394,15.0,3.0,12.0,0.2,1339.8058498347127,20843.15297036104,85.0,43.0,42.0,0.5058823529411764,108.3255011028384,14966.000174129258,,,,,25143.0,25184.0,25223.0,25259.0,25272.0,25298.0,25306.0,25321.0,25551.0,25633.0,0.03210669864639738,-0.1201518290226081,0.04406477626096127,-0.1292841579754219,0.007484252138164054
24,24,26227.344514622982,3686.788614121473,16.23224721614646,26312.8766954995,-3301.0512851658086,12.739827004306385,26347.01537374473,38688.07890981493,11.202743328204978,26370.45203459914,-11118.979598558384,8.194611109309955,26651.398836105196,15398.802307610164,34.790664915026305,0.966925108062494,71.0,30.0,104.0,312.0,416.0,41.0,1062.0,1061.0,43.0,22.0,21.0,0.5116279069767442,105.20683736415374,3711.10661548616,42.0,35.0,7.0,0.8333333333333334,406.61228549087576,1962.7338609151552,25.0,13.0,12.0,0.52,1764.6059569369572,35481.418872722075,16.0,3.0,13.0,0.1875,1403.07706491378,21563.150769841377,86.0,43.0,43.0,0.5,111.5625469866338,15889.205772828724,,,,,26207.0,26248.0,26278.0,26320.0,26334.0,26359.0,26367.0,26382.0,26608.0,26694.0,0.028536172907006642,-0.12317660356205343,0.04561110312689337,-0.12618757436120254,0.007244884683758752
25,25,27275.35711662977,3586.193817946817,17.039614587841992,27359.45203459941,-3268.8206713757677,15.287792405135328,27395.093040247037,38806.94866653591,11.11570426996402,27419.45203459914,-10597.536453897636,7.901693351076534,27701.118479837733,14947.47471673664,34.11011514907374,0.9690925048427096,73.0,31.0,103.0,313.0,416.0,42.0,1046.0,1048.0,42.0,21.0,21.0,0.5,135.40099148262777,3797.0394200165647,41.0,32.0,9.0,0.7804878048780488,294.0571956756059,535.1759762140337,25.0,13.0,12.0,0.52,1739.0097838863994,36215.11668178295,15.0,3.0,12.0,0.2,1358.2173987810113,21072.103051549864,86.0,43.0,43.0,0.5,112.04963123096417,15373.355159299395,,,,,27254.0,27296.0,27327.0,27368.0,27382.0,27407.0,27416.0,27430.0,27659.0,27743.0,0.037756183395616955,-0.0899581914207133,0.044811814472442306,-0.12816350334718374,0.0074962248375976545
26,26,28345.802163670534,3335.5660258460593,16.528396636349076,28427.541217272486,-2926.9692154687323,20.3837231690424,28465.067135825808,39153.25489006605,11.068880281876192,28489.45203459914,-10111.77126298611,7.977654440201471,28772.794104647397,14853.204317378311,33.84402366025336,0.9677030780148334,72.0,35.0,101.0,314.0,415.0,37.0,1070.0,1070.0,41.0,21.0,20.0,0.5121951219512195,112.47650986412602,3442.675860090254,39.0,29.0,10.0,0.7435897435897436,273.8442014683829,208.85453782504112,25.0,13.0,12.0,0.52,1733.3169747234197,36366.31784822809,15.0,3.0,12.0,0.2,1335.4955811975378,20678.707640809946,83.0,42.0,41.0,0.5060240963855421,111.80116968810412,15416.86010678207,,,,,28327.0,28364.0,28399.0,28438.0,28452.0,28477.0,28486.0,28500.0,28731.0,28814.0,0.0337203667960962,-0.09355896195325333,0.04427006080567765,-0.13207335752204824,0.0075270741113617
27,27,29429.18536220516,3237.6832969607462,14.961063782114808,29513.961925235388,-3488.563237958766,20.383723184291807,29547.40578896956,39145.73695590836,11.28614456881141,29571.45203459914,-10685.325605244943,8.67450573071888,29854.274833244588,14981.705952733952,34.540353918479376,0.9627509643770118,71.0,37.0,100.0,314.0,414.0,34.0,1083.0,1083.0,34.0,17.0,17.0,0.5,132.3022727078406,3320.4865190548476,38.0,31.0,7.0,0.8157894736842105,429.0543539521784,1898.3488481682032,26.0,13.0,13.0,0.5,1711.9814087081222,36272.570424009566,16.0,3.0,13.0,0.1875,1342.2534936537145,21204.206299917685,86.0,43.0,43.0,0.5,116.71583821085382,15591.341428389447,,,,,29412.0,29446.0,29483.0,29521.0,29534.0,29560.0,29568.0,29583.0,29811.0,29897.0,0.0408632533120316,-0.1229888423072495,0.04373353375966342,-0.12561652711779442,0.00779055726891735
28,28,30486.552881988173,3371.6037425734235,17.238771778377938,30568.236149897897,-3086.793472800651,20.38372320691126,30606.038592510293,39929.20673135067,11.256002315734492,30629.45203459914,-11609.183806706278,8.23691411296537,30910.84796343016,14954.352353537111,34.81749958470501,0.9690411140577632,68.0,33.0,103.0,312.0,415.0,35.0,1057.0,1058.0,35.0,17.0,18.0,0.4857142857142857,134.36313371891552,3641.988663647044,43.0,32.0,11.0,0.7441860465116279,245.3990892148692,478.1995384512816,25.0,13.0,12.0,0.52,1787.1717259540087,36103.993106737165,16.0,3.0,13.0,0.1875,1456.0879591528535,22320.01273806452,86.0,43.0,43.0,0.5,126.8128350263775,15596.937434945648,,,,,30470.0,30505.0,30538.0,30579.0,30593.0,30618.0,30626.0,30641.0,30868.0,30953.0,0.03985140128488557,-0.0794996786721265,0.04475850817619172,-0.12542552374024046,0.00847999512305077
29,29,31545.292462294547,3165.951263659504,16.765791644641656,31628.027373699017,-3187.0692879633025,17.8357578060484,31665.621789662095,38848.30238256172,11.1383135314497,31689.45203459914,-10587.033153717995,7.970459964835838,31972.22256728499,14851.52040073907,33.97089267454488,0.9658007995098008,73.0,34.0,102.0,314.0,416.0,39.0,1063.0,1060.0,40.0,20.0,20.0,0.5,104.94725897702897,3452.703283347588,41.0,30.0,11.0,0.7317073170731707,251.9457577997991,540.7843436476021,26.0,14.0,12.0,0.5384615384615384,1742.145902876227,34695.99547059475,16.0,3.0,13.0,0.1875,1379.3768221395164,21227.652230820957,86.0,43.0,43.0,0.5,107.3226796924487,15206.289488367172,,,,,31525.0,31564.0,31598.0,31638.0,31652.0,31678.0,31686.0,31700.0,31931.0,32014.0,0.03314872852961137,-0.07905248836331548,0.044844839955175075,-0.13028927010161498,0.00722637661307107
30,30,32620.412901326923,3800.0841816046977,20.589429294767115,32708.632787940187,-2362.832468034349,17.835757763995137,32742.337977278057,39419.99466957656,11.118699182483612,32766.45203459914,-9696.094788343027,7.266485365777211,33049.29065710081,14848.563479208442,34.66722116605818,0.9737184763192176,90.0,39.0,94.0,314.0,408.0,51.0,1073.0,1077.0,52.0,27.0,25.0,0.5192307692307693,103.06703994231148,3920.036793351111,32.0,26.0,6.0,0.8125,414.6571303902076,2952.7376018596524,26.0,13.0,13.0,0.5,1724.659064417267,37604.40087808038,15.0,3.0,12.0,0.2,1354.6513074361603,20102.60345894593,86.0,43.0,43.0,0.5,110.69287753157975,15444.8305695421,,,,,32593.0,32644.0,32683.0,32715.0,32729.0,32755.0,32763.0,32777.0,33006.0,33091.0,0.027122304406106176,-0.17549154923165702,0.04375087005651777,-0.1397110214995802,0.007454786968892741
31,31,33691.481694116934,3524.85737547248,17.541444622663192,33776.636194699066,-2829.5077033390917,22.93168860425579,33809.87118077301,40289.86874029837,11.280619205522823,33833.87669549929,-11200.5395693583,8.118954301628728,34115.02549469832,15189.333880233373,34.71376292911782,0.9693055567434138,71.0,34.0,101.0,313.0,414.0,37.0,1069.0,1068.0,41.0,21.0,20.0,0.5121951219512195,130.20003776228407,3627.807946429647,40.0,34.0,6.0,0.85,454.57497486840424,3166.333384718922,25.0,13.0,12.0,0.52,1768.4706600082334,36185.27844533887,16.0,4.0,12.0,0.25,1369.693443019839,21499.0400848253,87.0,44.0,43.0,0.5057471264367817,118.96872062072126,15893.403905204686,,,,,33673.0,33710.0,33744.0,33783.0,33797.0,33822.0,33831.0,33845.0,34072.0,34158.0,0.036937675455544286,-0.16065514659386224,0.04389368134722637,-0.12228816607790541,0.007832385643687845
32,32,34742.00004227563,3497.7328712870813,17.610093835337413,34824.4940223563,-2669.311273056017,17.83575780604823,34861.23638366828,39455.07910171654,11.073404178887335,34885.45203459914,-9827.312898343293,7.441387661989263,35168.27689219827,14926.962964785542,35.136081766196796,0.9732155002402124,75.0,34.0,100.0,315.0,415.0,41.0,1052.0,1051.0,43.0,23.0,20.0,0.5348837209302325,109.35422332734798,3615.513602072462,38.0,28.0,10.0,0.7368421052631579,248.4830249046591,141.1966558443337,26.0,13.0,13.0,0.5,1730.6605640288883,37227.46006981733,15.0,3.0,12.0,0.2,1353.7523897164997,20438.266420775384,88.0,44.0,44.0,0.5,114.4681281987562,15404.573836671298,,,,,34721.0,34762.0,34796.0,34834.0,34848.0,34874.0,34882.0,34896.0,35125.0,35211.0,0.03126431530121632,-0.0930888156105444,0.043864075384747965,-0.13775407415232682,0.007668547746035142
33,33,35815.27170738054,3629.0099195124017,18.51075049897372,35901.553626316694,-2600.830576068955,17.83575778392345,35934.636914181385,39613.173005666344,11.013727472266142,35959.45203459914,-9402.163587757848,7.243253813881266,36242.36302832357,14714.18566776969,34.692556559756525,0.9740024521154296,86.0,42.0,91.0,315.0,406.0,44.0,1075.0,1073.0,48.0,26.0,22.0,0.5416666666666666,89.38497471131186,3814.241397147427,29.0,23.0,6.0,0.7931034482758621,458.45487552431337,3189.211892654788,26.0,14.0,12.0,0.5384615384615384,1741.4580177206592,36460.26443728965,14.0,3.0,11.0,0.2142857142857142,1315.5985687915345,19782.2868068526,85.0,42.0,43.0,0.4941176470588235,111.9627557334869,15304.048661076537,,,,,35793.0,35837.0,35879.0,35908.0,35921.0,35947.0,35956.0,35970.0,36201.0,36285.0,0.024630677979332095,-0.17627248762095393,0.04396158867333242,-0.13992508814721313,0.007609171058561048
34,34,36886.68572951655,3547.198806210762,18.212806060859677,36970.5662498968,-2654.6519220835485,20.38372319760252,37005.26529674582,39454.82447227796,11.089383700058365,37029.45203459914,-10402.322541496762,8.183675341606184,37310.23570208282,15383.675087199272,35.276611784807926,0.9700803797826189,74.0,33.0,100.0,314.0,414.0,41.0,1071.0,1071.0,41.0,21.0,20.0,0.5121951219512195,113.19439815553076,3672.142696172532,38.0,31.0,7.0,0.8157894736842105,349.1906829581922,1846.7508913799588,25.0,13.0,12.0,0.52,1749.5225515022792,36673.757035965056,16.0,3.0,13.0,0.1875,1350.9572382663152,21097.829682402906,88.0,44.0,44.0,0.5,114.92317962719711,16011.818358052577,,,,,36866.0,36907.0,36940.0,36978.0,36992.0,37017.0,37026.0,37040.0,37267.0,37354.0,0.03191092587123665,-0.13153915963646337,0.04434242389625993,-0.129870731548373,0.0074704632654926835
35,35,37922.25761859892,3137.4902639315296,15.913600120551967,37999.53382980421,-3447.915930527364,22.93168860745513,38039.02866581759,41658.436319524946,11.09321900491069,38063.027373699,-12487.143420204144,8.617631112457696,38342.99813327241,15489.40013476358,33.726226253114014,0.9649780738798416,62.0,31.0,105.0,310.0,415.0,31.0,1035.0,1033.0,34.0,16.0,18.0,0.4705882352941176,113.95736984259165,3347.1804843288264,43.0,31.0,12.0,0.7209302325581395,202.03318796861893,1388.869652750213,25.0,13.0,12.0,0.52,1892.642204326021,37407.095709831105,16.0,4.0,12.0,0.25,1459.00176599615,23578.03887362869,84.0,42.0,42.0,0.5,108.3531862196031,16009.226068224418,,,,,37908.0,37939.0,37970.0,38012.0,38026.0,38051.0,38059.0,38075.0,38303.0,38385.0,0.0363211867627579,-0.05859574074293559,0.045432387087437465,-0.11684031462596092,0.006995311973148722
36,36,38925.28000711882,3275.1564131611667,17.41507335614221,39004.49470642447,-3304.222840405081,22.931688591205457,39043.31415767323,42378.85293533293,10.901641806520129,39067.45203459914,-12209.21059871435,7.709778581380776,39348.39639440548,15108.36907253592,33.79146207156626,0.971483024659088,72.0,31.0,102.0,312.0,414.0,41.0,1004.0,1005.0,41.0,21.0,20.0,0.5121951219512195,102.79286043472844,3376.2171040339326,44.0,31.0,13.0,0.7045454545454546,198.55389981244815,1369.1216933507412,25.0,13.0,12.0,0.52,1923.645977320425,39407.74097734084,16.0,4.0,12.0,0.25,1527.1004294364116,23710.54419781225,84.0,42.0,42.0,0.5,128.1880909656257,15776.534343478808,,,,,38904.0,38945.0,38976.0,39016.0,39030.0,39055.0,39064.0,39078.0,39307.0,39390.0,0.03138563398732863,-0.0600909531235207,0.04539164805276277,-0.1250777367700757,0.008484575029256251
37,37,39938.69072242023,3495.061924118849,17.333498306808654,40021.60271696312,-3350.00199281975,20.38372320691245,40059.430100001,40146.628142456015,10.96741688536177,40084.027373699,-10567.198908145972,7.378931741215414,40366.26021221149,14509.333779822824,34.05051943514837,0.9694029701003128,77.0,36.0,99.0,314.0,413.0,41.0,1012.0,1016.0,44.0,24.0,20.0,0.5454545454545454,126.56017921026049,3667.555482595199,39.0,28.0,11.0,0.717948717948718,230.98777203944277,838.568113112917,26.0,13.0,13.0,0.5,1777.7152823512758,38296.10126834971,15.0,4.0,11.0,0.2666666666666666,1357.2122522524774,20844.802489944144,85.0,42.0,43.0,0.4941176470588235,103.67647734677637,15197.093833446286,,,,,39918.0,39959.0,39995.0,40033.0,40046.0,40072.0,40080.0,40094.0,40324.0,40408.0,0.03621114073455736,-0.06895153272581092,0.0442805626426021,-0.1284363305782234,0.007145502262202585
38,38,40999.40942079966,3487.950741313001,17.16558312973514,41083.027373699,-2622.4292051142615,17.8357578060484,41120.12708786921,39344.414653020096,10.931312005148706,41145.027373699,-9396.770713572783,7.255625830159752,41427.73365580044,14551.589867427863,34.22474532875182,0.969368260618776,73.0,36.0,101.0,314.0,415.0,37.0,1061.0,1060.0,39.0,20.0,19.0,0.5128205128205128,111.45193153083542,3822.8164445156744,39.0,29.0,10.0,0.7435897435897436,274.40592858404796,73.03614007375518,26.0,13.0,13.0,0.5,1718.726401729173,37257.05394652427,15.0,4.0,11.0,0.2666666666666666,1268.2205470613033,19438.64570897409,84.0,43.0,41.0,0.5119047619047619,115.21881988181836,15126.257090169303,,,,,40981.0,41018.0,41054.0,41093.0,41107.0,41133.0,41141.0,41155.0,41386.0,41469.0,0.031953413278101674,-0.10463806917986633,0.043684126880185845,-0.13496344496620244,0.007917954047050422
39,39,42076.15633962281,3451.182157674736,18.513577266292085,42162.42710178632,-2783.4626409677444,17.835757805509296,42197.12041881965,39046.915257488334,11.110635641216168,42221.45203459914,-9836.926865562222,7.508078348824185,42504.55277654687,14696.091125856432,34.84321922497697,0.9692966766909704,87.0,43.0,93.0,315.0,408.0,44.0,1078.0,1077.0,46.0,26.0,20.0,0.5652173913043478,111.04344409699873,3772.8479816594336,31.0,23.0,8.0,0.7419354838709677,375.3950794530184,1094.199914215429,26.0,13.0,13.0,0.5,1713.8285617226932,36779.76012364654,15.0,3.0,12.0,0.2,1325.2071357728494,20366.250471315496,86.0,44.0,42.0,0.5116279069767442,109.31565714446606,15309.597224185243,,,,,42052.0,42096.0,42139.0,42170.0,42184.0,42210.0,42218.0,42232.0,42461.0,42547.0,0.032175480465457436,-0.1348662180436172,0.043891522554883995,-0.13471759563570856,0.007438417209603112
40,40,43135.71781624942,3401.165340460439,17.390060244584756,43216.60271279887,-2857.4433942924315,20.38372320691245,43255.28804096598,39361.077978242734,11.08386315337228,43279.45203459914,-10632.084032141152,8.184140854774137,43560.7586477099,15187.742403902916,34.4873132174516,0.9697603743584032,70.0,29.0,106.0,312.0,418.0,41.0,1057.0,1059.0,41.0,21.0,20.0,0.5121951219512195,115.4096486128084,3505.3919406359164,44.0,33.0,11.0,0.75,209.31027989155865,648.8401292379086,25.0,13.0,12.0,0.52,1754.286253675488,36685.82513914571,16.0,3.0,13.0,0.1875,1369.4823694913457,21335.67672122715,85.0,43.0,42.0,0.5058823529411764,122.89438225980066,15947.39525592778,,,,,43115.0,43156.0,43185.0,43228.0,43242.0,43267.0,43276.0,43291.0,43519.0,43603.0,0.033932384068451255,-0.07325089284695653,0.04456906019304626,-0.1288065787809195,0.008091682028279562
41,41,44167.35272972964,3218.0737892573643,16.02342336521246,44249.02737371958,-3646.7497055571134,17.835757804361922,44286.251311365784,40347.22885952194,11.199786584495005,44310.02737369905,-12242.334440179731,8.536155504728349,44590.48884604111,15252.159906893048,33.83432728764143,0.965294527791885,64.0,28.0,107.0,310.0,417.0,36.0,1032.0,1031.0,37.0,16.0,21.0,0.4324324324324324,90.74871431663182,3449.2915505240226,44.0,34.0,10.0,0.7727272727272727,250.8181486857355,344.0785533398805,25.0,13.0,12.0,0.52,1827.1169883147124,37031.5634371235,16.0,4.0,12.0,0.25,1426.9021293381743,23014.71450978539,86.0,43.0,43.0,0.5,127.97086524905949,16131.800212014494,,,,,44151.0,44187.0,44215.0,44259.0,44273.0,44298.0,44306.0,44322.0,44549.0,44632.0,0.028199699652497377,-0.06877854773074371,0.045284819799551436,-0.11655474177008562,0.008390343795912109
42,42,45172.16120098981,3010.861381606738,17.20331407208162,45251.178051898736,-3436.907336365289,22.93168860777506,45290.56903430107,44165.73042881792,10.762669629679614,45314.45203459914,-12820.850130044391,7.839094285809226,45593.35385128917,15910.535692691516,33.15273532215279,0.9698281939928416,69.0,29.0,106.0,309.0,415.0,40.0,1005.0,1004.0,42.0,22.0,20.0,0.5238095238095238,107.46167010231297,3153.9225119981884,47.0,34.0,13.0,0.723404255319149,174.33005988213185,1615.1686968163076,24.0,13.0,11.0,0.5416666666666666,2072.4321661672634,38977.766770110655,16.0,4.0,12.0,0.25,1608.7583351170038,25192.53593383308,85.0,43.0,42.0,0.5058823529411764,101.61229207193745,16544.164226901292,,,,,45150.0,45190.0,45219.0,45264.0,45278.0,45302.0,45311.0,45325.0,45551.0,45634.0,0.035691337621450485,-0.05072294444414527,0.04692398712860439,-0.12547984874630413,0.006386478370971062
43,43,46148.857738539344,3147.26868442191,13.33270993708396,46231.027373699,-4106.465282507093,17.8357578060484,46268.78255793129,46683.10982181785,10.95721360139638,46291.87669549929,-14390.464998093814,7.692724686951341,46571.068658675824,16237.298258469438,32.800260780433014,0.9695751229954164,64.0,35.0,104.0,309.0,413.0,29.0,977.0,978.0,30.0,15.0,15.0,0.5,132.10823195119363,3154.4076581727695,43.0,32.0,11.0,0.7441860465116279,257.4385636706796,775.7235044507438,24.0,13.0,11.0,0.5416666666666666,2212.151745789904,41884.18801891463,15.0,4.0,11.0,0.2666666666666666,1733.4437519690223,26647.63386611688,82.0,40.0,42.0,0.4878048780487805,113.2750383373547,16732.421002714404,,,,,46135.0,46164.0,46199.0,46241.0,46256.0,46280.0,46289.0,46303.0,46531.0,46612.0,0.04197551756705489,-0.06269103619780449,0.04738655488533952,-0.12045779981387934,0.0069762245254237415
44,44,47179.08076358869,3395.00719719389,15.162203339303776,47262.02737369903,-3649.0795157388943,17.835757806031605,47299.00858728361,42736.652799905154,10.959059075166811,47323.45203459914,-11632.936780947832,7.516797794382723,47604.69229782603,15234.394473490374,33.68242337876851,0.970977395900029,71.0,35.0,102.0,311.0,413.0,36.0,1030.0,1030.0,36.0,18.0,18.0,0.5,112.037265454481,3602.1608046762267,40.0,30.0,10.0,0.75,282.33861391013465,445.3883795688562,25.0,13.0,12.0,0.52,1940.6678600188811,39815.489828344114,15.0,4.0,11.0,0.2666666666666666,1500.994128272559,23095.852149578237,84.0,43.0,41.0,0.5119047619047619,109.92104753936776,15843.91810994654,,,,,47161.0,47197.0,47232.0,47272.0,47286.0,47311.0,47320.0,47334.0,47563.0,47645.0,0.033000597332189546,-0.07737255729626503,0.04540991708230337,-0.12902968154446212,0.0072153210769645764
45,45,48272.293097042835,3286.8299277171695,18.721005633794572,48358.22726929847,-2896.515935012894,17.835757800479122,48393.58099849555,40595.82717339884,11.054583445227475,48417.45203459914,-10312.147103137317,7.543118909724939,48700.91651047619,14665.55132347834,35.09513146347788,0.9732331966071612,82.0,38.0,98.0,316.0,414.0,44.0,1095.0,1095.0,46.0,26.0,20.0,0.5652173913043478,116.92981425985926,3409.151581613577,38.0,29.0,9.0,0.7631578947368421,307.92054648871715,844.933896118397,26.0,14.0,12.0,0.5384615384615384,1826.582784477178,36708.61904079864,15.0,3.0,12.0,0.2,1407.3088778640706,21294.503063030217,87.0,44.0,43.0,0.5057471264367817,118.850606967299,15319.179467706084,,,,,48248.0,48292.0,48330.0,48366.0,48380.0,48406.0,48414.0,48428.0,48657.0,48744.0,0.03557525543801761,-0.10630721646188576,0.04499434822882683,-0.13647098550755912,0.008104066757928765
46,46,49404.86982105188,3854.627646596431,17.56506109239261,49489.876695499304,-3109.5909484524946,12.739827004320151,49523.99277836499,39538.63336349753,11.132346478856014,49547.87669549929,-9854.698981633492,7.692694128472955,49831.97079789504,14854.234578102616,35.8018329180112,0.9740393189808196,78.0,39.0,96.0,316.0,412.0,39.0,1130.0,1131.0,39.0,20.0,19.0,0.5128205128205128,144.74708639531494,4069.095368481682,34.0,27.0,7.0,0.7941176470588235,412.1784901836649,2124.031889173457,25.0,13.0,12.0,0.52,1757.7885002190856,36812.75565278422,15.0,3.0,12.0,0.2,1319.2448368771177,20137.299989040723,87.0,44.0,43.0,0.5057471264367817,95.47490797216427,15426.210441543655,,,,,49385.0,49424.0,49463.0,49497.0,49511.0,49536.0,49545.0,49559.0,49789.0,49875.0,0.037551509423516975,-0.1325507106935682,0.04445749260119582,-0.1338696229418915,0.006427453900109313
47,47,50543.858355461525,4218.2954919936865,19.130106036965156,50627.45203459914,-2691.320537409592,15.28779240518434,50663.630925876874,39158.78380351116,11.032507833467813,50687.87669549929,-9611.935427450451,7.40183037265871,50971.789989061064,15103.267150738424,35.66382360114756,0.9730355887841023,81.0,38.0,95.0,317.0,412.0,43.0,1138.0,1139.0,43.0,22.0,21.0,0.5116279069767442,113.35053592740832,4562.394016375303,35.0,26.0,9.0,0.7428571428571429,258.67546945960993,504.49703440260976,26.0,14.0,12.0,0.5384615384615384,1745.9808001143397,35930.555091757036,15.0,4.0,11.0,0.2666666666666666,1290.413552813601,19554.726822416353,87.0,44.0,43.0,0.5057471264367817,135.83677478584292,16049.32667385074,,,,,50522.0,50565.0,50603.0,50636.0,50650.0,50676.0,50685.0,50698.0,50929.0,51015.0,0.02687117015452031,-0.09611470126430434,0.04458720702040258,-0.13425116747334215,0.008993866918337708
48,48,51654.709405879286,3735.867798951232,17.89226844077963,51736.45203459914,-2684.8571228246424,15.28779240518434,51773.13966013617,39188.659393417234,11.046587721185464,51797.45203459914,-10374.603701680138,7.986866527642913,52078.9137165425,16071.47644397732,35.09094828431471,0.9691746438747684,76.0,37.0,98.0,312.0,410.0,39.0,1111.0,1110.0,39.0,20.0,19.0,0.5128205128205128,109.55501413029492,3964.393287050083,34.0,25.0,9.0,0.7352941176470589,248.60673880178908,158.98627138260065,25.0,13.0,12.0,0.52,1745.4019813895657,36649.72068857092,15.0,3.0,12.0,0.2,1356.0114179979655,21021.159727723138,86.0,43.0,43.0,0.5,116.6460773872345,16853.676609867747,,,,,51635.0,51674.0,51711.0,51745.0,51760.0,51785.0,51794.0,51809.0,52038.0,52121.0,0.029325184943923936,-0.09259589148648581,0.04453844577502317,-0.13070488830126237,0.007257956528999975
49,49,52697.263918668265,3299.6421391448225,17.88482957382366,52776.64131932466,-2835.1435824356695,22.931688594226397,52815.65596823504,42794.831684434175,10.927585475701472,52839.45203459914,-12473.3808124759,7.815159179350568,53120.69968781893,16249.472538687942,33.92508729856778,0.971264446857473,67.0,31.0,103.0,312.0,415.0,36.0,1042.0,1042.0,36.0,17.0,19.0,0.4722222222222222,127.33144535430964,3625.721090984751,44.0,32.0,12.0,0.7272727272727273,217.0392449635461,529.7786899602443,25.0,13.0,12.0,0.52,1974.8754362078869,37991.222338388616,16.0,4.0,12.0,0.25,1564.0356379756738,24374.509792670957,85.0,43.0,42.0,0.5058823529411764,120.09944702959322,16972.013348464498,,,,,52680.0,52716.0,52747.0,52789.0,52803.0,52828.0,52836.0,52850.0,53079.0,53162.0,0.03858947121681216,-0.07655317575735895,0.04614752198981568,-0.12538987316183936,0.007390975106647407
50,50,53674.248859917854,3322.5415550235384,14.695128602328266,53758.283945918905,-3892.857554402584,25.47965400861474,53792.967296507435,47204.168345908874,11.206990746189335,53815.45203459914,-15014.069989808042,8.000819451074964,54095.691104727106,16952.159792558024,33.32835369998779,0.970390899309882,66.0,36.0,101.0,310.0,411.0,30.0,977.0,977.0,30.0,14.0,16.0,0.4666666666666667,127.72233320506892,3487.6592574108167,40.0,32.0,8.0,0.8,403.7716423445261,1124.4560589919645,24.0,13.0,11.0,0.5416666666666666,2191.825839522848,41370.556061822885,16.0,3.0,13.0,0.1875,1810.4095632534888,27507.9664150885,83.0,42.0,41.0,0.5060240963855421,133.3945923197178,17602.18553173493,,,,,53660.0,53690.0,53726.0,53766.0,53780.0,53804.0,53812.0,53827.0,54056.0,54137.0,0.03844115448667852,-0.10372114486641953,0.04643288752512914,-0.12058086611308219,0.007868884788254406
51,51,54639.694073950726,3176.33308809438,15.521461192238691,54721.216028039744,-3602.778505170211,25.47965399555741,54759.16335882752,49353.6177068935,10.838064354381808,54783.027373699,-14266.406811871264,7.8382662228630196,55061.749240942096,16527.838489910875,32.904141854804024,0.971515982014504,69.0,33.0,105.0,309.0,414.0,36.0,966.0,966.0,36.0,20.0,16.0,0.5555555555555556,122.92064752345163,3153.8848570241066,43.0,32.0,11.0,0.7441860465116279,243.2125950049057,838.6297943253437,25.0,13.0,12.0,0.52,2272.625629534386,45066.04043600257,15.0,4.0,11.0,0.2666666666666666,1738.179298436449,27682.977244062306,83.0,42.0,41.0,0.5060240963855421,137.88462710562064,17060.269033532408,,,,,54620.0,54656.0,54689.0,54732.0,54746.0,54771.0,54779.0,54794.0,55021.0,55103.0,0.03869891605014166,-0.06750695183061643,0.046047802271178905,-0.12183721671178528,0.008342568641978796
52,52,55654.14641661172,3557.796572223613,17.211491738490107,55736.35093377232,-3185.726602611036,20.38372320688143,55774.014903256866,45397.91851164553,10.87095889643444,55797.87669549929,-11867.804736345415,7.21132959211983,56079.71718172552,15398.144059387532,34.19879944230421,0.9776317543695342,76.0,38.0,97.0,313.0,410.0,38.0,1013.0,1015.0,38.0,19.0,19.0,0.5,107.43442494422622,3724.008926463621,38.0,27.0,11.0,0.7105263157894737,226.71974491470337,792.0929025004993,25.0,13.0,12.0,0.52,2063.6940972514844,42134.663733374015,15.0,4.0,11.0,0.2666666666666666,1557.0072748273126,23747.188405949673,84.0,43.0,41.0,0.5119047619047619,119.36874103030485,15948.94700528213,,,,,55635.0,55673.0,55711.0,55747.0,55761.0,55786.0,55795.0,55808.0,56038.0,56121.0,0.030196899334545144,-0.0711673577791901,0.0454579012630745,-0.13119589590642178,0.007752151205361095
53,53,56732.95222606854,3353.2332058456323,19.244948888956852,56818.87669549931,-2578.3691337045057,12.739827004305315,56854.07357618413,41122.18614225352,10.894021687171774,56878.45203459914,-10175.229905075395,7.293484672863928,57160.67340834488,15142.731078487335,35.59799048029524,0.9747833663284114,90.0,40.0,94.0,315.0,409.0,50.0,1084.0,1081.0,50.0,28.0,22.0,0.56,121.90523109400218,3691.128172902746,31.0,24.0,7.0,0.7741935483870968,349.11721748202933,1704.973107552894,25.0,13.0,12.0,0.52,1835.6784597742476,38625.87564220504,14.0,3.0,11.0,0.2142857142857142,1403.260129638604,21262.91713315473,87.0,44.0,43.0,0.5057471264367817,123.94548217392769,15813.637396399645,,,,,56705.0,56755.0,56795.0,56826.0,56841.0,56866.0,56875.0,56889.0,57118.0,57204.0,0.03635453414975342,-0.13540234131659443,0.04463961262721066,-0.13790942737703243,0.008185147152881293
54,54,57826.89159033022,3284.4017950288176,19.020283101601372,57912.452034599155,-2878.4407290309496,15.28779240518434,57947.754223905526,40022.064651752095,10.885550518966284,57972.45203459914,-9670.64577518746,7.474942686474215,58255.57679524953,14784.45732174055,34.78362832090004,0.9697851049656314,83.0,45.0,92.0,315.0,407.0,38.0,1093.0,1093.0,38.0,19.0,19.0,0.5,109.07441431166836,3638.506274011107,33.0,24.0,9.0,0.7272727272727273,318.62343156393484,617.8186923317086,25.0,13.0,12.0,0.52,1785.5324125280663,36923.14996636063,14.0,3.0,11.0,0.2142857142857142,1336.6240688705805,20613.083256778504,85.0,43.0,42.0,0.5058823529411764,117.23748270464924,15434.276545644254,,,,,57808.0,57846.0,57891.0,57921.0,57935.0,57960.0,57969.0,57983.0,58213.0,58298.0,0.033209826665166385,-0.11069306668378126,0.044613700668985824,-0.1382145618754887,0.0079297792372975
55,55,58916.33255338966,3447.4590014185196,18.68138425335162,59002.47747823521,-2945.8874641169477,17.835757805978126,59036.67989968199,39397.54049093843,11.102951786095671,59060.87669549929,-10033.29540260913,7.616765842156848,59344.67911847621,14899.97437576093,35.16178333849725,0.9719258570102624,88.0,43.0,93.0,316.0,409.0,45.0,1088.0,1089.0,47.0,25.0,22.0,0.5319148936170213,104.45570230325856,3585.044618058851,34.0,26.0,8.0,0.7647058823529411,356.61276967354,1321.2260195811,26.0,14.0,12.0,0.5384615384615384,1755.9052184598129,35961.21152215105,15.0,4.0,11.0,0.2666666666666666,1317.1872663153683,20145.72104549902,87.0,44.0,43.0,0.5057471264367817,112.02902665604022,15521.760906381389,,,,,58891.0,58936.0,58979.0,59010.0,59023.0,59049.0,59058.0,59072.0,59302.0,59388.0,0.03029933126406387,-0.12105444420988343,0.04456890446914261,-0.13128161919490952,0.007518739551544966
56,56,60010.190907774515,3390.0593748942315,18.636234077939907,60095.33921220193,-2771.422720044291,20.383723206645733,60129.73557192863,39200.5430957812,11.034971949969249,60154.45203459914,-9771.137525486289,7.634371886714591,60437.700252422146,14857.117439232665,34.773687729366664,0.9702774448283666,76.0,37.0,99.0,315.0,414.0,39.0,1094.0,1093.0,45.0,25.0,20.0,0.5555555555555556,116.41370400249616,3641.863959783986,37.0,29.0,8.0,0.7837837837837838,353.33249496809293,1323.4408047230754,25.0,13.0,12.0,0.52,1729.5357549237383,35900.87738046382,16.0,4.0,12.0,0.25,1304.7716291087131,20111.438189219443,86.0,43.0,43.0,0.5,110.78514599494514,15471.966727871555,,,,,59990.0,60029.0,60066.0,60103.0,60117.0,60142.0,60151.0,60165.0,60396.0,60480.0,0.0343397242138652,-0.12749137560741589,0.04412019881198719,-0.13353323763026018,0.007456705275977608
57,57,61101.97295472192,3266.1258828627506,18.03658801841818,61188.815286710866,-2958.3502905354103,20.383723204564532,61221.12908922622,39389.74825039058,11.125553790165055,61245.45203459914,-10537.690628312685,7.998110427718538,61527.73184922714,15098.9287750861,35.27036709600786,0.9660322455234008,78.0,39.0,97.0,314.0,411.0,39.0,1091.0,1091.0,39.0,20.0,19.0,0.5128205128205128,112.8457567701755,3639.990834928308,38.0,32.0,6.0,0.8421052631578947,475.27941325280176,3475.4271968435114,25.0,13.0,12.0,0.52,1743.9377073363328,36445.500001950066,15.0,3.0,12.0,0.2,1356.1710892153133,21049.931503731445,89.0,45.0,44.0,0.5056179775280899,111.69631039945196,15707.026231187832,,,,,61082.0,61121.0,61160.0,61194.0,61208.0,61233.0,61242.0,61257.0,61484.0,61571.0,0.034550339092033554,-0.1606569089446079,0.0442738982806025,-0.12869718205349004,0.007397631452090549
58,58,62154.16928735497,3412.4242461068216,17.17076305483947,62238.027373699195,-2983.845557083768,17.835757806046256,62274.67153945229,39021.04712959682,11.188812095748728,62298.45203459914,-10433.869279571529,8.12974096586537,62582.352223415626,14847.12262635684,33.94878363868701,0.967097181020883,66.0,32.0,105.0,315.0,420.0,34.0,1053.0,1054.0,35.0,16.0,19.0,0.4571428571428571,128.7053864921954,3896.166058415866,43.0,33.0,10.0,0.7674418604651163,287.2401560808442,139.91761023702065,26.0,14.0,12.0,0.5384615384615384,1740.1487815794476,34964.28639645457,16.0,3.0,13.0,0.1875,1366.6040996584206,21088.342122652983,85.0,42.0,43.0,0.4941176470588235,105.88168731815972,15297.185109745962,,,,,62139.0,62173.0,62205.0,62248.0,62261.0,62287.0,62295.0,62310.0,62540.0,62625.0,0.037716701444444736,-0.09626508831830274,0.04459513287278172,-0.13097769035060605,0.007131461764193751
59,59,63216.43284448947,3032.109997202716,16.04888836551511,63302.02737370171,-3243.3078475819475,17.83575780599753,63338.4707469964,38952.89468315662,11.122586555360163,63362.45203459914,-10798.167483288193,8.682423412146457,63644.679006652135,15316.699656763529,34.00353910665765,0.9622457996914724,71.0,33.0,106.0,313.0,419.0,38.0,1063.0,1063.0,40.0,20.0,20.0,0.5,106.60295203891164,3181.106942491626,46.0,36.0,10.0,0.782608695652174,269.9042256662296,231.57756544716497,25.0,13.0,12.0,0.52,1732.0954094106496,36453.692219270815,16.0,3.0,13.0,0.1875,1361.084860372235,21480.79533055429,86.0,43.0,43.0,0.5,112.67366157249464,15692.941200131012,,,,,63197.0,63235.0,63268.0,63312.0,63325.0,63350.0,63359.0,63374.0,63602.0,63687.0,0.03515800948423988,-0.0832188118890586,0.04446641060952048,-0.1260477634264074,0.007356262386638909
60,60,64231.041689050995,3451.5014713064247,12.984511023002932,64315.267175494155,-4395.215187492614,20.383723206907376,64350.41949029345,43135.782118741336,11.25515138727734,64373.45203459914,-13662.976429668985,8.90312123175561,64654.65354137662,15824.965583899722,33.19696326785745,0.9671024234986298,68.0,40.0,100.0,309.0,409.0,28.0,1014.0,1012.0,29.0,14.0,15.0,0.4827586206896552,139.88532375565725,3597.5434663501437,38.0,29.0,9.0,0.7631578947368421,376.9755436129992,393.8691746119787,25.0,13.0,12.0,0.52,1964.8167175297103,38987.22478814913,17.0,3.0,14.0,0.1764705882352941,1594.8012719847404,25348.251572164332,83.0,43.0,40.0,0.5180722891566265,138.07576992014572,16677.697539288907,,,,,64218.0,64246.0,64286.0,64324.0,64337.0,64362.0,64370.0,64386.0,64614.0,64695.0,0.04052883213829527,-0.08576953062178885,0.045549579050661294,-0.11672429358230094,0.00872518611102849
61,61,65191.90928575395,3113.293739557811,13.80192005710786,65276.67126987198,-4469.277353652982,28.027619409502098,65309.35932683372,47378.683748498945,11.024289447039903,65333.027373699,-14487.43288238568,8.120774764301208,65612.32193525114,16417.18097085588,32.71591714289748,0.967394533554083,65.0,35.0,103.0,309.0,412.0,30.0,960.0,960.0,30.0,16.0,14.0,0.5333333333333333,131.98340461300282,3085.674693936921,42.0,36.0,6.0,0.8571428571428571,558.7439786154335,2716.905530964682,24.0,12.0,12.0,0.5,2159.035447459716,42588.25648824805,16.0,4.0,12.0,0.25,1692.5147809077064,27212.176275654125,82.0,41.0,41.0,0.5,133.79430258322634,17175.240147093846,,,,,65176.0,65206.0,65241.0,65283.0,65297.0,65321.0,65329.0,65344.0,65571.0,65653.0,0.04239349565253318,-0.1250188642149814,0.04556976421971872,-0.11682641049302284,0.008149651442640534
62,62,66140.56536021079,3057.5888495319405,13.416901626104226,66225.45203459916,-4507.5582471831085,15.287792405181625,66261.51391069396,47925.342025481914,11.11956361034393,66283.87669549929,-15844.736951582674,8.613104576582623,66563.5168553529,16515.994531057244,32.69313011456294,0.9701897915795572,66.0,35.0,104.0,308.0,412.0,31.0,950.0,951.0,33.0,17.0,16.0,0.5151515151515151,121.27645799277624,3039.336372258985,45.0,35.0,10.0,0.7777777777777778,354.76512008717776,10.881743219429154,25.0,14.0,11.0,0.56,2291.421368731328,40634.030967213745,17.0,4.0,13.0,0.2352941176470588,1812.322675442878,28621.271653012343,83.0,43.0,40.0,0.5180722891566265,114.42124282789015,16915.972311891997,,,,,66126.0,66157.0,66192.0,66234.0,66248.0,66273.0,66281.0,66296.0,66521.0,66604.0,0.039664083027821546,-0.07870450044852549,0.047812311230099915,-0.11438010495099142,0.006927905105122705
63,63,67144.62865245408,3273.1066386496655,16.037538397324468,67228.027373699,-3643.7417311020126,17.83575780604831,67265.51329204362,44545.82378190618,10.996555236660054,67288.87669549929,-12576.096415631926,7.561116957090497,67570.9203488429,15357.650665717993,33.304836410449624,0.9710905902706232,70.0,31.0,104.0,312.0,416.0,39.0,1003.0,1005.0,40.0,20.0,20.0,0.5,102.47433154937173,3353.8556769279226,44.0,34.0,10.0,0.7727272727272727,277.96998577581263,757.4889335207383,25.0,14.0,11.0,0.56,2061.58514881093,39628.909503538074,14.0,3.0,11.0,0.2142857142857142,1595.603283243429,24306.259730100977,83.0,42.0,41.0,0.5060240963855421,127.40590787424313,16060.658400448938,,,,,67125.0,67164.0,67195.0,67238.0,67252.0,67277.0,67286.0,67299.0,67529.0,67611.0,0.03130797216910964,-0.07628696166995992,0.04628009931760009,-0.12687587869158784,0.008295924334224119
64,64,68205.02466362779,3645.3896960999305,17.854435733846096,68285.9772758198,-2473.734692268527,22.9316886037246,68323.92669235829,41608.46749101952,10.86974079119839,68348.45203459915,-10190.79918200154,7.1158037641701775,68630.63371149634,15165.127396617623,34.982699343037,0.9721135884044088,70.0,32.0,102.0,315.0,417.0,38.0,1061.0,1059.0,38.0,19.0,19.0,0.5,113.60780558808776,3991.218683213276,43.0,32.0,11.0,0.7441860465116279,228.7182904085715,153.01127117643887,25.0,13.0,12.0,0.52,1847.298964395406,38678.204424236304,14.0,3.0,11.0,0.2142857142857142,1414.5808712735486,21337.271449003856,86.0,44.0,42.0,0.5116279069767442,119.4881145406062,15828.805271726877,,,,,68186.0,68224.0,68256.0,68297.0,68311.0,68336.0,68345.0,68358.0,68588.0,68673.0,0.031164790340421657,-0.09245869863223952,0.04439718825967609,-0.13880961110213103,0.007879136878682365
65,65,69268.30035906122,3256.3812914573405,16.71648566790428,69353.027373699,-2957.142438040568,17.8357578060484,69389.86155838807,39745.75483281342,11.104705776682453,69413.45203459915,-10540.396229807604,7.978050650438751,69697.10519859243,14665.21009608182,34.311520776940064,0.9679486076085788,72.0,34.0,102.0,315.0,417.0,38.0,1062.0,1065.0,39.0,19.0,20.0,0.4871794871794871,115.70825137848328,3469.095518256039,41.0,31.0,10.0,0.7560975609756098,262.6264317923552,49.20403291702144,25.0,13.0,12.0,0.52,1794.3548242197278,36195.728577788264,16.0,3.0,13.0,0.1875,1401.3190494897422,21336.860148801505,86.0,43.0,43.0,0.5,131.1265320350901,15382.716544093277,,,,,69250.0,69288.0,69322.0,69363.0,69377.0,69402.0,69410.0,69424.0,69655.0,69739.0,0.03553277120281573,-0.08881088324117864,0.04514582329024832,-0.1329474735994171,0.008941333344424696
66,66,70317.85757852084,3224.544342245507,16.127033422237673,70403.02737370032,-3393.822910709824,17.835757805936908,70439.76845222074,38773.61946257424,11.054942122126908,70464.027373699,-10329.269200764078,8.10628925521408,70747.9521231266,14513.450687369885,33.0390846711573,0.9646422002832564,66.0,28.0,109.0,313.0,422.0,38.0,1051.0,1050.0,43.0,22.0,21.0,0.5116279069767442,99.7352645494272,3325.1004786733574,47.0,37.0,10.0,0.7872340425531915,269.13828185577165,214.98250554376045,25.0,13.0,12.0,0.52,1748.2667321151669,35255.390575727375,16.0,4.0,12.0,0.25,1306.073416801764,20718.812578114455,83.0,42.0,41.0,0.5060240963855421,115.3215267710931,14923.43723252399,,,,,70300.0,70338.0,70366.0,70413.0,70427.0,70452.0,70460.0,70475.0,70707.0,70788.0,0.030930033506679458,-0.07930239406613025,0.04508907747966784,-0.1264439324231332,0.007945837916509404
67,67,71372.9134196056,3412.7937364519107,15.713679705230213,71460.8766954994,-3476.617547583128,12.73982700430926,71495.54153923487,38272.98322598126,11.074240137252891,71520.027373699,-10013.685467769004,8.26074262884567,71802.70328688041,14625.38139730248,33.78531514511081,0.965728508417826,69.0,32.0,108.0,313.0,421.0,37.0,1054.0,1056.0,37.0,19.0,18.0,0.5135135135135135,115.58429111463018,3661.137167818045,46.0,39.0,7.0,0.8478260869565217,372.58880164827,1350.8676961279634,26.0,14.0,12.0,0.5384615384615384,1724.2823103458595,34452.692535748065,16.0,4.0,12.0,0.25,1266.1852486810017,20046.705978135426,85.0,43.0,42.0,0.5058823529411764,105.64312887761623,15153.15065680501,,,,,71354.0,71391.0,71423.0,71468.0,71482.0,71508.0,71516.0,71531.0,71761.0,71844.0,0.03386793930148168,-0.10716991344281916,0.045052205629357536,-0.12644547831629677,0.0072232734318368715
68,68,72402.26309226277,3484.500052360194,15.638838043520758,72484.60271282645,-3703.3918745241344,20.38372320690577,72522.99184934856,38672.024224214445,11.295920057719036,72546.45203459915,-11038.80981902236,8.879006893570903,72830.09319683281,14115.83249289229,32.9891596402884,0.9659758707764372,66.0,32.0,107.0,312.0,419.0,34.0,1030.0,1027.0,36.0,18.0,18.0,0.5,118.23916665872255,3719.8776233753015,44.0,33.0,11.0,0.75,229.41798871577976,1176.336727854171,25.0,13.0,12.0,0.52,1723.7608541583195,34738.867535909565,17.0,3.0,14.0,0.1764705882352941,1368.9719206182194,21613.1654318137,84.0,42.0,42.0,0.5,116.80096654732928,14517.251757202645,,,,,72386.0,72420.0,72452.0,72496.0,72510.0,72535.0,72543.0,72559.0,72789.0,72871.0,0.03393289277715302,-0.06194807260175746,0.04457384604861177,-0.12401444929861657,0.008274465328640148
69,69,73415.05804679022,3530.7662075777,17.65177411105314,73500.25365909802,-3750.223111915791,22.931688605805544,73534.4005913672,39117.501384613875,11.154528626752988,73559.027373699,-10671.717682264689,8.324815844468205,73841.08811173616,14545.883697521636,33.231882641291456,0.9686384616667228,73.0,34.0,102.0,312.0,414.0,39.0,1013.0,1012.0,40.0,21.0,19.0,0.525,116.01869453850922,3737.081038794372,40.0,32.0,8.0,0.8,364.6310058895615,712.3751469627032,26.0,13.0,13.0,0.5,1721.440697244449,36375.11805743604,16.0,4.0,12.0,0.25,1300.5529686458644,20786.29457506124,82.0,41.0,41.0,0.5,98.3973881405754,15180.151380941874,,,,,73395.0,73434.0,73468.0,73508.0,73521.0,73547.0,73555.0,73570.0,73800.0,73882.0,0.032859353386103816,-0.09722915010869601,0.044006918548267625,-0.12186913179002584,0.006764620849906877
70,70,74367.70145716872,2480.099879301426,14.041476426379594,74446.75339099886,-4476.220656034321,25.479654008638256,74486.97657253231,41273.86966484483,10.977629011749174,74511.027373699,-13374.764914975513,8.556786806772555,74790.3781256263,15170.968248712768,30.95437011960134,0.9614370012404642,62.0,28.0,110.0,307.0,417.0,34.0,951.0,953.0,34.0,18.0,16.0,0.5294117647058824,100.57550232425064,2346.9598681396783,51.0,37.0,14.0,0.7254901960784313,183.41321850594417,2933.673051353133,25.0,13.0,12.0,0.52,1917.9558229581469,36398.59489397106,16.0,4.0,12.0,0.25,1490.3146430944714,24372.523224746088,81.0,41.0,40.0,0.5061728395061729,113.49567047379702,15514.902626669473,,,,,74350.0,74384.0,74412.0,74461.0,74474.0,74499.0,74507.0,74522.0,74751.0,74829.0,0.04055300480583061,-0.04097501722992314,0.046469009049368896,-0.11142735237355758,0.007481109222110919
71,71,75244.32873009844,2061.072149090901,12.240421431199003,75323.17805189872,-4715.298621145682,22.93168860777651,75363.31390048236,50197.90427471893,11.068634261014308,75385.87669549929,-16415.874605634635,8.381710492726969,75661.37749934904,18029.012454106796,30.625363676365865,0.9664862774057554,66.0,33.0,105.0,302.0,407.0,33.0,881.0,875.0,35.0,18.0,17.0,0.5142857142857142,98.91370587283332,1808.938642141386,45.0,31.0,14.0,0.6888888888888889,189.3514919664951,2306.952453733808,25.0,13.0,12.0,0.52,2349.1239195450985,44907.39220499281,16.0,4.0,12.0,0.25,1883.3233887081592,29633.478102673813,78.0,39.0,39.0,0.5,119.83416116601973,18233.891954310213,,,,,75227.0,75260.0,75293.0,75336.0,75350.0,75375.0,75383.0,75398.0,75623.0,75700.0,0.04799138444351026,-0.04015683993318076,0.04679725087105246,-0.11472574163436418,0.006646740162338893
72,72,76066.17102241395,2704.134004603033,12.663379604830734,76150.17805189958,-4925.124568783811,22.93168860565548,76190.05422376496,53640.18873704307,10.882286551568528,76213.45203459915,-16384.85682612849,8.014879573968926,76485.70036981403,17596.174413502267,31.438278019308974,0.9716631341186022,65.0,32.0,110.0,301.0,411.0,33.0,815.0,827.0,34.0,18.0,16.0,0.5294117647058824,101.51668946944964,2517.7795205726507,49.0,36.0,13.0,0.7346938775510204,189.08507480808973,2372.3177626625343,25.0,13.0,12.0,0.52,2521.565915762659,48422.26835744172,16.0,4.0,12.0,0.25,2012.52409241573,31432.628028441763,79.0,40.0,39.0,0.5063291139240507,129.11382759386797,18082.65460031826,,,,,76049.0,76082.0,76114.0,76163.0,76177.0,76202.0,76210.0,76224.0,76447.0,76525.0,0.0375412939213241,-0.03839193753728377,0.04700889342735115,-0.12282829894530492,0.007337607854966113
73,73,76962.243051062,2942.9359409035005,13.303110461650496,77046.02737369957,-4514.54574738799,17.835757805861718,77082.9168137573,48282.389652389335,10.879826109446183,77106.45203459915,-13790.333420495755,8.095287633288864,77382.58596750814,15041.70396478533,31.466113976749043,0.968571671710744,63.0,32.0,106.0,305.0,411.0,31.0,901.0,893.0,32.0,15.0,17.0,0.46875,117.04010237612528,3192.837232001345,46.0,35.0,11.0,0.7608695652173914,289.13531807812376,608.0811865668793,25.0,13.0,12.0,0.52,2266.222063058347,43886.14411121157,15.0,3.0,12.0,0.2,1759.2706969947203,27372.631779745116,80.0,41.0,39.0,0.5125,130.8920715562789,15534.573115156516,,,,,76948.0,76979.0,77011.0,77056.0,77070.0,77095.0,77103.0,77117.0,77343.0,77422.0,0.039769843695678,-0.06404527371229114,0.04693682477967822,-0.12757274558568835,0.0087019443982354
74,74,78007.508038579,3627.6662349670464,17.978871683038935,78091.4520345992,-2551.568166985564,15.287792405141916,78127.75491561404,42070.26812900453,10.797738270582256,78152.45203459915,-10138.4623668664,6.913487820565697,78432.20306302166,14831.75005362774,34.819897139101485,0.977272338644516,73.0,31.0,103.0,312.0,415.0,42.0,1045.0,1045.0,43.0,22.0,21.0,0.5116279069767442,104.84030896976807,3824.944016747742,43.0,33.0,10.0,0.7674418604651163,272.94676198952027,828.4186914037174,25.0,13.0,12.0,0.52,1889.926802862885,39190.4689704146,14.0,3.0,11.0,0.2142857142857142,1424.5697263109976,21457.422929647262,84.0,42.0,42.0,0.5,99.3134258982215,15410.509555477394,,,,,77986.0,78028.0,78059.0,78100.0,78115.0,78140.0,78149.0,78162.0,78390.0,78474.0,0.02890020806192509,-0.10697216148137677,0.044923098589902066,-0.1405114182764683,0.006696001856768759
75,75,79092.47434470682,3730.4702277530178,18.283257780235836,79178.31088020556,-3072.366398824485,20.383723206463895,79210.32214642272,40672.49240061301,11.185322611919895,79234.45203459915,-10129.404173208684,8.25738512787975,79515.77945629974,14459.220225578663,34.04154693429838,0.9716173402882536,80.0,35.0,97.0,311.0,408.0,45.0,1086.0,1083.0,45.0,23.0,22.0,0.5111111111111111,108.4506004459857,3796.9104441314303,35.0,29.0,6.0,0.8285714285714286,482.9321431592962,3380.495414294158,26.0,13.0,13.0,0.5,1778.8767726351257,37957.000068105015,16.0,3.0,13.0,0.1875,1355.1513564215666,21009.877196623784,82.0,41.0,41.0,0.5,111.20132670833443,14980.696250391691,,,,,79069.0,79114.0,79149.0,79184.0,79197.0,79223.0,79231.0,79246.0,79475.0,79557.0,0.029071563053676745,-0.15718572607227782,0.04373660593783318,-0.13378391593908492,0.007690686286914488
76,76,80116.68063852002,4029.8379003771206,17.33910335165814,80196.60271279898,-3645.4541733419464,20.383723206912247,80233.84510991011,38340.25841557651,11.035332416979427,80258.027373699,-10150.695925285268,7.896748948921309,80540.13403641235,13978.959544770974,32.21645393902467,0.9726958491213568,74.0,29.0,101.0,310.0,411.0,45.0,1023.0,1023.0,47.0,25.0,22.0,0.5319148936170213,106.46377299193784,3970.9034823059064,42.0,31.0,11.0,0.7380952380952381,272.50255723275893,822.363274407852,25.0,13.0,12.0,0.52,1724.0262281941573,35106.642530484445,16.0,4.0,12.0,0.25,1295.614003366323,20057.634091833057,80.0,41.0,39.0,0.5125,127.38650508920836,14412.778609947503,,,,,80094.0,80139.0,80168.0,80208.0,80221.0,80246.0,80254.0,80269.0,80500.0,80579.0,0.026418872327836,-0.0747513325569922,0.04496647386950675,-0.1276379484621309,0.009112731507750809
77,77,81023.24190744103,3377.7198684349987,14.573364322545336,81106.02737369928,-4714.639293574217,17.835757805949456,81141.67724381504,38062.75627066128,11.301050239246656,81164.87669549929,-11448.373423309247,9.392185891545756,81444.77257187614,13075.173105107597,31.03520740008682,0.9644675196733606,68.0,31.0,103.0,306.0,409.0,37.0,905.0,908.0,40.0,20.0,20.0,0.5,113.2307775272928,3239.912619550478,42.0,32.0,10.0,0.7619047619047619,330.9480444483121,622.9945934024258,25.0,14.0,11.0,0.56,1738.9467472396136,33081.475554730416,17.0,4.0,13.0,0.2352941176470588,1326.5704634178028,21593.066460447462,77.0,39.0,38.0,0.5064935064935064,120.65494678898963,13656.864382256696,,,,,81006.0,81043.0,81074.0,81116.0,81128.0,81153.0,81162.0,81177.0,81406.0,81483.0,0.0335228443854807,-0.0701958355328212,0.04568630644806959,-0.11587414337104551,0.009227789629940563
78,78,81950.49373842479,3624.513641873158,18.75021470987489,82040.82194810128,-3408.482521051513,22.93168860776312,82072.34324804327,39176.69492272333,11.338138833975412,82095.87669549929,-10944.020707420716,8.713145626744971,82375.61157068098,13446.10086231786,33.22268999045062,0.9733115054550168,81.0,37.0,100.0,308.0,408.0,44.0,929.0,931.0,48.0,26.0,22.0,0.5416666666666666,121.21614311527266,3873.618689098371,38.0,33.0,5.0,0.868421052631579,549.3635110244034,3815.1052129406553,25.0,13.0,12.0,0.52,1713.5903031535977,35595.17470157263,16.0,3.0,13.0,0.1875,1322.0923969469156,21016.3740292853,82.0,42.0,40.0,0.5121951219512195,114.0895507206882,14138.988786199794,,,,,81927.0,81971.0,82008.0,82046.0,82059.0,82084.0,82093.0,82108.0,82335.0,82416.0,0.03344342306092903,-0.16117539334041395,0.04374004255677215,-0.12080499775100537,0.00848495425468802
79,79,82924.90406919828,3159.0789756731806,14.292596296946822,83007.60271279905,-4299.445730132053,20.38372320684931,83045.69907517286,37930.922573723954,11.136082522071696,83070.027373699,-11898.402129033588,8.330922060617915,83350.77455341634,14319.676289817617,32.086551942676856,0.9652996316083612,66.0,32.0,107.0,310.0,417.0,34.0,977.0,973.0,37.0,20.0,17.0,0.5405405405405406,107.27174894756936,3231.8786290129974,46.0,34.0,12.0,0.7391304347826086,231.3693342360311,1146.333860094475,25.0,13.0,12.0,0.52,1733.2854070335793,33779.39371682947,16.0,4.0,12.0,0.25,1351.2085297691378,21698.578725574534,82.0,42.0,40.0,0.5121951219512195,129.64708762351455,14766.866789105665,,,,,82908.0,82942.0,82974.0,83019.0,83033.0,83058.0,83066.0,83081.0,83310.0,83391.0,0.03395665311745187,-0.05381375850717503,0.0456958410032,-0.11356218382231512,0.009053772236157567
80,80,83809.52748712766,2907.457032013386,12.501426540850249,83892.60271279886,-4298.21365669605,20.383723206912453,83931.1709271084,45286.24213814671,11.153804969941731,83953.45203459915,-15291.096342023438,8.763935640107379,84230.57298485923,15987.014622772294,31.5394628653817,0.9689682443948856,63.0,35.0,107.0,303.0,410.0,28.0,881.0,885.0,29.0,15.0,14.0,0.5172413793103449,127.54724892208375,2902.747594456542,47.0,36.0,11.0,0.7659574468085106,255.00911572869003,1352.683183146679,24.0,13.0,11.0,0.5416666666666666,2132.687479013775,39846.14832820877,17.0,3.0,14.0,0.1764705882352941,1750.6397991924205,27546.303112278536,80.0,41.0,39.0,0.5125,150.52146838666383,16847.33082125224,,,,,83796.0,83824.0,83859.0,83904.0,83918.0,83942.0,83950.0,83966.0,84191.0,84269.0,0.043869005635401775,-0.05932909252461647,0.0470934963538808,-0.11448752659946697,0.009415233046215981
81,81,84651.71659890118,2797.2554957711636,11.487877941198567,84735.60271280409,-4891.925328068773,20.38372320590611,84773.94004626857,49530.32272492671,11.032387059201303,84796.45203459973,-16234.69910260766,8.58979052770716,85072.24991920797,16186.572342691534,31.022565712964163,0.968487501560471,61.0,33.0,108.0,302.0,410.0,28.0,842.0,843.0,29.0,14.0,15.0,0.4827586206896552,126.43451597204984,2835.002136249741,50.0,38.0,12.0,0.76,276.5294900149246,1456.361259706318,24.0,13.0,11.0,0.5416666666666666,2360.481937996745,43199.18515882427,16.0,3.0,13.0,0.1875,1905.5709105874296,29984.414526590335,79.0,40.0,39.0,0.5063291139240507,135.82247378274988,16959.8081502457,,,,,84639.0,84667.0,84700.0,84747.0,84761.0,84785.0,84793.0,84808.0,85033.0,85110.0,0.04519948791348916,-0.05652774142488649,0.04765730986866364,-0.1173764230888241,0.008391058397491774
82,82,85506.17182782652,3190.5838511475417,12.874825135726274,85590.60271279886,-4657.1043507088425,20.38372320691234,85627.7059116192,46358.481802790026,10.948988003147138,85650.45203459915,-14884.839344728332,8.345912038936499,85927.26246719532,13982.622739721905,31.265168132520188,0.9683618198445478,60.0,31.0,110.0,304.0,414.0,29.0,855.0,854.0,30.0,15.0,15.0,0.5,130.56543802328096,3255.180922881824,50.0,39.0,11.0,0.78,297.10557765743965,728.5924063620919,24.0,13.0,11.0,0.5416666666666666,2225.368435831419,40304.78389371892,16.0,3.0,13.0,0.1875,1777.2441536452957,27893.445690710338,79.0,39.0,40.0,0.4936708860759494,114.74263434474808,14654.308076086503,,,,,85492.0,85521.0,85552.0,85602.0,85615.0,85639.0,85647.0,85662.0,85889.0,85966.0,0.04092211460805869,-0.0637962036672462,0.048003479606993686,-0.11939961947084976,0.008206088119561908
83,83,86411.4138023634,2983.0355926588127,14.419918060855816,86493.17805189872,-4384.324068696894,22.93168860777651,86532.63698474647,40897.396515673645,11.01626286011639,86556.027373699,-12411.569828433574,8.814105697784742,86834.99230748322,12665.27717908882,31.329993013937028,0.9650130575349608,65.0,35.0,106.0,306.0,412.0,30.0,908.0,905.0,34.0,17.0,17.0,0.5,116.79873089769318,3067.6626862592484,47.0,33.0,14.0,0.7021276595744681,195.6171252016992,2520.8527797715224,24.0,13.0,11.0,0.5416666666666666,1903.7452801376428,35303.426245937066,16.0,4.0,12.0,0.25,1466.1227107622974,23503.15187601596,80.0,40.0,40.0,0.5,107.11010955033036,13078.89169669495,,,,,86397.0,86427.0,86462.0,86506.0,86520.0,86544.0,86552.0,86568.0,86796.0,86874.0,0.03915432024516649,-0.044617396464454416,0.046549302457628214,-0.11812548541632241,0.00845698898143153
84,84,87352.25699039141,3652.0551900177584,17.140319856434324,87437.027373699,-3386.8720740364743,17.8357578060484,87473.55281836129,38781.37551467974,10.837228751937069,87498.027373699,-10661.83432950023,7.845321207039337,87776.64202267949,12787.038474370249,33.7338529626663,0.9750718738969048,79.0,37.0,99.0,309.0,408.0,42.0,939.0,941.0,42.0,21.0,21.0,0.5,116.34598143665453,3865.2221283511526,39.0,29.0,10.0,0.7435897435897436,272.25281874364254,639.40100591803,25.0,13.0,12.0,0.52,1785.6419732135669,34916.08085093448,15.0,4.0,11.0,0.2666666666666666,1321.4972644105646,21026.79505934008,84.0,43.0,41.0,0.5119047619047619,114.5526935680266,13493.495082762953,,,,,87331.0,87373.0,87410.0,87447.0,87461.0,87486.0,87494.0,87509.0,87736.0,87818.0,0.03185767338748481,-0.08038473635621307,0.0460438019414153,-0.12394652023002399,0.00895850073475815
85,85,88316.55336950406,3464.5187990966265,15.4518547283352,88402.45203459947,-3666.0326405133983,15.287792405172093,88437.38421076762,37598.69646715248,11.11890971509738,88460.87669549929,-11082.160882333155,8.442407216470148,88740.60213803985,12632.828823538475,33.3191208142278,0.9717370261018216,70.0,34.0,102.0,310.0,412.0,36.0,963.0,964.0,39.0,20.0,19.0,0.5128205128205128,123.30694297062269,3508.885290031518,41.0,32.0,9.0,0.7804878048780488,316.18182882322003,350.37815756960345,25.0,13.0,12.0,0.52,1719.2596729385102,34943.59413714454,16.0,4.0,12.0,0.25,1325.8916709785035,21148.462818062857,84.0,43.0,41.0,0.5119047619047619,96.4661457733538,13130.11720743226,,,,,88300.0,88336.0,88370.0,88411.0,88424.0,88449.0,88458.0,88472.0,88700.0,88782.0,0.03559136206816802,-0.08624632124904957,0.045726576570028564,-0.11964198003046497,0.0076361476214741805
86,86,89295.50510381638,3213.238693069198,15.215148172424255,89380.0273736995,-3475.872535948738,17.83575780601976,89415.55292899275,37257.43166176291,10.972645396946088,89440.027373699,-10144.94401022772,7.932258270199661,89719.5216523253,12849.376985108878,33.54311341746584,0.9717312410098292,71.0,35.0,103.0,309.0,412.0,36.0,981.0,978.0,36.0,19.0,17.0,0.5277777777777778,117.07492155889727,3378.9879830455748,43.0,33.0,10.0,0.7674418604651163,301.68714974046344,63.74810988341005,25.0,13.0,12.0,0.52,1702.208848124375,33501.94019054419,15.0,4.0,11.0,0.2666666666666666,1260.897201845749,19986.537200217925,83.0,42.0,41.0,0.5060240963855421,103.60355237434324,13303.311086312426,,,,,89277.0,89313.0,89348.0,89390.0,89403.0,89428.0,89436.0,89451.0,89679.0,89760.0,0.03643517732169175,-0.08679465274411106,0.04568776676765249,-0.12428823664029723,0.008062924178690471
87,87,90280.75152222769,3471.1384640460865,16.76006855519654,90364.02737371388,-3207.1174110250895,17.8357578060484,90400.8153502593,37606.682112644005,11.15348235706624,90423.87669549928,-10729.88144855432,8.478643882303214,90703.8707523364,12981.235662368244,33.70035750359851,0.9713100777553976,70.0,35.0,102.0,309.0,411.0,35.0,984.0,985.0,38.0,19.0,19.0,0.5,124.94808348754628,3698.721471881632,41.0,31.0,10.0,0.7560975609756098,255.38090678324855,324.0582473986034,26.0,14.0,12.0,0.5384615384615384,1709.063809491427,33390.32626016594,16.0,3.0,13.0,0.1875,1329.1065934370758,20698.59977287356,84.0,42.0,42.0,0.5,99.9035814265276,13418.152273699903,,,,,90264.0,90299.0,90334.0,90374.0,90387.0,90413.0,90421.0,90436.0,90663.0,90745.0,0.03599628328911495,-0.0796294223296369,0.04544574829473751,-0.12386964383620022,0.007695999365926432
88,88,91277.8235406161,3437.741435785292,16.94770503421612,91361.597553046,-3212.8445012453326,22.931688606899627,91395.06292233332,38371.99108421332,11.220707515044124,91418.87669549928,-10392.336512705906,8.376096739629826,91698.93605127015,13241.34169472586,33.80594911107506,0.9738355122682136,69.0,31.0,102.0,311.0,413.0,38.0,996.0,994.0,40.0,21.0,19.0,0.525,111.5668825163436,3487.7788351754702,41.0,34.0,7.0,0.8292682926829268,422.39222966012034,2150.740122761993,25.0,13.0,12.0,0.52,1696.3563994807012,34737.37812955096,16.0,4.0,12.0,0.25,1289.742302723798,20235.389711947188,83.0,41.0,42.0,0.4939759036144578,103.6934208979641,13770.560092088252,,,,,91259.0,91297.0,91328.0,91369.0,91382.0,91407.0,91416.0,91430.0,91658.0,91741.0,0.032453540965874904,-0.1314698640087924,0.04420819330844163,-0.12410513277230101,0.007831035803514238
89,89,92274.0132346786,3521.751720766667,15.158152041404035,92357.45203459916,-3989.3525702468696,15.28779240518428,92392.2811987346,40909.83887957896,10.975707855628247,92415.45203459916,-12407.878644689548,8.404319275065834,92693.95877323976,15520.784168664011,33.252555363196116,0.973036798005494,67.0,29.0,105.0,307.0,412.0,38.0,996.0,997.0,41.0,20.0,21.0,0.4878048780487805,99.03017144239573,3512.634425622732,44.0,35.0,9.0,0.7954545454545454,360.07318768750264,31.949974740665084,25.0,13.0,12.0,0.52,1923.4057970990164,37682.94086488991,16.0,3.0,13.0,0.1875,1517.5207160710477,23874.044543775,82.0,42.0,40.0,0.5121951219512195,108.30465060211137,16064.45968823287,,,,,92255.0,92293.0,92322.0,92366.0,92379.0,92404.0,92412.0,92427.0,92654.0,92734.0,0.028119577782398975,-0.09025855232073923,0.047015726528786855,-0.1223029946960782,0.006978039860948208
90,90,93173.9140747553,3115.967812427648,11.649696085192137,93258.17805189872,-4810.535738861264,22.93168860777651,93296.8108928819,49250.83397614023,10.940378549666342,93319.45203459916,-16014.17988117544,8.536902521266116,93594.65601236216,16371.190154969188,30.87402197055727,0.9701475285764612,62.0,35.0,109.0,301.0,410.0,27.0,901.0,905.0,27.0,14.0,13.0,0.5185185185185185,136.1578039872416,3102.6756162703728,50.0,37.0,13.0,0.74,239.85141861643712,2169.380964748755,24.0,13.0,11.0,0.5416666666666666,2344.422562451043,42455.15034638811,17.0,3.0,14.0,0.1764705882352941,1892.3055316293949,29610.301984107908,76.0,38.0,38.0,0.5,138.03329325294192,17120.095910134118,,,,,93160.0,93187.0,93222.0,93271.0,93284.0,93308.0,93316.0,93331.0,93557.0,93632.0,0.04369679412097687,-0.04985960642155297,0.04760168251337243,-0.11816437342843808,0.00843147577826187
91,91,94070.36250904402,2578.6396291559245,12.208389447652046,94151.17805189893,-4429.488471131238,22.93168860776874,94189.92928513027,47442.31787670145,10.939648639986595,94213.027373699,-14814.92501002347,8.580774165293649,94487.9826093773,14390.609738709938,31.277018920116912,0.967064510970818,59.0,29.0,110.0,302.0,412.0,30.0,897.0,893.0,30.0,14.0,16.0,0.4666666666666667,109.20806981341208,2683.1128733600517,50.0,37.0,13.0,0.74,230.9320798846552,1970.3117475677104,24.0,13.0,11.0,0.5416666666666666,2233.008390456909,41649.36323114711,16.0,4.0,12.0,0.25,1736.701141980283,27810.490746504325,80.0,40.0,40.0,0.5,119.04530763697804,14795.127302707346,,,,,94056.0,94086.0,94115.0,94164.0,94177.0,94201.0,94209.0,94225.0,94449.0,94527.0,0.042351039896629354,-0.05213515768010971,0.04706786030691646,-0.11722645513259548,0.008272429716216457
92,92,95065.11963343712,3259.9291821764496,16.52553522348263,95146.4444964102,-3496.224372312309,22.931688606049413,95185.06373853712,41328.98462002961,10.898684081864376,95208.87669549928,-10697.818924996218,7.503600599833404,95488.9867515405,13854.91467223934,32.91886373492029,0.9722952594841822,69.0,34.0,103.0,309.0,412.0,35.0,994.0,995.0,37.0,18.0,19.0,0.4864864864864865,117.69309083498342,3538.356981962891,43.0,30.0,13.0,0.6976744186046512,187.2125743576761,1610.1942963723027,25.0,13.0,12.0,0.52,1869.9332971188965,38211.55786461799,15.0,4.0,11.0,0.2666666666666666,1407.2141842366966,21572.882814153138,82.0,41.0,41.0,0.5,112.93514018224826,14329.339708807842,,,,,95048.0,95083.0,95117.0,95159.0,95172.0,95197.0,95206.0,95220.0,95449.0,95529.0,0.03610295937668411,-0.05354707090319227,0.04524508197601969,-0.13154215771484412,0.00815126926826427
93,93,96122.67980499484,3808.986611722369,21.011181355750537,96206.02737371024,-1977.8190140318577,17.8357578060484,96243.93926163211,40574.67679861796,10.837611058467616,96268.45203459916,-9322.001848520717,6.757603316250287,96547.45075981451,14589.72080191748,35.6277779507215,0.9786330970840522,85.0,35.0,98.0,313.0,411.0,50.0,1058.0,1060.0,52.0,28.0,24.0,0.5384615384615384,112.39844759026144,4212.167666358219,40.0,29.0,11.0,0.725,209.23825689750396,256.18040746116844,25.0,13.0,12.0,0.52,1793.41577104493,38097.36297808585,14.0,3.0,11.0,0.2142857142857142,1369.4812620816087,20142.171606892032,89.0,44.0,45.0,0.4943820224719101,108.8831930843616,15177.19317037041,,,,,96095.0,96145.0,96180.0,96216.0,96231.0,96256.0,96265.0,96278.0,96505.0,96591.0,0.02950875365230976,-0.10579241852416212,0.044200371082340116,-0.14690849501375372,0.007463007316085955
94,94,97179.87751825272,3189.887478808663,16.07829733711106,97267.87669549948,-3081.8664132076265,12.739827004249674,97301.61832954506,38516.285388558375,10.809231677864858,97326.45203459916,-9586.539374136011,7.349791812556122,97606.72687421422,13849.455306307613,33.33646386164118,0.9715165115166284,68.0,33.0,105.0,312.0,417.0,35.0,1057.0,1057.0,36.0,17.0,19.0,0.4722222222222222,112.8618102129019,3384.168137311282,44.0,37.0,7.0,0.8409090909090909,402.5182924083704,2037.0833715916383,26.0,14.0,12.0,0.5384615384615384,1739.440992481942,35300.699724769875,15.0,4.0,11.0,0.2666666666666666,1291.7560288650282,19984.347005305863,83.0,42.0,41.0,0.5060240963855421,95.33086251583154,14393.41268080956,,,,,97163.0,97198.0,97231.0,97275.0,97288.0,97314.0,97323.0,97336.0,97565.0,97648.0,0.0353811258117019,-0.13060861128936047,0.04516118246954986,-0.13474685477745174,0.00688336547592698
95,95,98252.05893993206,2988.013310166411,15.083019202794476,98338.027373699,-3236.83147381479,17.8357578060484,98374.3683606048,38402.39564277275,10.873432119735062,98399.027373699,-9964.42713554519,7.975540580831118,98680.2400640533,13924.0422576758,33.72823163702233,0.9618028514378688,71.0,38.0,102.0,312.0,414.0,33.0,1073.0,1072.0,37.0,18.0,19.0,0.4864864864864865,123.6980634711399,3123.9584379863845,43.0,33.0,10.0,0.7674418604651163,271.76626095703705,336.8890894457311,26.0,13.0,13.0,0.5,1714.3553456948832,36507.84406527954,15.0,4.0,11.0,0.2666666666666666,1266.480359635819,20235.391529956447,84.0,42.0,42.0,0.5,106.77308375668072,14415.363181281984,,,,,98237.0,98270.0,98308.0,98348.0,98361.0,98387.0,98395.0,98410.0,98638.0,98722.0,0.04139809653801402,-0.08396058403273775,0.04464188540845683,-0.12710016766724297,0.007668253354935112
96,96,99314.35285297756,2264.8655446649936,10.865828033395672,99400.6712698872,-4562.153268298024,28.027619409504627,99432.79856249872,41319.31959809351,11.28803596995838,99456.027373699,-12846.794474272188,9.561575764861631,99736.24370999068,14509.122358008044,31.161388305356457,0.9498764103832198,60.0,36.0,105.0,307.0,412.0,24.0,1059.0,1059.0,24.0,11.0,13.0,0.4583333333333333,130.10646281241466,2322.7806701882932,46.0,40.0,6.0,0.8695652173913043,530.1961572627994,2578.9984928196923,24.0,13.0,11.0,0.5416666666666666,1870.981701323841,34309.87195283978,17.0,4.0,13.0,0.2352941176470588,1450.0487834492956,24130.15016925722,80.0,41.0,39.0,0.5125,109.5198964487672,15070.90450779635,,,,,99303.0,99327.0,99363.0,99407.0,99420.0,99444.0,99452.0,99468.0,99697.0,99775.0,0.05744555703047674,-0.1162162089001005,0.04528103849537175,-0.11287242014755167,0.007548347429044852
97,97,100267.50343129422,3833.202196758597,16.133290127179624,100349.60271280256,-3758.604379574429,20.383723203503223,100388.3221271282,48402.562945009784,11.020348611901044,100411.45203459916,-15182.240815193696,7.872957755913171,100688.15851514658,17033.02084372218,33.797666891354744,0.977720741387317,66.0,32.0,105.0,306.0,411.0,34.0,957.0,955.0,34.0,16.0,18.0,0.4705882352941176,133.80718159189246,4178.9247307430205,44.0,33.0,11.0,0.75,236.3077415769953,556.8066202340824,25.0,13.0,12.0,0.52,2242.669541158597,44565.06570109756,16.0,3.0,13.0,0.1875,1839.884306366892,28356.491213387824,83.0,41.0,42.0,0.4939759036144578,160.03843276594333,18186.82898607387,,,,,100252.0,100286.0,100318.0,100361.0,100375.0,100400.0,100408.0,100423.0,100648.0,100729.0,0.03490741545150983,-0.06287113984679372,0.04633369401753574,-0.1211866106435105,0.009395775079141543
98,98,101189.77050221011,2680.512998648738,11.704932717850864,101270.60271279934,-4395.902643132364,20.383723206660132,101308.41424839316,49787.28364751068,10.84506725327188,101331.45203459916,-15579.688296855453,8.28071560201993,101606.2587052638,16232.093193967656,32.15495851385264,0.968396225494624,58.0,31.0,108.0,303.0,411.0,27.0,920.0,921.0,27.0,13.0,14.0,0.4814814814814814,114.71175782627432,2601.3155438775693,47.0,36.0,11.0,0.7659574468085106,271.48425673602685,771.7412978315563,24.0,12.0,12.0,0.5,2361.8002536352415,45602.44723836824,16.0,4.0,12.0,0.25,1886.7445987095691,29687.36034162133,82.0,41.0,41.0,0.5,129.9168713887574,16703.083330195106,,,,,101177.0,101204.0,101235.0,101282.0,101296.0,101320.0,101328.0,101343.0,101566.0,101646.0,0.04279470306023555,-0.061758478013647915,0.047437821078100316,-0.12110284639586677,0.0080037041333054
99,99,102191.72955099375,3447.9909603270003,18.104720644148863,102274.17423576087,-3153.581796395519,20.383723206816327,102311.23858152214,43557.9078959704,10.732397966279294,102335.45203459916,-10937.510433854584,6.984324509209583,102616.06845401214,14352.040137250871,34.401127046677864,0.9762176601249124,75.0,35.0,98.0,313.0,411.0,40.0,1003.0,1003.0,43.0,23.0,20.0,0.5348837209302325,119.75347296880564,3663.7124487019673,41.0,30.0,11.0,0.7317073170731707,262.67815620842754,554.1825129383092,26.0,13.0,13.0,0.5,1972.8391443759897,41216.89640667828,14.0,3.0,11.0,0.2142857142857142,1515.3941104499402,22618.721977454,84.0,42.0,42.0,0.5,116.59768895318878,14930.6283704517,,,,,102172.0,102212.0,102247.0,102285.0,102298.0,102323.0,102332.0,102345.0,102574.0,102658.0,0.03473137671957483,-0.08329517772732688,0.045292330134122434,-0.13855018649942324,0.00812411948671731
100,100,103266.38762353292,3680.555911309303,18.97679790507479,103352.87669549928,-2711.688211218444,12.739827004320285,103387.3848549657,39157.73647532541,11.045857249683236,103410.87669549928,-9927.446879396932,7.563860693474351,103692.3800487691,14014.797041831638,35.702489945745114,0.9749392399376006,87.0,42.0,93.0,314.0,407.0,45.0,1073.0,1076.0,48.0,26.0,22.0,0.5416666666666666,102.3562202541434,3835.197155320917,31.0,24.0,7.0,0.7741935483870968,380.5817142304344,2082.3248228269176,26.0,13.0,13.0,0.5,1746.0067383471328,37141.601158810125,14.0,3.0,11.0,0.2142857142857142,1335.7524259315594,20360.257791285425,87.0,43.0,44.0,0.4942528735632184,105.0530777278452,14579.893209076969,,,,,103242.0,103287.0,103329.0,103360.0,103374.0,103400.0,103408.0,103422.0,103650.0,103736.0,0.027809989230059458,-0.14034862586927996,0.044589061971121585,-0.13455145539018015,0.007495868646137418
101,101,104350.04083832918,3340.7132751342697,17.88642591713514,104437.94445343984,-2745.41929903738,20.383723195265745,104469.6439925724,39027.880894012065,11.178170800514726,104493.45203459916,-10479.84982942237,7.962836217323843,104776.06335903265,13855.367017221151,35.49235102340786,0.9705033667664872,84.0,42.0,93.0,313.0,406.0,42.0,1083.0,1082.0,42.0,22.0,20.0,0.5238095238095238,104.56730423772947,3534.6250201313237,35.0,30.0,5.0,0.8571428571428571,501.5122967101981,4190.9304230474945,26.0,14.0,12.0,0.5384615384615384,1742.1602639794428,34846.7663431704,16.0,3.0,13.0,0.1875,1365.8325683977232,20843.109780712533,88.0,44.0,44.0,0.5,107.91523878461835,14241.373132712411,,,,,104328.0,104370.0,104412.0,104443.0,104456.0,104482.0,104490.0,104505.0,104733.0,104818.0,0.03130089164372441,-0.18267238701426852,0.04463886391143357,-0.13032940267551577,0.007788695792070181
102,102,105437.20835478086,3515.860754579959,18.8843122252685,105523.87669549928,-2690.114272271326,12.739827004320285,105558.41554236632,38050.22829870644,10.973004171303632,105582.45203459916,-9735.297127395674,7.527667381986216,105863.5838984374,14265.200926490126,36.075376987978366,0.972348362997034,81.0,40.0,96.0,314.0,410.0,41.0,1088.0,1089.0,47.0,25.0,22.0,0.5319148936170213,100.25284359537366,3764.5831367759392,34.0,27.0,7.0,0.7941176470588235,359.4761543789295,1772.3880518608717,26.0,13.0,13.0,0.5,1710.4159623406897,36377.80072151282,15.0,3.0,12.0,0.2,1330.8561606987496,20143.597703585012,88.0,45.0,43.0,0.5113636363636364,103.00869506014818,14962.845360084317,,,,,105416.0,105457.0,105497.0,105531.0,105545.0,105571.0,105579.0,105593.0,105821.0,105907.0,0.028514452247512544,-0.13362858153806806,0.044951529565430685,-0.13670421593539714,0.007220977509602657
103,103,106522.71089589702,3853.527713125348,21.83509740157933,106609.39728719766,-2010.3362421053037,18.911190572588495,106641.77575700164,38789.99329830193,11.09152490066378,106665.87669549928,-9720.891233123166,7.135410588194674,106945.9539063038,14454.184243072012,36.47720226142175,0.975781238604787,88.0,41.0,91.0,314.0,405.0,47.0,1087.0,1084.0,49.0,28.0,21.0,0.5714285714285714,124.79915287066868,4221.530629553958,30.0,25.0,5.0,0.8333333333333334,428.993612902649,3614.303006354359,25.0,13.0,12.0,0.52,1712.8666765796331,35790.63325456108,14.0,3.0,11.0,0.2142857142857142,1314.0395303360665,19424.927133119305,91.0,46.0,45.0,0.5054945054945055,104.90823158323656,15125.753857141668,,,,,106497.0,106544.0,106585.0,106614.0,106629.0,106654.0,106663.0,106676.0,106902.0,106990.0,0.032385689726739275,-0.2133939606308793,0.0441574367751854,-0.13517685763817427,0.007257983558187989
104,104,107583.816870722,3342.7298432507955,15.94291530565265,107663.02737369903,-3381.213674773207,17.835757806021928,107700.78682761488,40558.82642940952,10.975305241366522,107725.027373699,-11970.601214637843,7.978832968938146,108003.45804119649,15568.328278811032,34.00025432599592,0.9695533286278758,64.0,32.0,103.0,309.0,412.0,32.0,1059.0,1058.0,32.0,15.0,17.0,0.46875,129.88085603183603,3876.557393381622,42.0,31.0,11.0,0.7380952380952381,228.94639135865907,387.60624733410464,25.0,13.0,12.0,0.52,1870.1800237010464,36666.749616039655,16.0,4.0,12.0,0.25,1427.3122355517537,22657.998879959818,83.0,41.0,42.0,0.4939759036144578,126.63807224001928,16490.14514368232,,,,,107569.0,107601.0,107633.0,107673.0,107688.0,107713.0,107721.0,107736.0,107962.0,108045.0,0.03885472716081873,-0.06771130528271495,0.0461103091075871,-0.1192347994857947,0.008134339793719378
105,105,108520.0321102548,3504.370558038954,13.891742952216688,108602.60271279886,-4283.867158633497,20.383723206912453,108640.66221875147,48751.9174321005,11.094610611169433,108662.87669549928,-15706.076498536946,8.680659590491167,108939.48586221736,16893.186056683015,32.74410372296172,0.9753220866273938,62.0,30.0,110.0,304.0,414.0,32.0,935.0,940.0,33.0,17.0,16.0,0.5151515151515151,126.8340283054484,3365.7998869574603,49.0,38.0,11.0,0.7755102040816326,272.761659875039,733.1939422861014,24.0,13.0,11.0,0.5416666666666666,2316.8455909936215,41600.86731103624,16.0,3.0,13.0,0.1875,1800.121382277598,28960.892925459364,81.0,40.0,41.0,0.4938271604938271,136.35656361126414,17798.287104581323,,,,,108503.0,108535.0,108565.0,108614.0,108628.0,108652.0,108660.0,108675.0,108899.0,108979.0,0.03619309836241311,-0.06367182962836009,0.047523168585531454,-0.1146130532628746,0.008071690156832251
106,106,109436.59018348718,2965.7436095426565,14.095355019705147,109519.02737369912,-4151.539720618738,17.835757805965823,109556.01389090224,50412.928804654606,10.890545834101909,109578.87669549928,-15221.627839161329,8.02265818570478,109853.03072971042,16453.981584241254,33.15880661679693,0.9745375954520092,62.0,31.0,106.0,304.0,410.0,31.0,920.0,915.0,31.0,15.0,16.0,0.4838709677419355,120.00993373488296,3197.4798444628013,45.0,35.0,10.0,0.7777777777777778,282.77465554648876,47.43728236129482,25.0,13.0,12.0,0.52,2392.1082392451763,45475.70035738881,16.0,4.0,12.0,0.25,1851.7979925195984,28988.01330589575,84.0,42.0,42.0,0.5,116.07787487966476,16769.190074122143,,,,,109422.0,109453.0,109484.0,109529.0,109543.0,109568.0,109576.0,109590.0,109813.0,109894.0,0.040465377165017156,-0.06811320005974664,0.04745029293010078,-0.12165571331046467,0.007054698237345662
107,107,110463.5949750067,3319.4918621885477,17.99022823677465,110547.87671807127,-3046.9427166799933,28.027619409504492,110581.6941851816,44889.49450458033,10.85593082230158,110606.45203459916,-10331.057733415646,6.922537087250403,110885.12820562252,14838.581114305,34.62976161653871,0.9755424520686078,69.0,32.0,103.0,311.0,414.0,37.0,1023.0,1026.0,37.0,20.0,17.0,0.5405405405405406,102.32089628843984,3431.718603999824,42.0,35.0,7.0,0.8333333333333334,420.5000311155816,2259.455235160821,25.0,13.0,12.0,0.52,1978.6563252080016,40811.44736582336,15.0,4.0,11.0,0.2666666666666666,1473.460124228652,22099.06276980355,85.0,43.0,42.0,0.5058823529411764,114.5897354804028,15680.431903862444,,,,,110444.0,110481.0,110513.0,110555.0,110569.0,110594.0,110603.0,110616.0,110843.0,110927.0,0.030824264838227217,-0.1380071994178369,0.044078382860963335,-0.14262432388338786,0.007722418646209616
108,108,111551.63047978363,3225.2334274610103,18.700915375787385,111639.82194809376,-2657.775587202332,21.06010674961438,111671.22690040334,40018.28927494336,10.945226723957616,111695.87669549932,-9120.606387894455,7.268754114127025,111976.06986660424,14129.566200144776,35.07821234761302,0.9727182134821192,82.0,40.0,95.0,313.0,408.0,42.0,1091.0,1090.0,42.0,23.0,19.0,0.5476190476190477,107.03975968707952,3371.030795082944,37.0,32.0,5.0,0.8648648648648649,528.4653828275403,4438.994538556217,26.0,13.0,13.0,0.5,1750.156607074652,37746.970866380034,15.0,4.0,11.0,0.2666666666666666,1264.2013572802975,19303.144402001457,88.0,44.0,44.0,0.5,107.84560700742404,14609.585135826046,,,,,111529.0,111571.0,111611.0,111645.0,111658.0,111684.0,111693.0,111706.0,111933.0,112019.0,0.03318822097516956,-0.19883747347676617,0.0437339186353095,-0.13860935375505726,0.007632619818598466
109,109,112645.79322194029,2961.3552516495342,18.627938651889764,112734.39728720114,-2902.079099660523,20.38372320688928,112765.75234900652,39290.43810361029,11.136362891282246,112789.87669549928,-9877.61945744064,7.810221322100919,113070.22056177058,14579.105883503404,34.866125079351455,0.9707410896606308,75.0,41.0,97.0,311.0,408.0,34.0,1094.0,1094.0,34.0,17.0,17.0,0.5,116.97576789689454,3353.8373251869793,36.0,31.0,5.0,0.8611111111111112,511.00423683357315,3722.8457837587503,25.0,13.0,12.0,0.52,1739.0722747438645,35734.54550134904,16.0,4.0,12.0,0.25,1282.9765136418273,19919.86875400417,86.0,43.0,43.0,0.5,116.05438473034852,15313.987801649204,,,,,112629.0,112663.0,112704.0,112739.0,112753.0,112778.0,112787.0,112801.0,113028.0,113112.0,0.039500754876246845,-0.17608211881383556,0.04426197208994892,-0.12988721818751411,0.007960322509329378
110,110,113738.68048777845,2770.1548887030663,15.499016536778395,113827.24644707049,-3614.628929176672,25.47965400864057,113858.56110503254,39482.048419122635,11.139091573566692,113883.027373699,-10322.459072947882,8.46511703934317,114164.10167415893,14373.244744423137,33.126588029035226,0.9610195917491734,68.0,38.0,102.0,311.0,413.0,30.0,1092.0,1093.0,30.0,15.0,15.0,0.5,120.04667726936506,3156.538884631307,44.0,38.0,6.0,0.8636363636363636,512.6778655749223,3173.6710253494907,25.0,13.0,12.0,0.52,1743.817461571689,34458.78283384199,16.0,4.0,12.0,0.25,1279.411991884222,20727.35114463896,84.0,42.0,42.0,0.5,105.98569040866138,14922.20380177996,,,,,113724.0,113754.0,113792.0,113833.0,113846.0,113871.0,113879.0,113894.0,114123.0,114205.0,0.04333572745658588,-0.1418341621284203,0.04416735026157084,-0.12394449644631512,0.0073738179717411515
111,111,114841.13648520634,3719.6899612735606,21.66602535341853,114926.7208366193,-1985.2569099258224,17.83575780559329,114959.35174012335,39204.96436099718,10.844429340424671,114984.45203459916,-9000.255137424365,6.950773482671446,115264.0649141498,15034.088588539857,35.803045876896434,0.9759531706085024,98.0,49.0,81.0,314.0,395.0,49.0,1103.0,1101.0,53.0,28.0,25.0,0.5283018867924528,112.13407332402386,3978.624453912462,24.0,19.0,5.0,0.7916666666666666,449.40213032966585,3747.0154684245554,26.0,13.0,13.0,0.5,1703.495047687323,37774.72843580087,15.0,4.0,11.0,0.2666666666666666,1281.0721911471833,19151.883428033612,88.0,44.0,44.0,0.5,109.38322127166848,15774.695311160403,,,,,114815.0,114864.0,114913.0,114932.0,114946.0,114972.0,114981.0,114994.0,115221.0,115308.0,0.030146080585068707,-0.22636976004604736,0.04345100360254465,-0.1423373195077881,0.007275680240107725
112,112,115947.16432182895,3675.7899747172983,20.103691664372104,116031.673516813,-2160.8325947640565,15.287792403035288,116065.23156319936,39209.30005095666,10.855278227753,116090.45203459916,-9257.976244707768,7.249556826968909,116368.6116638658,15778.900566957973,36.59080056991985,0.9719560686283086,90.0,48.0,84.0,312.0,396.0,42.0,1106.0,1106.0,46.0,25.0,21.0,0.5434782608695652,113.4497298308225,4048.306288710858,22.0,16.0,6.0,0.7272727272727273,400.5786220685847,2945.507027907811,26.0,13.0,13.0,0.5,1719.8864415594182,37617.63855911655,15.0,4.0,11.0,0.2666666666666666,1276.678219455606,19551.264592316205,89.0,45.0,44.0,0.5056179775280899,111.78679346538448,16766.16620699974,,,,,115926.0,115968.0,116016.0,116038.0,116052.0,116078.0,116087.0,116100.0,116325.0,116412.0,0.030864040277368627,-0.18538160847778415,0.043864247495472825,-0.13790035594284514,0.007084574301676833
113,113,116984.81179976938,2774.472712485101,11.52553687134554,117065.027373699,-4438.286354033762,17.8357578060484,117102.76455484444,42107.55175384288,11.308529538987484,117125.45203459916,-14309.350637669815,9.812479440697487,117404.38166186838,15921.50625956889,32.01954370077459,0.9591198508504916,57.0,30.0,109.0,305.0,414.0,27.0,1036.0,1036.0,27.0,13.0,14.0,0.4814814814814814,125.32544882296057,2796.7737140356057,48.0,37.0,11.0,0.7708333333333334,270.3002145265084,1099.54723387968,25.0,14.0,11.0,0.56,1962.6224101985913,35282.5396970144,18.0,3.0,15.0,0.1666666666666666,1580.782428640591,25890.61557151636,79.0,39.0,40.0,0.4936708860759494,124.58374675416296,16588.27858654221,,,,,116972.0,116999.0,117029.0,117075.0,117089.0,117114.0,117122.0,117138.0,117366.0,117443.0,0.04517090698315295,-0.06090193217948736,0.04660974880876268,-0.11047198916763781,0.007824871888568181
114,114,117973.19304890372,3133.916177663214,17.540035254535688,118053.77839358624,-3285.016128074176,22.93168856099409,118091.81362320826,47394.14263885796,10.793870454741707,118114.45203459916,-14662.253799354525,7.919552301236552,118391.96273319228,16921.59860281265,33.89975128557962,0.97436252244947,74.0,31.0,103.0,307.0,410.0,43.0,992.0,990.0,43.0,24.0,19.0,0.5581395348837209,109.26088568821164,3166.742464786859,43.0,32.0,11.0,0.7441860465116279,239.07453379439593,473.41490244110264,24.0,13.0,11.0,0.5416666666666666,2273.9778229327926,41667.05977784217,16.0,3.0,13.0,0.1875,1824.7962446805016,27905.635937669285,84.0,42.0,42.0,0.5,110.36847272843418,17622.727550545333,,,,,117949.0,117992.0,118023.0,118065.0,118079.0,118103.0,118111.0,118126.0,118351.0,118433.0,0.03486401023325435,-0.07277727855009107,0.047980144725065295,-0.12445537157192262,0.0065223431496648976
115,115,118949.26505550684,2971.5346246680933,13.66907671700844,119032.45203459918,-4347.3998333052405,15.287792405182785,119067.95417909267,47310.50460478673,10.991123307476943,119090.45203459916,-14585.45568030509,8.137690094497568,119368.53751236154,16522.21508973669,32.661597221097196,0.970136587176364,60.0,29.0,107.0,307.0,414.0,31.0,976.0,976.0,33.0,15.0,18.0,0.4545454545454545,116.9613851048273,3122.1762063056003,49.0,39.0,10.0,0.7959183673469388,363.1718412389147,357.83995599961645,24.0,13.0,11.0,0.5416666666666666,2254.8847991288308,42430.4927546998,16.0,3.0,13.0,0.1875,1809.1044829388616,27720.785648472985,81.0,41.0,40.0,0.5061728395061729,99.31288941116092,16905.1814942594,,,,,118935.0,118966.0,118995.0,119041.0,119055.0,119079.0,119087.0,119102.0,119328.0,119409.0,0.039360599783652646,-0.08353771338368075,0.04766139820247634,-0.1240348277484204,0.006010870144939122
116,116,119978.555703417,3569.035245717424,17.52184100941926,120060.60271279886,-3174.0619523470164,20.383723206912453,120098.90882629751,42881.74618624352,10.929512474972102,120122.87669549928,-10907.099603361585,7.179248518867441,120402.7267199649,15022.219031828778,34.04295691176169,0.9767394079047356,74.0,34.0,100.0,311.0,411.0,40.0,1029.0,1031.0,40.0,20.0,20.0,0.5,96.58610407016764,3704.1981358325975,39.0,28.0,11.0,0.717948717948718,234.17846772871457,534.4388062905143,25.0,13.0,12.0,0.52,1932.914664837699,39755.49227262812,15.0,4.0,11.0,0.2666666666666666,1455.8956777328026,22007.346101268,85.0,43.0,42.0,0.5058823529411764,100.69313964744336,15554.713402159508,,,,,119959.0,119999.0,120033.0,120072.0,120086.0,120111.0,120120.0,120133.0,120361.0,120444.0,0.02706224439393356,-0.07377879551328685,0.04507546536101132,-0.13348146901345737,0.006702947110150421
117,117,121075.78181910096,3566.5049989828603,22.515432279093613,121160.26116224294,-2211.8560273719236,12.739826974770232,121194.13658861042,39970.60755062601,10.985633245812044,121218.30135639945,-8856.44680661286,6.874435151545062,121498.66098089544,14781.534769466994,36.90754921766603,0.9765175392620048,99.0,42.0,83.0,314.0,397.0,57.0,1094.0,1096.0,57.0,30.0,27.0,0.5263157894736842,100.04487881871007,3831.502687801018,21.0,15.0,6.0,0.7142857142857143,387.0477596876606,2512.97222228006,26.0,13.0,13.0,0.5,1751.0650472267769,38030.64634396101,14.0,3.0,11.0,0.2142857142857142,1319.645109408805,19448.291677376576,89.0,45.0,44.0,0.5056179775280899,99.56543936875204,15550.52108655799,,,,,121046.0,121103.0,121145.0,121166.0,121181.0,121207.0,121216.0,121228.0,121455.0,121542.0,0.028051237513263574,-0.1749877726659912,0.04380881739185253,-0.14900389944457895,0.0067357984757047155
118,118,122147.78841310184,3370.4505066652323,17.09128967062126,122233.45203459916,-2458.548925213245,15.28779240518434,122269.20677457236,39245.77147595562,10.956878396967449,122293.45203459916,-9348.01226628571,7.15612570207752,122574.1358427324,14855.828594900628,34.87770477148316,0.973906969581257,73.0,39.0,99.0,312.0,411.0,34.0,1075.0,1075.0,38.0,20.0,18.0,0.5263157894736842,103.08227738949492,3638.682156438814,39.0,30.0,9.0,0.7692307692307693,275.84570980546687,936.6665453053035,26.0,13.0,13.0,0.5,1731.871775339495,37314.816018285695,15.0,3.0,12.0,0.2,1337.539365476875,19828.224393196473,85.0,42.0,43.0,0.4941176470588235,111.81493299982144,15603.225072558304,,,,,122132.0,122166.0,122205.0,122242.0,122256.0,122282.0,122290.0,122304.0,122532.0,122616.0,0.030584124343509756,-0.11219858469220459,0.04412887580514366,-0.14308275678037014,0.0075266709147548145
119,119,123220.27552540968,3239.8806293297544,15.815027396844084,123307.45203459916,-3538.563541952226,15.28779240518401,123342.55291409016,38281.816538997286,10.953899106549402,123367.027373699,-10126.786244289287,7.953187687308234,123648.1650311634,14571.776287429846,33.30880114274818,0.9669832886507403,71.0,38.0,102.0,311.0,413.0,33.0,1072.0,1073.0,36.0,17.0,19.0,0.4722222222222222,118.20907148595036,3516.1883471766755,42.0,33.0,9.0,0.7857142857142857,306.8103996984088,383.3044239775172,25.0,13.0,12.0,0.52,1749.2375070249268,34673.59902975965,15.0,4.0,11.0,0.2666666666666666,1284.0430450842684,20232.304467987145,84.0,42.0,42.0,0.5,114.05985038272108,15041.173683435482,,,,,123205.0,123238.0,123276.0,123316.0,123330.0,123355.0,123363.0,123378.0,123607.0,123689.0,0.03648562555540964,-0.0867047874260134,0.045693691291869516,-0.1267966968107348,0.007827450005605242
120,120,124275.9347861064,3341.9378546517655,16.476587421381563,124358.66497502165,-2915.3653256653947,20.383723206912453,124396.71172183842,38660.742659562595,11.177616479512356,124420.45203459916,-10576.868534654805,8.823380220358672,124700.99618455542,14954.171099864428,32.85690940010726,0.9687699527014648,67.0,32.0,106.0,310.0,416.0,35.0,1055.0,1054.0,37.0,19.0,18.0,0.5135135135135135,112.4747538048113,3724.650960267488,44.0,33.0,11.0,0.75,228.91159470467264,409.19811244972107,26.0,14.0,12.0,0.5384615384615384,1724.2714549287934,33960.58559047291,17.0,3.0,14.0,0.1764705882352941,1349.7546470572772,21162.58126849587,83.0,42.0,41.0,0.5060240963855421,116.99132617306569,15519.63460475241,,,,,124259.0,124294.0,124326.0,124370.0,124383.0,124409.0,124417.0,124432.0,124660.0,124742.0,0.03365554917433715,-0.07851900847192332,0.04460006032766422,-0.12761382470008445,0.007823324033929657
121,121,125303.4783026872,2754.019681825075,13.277600823267884,125388.02737369946,-3945.96030207528,17.835757805990575,125424.9171546163,38533.27218227267,11.365508800741823,125448.45203459924,-11081.609215698289,8.73398507331478,125728.95383025054,14192.544511862468,33.33258099990184,0.9624083513727948,57.0,28.0,113.0,310.0,423.0,29.0,1030.0,1028.0,31.0,14.0,17.0,0.4516129032258064,108.7615924444968,2925.7614886797855,51.0,41.0,10.0,0.803921568627451,251.77180263898185,170.69917102289128,25.0,13.0,12.0,0.52,1731.5993938490756,34628.82767916944,17.0,3.0,14.0,0.1764705882352941,1367.7654412545487,21416.24197434688,83.0,42.0,41.0,0.5060240963855421,102.27962678856372,14731.963426916387,,,,,125290.0,125319.0,125347.0,125398.0,125412.0,125437.0,125445.0,125460.0,125688.0,125770.0,0.03949194450651893,-0.06380495072557336,0.04493777184709744,-0.1234266084132404,0.007206574318162325
122,122,126316.73193197156,3100.4250957321997,14.449975734490964,126400.45203459916,-4672.484932458587,15.28779240518434,126435.02022540849,37693.644425116785,11.108233969166468,126459.027373699,-11274.18838537422,9.030195815596564,126739.28959417203,14606.712933862762,31.74367739088014,0.9632945376405662,67.0,31.0,104.0,306.0,410.0,36.0,1011.0,1010.0,40.0,20.0,20.0,0.5,113.75911144212608,3052.741874731419,42.0,33.0,9.0,0.7857142857142857,358.40454040911453,35.12814359827007,25.0,13.0,12.0,0.52,1744.8939865764175,34334.711875668174,16.0,4.0,12.0,0.25,1309.322752598213,21466.672562104377,79.0,40.0,39.0,0.5063291139240507,117.59648130909407,15416.178175299508,,,,,126300.0,126336.0,126367.0,126409.0,126422.0,126447.0,126455.0,126471.0,126700.0,126777.0,0.036691456148615846,-0.07670533893418631,0.046291464070099965,-0.11613454626115448,0.008050851813241978
123,123,127258.83448404014,3203.370210076587,13.24091040569954,127338.44386416006,-3768.123827011082,25.47965400609835,127376.74109473971,45469.00348052747,10.873572796055411,127401.027373699,-13876.814724708434,8.08300843464045,127676.01666716908,16913.7702825752,31.910018683059626,0.9711021697370016,60.0,34.0,106.0,303.0,409.0,26.0,940.0,942.0,27.0,14.0,13.0,0.5185185185185185,145.27012336575808,3262.6146317096463,44.0,32.0,12.0,0.7272727272727273,236.386392772619,1732.9967826560037,25.0,13.0,12.0,0.52,2114.8703214906436,40236.75106780875,15.0,4.0,11.0,0.2666666666666666,1607.6874273046697,25917.0385223796,80.0,40.0,40.0,0.5,122.38358055521203,17495.955079776948,,,,,127246.0,127272.0,127306.0,127350.0,127364.0,127389.0,127397.0,127412.0,127637.0,127715.0,0.045349152248714,-0.06273318065561644,0.04651235258314726,-0.11585421144537539,0.007235736238022181
124,124,128142.03667749172,2624.5953736765928,12.838200328149004,128224.17805189895,-5121.353800298954,22.931688607702547,128263.8385373767,50093.256518658694,10.962978590347712,128286.45203459916,-16300.903073173731,8.758626092398236,128560.8568906641,16194.674235931814,29.98653339645634,0.9622848100789442,64.0,34.0,108.0,301.0,409.0,30.0,883.0,887.0,30.0,16.0,14.0,0.5333333333333333,105.42812560550976,2587.3106897364596,49.0,35.0,14.0,0.7142857142857143,189.5786955415012,2799.78628538263,24.0,13.0,11.0,0.5416666666666666,2395.9673668922273,43130.36300270027,16.0,3.0,13.0,0.1875,1911.8156045088951,30347.80455117976,79.0,40.0,39.0,0.5063291139240507,135.343039123466,16853.522484217057,,,,,128126.0,128156.0,128190.0,128237.0,128251.0,128275.0,128283.0,128298.0,128522.0,128599.0,0.040169287297730644,-0.037017301075827784,0.04783013789490367,-0.11728280304022881,0.008357256043049922
125,125,129093.97629431356,3198.3844914738384,17.50195941601461,129175.89538870644,-3372.8371967405815,22.93168860773567,129213.75242329756,43742.6757984902,11.05989669332279,129236.87669549928,-12487.721830810604,7.87043913972105,129514.7982886462,14834.76497224972,33.059932938467156,0.9755849736604512,71.0,32.0,103.0,307.0,410.0,39.0,956.0,950.0,42.0,22.0,20.0,0.5238095238095238,114.28559485102112,3284.4940681705675,43.0,32.0,11.0,0.7441860465116279,225.8050285676563,603.2726780945779,25.0,13.0,12.0,0.52,2008.3219711090248,39027.87213623958,15.0,3.0,12.0,0.2,1557.4690172477017,23951.685229201452,81.0,41.0,40.0,0.5061728395061729,101.94640839705148,15460.523921524313,,,,,129074.0,129113.0,129145.0,129187.0,129201.0,129226.0,129234.0,129248.0,129475.0,129555.0,0.035732287708272845,-0.0669480960379197,0.045912188370935074,-0.12472002806829043,0.006872128313981042
126,126,130176.48251823468,3306.070320101448,18.93047426178405,130262.87669549928,-2530.0153114599266,12.739827004320276,130296.70612618324,39823.374722834254,10.80040634819853,130321.45203459916,-9038.15433044492,7.148415119509226,130602.23797229136,15076.295644736238,34.782718339509586,0.9758085629622798,88.0,48.0,88.0,313.0,401.0,40.0,1084.0,1083.0,40.0,21.0,19.0,0.525,106.79020412856084,3623.294602646912,31.0,24.0,7.0,0.7741935483870968,393.74937050866447,2416.6415404434083,25.0,13.0,12.0,0.52,1787.8216128516835,37058.45086233213,14.0,3.0,11.0,0.2142857142857142,1305.648432177926,19746.077189748143,85.0,43.0,42.0,0.5058823529411764,104.58106220883444,15867.676105630404,,,,,130155.0,130195.0,130243.0,130270.0,130284.0,130309.0,130318.0,130331.0,130560.0,130644.0,0.03230125006091339,-0.15563122038239932,0.04489377470630503,-0.14445963019018873,0.006936787701251271
127,127,131297.83188099513,3647.351906823444,18.667402349457767,131383.8130479207,-2937.8374221581134,20.383723206839377,131417.86725267535,39554.727439210576,11.004492490442445,131442.45203459918,-9567.65868928456,7.464192199925012,131722.53017218524,14367.15845881689,35.646769705710355,0.9684717180878636,77.0,37.0,98.0,312.0,410.0,40.0,1116.0,1121.0,40.0,20.0,20.0,0.5,129.19319241588968,3892.807986925486,38.0,31.0,7.0,0.8157894736842105,403.7541547723976,1757.027724009181,25.0,13.0,12.0,0.52,1737.8437594180093,36652.65986648495,15.0,3.0,12.0,0.2,1313.9049140104044,20159.993999484213,87.0,44.0,43.0,0.5057471264367817,121.80026940084196,14941.7575976184,,,,,131278.0,131318.0,131355.0,131391.0,131405.0,131430.0,131439.0,131453.0,131680.0,131765.0,0.03542109336206244,-0.13743243643339625,0.04393517215075753,-0.1373277367724176,0.008477686784758411
128,128,132404.59902698034,3009.0784888525377,17.2286752173333,132489.02737369903,-3379.7308291620407,17.8357578060484,132525.83416624123,39229.99324747382,10.870226563908314,132551.02737369903,-9345.473511441382,7.32047823192103,132831.66866377238,14601.743258102902,35.13532462600427,0.9663935437736714,66.0,34.0,106.0,312.0,418.0,32.0,1108.0,1108.0,32.0,16.0,16.0,0.5,109.49449591451616,3359.9412607541894,47.0,36.0,11.0,0.7659574468085106,262.26107706544707,160.788917980537,25.0,13.0,12.0,0.52,1747.9536345981533,36764.77535152834,15.0,4.0,11.0,0.2666666666666666,1242.6070786387877,19147.23287318224,85.0,43.0,42.0,0.5058823529411764,112.11207672554762,15335.29713131785,,,,,132389.0,132421.0,132455.0,132499.0,132513.0,132538.0,132547.0,132561.0,132789.0,132873.0,0.03638804913868168,-0.07759821427272397,0.044556562209215035,-0.13296352262060357,0.007677992602926613
129,129,133511.201001739,3124.595583010715,15.82725872172347,133596.02737369903,-3920.435722820332,17.8357578060484,133631.59101129044,38025.56139323998,11.143193920205343,133655.45203459918,-10598.69349052832,8.241824771306488,133937.0051957852,14885.298661637004,33.48976900325475,0.9634723898477116,72.0,38.0,101.0,312.0,413.0,34.0,1106.0,1106.0,34.0,17.0,17.0,0.5,110.808840873731,3449.251724010058,40.0,30.0,10.0,0.75,312.575667492314,269.3895397525698,26.0,14.0,12.0,0.5384615384615384,1715.6341349826855,33899.79813369672,16.0,3.0,13.0,0.1875,1345.181945863495,21032.70565051223,85.0,43.0,42.0,0.5058823529411764,96.2599550034076,15311.021951485814,,,,,133494.0,133528.0,133566.0,133606.0,133618.0,133644.0,133652.0,133667.0,133895.0,133979.0,0.03546341852245748,-0.07972982841495214,0.04511791731989218,-0.12691960070980796,0.00646678022332818
130,130,134612.8692701838,2279.6799118509416,14.530988971207671,134699.24660900142,-3991.3404957472058,25.479654000968985,134730.7254032589,41504.46861899682,11.367879900954549,134753.45203459918,-12834.366499825792,9.724307917853409,135033.6770526348,16445.03424700989,33.372180110781414,0.9518545995303292,64.0,37.0,104.0,309.0,413.0,27.0,1103.0,1099.0,28.0,15.0,13.0,0.5357142857142857,106.9680923398703,2425.0777302734587,44.0,38.0,6.0,0.8636363636363636,564.8734955474063,3132.8227472662757,25.0,14.0,11.0,0.56,1848.603851094164,34199.97860095247,18.0,3.0,15.0,0.1666666666666666,1486.6425579088211,23912.674076433577,83.0,42.0,41.0,0.5060240963855421,119.64793246943906,17156.75461240527,,,,,134598.0,134625.0,134662.0,134705.0,134717.0,134742.0,134750.0,134766.0,134993.0,135075.0,0.046922417390176344,-0.14152475744659768,0.044539875165346604,-0.11583295193642788,0.007275626834963507
131,131,135586.17591341646,2895.525566460007,10.00108049178217,135666.1780518991,-5378.558841875543,22.93168860773758,135705.87097449545,47771.199567596115,11.08560647686981,135728.4520345992,-15889.4894248472,9.098494395146568,136008.1197876331,17169.716132342022,30.900078681996877,0.9609803126225092,57.0,32.0,110.0,306.0,416.0,25.0,972.0,975.0,25.0,12.0,13.0,0.48,146.01013708611464,2847.898821076055,49.0,36.0,13.0,0.7346938775510204,199.63032719156232,2860.9161298252743,24.0,13.0,11.0,0.5416666666666666,2274.0294187349523,40848.48340168425,17.0,3.0,14.0,0.1764705882352941,1814.7930627755404,29153.0953738225,78.0,39.0,39.0,0.5,129.6217585685702,17764.397850731046,,,,,135574.0,135599.0,135631.0,135679.0,135693.0,135717.0,135725.0,135741.0,135970.0,136047.0,0.05042612601228825,-0.03711595114239742,0.047602518658071524,-0.11421342840240396,0.0075494409790739635
132,132,136507.62845637425,3302.4681981666213,13.74990542800507,136589.09479299551,-3931.44273532953,22.93168860733954,136627.5774725564,50139.68251766867,10.844696971355242,136651.02737369903,-15456.472835956843,8.343150709493855,136927.3985444973,17087.361867769698,31.9408076922236,0.9721126063251098,67.0,34.0,104.0,306.0,410.0,33.0,924.0,922.0,35.0,18.0,17.0,0.5142857142857142,107.64345586656646,3207.8399370767975,43.0,31.0,12.0,0.7209302325581395,237.31024520506935,1508.2727568688224,24.0,13.0,11.0,0.5416666666666666,2366.75769952043,43318.59846520019,16.0,4.0,12.0,0.25,1821.406049687011,29228.028310084832,81.0,40.0,41.0,0.4938271604938271,120.13275107338436,17565.669728497236,,,,,136491.0,136524.0,136558.0,136601.0,136615.0,136639.0,136647.0,136662.0,136887.0,136968.0,0.03259485009615692,-0.06036212687838583,0.047203284517934686,-0.11784098927472127,0.007030503128746843
133,133,137504.0023862488,2738.023911585404,15.37945016435521,137585.60271279886,-4350.408419579597,20.383723206905486,137623.63971011556,44992.08918779702,10.77188185739527,137647.45203459918,-12722.457486168409,7.833528431236534,137927.91289616568,15034.255213614444,32.22598987242636,0.9656077438549084,65.0,33.0,103.0,310.0,413.0,32.0,997.0,996.0,37.0,18.0,19.0,0.4864864864864865,110.84883125364436,2751.15744563222,44.0,33.0,11.0,0.75,246.44175359876152,1338.6449134144298,24.0,13.0,11.0,0.5416666666666666,2127.4969404065973,40358.705509420426,16.0,4.0,12.0,0.25,1610.746572154053,25263.50286160731,81.0,41.0,40.0,0.5061728395061729,108.54474638680682,15505.251319114646,,,,,137490.0,137522.0,137555.0,137597.0,137611.0,137635.0,137644.0,137658.0,137888.0,137968.0,0.040484975600326045,-0.056647958037598804,0.047286022472226685,-0.12660655961359848,0.007219828640963396
134,134,138570.14544359976,3448.3937963847497,17.84226358172257,138656.45203459918,-2854.0720668330196,15.28779240518434,138691.79125155037,40177.46570955723,10.823685668557182,138716.45203459918,-9251.459084219005,7.205367599068235,138998.45653083068,14878.834339296976,34.12253834783596,0.974837184054019,79.0,33.0,101.0,314.0,415.0,46.0,1067.0,1068.0,46.0,24.0,22.0,0.5217391304347826,111.48399348527512,3583.199976429967,40.0,31.0,9.0,0.775,312.521431095549,805.8408784979168,25.0,13.0,12.0,0.52,1797.3960560638243,37386.63427175417,14.0,3.0,11.0,0.2142857142857142,1322.1814318957186,20008.163116805423,85.0,42.0,43.0,0.4941176470588235,113.26589982745996,15454.068925823123,,,,,138546.0,138592.0,138625.0,138665.0,138679.0,138704.0,138713.0,138726.0,138957.0,139040.0,0.03232925241953325,-0.10950018912533417,0.044736421880294655,-0.14291598977625866,0.007612551981193156
135,135,139679.41612116015,2849.0314838310055,16.828244188156674,139768.82194808475,-3164.63711293631,22.931688607423077,139800.4963626238,39637.15335776827,11.224067276613278,139824.45203459918,-9994.094349738942,8.022537643532559,140107.05973093517,14586.652622185697,34.315509921105864,0.965141051186844,72.0,42.0,99.0,313.0,412.0,30.0,1108.0,1109.0,34.0,16.0,18.0,0.4705882352941176,110.85509226076964,3150.8075970224554,38.0,33.0,5.0,0.868421052631579,522.2560683566443,4005.316827278468,26.0,13.0,13.0,0.5,1719.0211980749332,37229.3781125457,16.0,3.0,13.0,0.1875,1343.392426954669,20463.348399566847,87.0,44.0,43.0,0.5057471264367817,107.78977629643626,15174.636843286582,,,,,139665.0,139695.0,139737.0,139774.0,139787.0,139813.0,139821.0,139836.0,140065.0,140149.0,0.03890974630849154,-0.16502873780433824,0.043368936779059376,-0.13441862563462392,0.007389617007296963
136,136,140798.54364838052,3615.240484535383,20.194898893039017,140884.01197178278,-2108.609429854151,12.73982700418756,140916.32390826926,39032.53912942485,11.09914053514617,140940.45203459918,-9412.127008794898,7.464157386832062,141221.4991213781,15094.69084736284,35.845841675981106,0.972820186024215,96.0,52.0,79.0,314.0,393.0,44.0,1114.0,1116.0,46.0,25.0,21.0,0.5434782608695652,110.83793178783353,3565.6725865248927,20.0,16.0,4.0,0.8,478.78603196722514,4228.964614642383,26.0,13.0,13.0,0.5,1707.8596148967015,37253.37532277451,15.0,3.0,12.0,0.2,1328.184167808817,19799.949411258483,89.0,44.0,45.0,0.4943820224719101,101.89436589538516,15826.238153041382,,,,,140776.0,140820.0,140872.0,140888.0,140903.0,140929.0,140937.0,140951.0,141178.0,141265.0,0.030658522513773517,-0.22706245414085147,0.043754765971892005,-0.14111413568556103,0.006750344669244214
137,137,141902.0242753284,3284.3846434878337,20.31680046394602,141990.39728720105,-2637.6905201815935,19.963491117684047,142021.81845243624,38924.990709361926,11.02982499988842,142046.45203459918,-9622.83065230181,7.504727506050306,142328.1424213649,15161.268212543184,35.5788675058882,0.972073501515403,85.0,45.0,91.0,314.0,405.0,40.0,1108.0,1106.0,42.0,23.0,19.0,0.5476190476190477,109.89194949124506,3671.006634620745,34.0,29.0,5.0,0.8529411764705882,490.6373803209593,3687.017211427402,25.0,13.0,12.0,0.52,1711.5001069767395,35746.83922541009,15.0,3.0,12.0,0.2,1305.536329647435,19793.972305264127,87.0,44.0,43.0,0.5057471264367817,110.36970913547847,15917.182973280233,,,,,141881.0,141921.0,141966.0,141995.0,142009.0,142034.0,142043.0,142057.0,142286.0,142371.0,0.03345891587610942,-0.18601021483262603,0.04396918472648738,-0.1356707165302911,0.007279714835739643
138,138,142986.45241050483,3046.6729709167053,20.076540248514075,143075.76697490606,-2502.4188411605874,15.28779240488136,143110.0028978005,38281.37367781324,11.03061747908726,143134.45203459918,-10044.568174512731,8.096601850535677,143414.64797257242,15653.054929269252,35.18575644880586,0.9668178531558174,83.0,44.0,95.0,312.0,407.0,39.0,1087.0,1087.0,46.0,25.0,21.0,0.5434782608695652,100.94037825581832,3603.265133590168,33.0,26.0,7.0,0.7878787878787878,375.6715602699677,2222.864733057044,25.0,13.0,12.0,0.52,1713.743835515763,35581.22614395163,15.0,3.0,12.0,0.2,1305.3136016058158,20493.384808808045,87.0,44.0,43.0,0.5057471264367817,119.17601692019726,16564.71257548997,,,,,142967.0,143006.0,143050.0,143083.0,143097.0,143122.0,143131.0,143145.0,143371.0,143457.0,0.03313134662610232,-0.1501233742692476,0.044767041275454514,-0.1299521869857922,0.007613594755701843
