Unnamed: 0,cycle,p_center,p_height,p_width,q_center,q_height,q_width,r_center,r_height,r_width,s_center,s_height,s_width,t_center,t_height,t_width,r_squared,pr_interval,pr_segment,qrs_duration,st_segment,qt_interval,p_duration,pp_interval,rr_interval,fwhm_p,rise_time_p,decay_time_p,rise_decay_symmetry_p,sharpness_deriv_p,sharpness_diff_p,fwhm_q,rise_time_q,decay_time_q,rise_decay_symmetry_q,sharpness_deriv_q,sharpness_diff_q,fwhm_r,rise_time_r,decay_time_r,rise_decay_symmetry_r,sharpness_deriv_r,sharpness_diff_r,fwhm_s,rise_time_s,decay_time_s,rise_decay_symmetry_s,sharpness_deriv_s,sharpness_diff_s,fwhm_t,rise_time_t,decay_time_t,rise_decay_symmetry_t,sharpness_deriv_t,sharpness_diff_t,Average_Heart_Rate,SDNN,RMSSD,NN50,p_on,p_off,q_on,q_off,r_on,r_off,s_on,s_off,t_on,t_off,sharpness_deriv_p_norm,sharpness_deriv_q_norm,sharpness_deriv_r_norm,sharpness_deriv_s_norm,sharpness_deriv_t_norm
0,0,0.0,0.0,0.0,0.0,0.0,0.0,0.0,0.0,0.0,0.0,0.0,0.0,0.0,0.0,0.0,0.0,0.0,0.0,0.0,0.0,0.0,0.0,0.0,0.0,0.0,0.0,0.0,0.0,0.0,0.0,0.0,0.0,0.0,0.0,0.0,0.0,0.0,0.0,0.0,0.0,0.0,0.0,0.0,0.0,0.0,0.0,0.0,0.0,0.0,0.0,0.0,0.0,0.0,0.0,71.93695987366327,226.07178300040417,317.07187855268575,272.0,,,,,,,,,,,,,,,
1,1,1857.273982700432,2946.150339683544,7.64389620259217,1913.1930791796024,-4094.839579159391,7.64389620259217,1966.799170225921,32650.484567484575,6.946172584763073,1980.87669549928,-11962.077130957558,10.394326869685068,2231.2706302619927,7303.90589111418,26.05882534435175,0.8755769970168288,44.0,27.0,96.0,269.0,365.0,17.0,,,17.0,4.0,13.0,0.2352941176470588,408.29456888860034,3612.136121420454,19.0,16.0,3.0,0.8421052631578947,396.9402184315037,3476.46945201533,15.0,9.0,6.0,0.6,2284.6283824845036,21380.27835235215,16.0,3.0,13.0,0.1875,1729.8721981146675,27201.585967150808,76.0,38.0,38.0,0.5,453.4510001612075,5689.540466408453,0.0,0.0,0.0,0.0,1853.0,1870.0,1897.0,1916.0,1958.0,1972.0,1978.0,1993.0,2204.0,2262.0,0.1385857888475768,-0.09693669575035942,0.06997226573352855,-0.1446130282539143,0.06208335744205974
2,2,2693.6054139588205,4502.888427265051,14.880554387991005,2752.2739827004316,-1996.022557764948,7.64389620259217,2801.085100671678,32529.590945504544,6.907574363109099,2818.604423006124,-8291.254628832681,5.171835537551027,3066.601461806908,9804.192353318138,35.20828479218633,0.9659023269811756,65.0,37.0,77.0,284.0,361.0,28.0,840.0,835.0,45.0,22.0,23.0,0.4888888888888889,372.3035522289025,3602.1323772094556,7.0,4.0,3.0,0.5714285714285714,327.6990876787475,1825.6245706874809,16.0,8.0,8.0,0.5,2290.761074039341,29145.09835177913,10.0,4.0,6.0,0.4,1538.0970628689324,21524.72362152213,78.0,36.0,42.0,0.4615384615384615,433.46338300110455,10458.182890550052,0.0,0.0,0.0,0.0,2683.0,2711.0,2748.0,2755.0,2793.0,2809.0,2815.0,2825.0,3032.0,3109.0,0.08268105200533049,-0.16417604420547707,0.0704208386105118,-0.18550836172854093,0.044212043927759424
3,3,3567.791463253401,4688.417736446569,13.91921310380061,3640.726017299568,-2023.3147157287976,7.64389620259217,3675.4330192945617,33752.18992087086,6.839467580718554,3692.807003443189,-9071.097266762685,5.875417841879249,3942.534155696112,9093.11949588912,33.83400017387193,0.9571385501059448,83.0,46.0,66.0,281.0,347.0,37.0,870.0,873.0,39.0,18.0,21.0,0.4615384615384615,358.58414573191766,4474.5158906502475,38.0,34.0,4.0,0.8947368421052632,368.4103632885605,1849.4576088652357,15.0,7.0,8.0,0.4666666666666667,2525.177549742481,30521.994648149623,12.0,5.0,7.0,0.4166666666666667,1564.3672998405923,24102.669504487923,79.0,41.0,38.0,0.5189873417721519,404.8027015834983,9462.735298038922,0.0,0.0,0.0,0.0,3551.0,3588.0,3634.0,3645.0,3668.0,3683.0,3688.0,3700.0,3910.0,3981.0,0.07648297696350212,-0.18208257985009474,0.07481522104676898,-0.17245623697284942,0.044517472993344506
4,4,4449.602712798849,4286.68713255391,12.90162627271628,4502.273982700431,-2241.109538907647,7.64389620259217,4555.054171621493,31683.98853205758,6.975544020926347,4572.080632254394,-11410.064351045528,6.198137348665578,4820.02604138269,9017.316344891173,32.500528728949774,0.951208172158887,56.0,33.0,85.0,281.0,366.0,23.0,887.0,879.0,37.0,20.0,17.0,0.5405405405405406,350.00506202121034,4213.085310569968,11.0,9.0,2.0,0.8181818181818182,391.35404482726693,1906.0096726198408,16.0,8.0,8.0,0.5,2427.565649827693,26206.33572932773,11.0,4.0,7.0,0.3636363636363636,1655.0131635899477,27171.147905185353,85.0,40.0,45.0,0.4705882352941176,378.5935942920269,8134.148610833772,0.0,0.0,0.0,0.0,4438.0,4461.0,4494.0,4504.0,4547.0,4563.0,4568.0,4579.0,4781.0,4860.0,0.0816493136070524,-0.17462513011212258,0.07661805733111864,-0.1450485389627356,0.04198517383794813
5,5,6130.150678199713,3875.1998680285183,5.095930801728113,6168.698643579773,-3005.993818148804,10.191861603456228,6223.466605154749,33509.67642015257,6.925194388459015,6239.849321800287,-8713.048269392297,5.095930801722504,6488.880085850683,9565.692420963089,34.46712160938234,0.9329458144831838,32.0,27.0,89.0,277.0,366.0,5.0,1678.0,1670.0,32.0,25.0,7.0,0.78125,482.0760663837625,852.6846418184396,19.0,17.0,2.0,0.8947368421052632,424.72438755817495,2323.7549853798023,16.0,7.0,9.0,0.4375,2473.0837288303146,31127.43283637512,13.0,4.0,9.0,0.3076923076923077,1674.991634008788,23608.129517093486,88.0,42.0,46.0,0.4772727272727273,397.5056870690324,8953.164262298622,0.0,0.0,0.0,0.0,6128.0,6133.0,6160.0,6171.0,6216.0,6232.0,6237.0,6249.0,6458.0,6526.0,0.12440031038425263,-0.14129250199846885,0.07380207728126592,-0.19223945308472537,0.041555349009330875
6,6,6967.876695499281,4004.2455019676736,12.739827004320285,7025.911852067979,-3326.7666727755977,7.64389620259217,7070.26983915851,33940.64234008948,6.954239988799598,7086.348596872684,-10870.826892900575,7.64389620259217,7341.082121096977,9322.522759931548,30.344211679989105,0.9321118351085363,74.0,48.0,72.0,276.0,348.0,26.0,839.0,847.0,38.0,22.0,16.0,0.5789473684210527,433.4239326280705,2996.7323793244645,7.0,3.0,4.0,0.4285714285714285,464.80800541047296,2784.329499421736,15.0,8.0,7.0,0.5333333333333333,2677.805600482033,29778.79843821468,12.0,3.0,9.0,0.25,1903.785489993106,29129.51675352768,74.0,43.0,31.0,0.581081081081081,552.365239331554,10264.259136290526,0.0,0.0,0.0,0.0,6949.0,6975.0,7023.0,7030.0,7062.0,7077.0,7083.0,7095.0,7306.0,7371.0,0.10824109870763102,-0.13971764512798637,0.07889672722307628,-0.17512793725345893,0.05925061848125859
7,7,7790.273982700431,3906.1273794954577,7.64389620259217,7834.273982700431,-2495.955469330945,7.64389620259217,7894.903272353594,30482.661249021043,7.007344015293447,7911.584031004204,-10235.250576495862,7.211124014693482,8158.647211279543,9123.427084930165,32.65222283283049,0.935574997770557,44.0,38.0,89.0,277.0,366.0,6.0,819.0,825.0,26.0,13.0,13.0,0.5,462.458855148008,3805.3070330347223,10.0,4.0,6.0,0.4,481.0116652046521,1880.9692017003508,15.0,8.0,7.0,0.5333333333333333,2233.7021263459364,24551.0379231844,12.0,5.0,7.0,0.4166666666666667,1513.3092105856963,23865.989214912057,78.0,35.0,43.0,0.4487179487179487,547.2347911529049,9596.30386128422,0.0,0.0,0.0,0.0,7786.0,7792.0,7830.0,7840.0,7887.0,7902.0,7907.0,7919.0,8127.0,8196.0,0.11839318338045145,-0.1927164451109338,0.07327779251615284,-0.14785267827842397,0.05998127524434462
8,8,8608.424660900142,2045.0491827405956,2.5479653928585866,8679.328730098418,-4957.905429663721,28.027619409504627,8722.133244461538,34066.812138238616,6.842939672160567,8739.698643600574,-10684.667719138606,10.191861603456228,8995.530500609373,7704.253142281644,23.61399336202571,0.8343193091470409,61.0,58.0,80.0,276.0,356.0,3.0,819.0,826.0,3.0,1.0,2.0,0.3333333333333333,472.7492878615924,3855.6696211898047,59.0,31.0,28.0,0.5254237288135594,538.1250623218522,2569.9123565346135,15.0,8.0,7.0,0.5333333333333333,2382.6237496320896,26046.04785386262,14.0,6.0,8.0,0.4285714285714285,1558.769374583327,24574.837789613463,60.0,32.0,28.0,0.5333333333333333,299.5520677256321,7535.663639638968,0.0,0.0,0.0,0.0,8607.0,8610.0,8668.0,8695.0,8714.0,8729.0,8734.0,8748.0,8966.0,9024.0,0.23116768625977752,-0.10853879122062064,0.06993973313275448,-0.14588842775065675,0.038881389564117914
9,9,9488.05058806851,4760.069421626073,17.482535274751427,9537.972626301009,-2143.1277125784304,17.8357578060484,9595.14017958802,34518.43459159875,6.947480415209104,9611.719194815552,-9051.908114620875,6.78788403154949,9861.719370515782,9687.993439973396,34.223266068263584,0.9611484666098952,57.0,25.0,91.0,283.0,374.0,32.0,879.0,875.0,37.0,22.0,15.0,0.5945945945945946,345.3559963882355,4789.120339670173,19.0,10.0,9.0,0.5263157894736842,386.7675282210775,2070.7644334089296,17.0,9.0,8.0,0.5294117647058824,2459.5407215522273,29237.10725829259,11.0,4.0,7.0,0.3636363636363636,1678.3895653783131,24576.014194759104,93.0,47.0,46.0,0.5053763440860215,371.4736370047163,8470.669648928771,0.0,0.0,0.0,0.0,9471.0,9503.0,9528.0,9545.0,9586.0,9603.0,9608.0,9619.0,9823.0,9902.0,0.07255272261770071,-0.18046872612913556,0.07125296238523056,-0.1854183166825716,0.03834371268997643
10,10,10364.301356399426,4378.307314680952,10.191861603456228,10432.72601729957,-2099.064236426595,7.64389620259217,10468.058111828144,31057.6660689588,7.108444476204175,10484.232684595689,-11609.423608715844,7.091840893651269,10735.808138396544,9212.607879135723,31.595682315033944,0.9365929927281924,65.0,53.0,65.0,278.0,343.0,12.0,879.0,871.0,37.0,21.0,16.0,0.5675675675675675,428.08565898480254,3561.9193108866684,10.0,6.0,4.0,0.6,416.26132919171016,2352.4807041938266,15.0,8.0,7.0,0.5333333333333333,2409.549355497459,24843.354186551496,12.0,4.0,8.0,0.3333333333333333,1696.717726865234,27826.297524805635,79.0,42.0,37.0,0.5316455696202531,368.8270060377329,9706.461485932216,0.0,0.0,0.0,0.0,10362.0,10374.0,10427.0,10437.0,10460.0,10475.0,10480.0,10492.0,10694.0,10770.0,0.09777423744317436,-0.19830804697065638,0.07758307884911324,-0.14615004017868838,0.040035027092929325
11,11,11206.065173175548,3659.379775617842,10.191861603456228,11271.72601729957,-2659.656737830993,7.64389620259217,11311.266027067722,30810.376764598695,6.7711864159835935,11328.795653540565,-9318.093011483425,5.967290874812324,11575.34383820692,9884.73607373745,35.75091057149824,0.930280903595862,64.0,46.0,70.0,283.0,353.0,18.0,839.0,844.0,19.0,5.0,14.0,0.2631578947368421,337.8454157757094,4244.061819353637,11.0,7.0,4.0,0.6363636363636364,470.9981616037499,2641.7647641394856,16.0,8.0,8.0,0.5,2255.9179422420707,26607.950861335623,12.0,5.0,7.0,0.4166666666666667,1515.5195729967277,22229.61190845019,85.0,42.0,43.0,0.4941176470588235,431.6345902443939,10702.832275155346,0.0,0.0,0.0,0.0,11201.0,11219.0,11265.0,11276.0,11303.0,11319.0,11324.0,11335.0,11541.0,11618.0,0.09232313574741455,-0.17708983076810844,0.07321942082948281,-0.16264267496890542,0.04366677946932695
12,12,12065.27398270043,4597.359773474021,7.64389620259217,12121.698643600574,-2672.2872483894357,10.191861603456228,12178.368219434396,33833.05290538238,6.636345260025821,12196.876695499284,-8162.740763894789,6.3177208515061505,12446.645073748185,8971.351201765488,30.54275583636817,0.9299455989468138,55.0,30.0,88.0,275.0,363.0,25.0,859.0,866.0,27.0,4.0,23.0,0.1481481481481481,464.3999793854338,4557.880619804129,19.0,17.0,2.0,0.8947368421052632,450.9431474134953,2275.954488232481,15.0,7.0,8.0,0.4666666666666667,2418.783310109378,30259.6294266932,13.0,6.0,7.0,0.4615384615384615,1517.6670786213674,20907.38056725233,79.0,38.0,41.0,0.4810126582278481,425.95946357620863,8789.653925863826,0.0,0.0,0.0,0.0,12061.0,12086.0,12116.0,12124.0,12171.0,12186.0,12191.0,12204.0,12420.0,12479.0,0.10101449576884156,-0.16874800704350731,0.07149172487844224,-0.18592616408134274,0.04747996750950774
13,13,12964.698643600574,4659.65935224591,10.191861603456228,13036.301356399426,-2241.791437543013,10.191861603456228,13074.61328517304,34402.775560201706,7.073887726586885,13090.185299995585,-11269.846770929318,7.643896194880259,13341.39705814804,8805.046724140333,32.10049562888797,0.9355893208316328,75.0,56.0,66.0,277.0,343.0,19.0,899.0,897.0,39.0,17.0,22.0,0.4358974358974359,450.3050004051672,3797.7582173147143,19.0,12.0,7.0,0.631578947368421,526.292336670991,1301.2935088766217,16.0,9.0,7.0,0.5625,2548.91955234267,26980.231562288995,13.0,3.0,10.0,0.2307692307692307,1856.3378275545197,29559.71457488652,85.0,42.0,43.0,0.4941176470588235,480.00036114164425,7998.064920767571,0.0,0.0,0.0,0.0,12959.0,12978.0,13034.0,13043.0,13066.0,13082.0,13087.0,13100.0,13311.0,13377.0,0.09663903868597705,-0.23476418361549434,0.07409052062913629,-0.16471721978891155,0.05451423214207967
14,14,13860.72601729957,3577.198504590797,7.64389620259217,13904.849321800286,-3286.7893943237373,5.095930801728113,13961.72058470306,29140.359926150966,7.093120929535109,13978.30760663204,-11761.523204499452,7.054184546748868,14233.082121096975,8628.264919921738,31.110154588447795,0.9244502158952403,43.0,36.0,84.0,277.0,361.0,7.0,899.0,888.0,30.0,17.0,13.0,0.5666666666666667,512.1491650420816,1536.383485100573,20.0,3.0,17.0,0.15,425.3112621274315,2792.2918558986908,14.0,8.0,6.0,0.5714285714285714,2362.555870678093,24010.017673486756,12.0,4.0,8.0,0.3333333333333333,1744.2351919039756,27070.163707688364,68.0,35.0,33.0,0.5147058823529411,540.3857874422279,9374.707646998148,0.0,0.0,0.0,0.0,13859.0,13866.0,13902.0,13913.0,13954.0,13968.0,13974.0,13986.0,14200.0,14263.0,0.14317046269163286,-0.12940021738598195,0.08107504082535036,-0.14830011058743706,0.06262971668782852
15,15,14702.27398270043,3188.039558953743,7.64389620259217,14772.45203459914,-3107.1201013373957,15.28779240518434,14812.169467443287,34976.96904520523,7.113942754416068,14826.301356399426,-9997.231072557308,10.191861603388473,15095.054747397986,8004.60660331295,28.792047337025775,0.8866676531429007,64.0,47.0,78.0,275.0,353.0,17.0,839.0,850.0,18.0,4.0,14.0,0.2222222222222222,454.41467800893304,3495.643480851213,20.0,11.0,9.0,0.55,518.0945962592114,1252.1849056739538,15.0,8.0,7.0,0.5333333333333333,2394.861250318801,27604.683258911024,17.0,2.0,15.0,0.1176470588235294,1701.779050786833,24264.261573979213,83.0,56.0,27.0,0.6746987951807228,525.1608031821787,6703.271323126597,0.0,0.0,0.0,0.0,14698.0,14715.0,14762.0,14781.0,14804.0,14819.0,14824.0,14840.0,15049.0,15115.0,0.14253733983089711,-0.16674430963779233,0.06846966205744169,-0.1702250391569188,0.06560732203439266
16,16,15580.3830258265,3051.236731476567,11.809232680180124,15617.27398270043,-2442.8728629632874,7.643896202589527,15685.249905152945,34015.125541283014,7.092042813044425,15702.310291968422,-8932.490957906983,5.1685464642422785,15951.474089105468,9498.207033472703,34.05083978969616,0.9431902227029972,45.0,17.0,96.0,285.0,381.0,28.0,882.0,874.0,28.0,12.0,16.0,0.4285714285714285,302.9030018211675,3546.258809656188,19.0,5.0,14.0,0.2631578947368421,333.177275866808,2016.1090447965144,17.0,8.0,9.0,0.4705882352941176,2379.3237208596306,30423.786404762053,11.0,4.0,7.0,0.3636363636363636,1577.1549983970651,24282.37315933121,85.0,42.0,43.0,0.4941176470588235,359.1422503906244,10509.145001362773,0.0,0.0,0.0,0.0,15568.0,15596.0,15613.0,15630.0,15677.0,15694.0,15698.0,15709.0,15916.0,15994.0,0.0992722061505157,-0.1363874808706388,0.06994899130893771,-0.17656385053499302,0.03781158371521788
17,17,16459.7852242805,4646.895914689131,14.288174220549624,16524.027373698995,-2563.5600060410593,17.8357578060484,16568.273670829585,35134.116436439894,7.316634738203128,16582.30135639943,-12561.982265929642,8.560297515783178,16835.27238728026,8673.253081581304,32.43383291688544,0.9461226436328776,73.0,45.0,71.0,283.0,354.0,28.0,876.0,882.0,28.0,13.0,15.0,0.4642857142857143,457.0061234163101,5214.907332061832,19.0,5.0,14.0,0.2631578947368421,449.83027737626,1483.4406006994382,16.0,9.0,7.0,0.5625,2482.691271192787,26650.379320284832,13.0,2.0,11.0,0.1538461538461538,1783.3573668593765,27595.861206094647,85.0,40.0,45.0,0.4705882352941176,359.89313053130866,8338.556352032898,0.0,0.0,0.0,0.0,16447.0,16475.0,16520.0,16537.0,16559.0,16575.0,16580.0,16591.0,16806.0,16874.0,0.09834653751802035,-0.17547093741368633,0.07066326189486369,-0.14196464611291187,0.0414945957584917
18,18,17307.584779207747,3956.196808784938,13.305901500817471,17355.27398270043,-2259.5776004362397,7.64389620259217,17415.492691677064,29752.74890628243,6.8017928513435,17432.541808817787,-11332.607227093778,6.857424184604918,17688.657460196835,8784.243170930968,30.072749094102974,0.931876201094862,56.0,28.0,87.0,282.0,369.0,28.0,849.0,847.0,28.0,13.0,15.0,0.4642857142857143,401.0720009276559,4437.048325586854,7.0,4.0,3.0,0.5714285714285714,309.1972663916342,2328.4563116263303,14.0,7.0,7.0,0.5,2283.794142480393,24917.958308401052,10.0,5.0,5.0,0.5,1639.013519682634,25632.5679375374,75.0,43.0,32.0,0.5733333333333334,356.89217273154173,8995.94067939418,0.0,0.0,0.0,0.0,17295.0,17323.0,17351.0,17358.0,17408.0,17422.0,17428.0,17438.0,17646.0,17720.0,0.10137817209625541,-0.1368385251880439,0.07675909710642431,-0.14462810603407417,0.0406286763454566
19,19,18134.210899813723,5153.632567480145,20.511403824848426,18204.575339099854,-987.0562439417712,1.4427186641831855,18242.521755138136,33816.34189264501,7.248824636918061,18259.146957943307,-8312.208909422825,4.224477594213598,18510.12897298296,9122.091861582508,34.853221461051255,0.964047119422844,87.0,44.0,63.0,285.0,348.0,43.0,829.0,828.0,45.0,20.0,25.0,0.4444444444444444,303.2123112921972,5739.530347009396,3.0,2.0,1.0,0.6666666666666666,445.39370439203105,496.510808397039,17.0,9.0,8.0,0.5294117647058824,2322.838897575887,30120.807454586145,9.0,2.0,7.0,0.2222222222222222,1594.2507577045888,23191.619671980578,87.0,45.0,42.0,0.5172413793103449,516.5570034416461,9198.248721159278,0.0,0.0,0.0,0.0,18116.0,18159.0,18203.0,18206.0,18234.0,18251.0,18257.0,18266.0,18479.0,18551.0,0.05883467773886179,-0.45123437202865807,0.06868983360027775,-0.1917962812384715,0.05662703371987676
20,20,18997.69864360057,4033.903432279045,10.191861603456228,19061.027373698995,-3522.9303654296828,17.8357578060484,19106.44653750166,36474.121494732135,7.041059903881657,19120.876695499283,-10632.229091444286,9.787629638559528,19376.553685610757,8560.058483534795,29.106981210631183,0.9271267923233172,65.0,47.0,77.0,275.0,352.0,18.0,859.0,863.0,28.0,14.0,14.0,0.5,435.6241151659641,3246.078080362632,19.0,4.0,15.0,0.2105263157894736,508.8980723740944,2708.0528558252504,15.0,8.0,7.0,0.5333333333333333,2535.182262118508,28953.667042862537,17.0,3.0,14.0,0.1764705882352941,1753.2538535384226,26831.090009015188,74.0,34.0,40.0,0.4594594594594595,444.1327997212669,7929.135112505806,0.0,0.0,0.0,0.0,18992.0,19010.0,19057.0,19076.0,19098.0,19113.0,19118.0,19134.0,19344.0,19409.0,0.10799071481982613,-0.14445306026138993,0.06950632827399716,-0.16489993193894395,0.051884318381183125
21,21,19856.27398270043,4314.080810419868,7.64389620259217,19912.27398270043,-2646.476395075715,7.64389620259217,19969.15811189852,31764.266127713217,6.831002345515069,19986.273982700422,-11340.619816355917,6.015260290292481,20236.244797406085,8853.480627006991,31.608978240082884,0.9274929454206992,56.0,37.0,85.0,277.0,362.0,19.0,859.0,862.0,29.0,4.0,25.0,0.1379310344827586,491.900113455279,4960.107418401902,7.0,4.0,3.0,0.5714285714285714,451.058214808181,3220.9604619591505,16.0,8.0,8.0,0.5,2416.5468237426203,26268.785854723712,12.0,4.0,8.0,0.3333333333333333,1765.955018402555,26456.747008322123,84.0,43.0,41.0,0.5119047619047619,417.6744492879904,8105.995910912648,0.0,0.0,0.0,0.0,19852.0,19871.0,19908.0,19915.0,19961.0,19977.0,19982.0,19993.0,20202.0,20270.0,0.1140219979809337,-0.1704372711003441,0.0760775273077777,-0.155719444527681,0.047176299004247045
22,22,20712.72601729957,4501.50220712478,7.64389620259217,20769.72601729957,-2477.1358770410748,7.64389620259217,20812.66227036982,32120.07153054245,6.990297699223326,20829.378130702928,-10207.94933896736,7.055568489320248,21084.657460196835,8592.531988183087,30.837927200147792,0.9199496847773088,70.0,50.0,67.0,282.0,349.0,20.0,859.0,846.0,36.0,22.0,14.0,0.6111111111111112,431.33046450724373,2410.5740212835835,7.0,3.0,4.0,0.4285714285714285,487.6407824482491,1520.7923481932064,16.0,9.0,7.0,0.5625,2386.3623649807137,25884.265121836263,8.0,3.0,5.0,0.375,1824.07203895087,27731.572294732578,67.0,35.0,32.0,0.5223880597014925,576.1140866690922,9653.339968543663,0.0,0.0,0.0,0.0,20697.0,20717.0,20767.0,20774.0,20804.0,20820.0,20826.0,20834.0,21058.0,21116.0,0.09581922759574632,-0.19685669525352537,0.074295051389022,-0.17869132951000652,0.06704823298433982
23,23,21570.027373698995,4188.100158157826,14.006547089050992,21635.30135639943,-2997.536901922217,10.191861603456228,21678.28277376462,35811.92272493746,6.958891296305929,21692.876695499283,-10291.756183909005,9.769111180740047,21946.241481380373,8559.697265294513,30.186512136042477,0.9160718999400416,72.0,53.0,69.0,275.0,344.0,19.0,859.0,864.0,41.0,20.0,21.0,0.4878048780487805,372.725076055611,3720.141330167901,17.0,2.0,15.0,0.1176470588235294,444.6317624675056,2048.3457882912644,16.0,8.0,8.0,0.5,2359.176827679534,27761.18025838492,20.0,3.0,17.0,0.15,1709.8468496753353,24756.15006156856,77.0,37.0,40.0,0.4805194805194805,594.3998952085395,8498.281979011144,0.0,0.0,0.0,0.0,21561.0,21580.0,21633.0,21650.0,21670.0,21686.0,21690.0,21702.0,21920.0,21977.0,0.08899621832815897,-0.14833237321694975,0.06587685463860149,-0.16613752008123292,0.06944169598363571
24,24,22437.951168263317,5305.05187082555,19.527093262518093,22506.849321800284,-1641.9501396025307,1.8781648638829689,22547.600121389853,33472.54079980644,7.136799647755125,22564.36181850156,-10381.418209452351,5.371482662861554,22822.232799296693,9483.002731637152,36.62402087126894,0.95034887813183,76.0,44.0,68.0,283.0,351.0,32.0,870.0,870.0,45.0,21.0,24.0,0.4666666666666667,394.9870799165446,5775.641261436244,8.0,3.0,5.0,0.375,358.72911088465446,776.2001651642857,16.0,8.0,8.0,0.5,2384.1843067228265,28071.37632053702,11.0,3.0,8.0,0.2727272727272727,1683.8532309635711,26072.05698022307,86.0,52.0,34.0,0.6046511627906976,408.54499322076185,9981.183536277356,0.0,0.0,0.0,0.0,22428.0,22460.0,22504.0,22510.0,22540.0,22556.0,22561.0,22572.0,22770.0,22855.0,0.07445489498203121,-0.2184774690975041,0.07122806484820576,-0.16219876677643247,0.043081817519442005
25,25,23289.30135639943,3068.242410504902,9.878852844845348,23345.45203459914,-3568.4927675889576,15.28779240518434,23390.752081571543,33656.89362563328,7.125113536789468,23405.30135639943,-11444.87583517284,9.356095949961183,23657.05768745508,8413.50482734622,30.32429997338884,0.9276259443632696,66.0,47.0,74.0,277.0,351.0,19.0,848.0,843.0,23.0,13.0,10.0,0.5652173913043478,385.42214132924414,2138.5054663617025,39.0,23.0,16.0,0.5897435897435898,376.5694864395375,2095.3531293965666,15.0,9.0,6.0,0.6,2357.743540851342,24440.101126779784,16.0,2.0,14.0,0.125,1711.8650463320296,27053.049942817415,78.0,39.0,39.0,0.5,354.55196070157996,7527.3768682514,0.0,0.0,0.0,0.0,23276.0,23295.0,23342.0,23360.0,23382.0,23397.0,23403.0,23416.0,23619.0,23693.0,0.12561658753221525,-0.10552620138668956,0.07005232173463778,-0.14957480281883523,0.042140816220748806
26,26,24145.686961776493,3907.6084846424537,12.630840206862205,24198.69864360057,-3009.0042905035248,10.191861603456228,24252.522568775265,34859.4076648115,6.91107392505122,24269.18859383859,-8476.923890966336,7.643872253903587,24521.644365286415,8043.76398569475,29.262395517740355,0.9457383875315384,58.0,26.0,88.0,279.0,367.0,32.0,859.0,859.0,39.0,20.0,19.0,0.5128205128205128,327.01823271975326,3154.4330478058523,41.0,19.0,22.0,0.4634146341463415,350.99561590598665,1755.6855892320104,16.0,9.0,7.0,0.5625,2477.0368287193915,28682.68219111098,14.0,4.0,10.0,0.2857142857142857,1612.3727347640302,25005.374376032072,69.0,34.0,35.0,0.4927536231884058,383.3046567958817,8135.590405676312,0.0,0.0,0.0,0.0,24132.0,24164.0,24190.0,24201.0,24244.0,24260.0,24265.0,24278.0,24488.0,24557.0,0.08368756337923537,-0.11664842652891375,0.07105791505516064,-0.19020729164293887,0.047652399731961455
27,27,25048.57533910088,2607.909832835565,2.5479654008640567,25103.30135639943,-5946.072775482616,10.191861603456228,25150.95451433625,34818.70841900416,6.502665827659929,25168.17168480544,-10785.933783951632,10.191861603456228,25420.258397711634,7613.528380534676,28.1058780470764,0.8835743242109332,42.0,39.0,89.0,275.0,364.0,3.0,899.0,899.0,3.0,2.0,1.0,0.6666666666666666,535.7093974336425,2716.626875659743,20.0,14.0,6.0,0.7,603.2892635213317,4667.022342796694,15.0,8.0,7.0,0.5333333333333333,2648.8125611432665,26026.53728184381,17.0,5.0,12.0,0.2941176470588235,1666.301665652789,25913.540483985365,59.0,26.0,33.0,0.4406779661016949,438.4130582744254,8734.652849347072,0.0,0.0,0.0,0.0,25047.0,25050.0,25089.0,25109.0,25143.0,25157.0,25163.0,25178.0,25394.0,25453.0,0.20541714697672997,-0.10146012104138188,0.07607440601379506,-0.15448840119267893,0.05758342733643779
28,28,25926.72601729957,4189.106030350237,7.64389620259217,25982.30135639943,-3442.70979935603,10.191861603456228,26029.678226261996,34142.0842707347,7.139750902505691,26043.30135639943,-12755.715196798248,9.881057276874492,26297.232799296693,8092.476770351116,29.334159601881183,0.9025878494061494,55.0,48.0,75.0,276.0,351.0,7.0,879.0,879.0,27.0,13.0,14.0,0.4814814814814814,442.8472164403068,3622.2223834901138,9.0,3.0,6.0,0.3333333333333333,532.9102770076254,3062.2235384341593,16.0,9.0,7.0,0.5625,2427.9902957601275,19866.084618001747,15.0,2.0,13.0,0.1333333333333333,1861.4865507806744,28126.06502998776,72.0,34.0,38.0,0.4722222222222222,461.13300200691293,7974.564448403907,0.0,0.0,0.0,0.0,25924.0,25931.0,25979.0,25988.0,26021.0,26036.0,26041.0,26054.0,26264.0,26330.0,0.1057140146923619,-0.15479384207966293,0.07111429625991841,-0.14593353034786458,0.05698292563488017
29,29,26766.575339099854,2467.629819033227,2.5479654008640567,26804.69864360057,-4807.842785041411,10.191861603456228,26864.872756999805,34109.49758069812,6.72527048188822,26880.34843157536,-10238.863387637635,10.191861603447071,27133.219235302444,7314.396329510502,26.920836969248256,0.8887867350445214,33.0,30.0,89.0,281.0,370.0,3.0,839.0,836.0,3.0,2.0,1.0,0.6666666666666666,474.8457281375943,1649.859539451016,20.0,18.0,2.0,0.9,448.5339413305536,4767.214460539115,16.0,9.0,7.0,0.5625,2364.856693290702,24464.01867972758,16.0,3.0,13.0,0.1875,1693.231930387381,27647.497301582254,66.0,30.0,36.0,0.4545454545454545,510.552306673196,6450.0534323498905,0.0,0.0,0.0,0.0,26765.0,26768.0,26798.0,26807.0,26856.0,26872.0,26877.0,26887.0,27109.0,27168.0,0.19242988736601924,-0.09329213981914558,0.06933132590697927,-0.1653730366626224,0.06980101756495377
30,30,27643.027373698995,4439.0087759905955,15.023887479345133,27699.72601729957,-2065.0319396912714,7.64389620259217,27740.0558315428,34083.74744102678,6.895851011942521,27757.27398269997,-8964.79326534237,6.097772796354191,28015.657460196835,9075.962698851174,36.222552992481695,0.9324982421983908,77.0,45.0,67.0,282.0,349.0,32.0,879.0,876.0,42.0,30.0,12.0,0.7142857142857143,409.41935602841926,3224.2951532127745,7.0,2.0,5.0,0.2857142857142857,491.00551967473103,1980.6943427561537,16.0,8.0,8.0,0.5,2389.1040347455146,29313.265315026627,12.0,4.0,8.0,0.3333333333333333,1651.4943646992729,23842.727237374376,91.0,54.0,37.0,0.5934065934065934,469.3715157968624,9152.350420188845,0.0,0.0,0.0,0.0,27621.0,27653.0,27698.0,27705.0,27732.0,27748.0,27753.0,27765.0,27970.0,28047.0,0.09223215737775929,-0.23777139241155654,0.07009511025391937,-0.1842200166604959,0.05171589299901761
31,31,28507.972626301005,4341.701579586737,14.137345828859864,28578.30135639943,-2217.8406315830453,10.191861603456228,28617.66270988847,35476.41387943894,7.1466395245924295,28631.30135639943,-12726.986013021002,8.767619539168523,28887.268498284033,9387.987454873528,32.72005424272274,0.9365132661418544,78.0,55.0,66.0,285.0,351.0,23.0,859.0,876.0,38.0,16.0,22.0,0.4210526315789473,415.0723365217059,3437.7112264067428,19.0,13.0,6.0,0.6842105263157895,541.8567065682647,2201.8723145013714,16.0,9.0,7.0,0.5625,2469.429480823881,23049.05149734004,15.0,2.0,13.0,0.1333333333333333,1862.5558643185143,28292.527112465483,82.0,41.0,41.0,0.5,337.1840781471072,9445.502016409024,0.0,0.0,0.0,0.0,28498.0,28521.0,28576.0,28584.0,28609.0,28625.0,28629.0,28642.0,28847.0,28927.0,0.0956013049061779,-0.24431724211919567,0.06960764098693437,-0.1463469718920827,0.035916545454272725
32,32,29358.47940829813,4431.9332876199205,17.83378467950371,29419.575339099854,-885.4251608614852,2.5479654008640567,29462.816823087516,30286.82962081878,7.152448733991836,29480.40604680437,-10273.349968388333,4.91272628402266,29727.578307146818,9774.077636382766,38.20158368423531,0.959084045613927,73.0,36.0,74.0,283.0,357.0,37.0,859.0,847.0,46.0,27.0,19.0,0.5869565217391305,356.6749087562337,4272.966659898543,8.0,7.0,1.0,0.875,317.7944926044643,590.0588593524899,15.0,8.0,7.0,0.5333333333333333,2328.69521739977,27091.55934630961,11.0,4.0,7.0,0.3636363636363636,1618.258700909961,24539.838426070462,94.0,46.0,48.0,0.4893617021276595,406.71860615341694,10112.083028510517,0.0,0.0,0.0,0.0,29340.0,29377.0,29413.0,29421.0,29455.0,29470.0,29476.0,29487.0,29691.0,29770.0,0.08047840199954334,-0.3589173954524426,0.07688804825576907,-0.15752005975552597,0.04161196803261092
33,33,30204.69864360057,4265.9502043093025,10.191861603456228,30276.30135639943,-2704.931280405036,10.191861603456228,30316.451369779956,33864.35365275023,6.8176160497154,30333.75188195139,-8411.470760954133,6.402248719518293,30586.681659127127,8805.807896121118,30.3537115000049,0.9469832891241704,75.0,45.0,68.0,283.0,351.0,30.0,839.0,852.0,30.0,6.0,24.0,0.2,390.0434416587994,4980.874486513596,24.0,13.0,11.0,0.5416666666666666,405.7285416158706,1483.9429164122312,16.0,8.0,8.0,0.5,2430.1131358290727,30054.266785208456,13.0,5.0,8.0,0.3846153846153846,1497.3777243049217,22587.63268890069,78.0,37.0,41.0,0.4743589743589743,351.385982329277,8963.992209096115,0.0,0.0,0.0,0.0,30199.0,30229.0,30274.0,30282.0,30308.0,30324.0,30329.0,30342.0,30551.0,30625.0,0.09143178494319792,-0.14999587773450454,0.07176021018288993,-0.17801615993908187,0.03990388916888131
34,34,31089.73940840058,4755.977050125773,13.803754433006612,31155.72601729957,-1960.6231020531768,7.64389620259217,31196.516203786126,35226.75763540733,6.838248964604147,31213.84939654652,-8753.030748056766,5.54235202184611,31469.95881659626,10171.086577015303,36.55254151872818,0.9480600894850488,76.0,45.0,67.0,286.0,353.0,31.0,890.0,881.0,40.0,21.0,19.0,0.525,384.8800530137449,4628.815047630745,8.0,3.0,5.0,0.375,389.413907415664,1544.3925632173682,16.0,8.0,8.0,0.5,2449.136796426154,29475.302689318265,11.0,4.0,7.0,0.3636363636363636,1631.2198067258998,24130.98638033584,88.0,50.0,38.0,0.5681818181818182,386.3608817199191,10955.73771640693,0.0,0.0,0.0,0.0,31078.0,31109.0,31154.0,31161.0,31189.0,31205.0,31210.0,31221.0,31423.0,31507.0,0.08092554883198326,-0.1986174226998893,0.06952489984387501,-0.18636057083291316,0.03798619535822459
35,35,31978.72601729957,3563.1313506451133,7.64389620259217,32034.30135639943,-3642.459853181542,10.191861603456228,32080.662494514323,33460.23584038375,7.172631738603719,32094.30135639943,-13400.440209918452,9.285700086866177,32350.657460196835,7896.231760263929,29.58425983708415,0.9058789825666465,52.0,37.0,84.0,278.0,362.0,15.0,887.0,884.0,23.0,14.0,9.0,0.6086956521739131,479.628292567836,1848.064049287941,20.0,14.0,6.0,0.7,579.675525975195,1938.8213013336824,15.0,9.0,6.0,0.6,2438.7591053138576,20608.314317054603,14.0,2.0,12.0,0.1428571428571428,1970.8760354485091,27438.22335089506,68.0,35.0,33.0,0.5147058823529411,470.7872175264384,8336.005980829126,0.0,0.0,0.0,0.0,31968.0,31983.0,32020.0,32040.0,32072.0,32086.0,32092.0,32104.0,32317.0,32382.0,0.13460864766632816,-0.15914397120091023,0.07288529336575914,-0.14707546950508,0.059621757797886935
36,36,32836.87669549929,4490.898113673284,12.739827004320285,32894.7050911465,-1662.0515078791293,1.5644617780165389,32937.272255966556,31547.77181723369,7.010264111901487,32954.713609323604,-9128.643669980698,5.066124752794213,33208.808138396555,8996.059537336365,35.89279443371822,0.9401203940072566,68.0,48.0,67.0,284.0,351.0,20.0,859.0,859.0,36.0,21.0,15.0,0.5833333333333334,443.0976750943597,3797.155102053961,5.0,3.0,2.0,0.6,481.532283990872,372.12513024753,17.0,8.0,9.0,0.4705882352941176,2337.919348756628,28647.35350370105,8.0,4.0,4.0,0.5,1637.6402112671678,22569.016969569613,85.0,43.0,42.0,0.5058823529411764,573.8572183638599,9859.31320750689,0.0,0.0,0.0,0.0,32824.0,32844.0,32892.0,32897.0,32929.0,32945.0,32951.0,32959.0,33166.0,33243.0,0.09866571538224735,-0.2897216372104702,0.07410727332189865,-0.17939578654521307,0.06378984220615472
37,37,33714.60271279886,5114.532034124016,19.103032016429157,33773.90951319728,-2012.842893023659,1.673953778476562,33814.87276215079,34584.790386738074,7.002951622021416,33832.12584116535,-8564.588362466966,4.465138442990008,34084.5844566838,9481.696517040476,36.28348164282307,0.959755410859532,77.0,45.0,67.0,287.0,354.0,32.0,879.0,876.0,48.0,32.0,16.0,0.6666666666666666,393.3010001724769,3717.307296895241,6.0,3.0,3.0,0.5,499.51013640115866,632.259252416862,17.0,9.0,8.0,0.5294117647058824,2426.3470185510246,31130.61197253297,9.0,3.0,6.0,0.3333333333333333,1697.6732255916236,23692.964489932536,90.0,43.0,47.0,0.4777777777777778,533.4141948474311,8702.914281268859,0.0,0.0,0.0,0.0,33694.0,33726.0,33771.0,33777.0,33806.0,33823.0,33829.0,33838.0,34046.0,34125.0,0.07689872652050736,-0.2481615123229031,0.0701564760525897,-0.19822006075988705,0.056257252474679054
38,38,34596.150678199716,4431.996296533267,5.095930801728113,34634.273982700426,-2586.976070724559,7.64389620259217,34693.68325365678,33001.76559931942,6.958339914211437,34710.26970194961,-11120.202963402047,6.2478101509122235,34967.65746019684,8136.548097223283,30.02801484596147,0.9155902619493688,56.0,31.0,87.0,282.0,369.0,25.0,879.0,879.0,32.0,23.0,9.0,0.71875,495.8712057886171,1282.8129599083145,7.0,4.0,3.0,0.5714285714285714,367.0477959718842,2883.39655065478,16.0,9.0,7.0,0.5625,2455.8830834536075,27260.02941211431,11.0,4.0,7.0,0.3636363636363636,1782.5770244146263,27826.630078546725,74.0,42.0,32.0,0.5675675675675675,497.25159363872143,9143.358996007828,0.0,0.0,0.0,0.0,34574.0,34599.0,34630.0,34637.0,34685.0,34701.0,34706.0,34717.0,34933.0,34999.0,0.1118843908277835,-0.14188294979824906,0.07441671798021177,-0.16030076341963417,0.06111333549523488
39,39,35430.90406919828,4742.810546076966,20.27562434932226,35492.08441438833,-975.4739976810424,1.5830235104578736,35533.89409641368,31927.434868099437,7.222652915532803,35550.89244909235,-9342.016201795444,3.5440886452544085,35796.603975425154,10532.711716664053,44.09876944433171,0.9416778184133274,85.0,41.0,67.0,290.0,357.0,44.0,839.0,840.0,48.0,30.0,18.0,0.625,324.93124172011653,4074.3494775617287,5.0,3.0,2.0,0.6,315.3796929319925,389.05161324821574,17.0,8.0,9.0,0.4705882352941176,2257.131259554355,28919.181359473456,8.0,3.0,5.0,0.375,1646.3320067138698,22795.36232035402,97.0,45.0,52.0,0.4639175257731959,407.1921181016533,11312.533314429227,0.0,0.0,0.0,0.0,35404.0,35448.0,35489.0,35494.0,35526.0,35543.0,35548.0,35556.0,35753.0,35846.0,0.06851027224540619,-0.32330917449540714,0.0706956656204657,-0.176228768089426,0.03865976104305836
40,40,36302.32873009842,4201.936096473857,12.428995633956706,36352.273982700426,-2381.699866334838,7.64389620259217,36404.39249302847,33254.300259889445,6.774938843335783,36421.95008636428,-8270.057606153465,6.42586832453625,36673.54102084728,8832.314824674162,32.95910020270305,0.9553749705706313,64.0,30.0,81.0,287.0,368.0,34.0,871.0,870.0,36.0,19.0,17.0,0.5277777777777778,362.3569291916505,3239.133017775456,18.0,15.0,3.0,0.8333333333333334,342.74023298357616,2356.263082169692,16.0,8.0,8.0,0.5,2417.0030335926494,30233.37144303361,12.0,5.0,7.0,0.4166666666666667,1534.2461044055417,23216.29209624115,85.0,43.0,42.0,0.5058823529411764,413.0287409135341,8676.526939233201,0.0,0.0,0.0,0.0,36284.0,36318.0,36348.0,36355.0,36396.0,36412.0,36417.0,36429.0,36634.0,36716.0,0.08623570679614331,-0.14390571953594383,0.07268242046000835,-0.18551818832119887,0.0467633626192408
41,41,37181.56724156102,4246.50305187894,13.648401056864952,37247.87669549929,-2504.7417663537426,12.739827004320285,37289.59353736693,34162.75940189414,6.817433104400413,37306.740696798835,-10163.884536503116,6.619729456926429,37558.27024830718,8865.540670087626,32.907295170519745,0.955374295807972,75.0,46.0,69.0,284.0,353.0,29.0,878.0,885.0,40.0,20.0,20.0,0.5,332.84773904426146,3496.2918177625106,28.0,14.0,14.0,0.5,297.5095888149056,1617.55629965322,15.0,8.0,7.0,0.5333333333333333,2436.5181943449643,27976.198168425493,12.0,5.0,7.0,0.4166666666666667,1611.4411866257049,25446.026118882888,80.0,37.0,43.0,0.4625,321.08707206756634,8752.253383350422,0.0,0.0,0.0,0.0,37170.0,37199.0,37245.0,37260.0,37282.0,37297.0,37302.0,37314.0,37522.0,37598.0,0.07838160834406728,-0.11877854747797126,0.07132088382210346,-0.15854579819736137,0.03621742700373769
42,42,38041.15693915818,3875.2716532815393,13.598031006869046,38089.84932180029,-1926.3570642773536,5.095930801728113,38147.97437282085,29776.790516647576,6.953426738802972,38165.35283636435,-11544.545824054156,6.207742904553242,38414.77178436249,9235.004957840354,34.148724298968745,0.9494174750885944,56.0,27.0,86.0,284.0,370.0,29.0,860.0,859.0,39.0,20.0,19.0,0.5128205128205128,312.3993784383444,3554.940602107745,8.0,5.0,3.0,0.625,336.8387342265563,1792.7988069014289,15.0,8.0,7.0,0.5333333333333333,2275.0991133876405,24293.27896235509,11.0,4.0,7.0,0.3636363636363636,1579.65117701273,26481.161661686747,76.0,35.0,41.0,0.4605263157894737,370.28369774979024,9939.956620911193,0.0,0.0,0.0,0.0,38030.0,38059.0,38086.0,38091.0,38140.0,38155.0,38161.0,38172.0,38381.0,38456.0,0.08061354309801944,-0.1748578913395356,0.07640511532348258,-0.1368309503974922,0.04009566853945498
43,43,38784.36058482896,3688.59414265572,12.313042267050614,38846.72867462299,-2515.0852073120577,7.64389620259217,38893.57186502479,31679.629570965208,6.82794690698405,38911.26044028843,-9007.585647436168,6.145204363444036,39161.383477496405,9781.726493814003,35.32981997373184,0.9543072923200614,74.0,45.0,73.0,279.0,352.0,29.0,739.0,745.0,29.0,13.0,16.0,0.4482758620689655,394.08710682820873,4492.523707406568,29.0,14.0,15.0,0.4827586206896552,340.6867006206313,1634.5572246302074,15.0,8.0,7.0,0.5333333333333333,2418.3613569806025,26803.919031334153,11.0,4.0,7.0,0.3636363636363636,1517.7757198234908,23404.93353201456,79.0,41.0,38.0,0.5189873417721519,351.96133317537783,9956.638406016002,0.0,0.0,0.0,0.0,38771.0,38800.0,38845.0,38853.0,38886.0,38901.0,38907.0,38918.0,39120.0,39197.0,0.10683937879499891,-0.1354573195493177,0.07633805665445856,-0.16849972670040564,0.03598151444920888
44,44,39748.84576983108,4298.298404695816,14.96527885339962,39772.8646531387,7202.336594301161,70.2716555972164,39854.24068343239,36332.956149083584,6.75428577382347,39966.85005893182,5301.255821550447,119.97581462063684,40129.16070763794,9800.11622511436,38.42061022152709,0.9725861700532836,-37.0,-96.0,524.0,-41.0,483.0,59.0,973.0,961.0,158.0,38.0,120.0,0.240506329113924,339.2540531111482,10782.372466560748,161.0,65.0,96.0,0.4037267080745341,310.5057280795048,6079.213666650528,21.0,10.0,11.0,0.4761904761904761,2427.2652817066114,40411.22589286059,319.0,91.0,228.0,0.2852664576802508,323.7188339294796,5217.860236924775,116.0,70.0,46.0,0.603448275862069,257.63955461524284,11847.173095651084,0.0,0.0,0.0,0.0,39728.0,39787.0,39691.0,39870.0,39844.0,39865.0,39652.0,40215.0,40066.0,40174.0,0.07892752460846345,0.043111804622570964,0.06680615999829217,0.0610645561780873,0.02628943868594134
45,45,40636.29622688241,5689.865315787581,20.35810721981571,40687.095685091226,2826.261157050543,155.42588945270745,40747.613892584086,34010.43916376238,6.955238549235451,40764.69121047563,-11013.747645415033,4.679548640159469,41015.986190295254,10750.31632358776,41.30091462908122,0.9638306545105187,-139.0,-195.0,301.0,293.0,594.0,56.0,885.0,894.0,57.0,29.0,28.0,0.5087719298245614,262.62277429410284,9235.357526678328,275.0,201.0,74.0,0.730909090909091,317.08208804927483,1826.278837378281,17.0,9.0,8.0,0.5294117647058824,2511.8755803887607,31492.148978099267,9.0,4.0,5.0,0.4444444444444444,1783.7598449935367,24498.462120792065,97.0,50.0,47.0,0.5154639175257731,498.02935804889006,10931.918697559297,0.0,0.0,0.0,0.0,40608.0,40664.0,40469.0,40774.0,40739.0,40756.0,40761.0,40770.0,40974.0,41063.0,0.04615623740080587,0.11219136181320853,0.07385601721559441,-0.16195757360902552,0.04632694918531291
46,46,41508.15067819971,3765.87948628727,5.095930801728113,41563.30135639943,-3912.3327996988546,10.191861603456228,41608.82612494747,31968.70660636372,7.068050441461852,41623.30135639943,-12515.314187442722,9.434423702393214,41879.2327992967,9304.266552813291,30.99280579944462,0.910774382638316,44.0,38.0,84.0,279.0,363.0,6.0,867.0,861.0,30.0,22.0,8.0,0.7333333333333333,490.9150485132853,1252.2732872562226,29.0,23.0,6.0,0.7931034482758621,457.9315706714162,2417.4782984603376,15.0,9.0,6.0,0.6,2318.165596716062,22129.149923111338,13.0,2.0,11.0,0.1538461538461538,1799.9625478719388,27936.775960470997,77.0,43.0,34.0,0.5584415584415584,464.8054071352911,9886.087229325862,0.0,0.0,0.0,0.0,41505.0,41511.0,41549.0,41569.0,41600.0,41615.0,41621.0,41633.0,41845.0,41912.0,0.1303586719386158,-0.11704821499507014,0.0725135872795869,-0.1438208039297916,0.0499561576935637
47,47,42342.972626301,4036.4297807374182,13.928029725181574,42414.726017299574,-1758.4335435541375,7.643896201812056,42453.3682546592,32270.95671476851,7.095731395439797,42470.29974333697,-8897.96660510945,5.612746215603759,42720.72572438043,9525.174649364362,34.11067681375798,0.9390877311805624,77.0,44.0,67.0,285.0,352.0,33.0,831.0,845.0,40.0,16.0,24.0,0.4,281.3987512579259,4184.011798751344,9.0,5.0,4.0,0.5555555555555556,380.9357699336203,1913.057827694061,17.0,8.0,9.0,0.4705882352941176,2283.562408268401,28364.8795180427,11.0,4.0,7.0,0.3636363636363636,1570.5745016674307,23952.929902040483,87.0,45.0,42.0,0.5172413793103449,301.70323339870424,9484.508695412387,0.0,0.0,0.0,0.0,42333.0,42366.0,42410.0,42419.0,42445.0,42462.0,42466.0,42477.0,42684.0,42762.0,0.06971476441899528,-0.21663358921354214,0.07076215398421547,-0.1765093724633182,0.03167429937033623
48,48,43229.685827635825,5004.1512280590805,16.75765426845082,43301.30135639943,-1958.2260316647275,10.191861603456228,43340.5908824412,33915.45952035986,6.93444936302364,43357.630135131425,-9759.166416104224,6.497400032137262,43610.62640762292,9505.850507961322,33.1169884773247,0.9667650202050636,76.0,37.0,75.0,286.0,361.0,39.0,888.0,886.0,48.0,24.0,24.0,0.5,313.4765581539828,5876.5977963281675,21.0,12.0,9.0,0.5714285714285714,293.3361916247066,1117.1697244922552,16.0,9.0,7.0,0.5625,2453.8527982505852,28287.87256557001,13.0,5.0,8.0,0.3846153846153846,1593.595267074133,23759.343152894668,87.0,45.0,42.0,0.5172413793103449,274.8897348277249,8816.671358112038,0.0,0.0,0.0,0.0,43214.0,43253.0,43290.0,43307.0,43332.0,43348.0,43353.0,43365.0,43574.0,43651.0,0.06264330230394904,-0.14979690131855491,0.07235204337353908,-0.1632921500799945,0.0289179526437429
49,49,44138.50367807771,3688.317530591173,11.92138393583596,44211.30135639943,-3073.551599691106,10.191861603456228,44247.56111123246,35495.97887806919,7.097690707625449,44261.30135639943,-13099.05006692458,10.191818189372118,44516.06608033293,7966.245528765016,29.193910892362677,0.9243040395326494,83.0,52.0,66.0,278.0,344.0,31.0,908.0,906.0,31.0,16.0,15.0,0.5161290322580645,303.02383089981777,3677.755573395675,20.0,14.0,6.0,0.7,346.6962042538032,2285.831165439312,15.0,9.0,6.0,0.6,2464.3133014699097,22316.09304834006,16.0,2.0,14.0,0.125,1769.5971895719529,29002.63482578852,69.0,35.0,34.0,0.5072463768115942,300.7086461630433,8426.202715197334,0.0,0.0,0.0,0.0,44123.0,44154.0,44206.0,44217.0,44239.0,44253.0,44259.0,44272.0,44482.0,44550.0,0.08215773950765251,-0.11279986458943668,0.06942513995557,-0.1350935510995739,0.037747850612591054
50,50,45007.00907507643,5167.859399370461,23.10998724185004,45061.05950133605,-1055.8457369490895,0.9482161803537998,45115.67512380943,31676.448045894605,7.610263100741095,45132.41323839777,-9907.495613046374,4.675758045746543,45396.78076469755,9896.39936756871,34.25579688486122,0.9427480825846116,76.0,31.0,80.0,281.0,361.0,45.0,869.0,870.0,45.0,23.0,22.0,0.5111111111111111,285.7036269746579,6138.354350517518,2.0,1.0,1.0,0.5,322.618190518428,905.3991481086924,16.0,8.0,8.0,0.5,2362.701330532362,28947.454063526253,11.0,3.0,8.0,0.2727272727272727,1722.1921265993344,25133.577657605143,79.0,50.0,29.0,0.6329113924050633,463.8395325111353,9535.836327909212,0.0,0.0,0.0,0.0,44984.0,45029.0,45060.0,45062.0,45108.0,45124.0,45129.0,45140.0,45349.0,45421.0,0.0552847136300693,-0.30555428622617425,0.07458858162093011,-0.17382719042858014,0.046869524488994896
51,51,45885.273982700426,3585.9858613673323,7.64389620259217,45957.30135639943,-3614.444482183412,10.191861603456228,45995.5708323146,35272.01361889969,6.850408307828411,46010.52219101183,-9763.97620893212,10.191861603448322,46276.205425597705,8073.211025120591,30.027244834104284,0.9041136709048088,63.0,56.0,79.0,276.0,355.0,7.0,879.0,879.0,28.0,14.0,14.0,0.5,442.1273108936114,2646.7951705215983,20.0,13.0,7.0,0.65,549.7400918826295,2393.943802121621,15.0,9.0,6.0,0.6,2428.903187072174,26274.33408873158,16.0,4.0,12.0,0.25,1704.102626479121,27540.099298440404,80.0,51.0,29.0,0.6375,459.1648711972591,7277.459250252219,0.0,0.0,0.0,0.0,45881.0,45888.0,45944.0,45963.0,45987.0,46002.0,46007.0,46023.0,46231.0,46299.0,0.1232930992999032,-0.1520953204821513,0.06886205061371099,-0.17452957586277218,0.05687512314103055
52,52,46821.30135639943,4789.302394264855,10.191861603456228,46880.15067819971,-3170.1469007560763,5.095930801728113,46920.86141804551,36181.380776068574,7.100092057545453,46935.30135639943,-10259.76715318027,8.909806982655972,47192.978745571534,8867.624828050251,32.3916141237067,0.9335866857010406,74.0,48.0,68.0,292.0,360.0,26.0,939.0,925.0,46.0,31.0,15.0,0.6739130434782609,451.50133788539983,2499.669060889383,9.0,6.0,3.0,0.6666666666666666,468.111241036809,1422.303029876316,16.0,9.0,7.0,0.5625,2471.45995250107,27564.308316372582,18.0,2.0,16.0,0.1111111111111111,1709.5426807420013,26119.858146078,78.0,35.0,43.0,0.4487179487179487,501.9325933348528,9938.30541038474,0.0,0.0,0.0,0.0,46801.0,46827.0,46875.0,46883.0,46912.0,46928.0,46933.0,46943.0,47159.0,47235.0,0.0942728816677077,-0.14766231840081764,0.06830750788084257,-0.16662587515079091,0.05660282240934793
53,53,47739.027373699,4224.932610279228,13.39640721288444,47804.30135639943,-2012.4460539946365,10.191861603456228,47845.50163045102,32036.977378164636,7.452295545609814,47860.00557808574,-13628.021453647185,7.643896202585466,48114.10492260589,8220.477002982994,33.256827122977356,0.934580956757892,73.0,53.0,68.0,284.0,352.0,20.0,919.0,924.0,39.0,20.0,19.0,0.5128205128205128,413.2050755047797,4201.6568190615535,10.0,2.0,8.0,0.2,368.0910829962483,1177.6303546880283,16.0,9.0,7.0,0.5625,2310.0548374025257,21312.514848184554,13.0,3.0,10.0,0.2307692307692307,1719.157893471881,29010.91224928903,79.0,37.0,42.0,0.4683544303797468,501.6398265978703,8096.0096600131,0.0,0.0,0.0,0.0,47729.0,47749.0,47802.0,47812.0,47837.0,47852.0,47857.0,47870.0,48086.0,48154.0,0.09780157782859186,-0.18290730440480635,0.07210589220495514,-0.12614875162320743,0.061023201745572485
54,54,48580.424660900135,2809.1314153038993,0.7790113459823629,48651.90406919828,-4545.016319884734,27.857259488270937,48697.024656380425,32371.21242487923,6.8100803790593485,48714.79617693202,-11615.040072201256,12.739827004320285,48975.00621549459,5799.254846421031,20.631103721424363,0.7875359071163068,61.0,58.0,80.0,282.0,362.0,3.0,838.0,853.0,3.0,1.0,2.0,0.3333333333333333,424.5265410712731,3310.299474614879,50.0,32.0,18.0,0.64,475.8231942849426,3133.83608691093,14.0,8.0,6.0,0.5714285714285714,2217.5748516404774,21211.314065226543,20.0,6.0,14.0,0.3,1625.288594776837,26157.46008803481,63.0,33.0,30.0,0.5238095238095238,256.6998882173623,5194.96144805273,0.0,0.0,0.0,0.0,48579.0,48582.0,48640.0,48669.0,48689.0,48703.0,48709.0,48720.0,48948.0,49002.0,0.15112377397457807,-0.1046911959816703,0.06850453491004053,-0.13992965884523342,0.044264288260375866
55,55,49446.355971518075,5023.054392051402,15.730599013971348,49513.30135639943,-1560.247471288331,10.191861603456228,49555.14325461016,33265.68466477469,6.872202795378616,49572.89685435594,-8560.429986688288,5.849841851605961,49826.17571493915,8870.62329082443,33.74314052082507,0.968675476570821,84.0,42.0,68.0,287.0,355.0,42.0,870.0,859.0,43.0,19.0,24.0,0.4418604651162791,299.7492676767805,4499.962871636124,9.0,3.0,6.0,0.3333333333333333,297.13408052355345,611.3135708819681,16.0,8.0,8.0,0.5,2318.52132434815,28773.62251885279,10.0,4.0,6.0,0.4,1561.0618480180196,23196.473095439487,88.0,42.0,46.0,0.4772727272727273,340.3177272003457,7906.486984386298,0.0,0.0,0.0,0.0,49427.0,49469.0,49511.0,49519.0,49547.0,49563.0,49569.0,49579.0,49786.0,49866.0,0.059674700746046215,-0.19044035384861302,0.06969708718495883,-0.18235787810256204,0.0383645789075907
56,56,50336.24198720704,4185.030795514827,14.788056575097016,50401.178051898714,-2390.1351887127694,22.931688607776447,50443.78557444401,35257.589437899136,7.3257219229744654,50458.30135639954,-11780.192520703496,8.291455956103885,50714.42740825056,8315.250164236071,31.58964479587259,0.9492911314334176,52.0,26.0,90.0,285.0,375.0,26.0,888.0,887.0,31.0,10.0,21.0,0.3225806451612903,335.2041689355486,4114.150101460955,37.0,23.0,14.0,0.6216216216216216,272.1174304224587,1358.826830055007,16.0,9.0,7.0,0.5625,2372.278645322295,25543.312694552988,13.0,2.0,11.0,0.1538461538461538,1661.9666815179166,26428.0132399584,84.0,39.0,45.0,0.4642857142857143,367.1303670107061,8379.073357622057,0.0,0.0,0.0,0.0,50326.0,50352.0,50378.0,50414.0,50435.0,50451.0,50456.0,50468.0,50682.0,50753.0,0.08009598622184404,-0.11385022558870832,0.06728419847025281,-0.14108145334611785,0.04415145182158626
57,57,51194.78324422656,3365.4313446811784,12.637979568688069,51233.273982700426,-2847.8401884718755,7.64389620259217,51301.7833435445,30244.046748337187,7.129204229941322,51318.10943043411,-11524.676927174623,6.935680206720239,51569.64846031057,8959.49653828178,33.573784648146,0.9384271955020193,44.0,25.0,97.0,284.0,381.0,19.0,859.0,859.0,28.0,11.0,17.0,0.3928571428571428,343.98788023724603,3396.148773576203,8.0,4.0,4.0,0.5,340.637499532362,3194.0755795046816,15.0,8.0,7.0,0.5333333333333333,2221.6902929024936,23807.16572165477,12.0,4.0,8.0,0.3333333333333333,1617.3962028674068,26979.772938883325,87.0,45.0,42.0,0.5172413793103449,337.257759072318,8967.563886405387,0.0,0.0,0.0,0.0,51185.0,51204.0,51229.0,51237.0,51294.0,51309.0,51314.0,51326.0,51533.0,51610.0,0.10221212231261056,-0.11961257549186598,0.0734587640136035,-0.14034199944066683,0.03764249002511429
58,58,51936.424660900135,2466.510661578709,2.5479654008640567,51993.12330450071,-4996.6768981590285,12.739827004320285,52050.09442911742,32982.46500592469,6.599470084047424,52066.681422030175,-10328.358293351916,10.191861603456228,52328.205425597705,8260.316298967482,26.97185146831425,0.8703722900526157,42.0,39.0,99.0,276.0,375.0,3.0,739.0,747.0,3.0,2.0,1.0,0.6666666666666666,426.8359493290979,4167.704311659814,20.0,17.0,3.0,0.85,432.6837126518116,3877.10490372546,15.0,8.0,7.0,0.5333333333333333,2323.475451753774,24369.744113526067,13.0,5.0,8.0,0.3846153846153846,1598.7747524227204,24680.055072914896,71.0,45.0,26.0,0.6338028169014085,478.37255630536765,8162.480104079254,0.0,0.0,0.0,0.0,51934.0,51937.0,51976.0,51996.0,52042.0,52057.0,52062.0,52075.0,52292.0,52351.0,0.17305254584056745,-0.08659429486249737,0.07044577933566834,-0.15479466407084352,0.057912135442702475
59,59,52911.79156340263,4639.504653240446,14.076272838811002,52968.3013565635,-2545.9723134877886,10.191861603456228,53017.54796540086,33451.83237097897,6.995628975883626,53034.273982700426,-9149.70791362756,7.1742059179117215,53289.61536802445,8505.069796515101,34.071165871615506,0.942465343356976,64.0,38.0,77.0,285.0,362.0,26.0,979.0,966.0,39.0,19.0,20.0,0.4871794871794871,395.40857925282666,4460.449838945121,8.0,2.0,6.0,0.25,519.0159077376358,2159.118667928167,17.0,9.0,8.0,0.5294117647058824,2404.3713517507754,26918.423227296906,15.0,4.0,11.0,0.2666666666666666,1639.45211604851,23498.16545900848,94.0,48.0,46.0,0.5106382978723404,481.9345959142653,7393.565894651533,0.0,0.0,0.0,0.0,52902.0,52928.0,52966.0,52974.0,53009.0,53026.0,53030.0,53043.0,53258.0,53328.0,0.08522646463489479,-0.20385764015894714,0.0718756247815196,-0.17918081446148817,0.056664390468816016
60,60,53831.726017299574,4758.177241355421,7.64389620259217,53887.30135639943,-2366.939656552379,10.191861603456228,53931.9898704976,33591.66460602214,7.3469493079705055,53946.30135639943,-13308.42895738891,7.990609316439421,54202.808138396555,8381.08740871311,32.55667015258774,0.9202341292144766,56.0,49.0,68.0,284.0,352.0,7.0,918.0,916.0,28.0,23.0,5.0,0.8214285714285714,524.3494724508447,2505.499267540722,8.0,2.0,6.0,0.25,613.2213172196774,1171.6924694589277,15.0,9.0,6.0,0.6,2447.824632270741,24140.282912821247,14.0,2.0,12.0,0.1428571428571428,1864.8999293606016,28311.497912779872,85.0,42.0,43.0,0.4941176470588235,596.3784067051536,8979.09628522132,0.0,0.0,0.0,0.0,53829.0,53836.0,53885.0,53893.0,53923.0,53938.0,53944.0,53953.0,54171.0,54237.0,0.1101996512222142,-0.2590777147706753,0.07287000096541532,-0.14012923203269606,0.07115764072394104
61,61,54671.15067819971,3656.6448917082334,5.095930801728113,54726.30135639943,-2633.6476556131624,10.191861603456228,54770.81574322145,29687.376845264436,7.13146805399083,54787.20962479599,-11054.055735825235,7.643896202255777,55042.65746019684,8482.737126967608,29.560253101356267,0.9058611494941508,54.0,50.0,68.0,282.0,350.0,4.0,839.0,841.0,26.0,22.0,4.0,0.8461538461538461,526.1461581266774,1580.781089079516,9.0,3.0,6.0,0.3333333333333333,630.6491036035075,1658.5850890526117,15.0,9.0,6.0,0.6,2284.392157634515,23397.09424365568,8.0,3.0,5.0,0.375,1821.9115941127493,27882.192590905932,68.0,35.0,33.0,0.5147058823529411,496.8102412491661,9038.212234559802,0.0,0.0,0.0,0.0,54670.0,54674.0,54724.0,54732.0,54762.0,54777.0,54784.0,54792.0,55010.0,55074.0,0.14388768220828893,-0.23945841891924627,0.0769482655723053,-0.16481838319378941,0.05856720935861004
62,62,55490.95427125086,3498.0056961315586,0.7138604730913017,55561.47940829813,-5235.266889412846,25.628394324304725,55607.85670885078,32911.574859149885,6.726648098056989,55625.69864360056,-12272.234233567871,10.191861603455637,55877.75817060881,8055.026855351881,28.867477350549695,0.8426293662720731,61.0,59.0,88.0,275.0,363.0,2.0,819.0,836.0,2.0,1.0,1.0,0.5,487.32330587337674,4638.1658359926605,49.0,30.0,19.0,0.6122448979591837,560.2994298745216,4273.489110862711,14.0,8.0,6.0,0.5714285714285714,2369.880826551373,24026.40933332961,19.0,6.0,13.0,0.3157894736842105,1654.4303706695953,27295.678343777927,80.0,40.0,40.0,0.5,398.44829472651475,6809.3987060168365,0.0,0.0,0.0,0.0,55490.0,55492.0,55551.0,55580.0,55600.0,55614.0,55620.0,55639.0,55846.0,55914.0,0.13931461186935948,-0.10702404322644976,0.0720075182270566,-0.13481085344217777,0.049465793458128536
63,63,56368.27067836254,4807.737926715824,17.066784927629772,56444.15067819971,-1984.675096509808,2.857483381483604,56477.961927246,33803.064839582235,7.038798752747133,56494.872032274456,-10193.733507913434,5.822607966112428,56747.031004618526,8854.521641849416,35.17168408577402,0.9628458144834942,95.0,50.0,59.0,287.0,346.0,45.0,879.0,870.0,46.0,22.0,24.0,0.4782608695652174,307.48995828295034,4742.64617651799,18.0,14.0,4.0,0.7777777777777778,407.9471642630591,1311.4446626102044,17.0,9.0,8.0,0.5294117647058824,2521.2611158734207,29683.329522061293,10.0,4.0,6.0,0.4,1724.7393191083645,25487.725117436727,87.0,41.0,46.0,0.4712643678160919,337.2689572072152,8670.156265620659,0.0,0.0,0.0,0.0,56347.0,56392.0,56442.0,56447.0,56469.0,56486.0,56491.0,56501.0,56708.0,56788.0,0.06395730444754034,-0.20554858827042427,0.07458676092947376,-0.1691960377195895,0.0380900257347805
64,64,57238.30135639943,3814.6482089610818,10.191861603456228,57294.726017299574,-2730.4335116053617,7.64389620259217,57339.160312402266,29441.48189944115,6.983731025446505,57356.262977813734,-11843.119241629023,6.769144285075607,57606.776087123915,8420.490480251483,33.133494649082344,0.9374102839807118,73.0,45.0,75.0,285.0,360.0,28.0,870.0,861.0,28.0,22.0,6.0,0.7857142857142857,423.80649723368685,2696.7082394104427,10.0,6.0,4.0,0.6,377.9355130186414,1830.3724427808047,15.0,8.0,7.0,0.5333333333333333,2362.2693474908137,24708.370412119304,12.0,4.0,8.0,0.3333333333333333,1670.1308107049294,27052.764455746295,86.0,42.0,44.0,0.4883720930232558,353.25660105036576,8012.55189999795,0.0,0.0,0.0,0.0,57216.0,57244.0,57289.0,57299.0,57331.0,57346.0,57352.0,57364.0,57575.0,57649.0,0.11109975914374301,-0.13841593703427474,0.08023608850801948,-0.1410211935411707,0.04195202190167615
65,65,58064.39687001593,4292.868288740898,15.278478006723748,58133.15067819971,-1499.5314406958385,5.095930801728113,58172.19745536028,31872.277856358745,6.8835726684829925,58189.75327360743,-8867.914735041604,5.340066146922098,58440.74326035696,9910.209707014106,38.332303333232666,0.9421848535113596,76.0,47.0,67.0,289.0,356.0,29.0,827.0,833.0,43.0,21.0,22.0,0.4883720930232558,296.47481994334095,4028.6323478749864,10.0,6.0,4.0,0.6,437.1510532440212,249.99864239369097,16.0,8.0,8.0,0.5,2264.915723996753,28486.22220823552,11.0,5.0,6.0,0.4545454545454545,1494.945152456753,21912.890365663498,94.0,47.0,47.0,0.5,392.6805414672528,9839.035367135732,0.0,0.0,0.0,0.0,58053.0,58082.0,58129.0,58136.0,58164.0,58180.0,58185.0,58196.0,58403.0,58485.0,0.06906217475176656,-0.291525100028024,0.07106224833393533,-0.1685791076169768,0.039623837746776136
66,66,58946.10137881931,4510.336124633315,5.095930801728113,59008.30135639943,-4237.897051896342,10.191861603456228,59052.49860367902,33111.30907559217,6.692030381102563,59070.273982700426,-10161.484150883394,7.64389620259217,59324.12072343148,8004.324387037891,30.923692628644805,0.9034761122325836,62.0,58.0,71.0,282.0,353.0,4.0,879.0,880.0,4.0,2.0,2.0,0.5,493.31368019753234,5659.002706339847,18.0,2.0,16.0,0.1111111111111111,468.36073430967787,3022.788296883289,15.0,8.0,7.0,0.5333333333333333,2424.128458883234,27766.84137271443,11.0,4.0,7.0,0.3636363636363636,1715.958578465042,25502.35461399765,79.0,42.0,37.0,0.5316455696202531,513.4193109290386,7908.128534026129,0.0,0.0,0.0,0.0,58944.0,58948.0,59006.0,59024.0,59044.0,59059.0,59066.0,59077.0,59293.0,59359.0,0.10937403922144232,-0.11051725149861753,0.0732114956055956,-0.1688688928689481,0.0641427416110801
67,67,59825.27077032277,4017.0524657181345,10.191861603456228,59889.027373699,-2697.08079546932,17.8357578060484,59933.54530736054,35731.4262744683,7.252676797907334,59947.30135639943,-13180.244804196367,8.76348636682508,60204.317508207394,8307.082152703413,31.8366600093206,0.9194937075126822,64.0,53.0,72.0,281.0,353.0,11.0,879.0,881.0,11.0,4.0,7.0,0.3636363636363636,467.7525888690991,5051.57153377661,19.0,4.0,15.0,0.2105263157894736,555.6969871626661,1583.1849572682884,16.0,10.0,6.0,0.625,2516.021654199523,24532.741692737145,17.0,2.0,15.0,0.1176470588235294,1830.6908679806504,28453.466532765306,58.0,24.0,34.0,0.4137931034482758,466.7428976817802,11114.388516051731,0.0,0.0,0.0,0.0,59821.0,59832.0,59885.0,59904.0,59924.0,59939.0,59945.0,59957.0,60180.0,60238.0,0.11644174251168966,-0.2060364628661297,0.07041481173667374,-0.1388965755323292,0.056186142029411114
68,68,60664.273982700426,5112.700239265914,7.64389620259217,60720.27398270027,-2297.923542685671,7.64389620259217,60771.381266355675,29806.122307898524,6.8553846587433815,60789.16868701368,-10963.214481946346,5.463850280910042,61038.73640736055,8912.887599211967,35.328011082983124,0.9275342749195616,44.0,27.0,91.0,282.0,373.0,17.0,838.0,839.0,18.0,5.0,13.0,0.2777777777777778,534.8217841315704,5164.410900362269,19.0,16.0,3.0,0.8421052631578947,430.2431214004064,2229.666796710036,16.0,8.0,8.0,0.5,2303.0031915643763,25355.20511241488,11.0,5.0,6.0,0.4545454545454545,1720.1122410473904,24402.268534662933,95.0,49.0,46.0,0.5157894736842106,402.2892969154692,8396.033285192352,0.0,0.0,0.0,0.0,60660.0,60677.0,60704.0,60722.0,60763.0,60779.0,60784.0,60795.0,61008.0,61077.0,0.10460652084080732,-0.18723126048726793,0.0772661122360787,-0.15689853043375027,0.04513568609919838
69,69,61482.84932180029,4243.90644135751,5.095930801728113,61539.69864360056,-2808.7465630053207,10.191861603456228,61596.229063328865,32993.524588061075,6.836448907850122,61613.273982700426,-8775.633486765208,6.236575967015771,61875.63008649785,8720.753664623116,30.697401145193975,0.9094085236614656,54.0,49.0,87.0,276.0,363.0,5.0,819.0,823.0,19.0,4.0,15.0,0.2105263157894736,543.0932948565571,4738.805167566701,11.0,9.0,2.0,0.8181818181818182,466.4420415928625,2567.9607653488683,16.0,8.0,8.0,0.5,2356.819010957054,28925.40017375654,12.0,4.0,8.0,0.3333333333333333,1629.4122543281176,23330.023900186156,79.0,50.0,29.0,0.6329113924050633,510.5131917637437,7342.301994987773,0.0,0.0,0.0,0.0,61480.0,61485.0,61534.0,61542.0,61588.0,61604.0,61609.0,61621.0,61838.0,61897.0,0.12797013844698152,-0.16606768575580413,0.0714327747757475,-0.1856746019287932,0.058540031217107706
70,70,62360.575339099865,3083.5220882999483,2.5479654008293338,62411.05474739799,-3790.094974977029,23.05024300025424,62461.78674554322,33577.06031720014,7.053307323298486,62478.82634970062,-9868.28119307658,5.7690043776453255,62728.12656058445,8886.886044628533,35.66025544082973,0.9151215388971772,16.0,13.0,111.0,287.0,398.0,3.0,879.0,866.0,3.0,2.0,1.0,0.6666666666666666,531.5266264942094,2493.3356221068507,58.0,37.0,21.0,0.6379310344827587,354.73525657978007,2345.285782467352,16.0,8.0,8.0,0.5,2545.6996367457677,28915.26455780777,11.0,4.0,7.0,0.3636363636363636,1657.5355308343112,24931.498410711047,95.0,49.0,46.0,0.5157894736842106,385.6927220620742,8314.374953914325,0.0,0.0,0.0,0.0,62359.0,62362.0,62375.0,62431.0,62454.0,62470.0,62475.0,62486.0,62696.0,62773.0,0.17237646148572208,-0.09359534758939123,0.07581663232864108,-0.16796598094480833,0.04340021016643924
71,71,63227.53385081518,4064.507495724299,13.522021371474056,63276.273982700426,-2251.226386771711,7.64389620259217,63335.885274140586,32493.25329887541,7.160137330021926,63351.813505657905,-12384.345588254357,7.259379506096158,63608.808138396555,7979.440095277281,31.189386291268676,0.9399708611921204,56.0,28.0,87.0,284.0,371.0,28.0,868.0,875.0,28.0,12.0,16.0,0.4285714285714285,395.3151059888804,4194.790691987208,7.0,4.0,3.0,0.5714285714285714,330.0397426072457,2892.2232629819846,16.0,9.0,7.0,0.5625,2373.1596175813816,24941.378027258623,11.0,4.0,7.0,0.3636363636363636,1761.1531481299614,28677.6198113123,77.0,43.0,34.0,0.5584415584415584,357.1202528284855,8358.845727740481,0.0,0.0,0.0,0.0,63216.0,63244.0,63272.0,63279.0,63327.0,63343.0,63348.0,63359.0,63566.0,63643.0,0.09726027234658473,-0.14660442172611843,0.07303545741489408,-0.14220801055489649,0.04475505155303453
72,72,64069.98038597919,2812.5119056673475,9.653041988106796,64131.027373699,-2541.2494321000686,17.8357578060484,64176.46447462256,30100.296016216533,7.025269315768594,64193.12306600951,-10827.794946771062,7.24453093605084,64447.808138396555,8587.320514516447,31.648486524018203,0.936720591182056,70.0,46.0,74.0,281.0,355.0,24.0,841.0,840.0,24.0,13.0,11.0,0.5416666666666666,358.5459453925312,3530.2859647645323,48.0,32.0,16.0,0.6666666666666666,296.8070711944311,1936.1930924849464,15.0,8.0,7.0,0.5333333333333333,2271.733833575092,25254.27683583943,12.0,4.0,8.0,0.3333333333333333,1630.562458763426,26381.168336423725,78.0,42.0,36.0,0.5384615384615384,418.99616665437105,8934.743713590113,0.0,0.0,0.0,0.0,64057.0,64081.0,64127.0,64147.0,64168.0,64183.0,64189.0,64201.0,64412.0,64482.0,0.12748246315688258,-0.11679572553771397,0.07547214261119543,-0.15059044494093168,0.04879242203037356
73,73,64911.47940829813,4722.057889613876,16.10963587907108,64953.337763742056,-1655.2437791217546,2.169841447441777,65014.95182137681,34186.82017283086,6.925325272446288,65032.47334390816,-8728.35390057665,4.426912219992599,65285.808138396555,8944.315104931535,34.07127802227269,0.9480728519256654,57.0,21.0,86.0,283.0,369.0,36.0,847.0,839.0,46.0,26.0,20.0,0.5652173913043478,427.23765960568096,4627.859881056303,6.0,2.0,4.0,0.3333333333333333,392.5172985044631,1671.6130808705582,16.0,8.0,8.0,0.5,2436.316394742686,30669.094615416907,8.0,3.0,5.0,0.375,1735.7396258107835,24998.40085131099,71.0,33.0,38.0,0.4647887323943662,476.1913195279391,9659.957574899789,0.0,0.0,0.0,0.0,64894.0,64930.0,64951.0,64957.0,65007.0,65023.0,65029.0,65037.0,65253.0,65320.0,0.09047700591417702,-0.23713564337497547,0.07126478515480328,-0.19886219619212617,0.05323955092608336
74,74,65775.15067819973,4036.272511842574,5.095930801728113,65831.56635661713,-3884.472386255827,10.191861603456228,65880.1319748394,38130.76035974584,6.820147368574763,65894.87669549929,-9565.7359899949,12.739827004259672,66150.95313820124,7778.011654500459,28.473942346550345,0.9010034488744896,43.0,39.0,88.0,277.0,365.0,4.0,859.0,865.0,26.0,12.0,14.0,0.4615384615384615,466.6265816202706,3825.341463995625,18.0,15.0,3.0,0.8333333333333334,490.692906918896,4063.023472118396,16.0,8.0,8.0,0.5,2403.400005973929,27389.66524519492,15.0,3.0,12.0,0.2,1697.24116471945,26878.06506684956,80.0,40.0,40.0,0.5,451.0484316727376,6480.172930777649,0.0,0.0,0.0,0.0,65774.0,65778.0,65817.0,65835.0,65872.0,65888.0,65892.0,65905.0,66123.0,66182.0,0.11560829459635612,-0.12632163602322993,0.06303047679351205,-0.17742922933422448,0.05799019745769538
75,75,66631.84196484237,3770.935788631665,12.034502267869462,66681.36077776388,-3132.8850532059296,5.095930801728113,66740.40999054072,34302.99241052703,7.1972597071942435,66754.30135639943,-13341.18357182809,9.03599548840271,67006.90622916656,7606.234057008875,30.499647955891025,0.918635527874539,52.0,30.0,88.0,278.0,366.0,22.0,858.0,860.0,32.0,14.0,18.0,0.4375,359.7166696647535,3461.4345276812533,9.0,6.0,3.0,0.6666666666666666,653.6936035940573,4257.67397972786,15.0,8.0,7.0,0.5333333333333333,2306.1823369640565,23743.169870757643,19.0,2.0,17.0,0.1052631578947368,1786.6770163385845,26188.267976118128,79.0,37.0,42.0,0.4683544303797468,584.2017503935028,6774.683398140805,0.0,0.0,0.0,0.0,66623.0,66645.0,66675.0,66684.0,66732.0,66747.0,66752.0,66763.0,66981.0,67041.0,0.09539188409126466,-0.20865547011535662,0.0672297713670113,-0.13392192729522295,0.07680564994646485
76,76,67472.94450109723,3936.45097464284,2.5479654008640567,67526.30135639943,-2450.1942570796127,10.191861603456228,67568.10641887899,30200.2435502489,6.903925780695543,67585.13143605445,-10608.563216511646,7.094081961161578,67836.76543955016,8246.851955376924,32.71786048879587,0.9112157057071204,52.0,49.0,69.0,282.0,351.0,3.0,839.0,827.0,3.0,1.0,2.0,0.3333333333333333,479.2933683363034,2928.396723426128,11.0,4.0,7.0,0.3636363636363636,650.1740038839961,1247.9863089029566,15.0,8.0,7.0,0.5333333333333333,2158.2065376773407,22814.619831427564,12.0,4.0,8.0,0.3333333333333333,1638.728965893178,24545.629535133005,83.0,40.0,43.0,0.4819277108433735,444.5459471925595,8017.43493001792,0.0,0.0,0.0,0.0,67472.0,67475.0,67524.0,67532.0,67560.0,67575.0,67581.0,67593.0,67808.0,67875.0,0.12175773848670639,-0.26535610472736093,0.07146321631765627,-0.15447228172638744,0.05390492634013113
77,77,68292.84932180027,5104.8057158782085,5.095930801728113,68349.27398270041,-2799.571578450252,7.64389620259217,68402.77747718417,32776.78730605026,6.920629688627364,68420.16269246678,-9215.547981189146,6.372981604277074,68672.14093741207,8046.361892525881,32.14730919484351,0.9232334857061916,53.0,36.0,85.0,277.0,362.0,17.0,819.0,836.0,36.0,14.0,22.0,0.3888888888888889,470.35992796296944,4175.107778337767,16.0,14.0,2.0,0.875,435.1816573378207,2650.578130350139,15.0,8.0,7.0,0.5333333333333333,2500.1152603372407,29096.724223904523,14.0,5.0,9.0,0.3571428571428571,1680.2331874844783,23990.763317247496,68.0,33.0,35.0,0.4852941176470588,444.55896526034064,9187.12061659896,0.0,0.0,0.0,0.0,68290.0,68307.0,68343.0,68351.0,68395.0,68410.0,68416.0,68428.0,68648.0,68705.0,0.09214061301097935,-0.15544580488230364,0.07627700777970221,-0.1823259116998994,0.05524968565896637
78,78,69148.24849023274,5651.019160137187,19.329835351423903,69217.57533909987,-1561.870416101057,2.5479654008640567,69259.11820934273,35960.03073650731,7.215455519834508,69275.69421993842,-9521.88066725456,3.5517092747080374,69523.38430185447,9173.941641695104,38.678746931934626,0.9373622968842412,79.0,42.0,67.0,284.0,351.0,37.0,859.0,857.0,46.0,21.0,25.0,0.4565217391304347,353.5918057768027,6198.048138746299,5.0,4.0,1.0,0.8,440.0716921572162,997.7156436184322,18.0,9.0,9.0,0.5,2580.8373632381945,32876.058623235425,8.0,3.0,5.0,0.375,1795.133883784712,24352.366565536657,94.0,45.0,49.0,0.4787234042553192,346.29635258887953,9267.721276431854,0.0,0.0,0.0,0.0,69135.0,69172.0,69214.0,69219.0,69250.0,69267.0,69273.0,69281.0,69494.0,69565.0,0.06257133372880277,-0.28175941334222854,0.07176960949085283,-0.18852724020771647,0.03774782597427696
79,79,69994.09593080172,3959.2882795294345,13.899220724189652,70063.30135639943,-2750.4229907281724,10.191861603456228,70104.85874370529,32613.558966903107,7.341640462372937,70119.30135639943,-13326.176639889558,8.365658396961749,70379.65746019685,7914.60530202678,30.089090003658193,0.9312786271585644,83.0,47.0,69.0,282.0,351.0,36.0,838.0,843.0,37.0,17.0,20.0,0.4594594594594595,331.7888079873366,4189.3006504744,9.0,3.0,6.0,0.3333333333333333,470.4494441321707,1293.0722243595187,16.0,9.0,7.0,0.5625,2255.041922102148,21459.95514483816,13.0,3.0,10.0,0.2307692307692307,1750.688203303895,27537.579528165978,76.0,44.0,32.0,0.5789473684210527,399.4578747535599,7976.848471178992,0.0,0.0,0.0,0.0,69977.0,70013.0,70060.0,70069.0,70096.0,70111.0,70117.0,70129.0,70337.0,70411.0,0.0838001136979018,-0.17104621569776057,0.06914430664836702,-0.13137212950213484,0.050470978590842215
80,80,70727.18762387447,4933.556804600311,18.846517757558825,70784.28867045105,-2121.82030053207,2.047563103679853,70839.73327004525,33323.15292887767,6.962485667790845,70857.25118302285,-8437.14919488605,5.561411732226696,71103.31406878495,9821.342463549809,40.61300969551312,0.9536670624445897,66.0,31.0,84.0,281.0,365.0,35.0,739.0,737.0,45.0,21.0,24.0,0.4666666666666667,311.71252824314666,5212.169680384084,7.0,3.0,4.0,0.4285714285714285,363.7143546215444,2412.564678017988,16.0,8.0,8.0,0.5,2442.6412953067943,29726.11339952383,12.0,4.0,8.0,0.3333333333333333,1593.2562561179905,22941.296123225595,102.0,51.0,51.0,0.5,410.75817733678974,8969.005228755008,0.0,0.0,0.0,0.0,70715.0,70750.0,70781.0,70788.0,70832.0,70848.0,70853.0,70865.0,71066.0,71146.0,0.06318210990344518,-0.17141619133832348,0.07330162606522188,-0.1888382224038067,0.04182301746031632
81,81,71669.12330450071,6269.719208341688,12.739827004320285,71741.55681821286,-1633.6561292079962,1.684831596277499,71780.58716007085,36246.8449547307,7.265333496815522,71794.87669549929,-10749.315714513728,8.346570653696155,72057.08212109699,7704.100757540071,32.770807848707385,0.9222285975829324,77.0,45.0,67.0,281.0,348.0,32.0,939.0,939.0,40.0,15.0,25.0,0.375,452.3428860634275,6791.12128813597,5.0,3.0,2.0,0.6,509.4684576305869,2009.7655345528203,16.0,9.0,7.0,0.5625,2393.4627164562485,26160.716756163165,14.0,3.0,11.0,0.2142857142857142,1749.103767773614,26345.828305664538,79.0,43.0,36.0,0.5443037974683544,577.8580265056462,8060.277328026502,0.0,0.0,0.0,0.0,71662.0,71694.0,71739.0,71744.0,71772.0,71788.0,71792.0,71806.0,72024.0,72087.0,0.07214723196241353,-0.31185783135253775,0.06603230486530579,-0.1627176849417469,0.07500655101636508
82,82,72545.84932180027,5098.0613439081735,5.095930801728113,72602.69864360057,-2274.3945172687077,10.191861603456228,72660.19592133108,33095.058834574724,6.859620813197943,72677.47659560484,-12100.14780532175,5.844670345546172,72928.42893033232,8774.122953029073,33.78155707775367,0.917030423231368,54.0,48.0,87.0,282.0,369.0,6.0,878.0,880.0,30.0,4.0,26.0,0.1333333333333333,496.1350086572751,5591.608164712639,8.0,6.0,2.0,0.75,460.2974530665675,2111.664329564085,16.0,8.0,8.0,0.5,2390.4857351190813,25630.201439921777,11.0,4.0,7.0,0.3636363636363636,1903.6401545349893,28576.986887737505,83.0,39.0,44.0,0.4698795180722891,448.71225628433706,7441.272894411192,0.0,0.0,0.0,0.0,72543.0,72549.0,72597.0,72605.0,72652.0,72668.0,72673.0,72684.0,72892.0,72966.0,0.09731836774583376,-0.202382414120191,0.07223089546593336,-0.1573237108473792,0.05114041126235062
83,83,73284.22679132767,5635.208646754674,10.191861603456228,73358.94915520468,-2044.784850342669,1.606047998695823,73392.3270303538,31980.91618007199,7.025521788485667,73409.27398270041,-10433.62709105838,5.947300735543608,73657.98257994054,9575.83246531718,36.08940206308781,0.9375693937118657,76.0,59.0,60.0,281.0,341.0,17.0,739.0,734.0,17.0,4.0,13.0,0.2352941176470588,479.0200156692581,7292.8159408161155,5.0,3.0,2.0,0.6,592.9877978248234,2332.989113547156,17.0,9.0,8.0,0.5294117647058824,2443.5944584063045,27958.11764763339,11.0,4.0,7.0,0.3636363636363636,1794.451571656981,25186.121152714102,88.0,47.0,41.0,0.5340909090909091,500.6436178473662,8718.275617206476,0.0,0.0,0.0,0.0,73280.0,73297.0,73356.0,73361.0,73383.0,73400.0,73405.0,73416.0,73622.0,73697.0,0.08500484111535542,-0.29000009351861605,0.07640789415310628,-0.17198732099547875,0.052281994245477165
84,84,74083.84932180027,5164.313759615591,5.095930801728113,74149.15067819973,-3011.3854317154846,5.095930801728113,74196.65004908569,33163.455781045195,6.8490500619956665,74214.08964708191,-9399.579003323202,6.755494506795958,74466.27681574778,8692.751233634102,31.80699947070112,0.9197755164119944,62.0,53.0,79.0,277.0,356.0,9.0,799.0,802.0,26.0,5.0,21.0,0.1923076923076923,553.9493953955608,5211.593889997306,9.0,6.0,3.0,0.6666666666666666,676.6519685495352,2886.9993044530747,15.0,8.0,7.0,0.5333333333333333,2401.310819270036,27196.68102496776,13.0,5.0,8.0,0.3846153846153846,1696.511138344119,23603.185344629754,86.0,45.0,41.0,0.5232558139534884,438.4121753889853,7846.252876559961,0.0,0.0,0.0,0.0,74081.0,74090.0,74143.0,74152.0,74189.0,74204.0,74209.0,74222.0,74438.0,74499.0,0.10726486057593727,-0.22469789533519444,0.07240834113079742,-0.18048799182860434,0.05043422543747432
85,85,75002.84932180027,4148.755748678732,5.095930801728113,75076.72601729959,-3772.166392052061,7.64389620259217,75118.19189303105,36069.40881199848,6.940173325832154,75132.87669549929,-10689.329758265454,9.133372182032849,75387.36991350215,7551.164455176107,30.915025212280643,0.9100683990672924,62.0,56.0,79.0,284.0,363.0,6.0,919.0,923.0,29.0,6.0,23.0,0.2068965517241379,496.5532045467999,4069.885810187011,19.0,15.0,4.0,0.7894736842105263,497.333580952035,3265.159872583069,16.0,9.0,7.0,0.5625,2415.062407131729,27567.076943926026,11.0,3.0,8.0,0.2727272727272727,1733.9042310609282,26948.393493876763,85.0,38.0,47.0,0.4470588235294118,580.7524253859027,6778.344765589733,0.0,0.0,0.0,0.0,75000.0,75006.0,75062.0,75081.0,75109.0,75125.0,75130.0,75141.0,75366.0,75425.0,0.11968725917522112,-0.13184295952583502,0.06695597423621645,-0.16220888215373822,0.07690898918084263
86,86,75864.4019455353,6383.693185426753,31.59063762798085,75943.67977168491,-186.1758206016256,-0.0202906369792394,75978.25133314026,34373.15144467377,7.1777794960505545,75994.94809421044,-11660.832336096735,4.113403698216592,76248.53415569612,10111.518585751655,46.06690071282934,0.9441182657144036,97.0,49.0,57.0,287.0,344.0,48.0,869.0,860.0,50.0,19.0,31.0,0.38,329.63228132209287,6253.73831223068,2.0,1.0,1.0,0.5,462.3186441827701,61.10266463476228,17.0,8.0,9.0,0.4705882352941176,2491.5844368526787,30184.996043593463,8.0,3.0,5.0,0.375,1840.999078233192,27256.084197171716,97.0,52.0,45.0,0.5360824742268041,490.0872204413392,10084.138951206867,0.0,0.0,0.0,0.0,75846.0,75894.0,75943.0,76045.0,75970.0,75987.0,75992.0,76000.0,76204.0,76287.0,0.05163661093152251,-2.4832367741889967,0.07248635438222985,-0.15787887392345742,0.04846821140515244
87,87,76705.92052197852,2728.114764383871,10.964307084536516,76773.30135639943,-3050.333816225287,10.191861603172292,76813.99142483773,33083.72408871433,7.16234111117472,76827.87669549929,-12970.810951635578,9.029819673327674,77081.71429521864,8101.42158951492,30.39694826077827,0.9209662845613288,73.0,58.0,67.0,279.0,346.0,15.0,837.0,835.0,19.0,11.0,8.0,0.5789473684210527,444.84280226352,2508.439883161928,20.0,14.0,6.0,0.7,507.9822032007276,1648.235174965139,16.0,9.0,7.0,0.5625,2206.7394737050636,21014.786113331516,14.0,3.0,11.0,0.2142857142857142,1711.5301105054473,27117.25111806648,76.0,36.0,40.0,0.4736842105263157,419.77939260670814,7112.404696042977,0.0,0.0,0.0,0.0,76698.0,76713.0,76771.0,76779.0,76806.0,76820.0,76825.0,76838.0,77047.0,77117.0,0.16305868362689105,-0.16653331530427154,0.06670166477593847,-0.13195243665852896,0.05181552249422472
88,88,77539.69864360057,5070.543873793281,10.191861603456228,77600.30135639943,-2454.11216474313,10.191861603456228,77646.34620577593,34565.63439903948,7.09149879909275,77662.33167182072,-9588.39911305678,7.643894305042357,77914.91530399142,8863.054156339327,32.9857619426523,0.94173233935052,64.0,47.0,74.0,280.0,354.0,17.0,830.0,833.0,32.0,19.0,13.0,0.59375,463.1149837277742,4581.5396646815225,18.0,2.0,16.0,0.1111111111111111,432.537462678737,1258.1443474642651,16.0,9.0,7.0,0.5625,2473.9205969326636,29599.650777183684,13.0,3.0,10.0,0.2307692307692307,1703.3003229853696,26595.45794234796,86.0,41.0,45.0,0.4767441860465116,366.26694410013585,8908.977737112626,0.0,0.0,0.0,0.0,77534.0,77551.0,77598.0,77607.0,77637.0,77653.0,77659.0,77672.0,77876.0,77952.0,0.09133438054275571,-0.17625007890542377,0.07157168210404405,-0.17764178387880622,0.04132513890126264
89,89,78395.30135639943,5412.0898102507,10.191861603456228,78453.27398270041,-3743.7959410812646,7.64389620259217,78501.90060692256,35821.2906840598,6.811277742275172,78518.09222838654,-11210.864533880522,10.19186160344718,78774.24436109235,8242.770986093774,31.13423967340018,0.8840381193452497,56.0,46.0,77.0,283.0,360.0,10.0,859.0,855.0,41.0,23.0,18.0,0.5609756097560976,508.7396710489199,3802.376078078414,8.0,5.0,3.0,0.625,470.6268230773021,3509.0412815555464,16.0,9.0,7.0,0.5625,2439.2941198332437,26440.823736323364,12.0,4.0,8.0,0.3333333333333333,1762.7650012470388,29799.937204332877,86.0,42.0,44.0,0.4883720930232558,471.6797193583351,7612.368321175372,0.0,0.0,0.0,0.0,78393.0,78403.0,78449.0,78456.0,78493.0,78509.0,78514.0,78526.0,78752.0,78809.0,0.09400059660601862,-0.1257084602056003,0.0680962096354253,-0.15723720467050156,0.05722344101930009
90,90,79235.42466090013,4949.880927026536,2.5479654008640567,79283.84932180027,-2639.3728440266814,5.095930801728113,79342.70092339191,30455.50354167089,6.858878786778226,79359.87513553615,-12122.984506834637,6.470191161735824,79610.10300441607,8199.590613246648,32.14642490949147,0.9031681019650952,45.0,40.0,87.0,276.0,363.0,5.0,838.0,842.0,5.0,1.0,4.0,0.2,507.8728203194288,6145.772061058405,19.0,8.0,11.0,0.4210526315789473,622.0609483131434,2710.1636590612216,16.0,9.0,7.0,0.5625,2340.502951879967,23263.05171116692,10.0,4.0,6.0,0.4,1848.3816959729984,25726.664780703017,78.0,38.0,40.0,0.4871794871794871,560.2043327720695,6558.006682263442,0.0,0.0,0.0,0.0,79234.0,79239.0,79279.0,79285.0,79334.0,79350.0,79356.0,79366.0,79582.0,79642.0,0.10260303789257316,-0.23568513623263412,0.07684991806743771,-0.152469195595435,0.06832101249872709
91,91,80053.15067819973,4352.169834065769,5.095930801728113,80116.30135639943,-2708.7969133904917,10.191861603456228,80155.97694025005,32227.804692553647,6.903650344049932,80173.15539613592,-9582.635781255294,6.997123548436454,80424.2327992967,8734.165835119775,31.743186240457383,0.9157434398859756,62.0,58.0,68.0,275.0,343.0,4.0,819.0,811.0,29.0,15.0,14.0,0.5172413793103449,483.0178500228469,3092.1665107681847,10.0,2.0,8.0,0.2,502.4667438410267,2057.13228107752,16.0,8.0,8.0,0.5,2508.267415054291,26921.09367634696,14.0,5.0,9.0,0.3571428571428571,1717.9480601267903,23707.905355756822,86.0,43.0,43.0,0.5,583.139813380639,8893.641385397206,0.0,0.0,0.0,0.0,80052.0,80056.0,80114.0,80123.0,80148.0,80164.0,80168.0,80182.0,80392.0,80457.0,0.11098322639941989,-0.18549443162651472,0.07782929799229656,-0.17927719464067376,0.06676536997223642
92,92,80911.72601729959,5537.026451200996,7.64389620259217,80966.72601729959,-1950.604932680576,7.64389620259217,81010.57795628677,34182.747749931244,6.96758990582887,81027.68957634938,-9941.070873406528,5.890235624378104,81282.2327992967,8909.837545749664,33.52453952827938,0.91994039099018,67.0,49.0,68.0,282.0,350.0,18.0,859.0,858.0,36.0,23.0,13.0,0.6388888888888888,590.558921204352,3896.9337076591314,8.0,2.0,6.0,0.25,666.6803382969792,1445.8669428196404,16.0,9.0,7.0,0.5625,2501.6619667250447,28435.294292887047,9.0,4.0,5.0,0.4444444444444444,1864.0221076831035,26968.616329519493,78.0,42.0,36.0,0.5384615384615384,554.3089037772637,9274.133691747144,0.0,0.0,0.0,0.0,80898.0,80916.0,80965.0,80972.0,81002.0,81018.0,81024.0,81033.0,81255.0,81315.0,0.10665633014562503,-0.34178132492508795,0.07318492898892473,-0.18750717416868742,0.062213132498884945
93,93,81771.15067819973,4440.756646184566,5.095930801728113,81818.15067819973,-3971.300513993178,5.095930801728113,81876.41249453415,35919.94311469348,6.819770896443584,81890.87669549929,-12702.524208975356,10.24172591684871,82144.20542559771,6372.003651072485,24.49248316760429,0.8604157145957528,43.0,38.0,88.0,267.0,355.0,5.0,859.0,863.0,8.0,3.0,5.0,0.375,554.3019949880934,5115.855989721678,10.0,6.0,4.0,0.6,645.438492371803,4335.281383606574,15.0,8.0,7.0,0.5333333333333333,2422.690045802015,25196.524549314046,14.0,3.0,11.0,0.2142857142857142,1828.430512538445,28576.79210378338,58.0,28.0,30.0,0.4827586206896552,589.9580696943196,6030.353756027041,0.0,0.0,0.0,0.0,81769.0,81774.0,81812.0,81821.0,81868.0,81883.0,81888.0,81900.0,82127.0,82167.0,0.12482152010386374,-0.16252572428038414,0.06744693436919684,-0.14394229701577832,0.09258595914254107
94,94,82583.93002163347,4580.0641110579845,20.000058007795182,82646.01091264484,-1386.5706086518082,1.8708767465992784,82694.67633504182,30803.396166837694,7.221755514501958,82711.836206743,-10471.52311520695,5.617107618872207,82960.95286882567,9800.875389879524,38.376371638056185,0.9589665841183662,68.0,37.0,76.0,286.0,362.0,31.0,818.0,819.0,43.0,18.0,25.0,0.4186046511627907,503.0300846485651,5244.580905885118,7.0,3.0,4.0,0.4285714285714285,382.2592066497721,2125.0120212350025,16.0,8.0,8.0,0.5,2197.0941894867983,26000.95818970765,11.0,4.0,7.0,0.3636363636363636,1588.6400631055135,24099.592792074654,86.0,42.0,44.0,0.4883720930232558,451.694873190077,11058.50898735155,0.0,0.0,0.0,0.0,82575.0,82606.0,82643.0,82652.0,82687.0,82703.0,82708.0,82719.0,82920.0,83005.0,0.10983035880088723,-0.27568679464614554,0.07132636211886743,-0.15171050530351782,0.04608719682902013
95,95,83326.22686847797,5459.310683253664,19.053852673076925,83375.5903760036,-1307.839488555291,1.955646673211692,83436.69728381216,34957.34886333482,6.960495009551798,83454.44938664818,-7929.527652233297,4.801607080870771,83703.89522650844,10392.021308956004,38.74247522133892,0.967847114929218,65.0,27.0,87.0,284.0,371.0,38.0,739.0,743.0,45.0,20.0,25.0,0.4444444444444444,370.4935814352157,5926.486360791885,5.0,3.0,2.0,0.6,441.6982473354018,1594.3813730657198,17.0,9.0,8.0,0.5294117647058824,2395.5550848462303,30964.228394264715,10.0,4.0,6.0,0.4,1660.3154595370977,22220.260702615615,97.0,48.0,49.0,0.4948453608247423,429.81922727085913,9210.443873898264,0.0,0.0,0.0,0.0,83308.0,83346.0,83373.0,83378.0,83428.0,83445.0,83450.0,83460.0,83665.0,83744.0,0.06786453509079415,-0.33773123628750895,0.06852793941015417,-0.20938390435771811,0.041360502879303596
96,96,84242.47940829814,4600.480948314028,15.241885810073228,84286.84932180027,-2573.43791489982,5.095930801728113,84348.80737407506,33941.29394297796,6.99965102871633,84366.12540938439,-10025.890912530294,6.554561919760972,84619.66188352993,8385.943137703658,32.988057044439785,0.944691117826195,55.0,21.0,94.0,279.0,373.0,34.0,919.0,911.0,38.0,17.0,21.0,0.4473684210526316,404.3307688562989,4585.380182183492,8.0,7.0,1.0,0.875,419.77787969666986,2263.1985630564764,16.0,8.0,8.0,0.5,2616.426297832048,28567.690835942736,15.0,5.0,10.0,0.3333333333333333,1714.9847571424518,25560.721237569545,86.0,45.0,41.0,0.5232558139534884,398.703457223189,8416.838486942406,0.0,0.0,0.0,0.0,84227.0,84261.0,84282.0,84288.0,84341.0,84357.0,84362.0,84376.0,84583.0,84655.0,0.08788880410524838,-0.16311948979465127,0.07708681649638036,-0.17105559716384655,0.04754425956343497
97,97,85087.42466090013,2610.240074994235,2.547965399325124,85160.30135639943,-4665.06864333534,10.191861603456228,85199.0517799918,35171.81882964469,7.1957811731933035,85212.30135639943,-14467.38551711832,8.88323095541859,85466.71635752977,7159.432425629505,28.28537067190695,0.8869490685741249,62.0,59.0,77.0,266.0,343.0,3.0,839.0,850.0,3.0,2.0,1.0,0.6666666666666666,493.8015272610254,4264.120596130098,39.0,33.0,6.0,0.8461538461538461,579.3246355160259,2447.1876043289,15.0,9.0,6.0,0.6,2567.1934577438938,22993.829446453132,16.0,2.0,14.0,0.125,1957.6151387754835,26766.812904357277,70.0,36.0,34.0,0.5142857142857142,540.4176240004604,7286.025809802833,0.0,0.0,0.0,0.0,85085.0,85088.0,85147.0,85166.0,85191.0,85205.0,85210.0,85224.0,85450.0,85490.0,0.18917858628851067,-0.12418351793036674,0.07299006827534679,-0.1353122951247248,0.0754833053617296
98,98,85824.72601729959,6110.838492455196,7.64389620259217,85892.57533909987,-1324.4444280749087,1.7207151320775187,85928.12330450071,31848.037607266822,7.126147155779518,85945.15759986045,-9782.22991614547,5.346287470069009,86194.80813839656,10407.464100946703,38.65435928207758,0.928607096791231,70.0,51.0,72.0,277.0,349.0,19.0,739.0,728.0,20.0,15.0,5.0,0.75,540.3489988505377,6071.602515955601,8.0,7.0,1.0,0.875,602.1610520550977,1570.2782551404616,16.0,8.0,8.0,0.5,2423.3989509744306,27959.24027096209,13.0,4.0,9.0,0.3076923076923077,1611.8687168875765,21719.69246231892,80.0,43.0,37.0,0.5375,719.7079281177272,11121.535958885335,0.0,0.0,0.0,0.0,85810.0,85829.0,85880.0,85894.0,85921.0,85936.0,85941.0,85952.0,86162.0,86229.0,0.0884246899206524,-0.4546518066676032,0.07609256748746991,-0.16477518221353638,0.06915305410971917
99,99,86704.42466090013,4395.90200636286,2.5479654008640567,86778.30135639943,-2358.12750172014,10.191861603456228,86818.87134310733,33913.70057124289,7.045070454638173,86834.81397461466,-9161.905555402243,7.7127226211673,87096.35610379743,8484.662047111366,32.679492001109026,0.90534879127184,73.0,69.0,68.0,278.0,346.0,4.0,878.0,891.0,4.0,1.0,3.0,0.25,434.3924520490763,6684.018964519573,19.0,13.0,6.0,0.6842105263157895,610.5707374149733,1013.1409639536791,16.0,9.0,7.0,0.5625,2263.1108117579965,26128.780011757022,13.0,4.0,9.0,0.3076923076923077,1677.143071965426,24208.295476607145,76.0,45.0,31.0,0.5921052631578947,585.2560016334577,8871.90872352914,0.0,0.0,0.0,0.0,86703.0,86707.0,86776.0,86784.0,86811.0,86826.0,86831.0,86844.0,87060.0,87122.0,0.09881759225303789,-0.25892185090483505,0.06673146172898044,-0.183056140649312,0.06897811584996602
100,100,87561.30135639943,5690.308650157544,10.191861603456228,87629.15067819973,-2731.749872767752,2.9339186749754225,87665.12330450071,34163.309078234255,6.947273568789348,87682.27398270041,-9224.218206866664,5.473467018109188,87934.65657419909,9137.50133028513,33.95310604119948,0.9352382199003768,65.0,54.0,67.0,279.0,346.0,11.0,859.0,846.0,40.0,22.0,18.0,0.55,457.5343662702859,4127.027475560677,9.0,6.0,3.0,0.6666666666666666,651.1227895601324,2125.9132969427783,17.0,8.0,9.0,0.4705882352941176,2532.6390676945166,29756.9059602068,13.0,4.0,9.0,0.3076923076923077,1787.1651886185086,25051.11995194044,78.0,37.0,41.0,0.4743589743589743,538.3813881783213,9731.854013167514,0.0,0.0,0.0,0.0,87559.0,87570.0,87624.0,87632.0,87658.0,87674.0,87678.0,87691.0,87905.0,87970.0,0.0804058961296622,-0.23835373657414263,0.07413330663884908,-0.19374706327828548,0.05891997918445409
101,101,88402.84932180027,4511.324694219493,5.095930801728022,88475.30135639943,-3089.2997292131886,10.19186160345515,88517.62328687585,35021.13590702233,7.053739647540217,88531.87669549929,-13422.895145435545,9.03197268130224,88783.6464015758,7278.503180162692,26.468634302708864,0.8918292397297886,73.0,69.0,68.0,267.0,335.0,4.0,839.0,853.0,37.0,14.0,23.0,0.3783783783783784,506.27995203237344,4120.648123228697,19.0,13.0,6.0,0.6842105263157895,667.7910550892066,1708.2027065652549,15.0,9.0,6.0,0.6,2386.157258804912,21564.890676121777,12.0,3.0,9.0,0.25,1867.617342066325,28973.48935895229,77.0,38.0,39.0,0.4935064935064935,597.6434129179748,6220.556680220325,0.0,0.0,0.0,0.0,88400.0,88404.0,88473.0,88481.0,88509.0,88524.0,88529.0,88541.0,88766.0,88808.0,0.11222423264747192,-0.2161625978775733,0.06813477624312143,-0.13913670052778504,0.08211075795732717
102,102,89239.30135639943,3867.65217333001,10.191861603456228,89294.30135639943,-2302.236484770691,10.191861603456228,89342.93052783994,31639.6602696132,7.0847987690087795,89358.0426039301,-10835.563083131598,8.115201535136878,89608.53415569612,9050.015626016637,35.565663757128554,0.946207716940716,54.0,45.0,78.0,279.0,357.0,9.0,839.0,825.0,36.0,20.0,16.0,0.5555555555555556,420.9807914079756,2916.586415394626,19.0,13.0,6.0,0.6842105263157895,420.5143956038573,1438.6162794428292,16.0,9.0,7.0,0.5625,2413.9774299112514,24337.630171419383,13.0,3.0,10.0,0.2307692307692307,1682.7879388879894,26571.945346901062,79.0,41.0,38.0,0.5189873417721519,414.66816575842006,9374.671197807074,0.0,0.0,0.0,0.0,89236.0,89245.0,89290.0,89300.0,89335.0,89350.0,89355.0,89368.0,89576.0,89647.0,0.10884660060977389,-0.18265473524790468,0.07629593394305946,-0.155302306486286,0.04581960771054892
103,103,90055.03092570626,4947.050695964525,15.468028703405505,90103.44001776632,-1989.970532853432,2.0018648243639503,90163.1042099969,33197.93547913839,7.246199371700324,90178.84932180028,-9962.54233248254,5.095930801728113,90431.07887739954,9031.048059182698,34.63660232464029,0.9598202311851868,57.0,28.0,87.0,285.0,372.0,29.0,819.0,822.0,40.0,20.0,20.0,0.5,399.2492931692449,3430.2898069198773,5.0,2.0,3.0,0.4,378.2548148122327,2525.6510798024938,16.0,8.0,8.0,0.5,2407.3755720433305,28717.428692691417,12.0,3.0,9.0,0.25,1604.6892479819371,24227.339702828773,87.0,44.0,43.0,0.5057471264367817,406.245753571402,8962.96341170235,0.0,0.0,0.0,0.0,90044.0,90073.0,90101.0,90106.0,90155.0,90171.0,90176.0,90188.0,90396.0,90473.0,0.08070450814157329,-0.19008061102786816,0.0725158217611492,-0.16107226392904758,0.04498323460457444
104,104,90915.027373699,4316.971397213306,14.74348623696525,90955.69864360055,-2762.6608625960757,10.191861603456228,91017.75357899057,34562.82968747711,6.894528585260324,91034.6531769437,-9738.730928687495,6.846671876930737,91287.84382297784,8701.058777158645,31.46255526467926,0.9444405309119114,53.0,25.0,92.0,282.0,374.0,28.0,858.0,855.0,35.0,19.0,16.0,0.5428571428571428,352.7110495510591,4266.510472694517,9.0,7.0,2.0,0.7777777777777778,347.54001336508986,2503.826046812976,16.0,9.0,7.0,0.5625,2605.7629186155013,30235.70138715516,13.0,5.0,8.0,0.3846153846153846,1701.2657253774375,25673.818966901355,71.0,34.0,37.0,0.4788732394366197,442.6595187289402,9710.825817497802,0.0,0.0,0.0,0.0,90897.0,90925.0,90950.0,90958.0,91009.0,91025.0,91031.0,91042.0,91262.0,91324.0,0.08170335568559509,-0.12579901430192417,0.07539205968311176,-0.17469070023959682,0.05087421313495504
105,105,91777.1676381943,3862.718282887348,0.7553379737049072,91839.30135639945,-6588.076159256791,10.191861603456228,91878.4886189098,32038.22179803582,6.481756303082204,91895.69864360055,-13470.91752580921,10.191861603456228,92148.95376151503,6600.563211998098,24.455631143663716,0.8096454362621476,61.0,58.0,68.0,269.0,337.0,3.0,859.0,859.0,3.0,1.0,2.0,0.3333333333333333,575.0678928753423,2607.7332028182404,12.0,2.0,10.0,0.1666666666666666,484.34058706680537,4506.884707237037,13.0,7.0,6.0,0.5384615384615384,2633.186127659227,23228.288554032173,16.0,6.0,10.0,0.375,1757.3489793821286,26986.520216421755,62.0,28.0,34.0,0.4516129032258064,480.324248070082,5747.913729091491,0.0,0.0,0.0,0.0,91776.0,91779.0,91837.0,91849.0,91871.0,91884.0,91890.0,91905.0,92124.0,92174.0,0.14887647784799987,-0.07351775774271627,0.08218889750681048,-0.1304550321843473,0.07277019136745454
106,106,92596.84932180028,4200.013261998481,5.095930801728113,92670.7260172996,-2509.0827672520627,7.64389620259217,92708.81820317944,31568.84904239056,7.004775257624301,92724.94719648288,-10734.114308414852,7.815874988270707,92988.63008649784,8816.604981206301,31.763549821627674,0.8896779390555204,73.0,69.0,68.0,275.0,343.0,4.0,819.0,830.0,36.0,13.0,23.0,0.3611111111111111,490.20009792159107,3797.7670310778776,19.0,15.0,4.0,0.7894736842105263,616.9955306412703,3321.984326949653,16.0,8.0,8.0,0.5,2420.258554756055,24758.9673220027,14.0,4.0,10.0,0.2857142857142857,1704.129162767636,26093.86023399257,84.0,55.0,29.0,0.6547619047619048,567.2116864670008,8465.332798104178,0.0,0.0,0.0,0.0,92594.0,92598.0,92667.0,92675.0,92701.0,92717.0,92721.0,92735.0,92943.0,93010.0,0.11671394049083086,-0.24590481378061566,0.07666603719084401,-0.1587582462608684,0.06433447882445495
107,107,93454.1506781999,5400.450456391786,5.095930801728113,93517.30135639945,-2620.133793092235,10.191861603456228,93557.12330450072,32438.137100008906,6.811480515519485,93574.2739827004,-9820.85072211422,4.83771631929013,93827.5780000412,8781.98558087749,31.14581976213982,0.9136782528987372,62.0,58.0,68.0,275.0,343.0,4.0,859.0,848.0,11.0,3.0,8.0,0.2727272727272727,599.6963662954175,5675.6560085919045,14.0,2.0,12.0,0.1428571428571428,447.6458918077644,1294.003156381805,16.0,7.0,9.0,0.4375,2457.5059252865135,28556.91519832592,14.0,4.0,10.0,0.2857142857142857,1667.3032797780872,24625.39443534136,78.0,38.0,40.0,0.4871794871794871,640.0927150166627,8980.168761535037,0.0,0.0,0.0,0.0,93453.0,93457.0,93515.0,93529.0,93550.0,93566.0,93570.0,93583.0,93799.0,93858.0,0.11104561946043551,-0.17084848605363037,0.07575977367966173,-0.16977177710518668,0.07288701502886151
108,108,94314.2739827004,4615.639664726298,7.64389620259217,94387.30135639945,-2280.509216921429,10.191861603456228,94424.3594189053,34923.29250156733,7.121146857805562,94439.61320126522,-11628.12951324708,7.643896167922367,94693.56872331274,9038.128706868853,32.0811279813099,0.9167997146130658,74.0,67.0,64.0,280.0,344.0,7.0,858.0,869.0,9.0,5.0,4.0,0.5555555555555556,482.0993730333441,4769.2552877315575,19.0,13.0,6.0,0.6842105263157895,583.7028048590607,1364.403959549271,15.0,8.0,7.0,0.5333333333333333,2647.8811985251714,29649.60659307551,11.0,3.0,8.0,0.2727272727272727,1920.1845797058727,30006.311031776335,80.0,39.0,41.0,0.4875,481.9594907495419,8588.4484168803,0.0,0.0,0.0,0.0,94310.0,94317.0,94384.0,94393.0,94416.0,94431.0,94437.0,94448.0,94671.0,94728.0,0.10444909222824525,-0.25595283743120745,0.07581991870916342,-0.16513271352183911,0.05332514134073565
109,109,95191.15067819972,5641.250623983348,5.095930801728113,95254.30135639945,-2526.408741339961,10.191861603456228,95292.6153803587,31276.53747610081,6.964141141797889,95309.59438234616,-12727.381638966806,7.643896202581422,95565.00799018484,9227.36225833721,30.48598761031387,0.8778422030118863,63.0,58.0,60.0,287.0,347.0,5.0,879.0,868.0,38.0,23.0,15.0,0.6052631578947368,572.9208812050375,3787.361190369365,9.0,2.0,7.0,0.2222222222222222,531.4993031144456,2598.3499581977276,14.0,8.0,6.0,0.5714285714285714,2692.8657630937128,23915.70599212727,7.0,5.0,2.0,0.7142857142857143,1894.3517264256704,27466.067822655765,75.0,35.0,40.0,0.4666666666666667,415.2471656204706,9187.333409468683,0.0,0.0,0.0,0.0,95189.0,95194.0,95252.0,95261.0,95285.0,95298.0,95305.0,95312.0,95531.0,95599.0,0.1015591966024888,-0.21037740030639226,0.08609858956258823,-0.14884064768088873,0.045001719234040234
110,110,96014.59789608124,4472.581779311378,15.427880492235303,96065.7260172996,-1487.4588105065234,7.64389620259217,96122.14609447982,31453.93069959373,7.0090282817147305,96139.24281351014,-10350.189830179,6.100545526066496,96388.8942565346,9181.272821449698,34.410234261248974,0.9510971990259544,65.0,37.0,84.0,278.0,362.0,28.0,819.0,830.0,39.0,19.0,20.0,0.4871794871794871,401.014829559928,3764.302788047454,15.0,10.0,5.0,0.6666666666666666,369.57833221454,2219.325123439001,14.0,7.0,7.0,0.5,2416.8836516436777,28200.78414387925,13.0,4.0,9.0,0.3076923076923077,1678.7549582614806,25982.159723038123,85.0,40.0,45.0,0.4705882352941176,490.20408906604024,8662.195896657922,0.0,0.0,0.0,0.0,95999.0,96027.0,96064.0,96070.0,96115.0,96129.0,96135.0,96148.0,96358.0,96426.0,0.08966070367117362,-0.24846290169788818,0.07683884328246755,-0.16219557184995587,0.053391735394334824
111,111,96847.027373699,4319.787124561372,13.608206525853584,96915.7260172996,-2090.8706498637907,7.64389620259217,96953.9719903258,33402.40218471968,7.036591447911215,96970.67587054064,-9329.967811080658,6.529097607826559,97223.33086109153,9126.315980598243,32.35980689878401,0.9515618710081732,72.0,53.0,68.0,284.0,352.0,19.0,839.0,831.0,29.0,10.0,19.0,0.3448275862068966,472.35749386803064,4015.767026244765,14.0,6.0,8.0,0.4285714285714285,448.5414462132098,1446.475197332947,16.0,8.0,8.0,0.5,2335.618393878314,28371.47441900128,11.0,4.0,7.0,0.3636363636363636,1573.015423969306,24347.987902065295,77.0,37.0,40.0,0.4805194805194805,456.6068278521007,10084.431469737016,0.0,0.0,0.0,0.0,96838.0,96857.0,96910.0,96920.0,96946.0,96962.0,96967.0,96978.0,97188.0,97262.0,0.10934740075090933,-0.21452376608874868,0.069923665398735,-0.1685981619466176,0.05003188897062158
112,112,97698.74344272932,4462.357048017121,14.497514258087811,97746.2739827004,-2436.026890093472,7.64389620259217,97809.44236157172,35354.7363751142,7.061298813408414,97825.11972231964,-10402.419831599567,7.643896150616953,98078.14932517304,9598.08660590734,35.22444288322827,0.938460097161602,55.0,29.0,92.0,287.0,379.0,26.0,850.0,856.0,29.0,12.0,17.0,0.4137931034482758,474.50641238242775,5079.288168079989,7.0,5.0,2.0,0.7142857142857143,408.77405644802144,1883.2354718147217,15.0,8.0,7.0,0.5333333333333333,2609.040245681036,30138.791030680888,12.0,3.0,9.0,0.25,1795.6441926865875,28488.384925964743,87.0,42.0,45.0,0.4827586206896552,510.2670056546919,10560.922914711557,0.0,0.0,0.0,0.0,97687.0,97713.0,97742.0,97748.0,97801.0,97816.0,97822.0,97834.0,98044.0,98121.0,0.1063353755148925,-0.16780358957053076,0.07379605996772501,-0.17261793138092116,0.05316340918831026
113,113,98566.15067819972,5457.135242980007,5.095930801728113,98630.30135639945,-2700.152305223015,10.191861603456228,98669.12330450072,30387.84275570706,6.660967520699649,98687.69864360055,-11552.051846246291,6.6235174738595965,98933.36991350216,8055.5008690433,29.40019627837145,0.8851168112318614,63.0,57.0,67.0,274.0,341.0,6.0,867.0,858.0,37.0,21.0,16.0,0.5675675675675675,526.2777858210832,3699.268488306015,8.0,2.0,6.0,0.25,512.6292340584802,2849.611171369923,15.0,7.0,8.0,0.4666666666666667,2416.9977399761287,25278.201195543596,14.0,6.0,8.0,0.4285714285714285,1567.3374701614764,23443.588291122174,84.0,38.0,46.0,0.4523809523809524,651.2842425535056,6806.999872587405,0.0,0.0,0.0,0.0,98565.0,98571.0,98628.0,98636.0,98662.0,98677.0,98682.0,98695.0,98912.0,98969.0,0.0964384722731731,-0.18985196985624866,0.0795383127195562,-0.13567611113784647,0.08084962724743079
114,114,99386.84932180028,4412.346639600839,5.095930801728113,99460.30135639945,-2578.9682066317337,10.191861603456228,99500.53376002007,34281.63016267832,7.120605649151732,99514.30135639945,-11117.178241745512,9.416398867901972,99778.20542559771,8571.225711985015,30.47605347784174,0.8862498216596498,74.0,70.0,67.0,276.0,343.0,4.0,819.0,832.0,28.0,6.0,22.0,0.2142857142857142,478.9620834441725,4431.811271813284,19.0,13.0,6.0,0.6842105263157895,632.3273829831486,1969.9623910830503,16.0,9.0,7.0,0.5625,2208.454500491949,21275.04005511604,14.0,2.0,12.0,0.1428571428571428,1770.122422818647,25078.729768144403,75.0,45.0,30.0,0.6,535.2854240613701,7590.208189692852,0.0,0.0,0.0,0.0,99384.0,99388.0,99458.0,99466.0,99492.0,99507.0,99512.0,99525.0,99742.0,99801.0,0.10855042057337128,-0.24518618777739837,0.0644209301019835,-0.15922407505996047,0.062451444174768216
115,115,100263.7260172996,5708.2775442984475,7.64389620259217,100319.9240929662,-1750.3698525091268,7.64389620259217,100365.12715958752,33632.98304223775,6.976841846407728,100382.2739827004,-9337.45192421188,6.268065533104636,100634.14207765656,9381.584013754536,35.11295144979572,0.9262205197480698,66.0,50.0,67.0,284.0,351.0,16.0,879.0,866.0,23.0,15.0,8.0,0.6521739130434783,569.5103795245069,5058.276003045632,7.0,3.0,4.0,0.4285714285714285,614.9728600263545,3064.0309830662127,15.0,8.0,7.0,0.5333333333333333,2629.004635916994,31276.202676846468,7.0,4.0,3.0,0.5714285714285714,1833.587170481052,25024.808423894672,85.0,42.0,43.0,0.4941176470588235,611.5700069881867,9957.871388041762,0.0,0.0,0.0,0.0,100252.0,100268.0,100318.0,100324.0,100357.0,100372.0,100378.0,100385.0,100603.0,100669.0,0.09976921673918016,-0.35133880942064954,0.0781674534374598,-0.19636911497520929,0.0651883526376304
116,116,101143.15067819972,4204.471219313768,5.095930801728113,101206.30135639945,-4019.8022387534425,10.191861603456228,101246.34241100228,37208.00238635805,7.040805718693142,101260.30135639945,-12492.5782504319,10.08485447864098,101509.36991350216,8620.333750748921,32.21652169285634,0.897230355906207,62.0,56.0,68.0,278.0,346.0,6.0,879.0,879.0,8.0,1.0,7.0,0.125,495.1204906318311,4187.513220369595,12.0,2.0,10.0,0.1666666666666666,502.547477251379,2991.4754200258403,15.0,8.0,7.0,0.5333333333333333,2598.276081680104,26564.963039329483,15.0,2.0,13.0,0.1333333333333333,1855.7431288124817,28714.018231160117,88.0,39.0,49.0,0.4431818181818182,702.1351932139062,7767.0162797435105,0.0,0.0,0.0,0.0,101142.0,101148.0,101204.0,101215.0,101238.0,101253.0,101258.0,101272.0,101488.0,101550.0,0.11776046613363239,-0.1250179604375814,0.06983110930547394,-0.1485476489809719,0.08145104511213452
117,117,101982.228424841,4188.217842914276,0.7806901471685427,102056.30135639945,-5580.825875749221,10.191861603456228,102095.67350183104,35026.49162257749,6.8202840186084055,102109.87669549928,-13718.827884137618,12.739827004309763,102375.63008649784,7544.564718968463,27.6842840792418,0.8084766408967788,61.0,58.0,80.0,275.0,355.0,3.0,838.0,850.0,3.0,1.0,2.0,0.3333333333333333,525.6059717957845,5116.827741314995,20.0,14.0,6.0,0.7,649.9900014418773,3873.372568079278,16.0,9.0,7.0,0.5625,2382.5713010035556,18787.639516375493,15.0,3.0,12.0,0.2,1881.88923319958,30810.67280857673,78.0,56.0,22.0,0.717948717948718,514.1815641754906,6738.628671049353,0.0,0.0,0.0,0.0,101981.0,101984.0,102042.0,102062.0,102088.0,102103.0,102107.0,102122.0,102329.0,102397.0,0.1254963307806486,-0.11646842526772379,0.06802197966832026,-0.13717565735885592,0.06815258180273023
118,118,102819.30135639945,4379.923703100347,10.191861603456228,102876.93062304682,-1980.535691870766,7.64389620259217,102922.26536417508,32398.387984631983,7.0164080612058735,102939.51236877486,-9590.213397997704,6.806283897253208,103190.2983800684,8762.93142188861,32.59915457638446,0.9460770317438008,57.0,49.0,75.0,279.0,354.0,8.0,839.0,827.0,37.0,22.0,15.0,0.5945945945945946,463.9094360559997,3001.7559374105585,6.0,3.0,3.0,0.5,485.5229255282746,2113.9673811619587,16.0,8.0,8.0,0.5,2481.367925591088,27884.39736211097,15.0,5.0,10.0,0.3333333333333333,1587.3902513606286,22130.94104694591,86.0,42.0,44.0,0.4883720930232558,492.9628069304083,8681.85471627258,0.0,0.0,0.0,0.0,102817.0,102825.0,102874.0,102880.0,102914.0,102929.0,102935.0,102949.0,103157.0,103228.0,0.10591724137286217,-0.2451472738012923,0.07658924038961792,-0.16552189044010765,0.05625546785623065
119,119,103677.87669549928,4355.610178697477,12.011270764153888,103736.2739827004,-2506.485025078553,7.64389620259217,103782.34526857836,36611.73018798383,7.199738440800522,103796.30135639945,-10655.362392255687,9.294524722439045,104053.03197532504,8620.106868971814,30.8631743542876,0.9474546372640062,65.0,47.0,76.0,285.0,361.0,18.0,859.0,859.0,36.0,20.0,16.0,0.5555555555555556,416.6714798128777,3700.841268849029,8.0,4.0,4.0,0.5,445.1323029484818,1971.152181006658,17.0,9.0,8.0,0.5294117647058824,2529.70851203403,28469.24506545606,16.0,2.0,14.0,0.125,1738.1225910740357,25823.612241494247,77.0,37.0,40.0,0.4805194805194805,451.20450082249215,9456.406621371125,0.0,0.0,0.0,0.0,103667.0,103685.0,103732.0,103740.0,103774.0,103789.0,103794.0,103808.0,104018.0,104093.0,0.09566317065074938,-0.17759224511406424,0.06909557398804098,-0.1631218655066394,0.0523432606672904
120,120,104556.027373699,4477.671732897817,17.489336427047576,104614.67858925289,-1712.6797010180987,1.891317634286659,104654.45762504014,33073.66107745498,7.215207322936145,104671.18901173303,-11979.362380132892,5.803908981915159,104915.66511683314,10135.923156510413,37.94163371042521,0.9396630694615306,77.0,45.0,67.0,282.0,349.0,32.0,879.0,874.0,45.0,30.0,15.0,0.6666666666666666,426.1217969422202,3230.8305465923113,7.0,4.0,3.0,0.5714285714285714,352.8524709227411,110.83466695057996,16.0,8.0,8.0,0.5,2352.395559001004,27242.46344057707,11.0,4.0,7.0,0.3636363636363636,1748.4759068201597,27699.78019009609,87.0,41.0,46.0,0.4712643678160919,478.45395635174583,10177.637399348096,0.0,0.0,0.0,0.0,104534.0,104566.0,104611.0,104618.0,104646.0,104662.0,104667.0,104678.0,104885.0,104960.0,0.09516593050166426,-0.20602361942690667,0.07112594984546601,-0.14595734324891196,0.04720378686419201
121,121,105397.33976800392,3741.086300371441,0.7172805782770708,105451.30135639945,-5104.47883703041,10.191861603456228,105497.1496555012,31186.709614591127,6.673013623887522,105513.55301862728,-12173.670328115351,10.191861602930487,105768.082121097,7939.524370070149,27.78396520426299,0.8584691738370652,41.0,38.0,86.0,275.0,361.0,3.0,838.0,843.0,3.0,1.0,2.0,0.3333333333333333,511.0925366881332,2224.859783501699,20.0,14.0,6.0,0.7,617.6250565276484,3429.3480202213645,13.0,8.0,5.0,0.6153846153846154,2477.664357842346,24047.80132236909,16.0,5.0,11.0,0.3125,1744.729814597198,27003.261404490724,66.0,33.0,33.0,0.5,587.3127975956908,8903.304638110974,0.0,0.0,0.0,0.0,105396.0,105399.0,105437.0,105457.0,105489.0,105502.0,105509.0,105523.0,105744.0,105798.0,0.13661607769844505,-0.12099669256087248,0.07944616115202922,-0.14331994933095132,0.07397329741938957
122,122,106234.30135639945,5527.443673044002,10.191861603456228,106291.57181077574,-2878.0894692128336,2.271984331230442,106339.31620355688,33510.34135067523,6.929522170750725,106357.05289400772,-8688.476114524234,5.631283819869045,106608.03914927298,8867.819889905752,34.01195544295242,0.9343958680340692,57.0,46.0,75.0,279.0,354.0,11.0,839.0,842.0,40.0,22.0,18.0,0.55,444.48813235006526,4758.75369737845,6.0,3.0,3.0,0.5,551.518393519078,3043.266880615157,17.0,8.0,9.0,0.4705882352941176,2396.7537917361897,29549.92326230497,12.0,5.0,7.0,0.4166666666666667,1601.6280361551069,23252.914072460757,78.0,36.0,42.0,0.4615384615384615,638.6065452419012,9249.750117446756,0.0,0.0,0.0,0.0,106232.0,106243.0,106289.0,106295.0,106331.0,106348.0,106352.0,106364.0,106583.0,106643.0,0.08041477374391452,-0.1916265631832217,0.07152281042603868,-0.18433934962170398,0.07201392824507269
123,123,107096.04469862892,5553.795357754517,16.88558247471732,107170.63698907358,-3102.2052022807666,2.018697353914172,107206.11382147596,35525.84775658438,7.101200214224503,107222.61974033336,-10443.25479518847,6.701999758621863,107475.08742206648,8866.762728616615,34.84756347045799,0.9397238646081844,84.0,57.0,65.0,278.0,343.0,27.0,859.0,867.0,38.0,16.0,22.0,0.4210526315789473,543.8363412873891,5732.7766216312575,7.0,4.0,3.0,0.5714285714285714,524.1238004791886,1798.6003088891598,15.0,8.0,7.0,0.5333333333333333,2706.5081913830377,31401.8975484686,15.0,4.0,11.0,0.2666666666666666,1856.6857874180123,26606.342527162273,68.0,33.0,35.0,0.4852941176470588,400.3786964210088,10398.015388591648,0.0,0.0,0.0,0.0,107083.0,107110.0,107167.0,107174.0,107198.0,107213.0,107219.0,107232.0,107442.0,107510.0,0.09792156647040563,-0.168952008749727,0.07618419720558005,-0.17778803867482432,0.04515500286579514
124,124,107954.84932180028,3783.505822198325,5.095930801728113,108031.57533909989,-4699.243898309779,2.5479654008640567,108068.43198563565,35045.723406010686,7.016559641174794,108082.30135639945,-13621.23872855997,10.191861600792238,108346.63008649784,8798.612403448335,27.569277734455294,0.8793697372669103,74.0,57.0,67.0,275.0,342.0,17.0,859.0,860.0,27.0,5.0,22.0,0.1851851851851851,454.2911253048372,3290.6597996204464,7.0,6.0,1.0,0.8571428571428571,549.6197668279834,4211.53472573304,15.0,8.0,7.0,0.5333333333333333,2370.911892396196,21609.04503288807,13.0,2.0,11.0,0.1538461538461538,1882.8680555345593,28923.390421777836,67.0,37.0,30.0,0.5522388059701493,645.2357708724983,8020.72714127241,0.0,0.0,0.0,0.0,107952.0,107969.0,108026.0,108033.0,108060.0,108075.0,108080.0,108093.0,108315.0,108368.0,0.1200714751486443,-0.1169591914617733,0.06765196040979886,-0.1382303102570771,0.07333381006982632
125,125,108792.6294706099,3690.8885029581634,1.1611326807293512,108841.75712812928,-4848.846173273557,23.78079585537828,108895.03917113082,33004.26026447974,7.425044774859429,108909.30135639945,-12691.801720576528,8.475001281743703,109161.80813839656,8145.876273552623,30.836619594966344,0.8981243880904661,22.0,19.0,106.0,277.0,383.0,3.0,839.0,827.0,3.0,2.0,1.0,0.6666666666666666,511.9833400559444,1411.3338354352854,51.0,29.0,22.0,0.5686274509803921,411.0353547262734,4147.55905601187,16.0,9.0,7.0,0.5625,2363.8992889842793,23470.52203220243,13.0,2.0,11.0,0.1538461538461538,1690.3820840756268,27185.616480964243,80.0,42.0,38.0,0.525,498.28025670168887,8281.62249982819,0.0,0.0,0.0,0.0,108791.0,108794.0,108813.0,108863.0,108886.0,108902.0,108907.0,108919.0,109130.0,109196.0,0.13871547180187138,-0.08476972459796037,0.0716240651976795,-0.13318692816758257,0.06116963233525473
126,126,109628.027373699,4047.161401161689,12.569647143251355,109685.30135639945,-3304.5427504508375,10.191861603456228,109732.42943427704,35173.08553620072,7.000228813320307,109747.30135639945,-10327.240696069372,8.598169640858679,110001.24884341248,9196.184137019898,32.00412260959466,0.9397642339726876,72.0,44.0,75.0,278.0,353.0,28.0,838.0,838.0,35.0,18.0,17.0,0.5142857142857142,356.42844568192606,3327.5671162066315,20.0,14.0,6.0,0.7,423.12308598547367,2376.226517228455,15.0,8.0,7.0,0.5333333333333333,2572.98144270853,29221.383498661085,14.0,2.0,12.0,0.1428571428571428,1765.891116948827,27936.140633395054,85.0,42.0,43.0,0.4941176470588235,469.26635531937376,9547.563671639564,0.0,0.0,0.0,0.0,109610.0,109638.0,109682.0,109691.0,109724.0,109739.0,109745.0,109757.0,109969.0,110035.0,0.08806875000824468,-0.12804285431857318,0.07315199686022356,-0.1709935082292542,0.05102837745824471
127,127,110477.15052878908,4898.256443437239,15.460103621648278,110544.30135639945,-1785.929167373757,10.191861603456228,110586.48399466363,34862.29885041016,6.851955598460676,110604.06508335948,-10334.27088590036,5.691698490405483,110860.2327992967,9496.215798843776,33.361364814306036,0.9488694176724818,76.0,47.0,68.0,283.0,351.0,29.0,851.0,856.0,48.0,23.0,25.0,0.4791666666666667,422.885350073186,3865.8456025279866,9.0,3.0,6.0,0.3333333333333333,474.21180549892296,373.3781256489822,16.0,8.0,8.0,0.5,2492.6158145584905,30182.18913543439,10.0,4.0,6.0,0.4,1764.2883624264623,26044.36550145473,77.0,43.0,34.0,0.5584415584415584,496.60624661724734,10190.668916838207,0.0,0.0,0.0,0.0,110466.0,110495.0,110542.0,110550.0,110578.0,110594.0,110600.0,110610.0,110817.0,110893.0,0.08633385265889344,-0.26552665926625774,0.07149889412783703,-0.17072209369251026,0.0522951728495589
128,128,111323.92974052083,4976.749906121917,17.179012789123167,111374.33433549854,-1607.117377236527,2.1696341598859137,111433.06153602595,32613.98601763893,7.384886971694472,111448.87747640663,-12131.821230306412,5.735912391543811,111697.80235216956,8814.40934284075,36.76761457754081,0.9429003866519594,59.0,28.0,85.0,279.0,364.0,31.0,847.0,845.0,39.0,18.0,21.0,0.4615384615384615,427.74165641155855,3903.560317813966,5.0,2.0,3.0,0.4,384.6077647954826,1258.6177124645849,16.0,8.0,8.0,0.5,2414.562892272918,26711.134037306536,11.0,3.0,8.0,0.2727272727272727,1780.6270243274917,26668.50326148172,85.0,41.0,44.0,0.4823529411764706,490.5210709750588,9541.17315346259,0.0,0.0,0.0,0.0,111313.0,111344.0,111372.0,111377.0,111425.0,111441.0,111446.0,111457.0,111667.0,111736.0,0.0859479910544414,-0.23931529223884312,0.07403458414948197,-0.14677326598576318,0.05564990822368267
129,129,112167.57533909989,3876.704162083428,2.547965400627945,112222.30135639945,-3345.588555528532,10.191861603456228,112265.97628176249,33550.90308280622,7.042671767909262,112280.87669549928,-10729.263971436014,9.06253409794886,112540.20542559771,8159.437195894784,30.633602917415583,0.8968468028050783,54.0,51.0,68.0,275.0,343.0,3.0,839.0,833.0,3.0,2.0,1.0,0.6666666666666666,624.0415833550028,4000.868196107629,20.0,14.0,6.0,0.7,586.9348824547143,1922.00527946499,16.0,9.0,7.0,0.5625,2328.6772304908345,25146.82728116346,10.0,3.0,7.0,0.3,1757.0131602302897,26477.51327848222,75.0,45.0,30.0,0.6,601.2810385906704,8799.423575068009,0.0,0.0,0.0,0.0,112166.0,112169.0,112220.0,112228.0,112257.0,112272.0,112278.0,112288.0,112505.0,112563.0,0.16097219629460424,-0.1754354645566962,0.06940728911956497,-0.16375896472562315,0.07369148437017076
130,130,113007.84932180028,4019.3543196432383,5.095930801728113,113081.7260172996,-4162.414164401913,7.64389620259217,113120.1110599426,36942.31215252209,6.968000999579848,113134.30135639945,-10528.887615757109,9.446685929125946,113400.054747398,8086.792671848836,29.875027812102637,0.8880360263976169,73.0,68.0,68.0,274.0,342.0,5.0,839.0,854.0,17.0,3.0,14.0,0.1764705882352941,559.0689991264425,3863.627357329373,8.0,4.0,4.0,0.5,582.6964193498694,5192.750547762593,17.0,9.0,8.0,0.5294117647058824,2527.435510862604,28582.60565666815,14.0,2.0,12.0,0.1428571428571428,1762.581433215021,26934.126159462314,84.0,55.0,29.0,0.6547619047619048,696.8236861332374,7289.76757961844,0.0,0.0,0.0,0.0,113005.0,113010.0,113078.0,113086.0,113112.0,113128.0,113132.0,113146.0,113364.0,113420.0,0.13909423122867803,-0.13999001452888715,0.06841573695841487,-0.16740433534281557,0.08616811564354433
131,131,113865.84932180028,4949.643006312466,5.095930801728113,113939.7260172996,-2335.1768029409463,7.64389620259217,113982.6129062192,34404.13140425073,7.019705302404505,113999.52634621372,-11472.871827295028,6.069930422334483,114249.39195271378,9068.354572858483,34.313978948984165,0.9213505193900052,75.0,50.0,67.0,282.0,349.0,25.0,858.0,864.0,26.0,3.0,23.0,0.1153846153846153,414.83113076279545,6726.0034032228605,7.0,2.0,5.0,0.2857142857142857,565.1008120873544,2725.471781917204,16.0,9.0,7.0,0.5625,2538.781055916364,28078.267132178655,9.0,4.0,5.0,0.4444444444444444,1969.825133257709,28535.02327679076,88.0,39.0,49.0,0.4431818181818182,539.3000419772093,8085.080708717445,0.0,0.0,0.0,0.0,113863.0,113888.0,113938.0,113945.0,113974.0,113990.0,113996.0,114005.0,114221.0,114287.0,0.08381031323546884,-0.24199487224079155,0.0737929124291942,-0.17169416366801135,0.05947055087494375
132,132,114704.84932180028,5761.013009006062,5.095930801728113,114761.69864360055,-2176.9267662604707,10.191861603456228,114812.85849266346,33305.65167729063,7.33718471883545,114827.47879444784,-12818.147952951696,7.643896192433861,115079.272193005,8452.304119841228,33.27815244197606,0.9142587274667996,53.0,37.0,80.0,282.0,362.0,16.0,839.0,830.0,16.0,3.0,13.0,0.1875,529.1689182732041,5791.778825714384,9.0,7.0,2.0,0.7777777777777778,455.3654168698536,2390.546748994797,16.0,10.0,6.0,0.625,2421.8333135712214,24525.482373194813,11.0,2.0,9.0,0.1818181818181818,1765.1338091369068,28837.89514661932,86.0,39.0,47.0,0.4534883720930232,497.07856324714015,6055.302507162002,0.0,0.0,0.0,0.0,114702.0,114718.0,114755.0,114764.0,114803.0,114819.0,114825.0,114835.0,115049.0,115117.0,0.09185344963567453,-0.20917810554191554,0.07271538587616173,-0.13770583828613409,0.05880982939081438
133,133,115424.2739827004,5097.502149097118,7.643896202592066,115480.21010612862,-809.6137470283329,1.12958114210814,115539.41017237144,35706.129933928445,7.3887011637853774,115556.093150926,-7852.338284996734,3.915945688363964,115797.978222863,10450.16158825109,47.36504701165523,0.9352612823706282,58.0,30.0,85.0,283.0,368.0,28.0,719.0,727.0,29.0,5.0,24.0,0.1724137931034483,449.70538696088886,6447.4598244026865,5.0,2.0,3.0,0.4,326.399476562093,325.3917024330673,17.0,8.0,9.0,0.4705882352941176,2341.1216096793887,32629.24827770215,9.0,2.0,7.0,0.2222222222222222,1625.4119872295,22285.60588636196,104.0,47.0,57.0,0.4519230769230769,405.61734117853376,10433.535036731251,0.0,0.0,0.0,0.0,115420.0,115448.0,115478.0,115485.0,115531.0,115548.0,115554.0,115563.0,115761.0,115846.0,0.08822073513800123,-0.403154563222443,0.0655663779303851,-0.20699719347740456,0.0388144563845368
134,134,116340.30135639945,5310.379105600771,10.191861603456228,116396.7260172996,-1452.4285495260167,6.123258445798281,116437.73322643214,34839.559722975726,7.039024976092667,116454.8278183794,-9478.331376526015,5.419224714510079,116711.38347749642,9337.552386226404,33.914470205171895,0.952255449363642,74.0,48.0,67.0,286.0,353.0,26.0,919.0,898.0,45.0,30.0,15.0,0.6666666666666666,453.6766683921152,2784.8714383669744,7.0,3.0,4.0,0.4285714285714285,515.8816256827375,1364.12930835389,17.0,9.0,8.0,0.5294117647058824,2415.6407190220502,29558.093595047496,10.0,4.0,6.0,0.4,1721.110956621087,24781.129883354904,79.0,42.0,37.0,0.5316455696202531,496.24780597679234,9063.235517009518,0.0,0.0,0.0,0.0,116320.0,116346.0,116394.0,116401.0,116429.0,116446.0,116451.0,116461.0,116670.0,116747.0,0.08543206791274652,-0.3551855448249689,0.06933614368923847,-0.18158375016129752,0.05314538387048788
135,135,117179.30135639945,3921.004593092765,10.191861603456228,117246.30135639945,-3299.7465061059625,10.191861603456228,117286.5534381441,36912.12078821661,7.1741923645309305,117300.30135639945,-13239.96576777756,8.907210669920346,117554.41291395844,8709.952978087169,31.29380553470528,0.9372079035619182,64.0,56.0,69.0,284.0,353.0,8.0,839.0,848.0,31.0,14.0,17.0,0.4516129032258064,423.7910967091906,3302.5063821694625,17.0,5.0,12.0,0.2941176470588235,547.9758875937131,1024.8427162470311,16.0,9.0,7.0,0.5625,2425.32410045694,23652.983477118058,14.0,2.0,12.0,0.1428571428571428,1772.3440447799785,28421.073713693386,79.0,38.0,41.0,0.4810126582278481,419.11335629402026,8490.571710153135,0.0,0.0,0.0,0.0,117177.0,117185.0,117241.0,117252.0,117278.0,117293.0,117298.0,117310.0,117522.0,117594.0,0.10808227500058028,-0.16606605585602408,0.06570535771629712,-0.13386318936665056,0.048118899992737225
136,136,117914.90406919828,4729.824234895919,13.455795471434476,118056.05014381536,3032.7602853086373,215.15009161863927,118020.2188037754,32487.382567074867,6.913599805037582,118037.51058984891,-11388.312270280418,5.0565041222526785,118288.80813839656,10176.749185236717,35.26942441859041,0.9418712245418246,-150.0,-185.0,293.0,283.0,576.0,35.0,739.0,734.0,55.0,37.0,18.0,0.6727272727272727,480.0549202141089,4974.5924000401665,25.0,6.0,19.0,0.24,540.580947146791,5863.39845970326,17.0,8.0,9.0,0.4705882352941176,2565.383552595017,32084.392934952513,9.0,4.0,5.0,0.4444444444444444,1745.2977982481573,21865.86085123488,83.0,46.0,37.0,0.5542168674698795,603.7914292991071,12822.95196723634,0.0,0.0,0.0,0.0,117897.0,117932.0,117747.0,118355.0,118012.0,118029.0,118034.0,118040.0,118246.0,118323.0,0.10149529800121053,0.17824717296829717,0.07896553522889739,-0.15325341954336683,0.05933048150336846
