Unnamed: 0,cycle,p_center,p_height,p_width,q_center,q_height,q_width,r_center,r_height,r_width,s_center,s_height,s_width,t_center,t_height,t_width,r_squared,pr_interval,pr_segment,qrs_duration,st_segment,qt_interval,p_duration,pp_interval,rr_interval,fwhm_p,rise_time_p,decay_time_p,rise_decay_symmetry_p,sharpness_deriv_p,sharpness_diff_p,fwhm_q,rise_time_q,decay_time_q,rise_decay_symmetry_q,sharpness_deriv_q,sharpness_diff_q,fwhm_r,rise_time_r,decay_time_r,rise_decay_symmetry_r,sharpness_deriv_r,sharpness_diff_r,fwhm_s,rise_time_s,decay_time_s,rise_decay_symmetry_s,sharpness_deriv_s,sharpness_diff_s,fwhm_t,rise_time_t,decay_time_t,rise_decay_symmetry_t,sharpness_deriv_t,sharpness_diff_t,Average_Heart_Rate,SDNN,RMSSD,NN50,p_on,p_off,q_on,q_off,r_on,r_off,s_on,s_off,t_on,t_off,sharpness_deriv_p_norm,sharpness_deriv_q_norm,sharpness_deriv_r_norm,sharpness_deriv_s_norm,sharpness_deriv_t_norm
0,0,0.0,0.0,0.0,0.0,0.0,0.0,0.0,0.0,0.0,0.0,0.0,0.0,0.0,0.0,0.0,0.0,0.0,0.0,0.0,0.0,0.0,0.0,0.0,0.0,0.0,0.0,0.0,0.0,0.0,0.0,0.0,0.0,0.0,0.0,0.0,0.0,0.0,0.0,0.0,0.0,0.0,0.0,0.0,0.0,0.0,0.0,0.0,0.0,0.0,0.0,0.0,0.0,0.0,0.0,70.86884508439539,354.28707065458576,525.9873461111712,593.0,,,,,,,,,,,,,,,
1,1,2429.1307308752903,3388.1854789386607,11.88086917783992,2526.7533909985605,-3723.173614732368,25.47965400864057,2565.3143849777,39577.182932470074,9.701325023262688,2587.0273736989925,-9824.900260356631,17.835757770596807,2801.473803909443,14252.230014122251,30.139603783643484,0.9552950718827028,54.0,21.0,136.0,237.0,373.0,33.0,,,33.0,16.0,17.0,0.4848484848484848,101.16117552617736,3295.5649391186826,75.0,61.0,14.0,0.8133333333333334,98.99626460532733,2179.133222921697,22.0,11.0,11.0,0.5,1840.1476741788372,30420.067946755364,21.0,4.0,17.0,0.1904761904761904,1307.3446625568715,23550.87918367872,79.0,39.0,40.0,0.4936708860759494,77.16464808296823,14224.382738628512,0.0,0.0,0.0,0.0,2413.0,2446.0,2467.0,2541.0,2554.0,2576.0,2583.0,2603.0,2763.0,2840.0,0.029857035913472423,-0.026589215236594185,0.04649516559373749,-0.13306442079946534,0.00541421574073021
2,2,3281.9523589172177,3464.1257662813236,11.682707476950926,3379.7533909985605,-3826.916731316533,25.47965400864057,3417.649979062416,40297.246611924056,9.73740117897948,3439.0273736989925,-9953.888546161072,17.835757806048374,3654.473027830605,14096.228629325456,29.939869586669793,0.9572510394954384,53.0,20.0,136.0,238.0,374.0,33.0,853.0,852.0,33.0,16.0,17.0,0.4848484848484848,102.20366126565948,3314.9711412502793,75.0,61.0,14.0,0.8133333333333334,116.25495129909568,2190.4633169023455,22.0,12.0,10.0,0.5454545454545454,1878.956472675299,29420.324915689165,22.0,4.0,18.0,0.1818181818181818,1332.3181966827942,23805.544253010332,78.0,39.0,39.0,0.5,77.55846381707731,14075.635880403102,0.0,0.0,0.0,0.0,3266.0,3299.0,3319.0,3394.0,3406.0,3428.0,3435.0,3455.0,3616.0,3693.0,0.02950344997877293,-0.030378228600521896,0.046627415782777355,-0.1338490169449035,0.005502071926935587
3,3,4137.799245419058,3947.385736841883,13.246524475779005,4237.178051898705,-3200.4088075667287,22.93168860777651,4274.250875719188,38470.78473749579,9.682772858233248,4296.027373698993,-10323.82244094245,15.721189597393323,4510.370637739932,14806.15266057559,31.309252502428517,0.9625854573875444,58.0,23.0,132.0,239.0,371.0,35.0,855.0,857.0,35.0,17.0,18.0,0.4857142857142857,100.17727193540686,3798.4925315659702,71.0,58.0,13.0,0.8169014084507042,117.57607276179426,1361.1464087114637,22.0,12.0,10.0,0.5454545454545454,1843.544279294724,29832.79981672655,20.0,4.0,16.0,0.2,1295.6944735717914,23390.254888164585,81.0,40.0,41.0,0.4938271604938271,78.39979307336162,14853.007701762952,0.0,0.0,0.0,0.0,4121.0,4156.0,4179.0,4250.0,4262.0,4284.0,4292.0,4311.0,4471.0,4550.0,0.02537813089823696,-0.03673782939348532,0.047920630989830106,-0.1255053039689347,0.005295082042623882
4,4,4954.835099796518,3262.700587041504,10.47108672143671,5050.7533909985605,-4566.549498615037,25.479654008640544,5088.429613896184,38096.1376502699,9.863296628965292,5110.602712799023,-12297.56437910832,20.38372319723721,5324.440124823161,14221.607769010834,29.481278271786422,0.9436596940842116,50.0,20.0,140.0,233.0,373.0,30.0,817.0,814.0,30.0,15.0,15.0,0.5,102.97243625665308,2996.7878435575385,77.0,62.0,15.0,0.8051948051948052,111.81243599747214,2925.1701869446024,21.0,11.0,10.0,0.5238095238095238,1720.2512563858336,26357.07948427011,26.0,6.0,20.0,0.2307692307692307,1216.057421119168,24993.936582336923,78.0,38.0,40.0,0.4871794871794871,77.73354181701494,14101.826942870077,0.0,0.0,0.0,0.0,4940.0,4970.0,4990.0,5065.0,5077.0,5098.0,5106.0,5130.0,5286.0,5363.0,0.03156049214740378,-0.02448510325605429,0.04515552920818592,-0.0988860382129866,0.00546587580529382
5,5,5757.067658380414,4077.704589346292,12.981186384910108,5854.7533909985605,-3923.554603689063,25.47965400864057,5892.875853137372,39572.799414770925,9.71301862016195,5915.027373698993,-10024.846748679538,17.835757803952227,6129.051184485615,14290.609509404903,30.38560774755629,0.959220217601742,57.0,22.0,133.0,238.0,371.0,35.0,804.0,805.0,35.0,17.0,18.0,0.4857142857142857,97.28203878876512,3924.2578462925976,73.0,59.0,14.0,0.8082191780821918,114.75734313383532,2365.881976551657,22.0,12.0,10.0,0.5454545454545454,1853.9947794338295,29423.2378777718,22.0,5.0,17.0,0.2272727272727272,1279.7739779556025,23473.42504904066,78.0,39.0,39.0,0.5,81.65891134662488,14293.768713117232,0.0,0.0,0.0,0.0,5740.0,5775.0,5797.0,5869.0,5881.0,5903.0,5911.0,5930.0,6090.0,6168.0,0.02385705895491578,-0.029248310454488505,0.04685023063447486,-0.12766020369579945,0.005714165745896541
6,6,6611.510251543575,4432.930298682095,14.904996332928825,6711.178051898705,-3210.764433841963,22.93168860777651,6748.274059215395,40411.90406468496,9.663963748590222,6770.027373698993,-8883.928867914412,15.78695580209586,6984.728257481643,14795.427349315014,31.561863741391644,0.9665985666454084,62.0,23.0,129.0,240.0,369.0,39.0,854.0,855.0,39.0,19.0,20.0,0.4871794871794871,90.77849807569464,4299.683739769644,70.0,57.0,13.0,0.8142857142857143,131.11086507382132,1566.28349081556,23.0,12.0,11.0,0.5217391304347826,1921.4204273059747,32895.68542489629,20.0,4.0,16.0,0.2,1314.6079719462873,22592.22121029754,80.0,40.0,40.0,0.5,87.29875103008538,14971.17646548674,0.0,0.0,0.0,0.0,6593.0,6632.0,6655.0,6724.0,6736.0,6759.0,6766.0,6784.0,6945.0,7024.0,0.020478214625364848,-0.04083478180208181,0.047545901926087666,-0.14797596778314864,0.005900387259454663
7,7,7474.476436198269,3984.339562108534,12.519498030244812,7571.75339099856,-3793.516680574784,25.47965400864057,7609.639779788112,38538.31687527816,9.800446612168916,7631.027373698993,-11685.906674764188,17.835757805762643,7845.747486380629,14474.399395336824,30.596743130346752,0.9555099557017604,55.0,21.0,135.0,237.0,372.0,34.0,864.0,861.0,34.0,16.0,18.0,0.4705882352941176,103.40382641402697,3913.892317001164,74.0,60.0,14.0,0.8108108108108109,115.97445759777447,2173.5212625974336,21.0,12.0,9.0,0.5714285714285714,1795.0128997533418,26152.780507020067,23.0,4.0,19.0,0.1739130434782608,1309.4357884048943,24917.026021940605,80.0,40.0,40.0,0.5,82.08667580083656,14498.916653870194,0.0,0.0,0.0,0.0,7458.0,7492.0,7513.0,7586.0,7598.0,7619.0,7627.0,7648.0,7806.0,7885.0,0.025952563731617567,-0.030571753695360665,0.04657735587058863,-0.11205256253095291,0.005671162827473324
8,8,8279.113847171615,4286.323119833349,13.2373139984248,8376.178051898705,-3684.3638529643504,22.93168860777651,8413.175181015846,38191.94940651426,9.759512650446757,8435.027373698993,-10859.49337625661,16.982919666143772,8647.937311117921,14635.902136874716,31.784167065770713,0.958929082868926,58.0,21.0,133.0,236.0,369.0,37.0,804.0,804.0,37.0,18.0,19.0,0.4864864864864865,95.8324283048466,4122.985175429487,71.0,58.0,13.0,0.8169014084507042,123.45939238788182,1827.146181086123,22.0,12.0,10.0,0.5454545454545454,1797.423564152769,28477.73958492495,23.0,5.0,18.0,0.217391304347826,1273.7733113885004,23828.506154318377,81.0,40.0,41.0,0.4938271604938271,74.93003403790414,14692.281813071888,0.0,0.0,0.0,0.0,8261.0,8298.0,8319.0,8389.0,8401.0,8423.0,8431.0,8452.0,8608.0,8688.0,0.022357723770617774,-0.033509011952918104,0.047062891318299375,-0.11729583206648489,0.005119604745724568
9,9,9140.743474278594,4205.866985593181,13.69170443914959,9238.75339099856,-3685.266962647704,25.47965400864057,9276.924671738025,40336.69016266215,9.665171215503165,9299.027373698991,-9341.740115039422,17.835757803609887,9514.02430378613,14119.71464924012,30.12949646269965,0.9614350399783574,61.0,24.0,130.0,239.0,369.0,37.0,862.0,864.0,37.0,18.0,19.0,0.4864864864864865,99.94021827381836,4082.7594829964496,70.0,56.0,14.0,0.8,113.27618083591771,2229.341974322203,22.0,12.0,10.0,0.5454545454545454,1891.494787727314,30821.793436571556,20.0,4.0,16.0,0.2,1291.6116438466076,23114.87314734216,78.0,39.0,39.0,0.5,76.13039580851492,14064.784461653058,0.0,0.0,0.0,0.0,9123.0,9160.0,9184.0,9253.0,9265.0,9287.0,9295.0,9314.0,9475.0,9553.0,0.023762096760585768,-0.030737578032754974,0.04689266224124123,-0.13826242519498275,0.0053917800536154616
10,10,10018.893714139856,4734.944336264429,16.114719296982333,10118.60271279885,-2713.174106122924,20.383723206912453,10156.006618795176,37772.30391506875,9.893600004045949,10177.45203459914,-10477.123451737782,11.344293062857242,10392.202672910533,14862.592989919298,32.510700498111426,0.9691910475429044,65.0,25.0,126.0,242.0,368.0,40.0,877.0,878.0,40.0,19.0,21.0,0.475,102.80226779171755,4857.734155374808,65.0,54.0,11.0,0.8307692307692308,134.84583497046165,788.5227681370585,22.0,12.0,10.0,0.5454545454545454,1906.0079406582431,31291.29474190019,19.0,3.0,16.0,0.1578947368421052,1353.9770868339576,22890.130188237643,83.0,41.0,42.0,0.4939759036144578,79.54388776888791,15041.414237920666,0.0,0.0,0.0,0.0,10000.0,10040.0,10065.0,10130.0,10144.0,10166.0,10174.0,10191.0,10352.0,10433.0,0.0217113994359693,-0.049700398756626005,0.0504604629080586,-0.12923175841832626,0.0053519522349054
11,11,10847.852739875869,4019.5545942328968,12.022609215909885,10944.178051898703,-4034.552987743805,22.93168860777651,10980.932356629995,38339.41163253372,9.84379842341054,11002.60271279885,-11999.534297226768,20.383723151643174,11216.805307833789,14338.674573586984,30.076156704890703,0.95312089657121,54.0,20.0,137.0,234.0,371.0,34.0,830.0,826.0,34.0,17.0,17.0,0.5,101.63705484088057,3764.45204535848,73.0,59.0,14.0,0.8082191780821918,124.2674101789536,2362.637439104643,22.0,12.0,10.0,0.5454545454545454,1744.084298703748,25945.881485953774,25.0,5.0,20.0,0.2,1256.6067793625612,25152.126731024666,79.0,40.0,39.0,0.5063291139240507,74.505823104996,14185.39277835622,0.0,0.0,0.0,0.0,10831.0,10865.0,10885.0,10957.0,10969.0,10991.0,10998.0,11022.0,11178.0,11256.0,0.025285651048677266,-0.03080078773446626,0.04549063807812241,-0.10472129569669864,0.005196144366247201
12,12,11637.81910060988,5126.4839887196395,14.98387971137594,11732.75339099856,-3199.8882881374566,25.47965400864057,11771.863927253238,38070.40574270012,9.776259844582764,11794.027373698991,-10496.798852748803,14.830457960458409,12007.131333469306,14593.39394032546,32.07760253970148,0.971375846972061,63.0,24.0,127.0,239.0,366.0,39.0,791.0,790.0,39.0,19.0,20.0,0.4871794871794871,105.87085016750513,5010.784268726734,67.0,53.0,14.0,0.7910447761194029,94.29404804829008,1888.2514739087892,22.0,12.0,10.0,0.5454545454545454,1837.5505184353265,28927.616270766102,21.0,5.0,16.0,0.238095238095238,1264.3462842263602,23086.898225760426,81.0,40.0,41.0,0.4938271604938271,79.69699832203241,14768.661336276342,0.0,0.0,0.0,0.0,11619.0,11658.0,11682.0,11747.0,11760.0,11782.0,11790.0,11809.0,11967.0,12048.0,0.020651746967407736,-0.029467918738868025,0.04826716402379481,-0.12045065376243397,0.005461169529714965
13,13,12503.58621119398,4434.021907829895,14.639835882304016,12599.75339099856,-3455.5651181669746,25.47965400864057,12638.487557446326,40243.11777975223,9.678955205036834,12660.45203459914,-9094.873171609652,15.287792405117996,12875.613269641766,14502.062931720153,31.31946288813056,0.9645554708177472,61.0,22.0,129.0,241.0,370.0,39.0,866.0,867.0,39.0,19.0,20.0,0.4871794871794871,93.73309072731809,4307.10553065852,69.0,55.0,14.0,0.7971014492753623,98.21562333339745,2083.225197954326,22.0,11.0,11.0,0.5,1918.627240604469,33177.38334398026,20.0,4.0,16.0,0.2,1322.2259962813491,22820.085662171197,81.0,41.0,40.0,0.5061728395061729,81.93599102100022,14539.923197952505,0.0,0.0,0.0,0.0,12485.0,12524.0,12546.0,12614.0,12627.0,12649.0,12657.0,12675.0,12836.0,12916.0,0.02113951908126522,-0.02842244899887649,0.047675909483578825,-0.14538146616588118,0.0056499541759526374
14,14,13377.429820076355,4000.291460295021,12.80723134635663,13475.178051898703,-3643.816537168922,22.93168860777651,13512.361365620874,38497.465614677254,9.783294714691054,13534.027373698991,-11419.994433140922,17.835757805291067,13748.889451582738,14350.867188104428,30.55472497331711,0.956165722881674,57.0,21.0,134.0,238.0,372.0,36.0,873.0,874.0,36.0,17.0,19.0,0.4722222222222222,97.42836771361114,3921.8753801416096,72.0,59.0,13.0,0.8194444444444444,125.55723693341544,2015.420637682104,21.0,11.0,10.0,0.5238095238095238,1786.1963007177117,28298.0753325555,23.0,4.0,19.0,0.1739130434782608,1298.0606772585952,24583.699095940676,80.0,40.0,40.0,0.5,79.37976766077603,14292.534579480776,0.0,0.0,0.0,0.0,13360.0,13396.0,13417.0,13488.0,13501.0,13522.0,13530.0,13551.0,13710.0,13789.0,0.024355317276413106,-0.03445761762499921,0.04639776339034432,-0.11366561383704461,0.005531356859505653
15,15,14203.785271449922,4158.932355782448,13.689424252791335,14302.178051898703,-3489.3553068591773,22.93168860777651,14338.904252230386,38559.27657367224,9.702816114584556,14361.027373698991,-10322.143223558158,17.835757806023476,14575.22074104462,14453.294397303844,30.79389420566316,0.9587775666526352,59.0,22.0,132.0,238.0,370.0,37.0,826.0,827.0,37.0,18.0,19.0,0.4864864864864865,90.3740070762172,3997.221058318394,71.0,58.0,13.0,0.8169014084507042,135.24264922595498,1835.579330010752,22.0,12.0,10.0,0.5454545454545454,1806.9278800904376,28427.205886863503,22.0,5.0,17.0,0.2272727272727272,1257.9669008127744,23496.09327234448,80.0,40.0,40.0,0.5,79.63402994228285,14561.441790722674,0.0,0.0,0.0,0.0,14186.0,14223.0,14245.0,14315.0,14327.0,14349.0,14357.0,14377.0,14536.0,14615.0,0.021730097858063027,-0.038758635143891086,0.046861042028059824,-0.121870707814025,0.005509749386765276
16,16,15056.092771649,3934.0240204992233,12.911585994900843,15156.178051898703,-3771.509291283779,22.93168860777651,15192.94220314984,39984.173836422575,9.663724884962148,15215.027373698991,-9249.35317378114,17.835757805880736,15429.811024746366,14300.98103281541,30.618014027264636,0.958742053988959,57.0,22.0,134.0,239.0,373.0,35.0,852.0,854.0,35.0,17.0,18.0,0.4857142857142857,98.71055501640912,3840.0654901815496,73.0,60.0,13.0,0.821917808219178,133.35721027005147,1877.0529233029736,22.0,12.0,10.0,0.5454545454545454,1881.2057666293715,30810.563257972743,20.0,4.0,16.0,0.2,1285.184792429601,22941.45897013085,79.0,40.0,39.0,0.5063291139240507,83.11606878652722,14385.91955893834,0.0,0.0,0.0,0.0,15039.0,15074.0,15096.0,15169.0,15181.0,15203.0,15211.0,15230.0,15390.0,15469.0,0.025091497790062516,-0.03535910956874726,0.047048759199714525,-0.1389486127605847,0.005811913783803145
17,17,15912.60936848898,3836.319665807703,12.838092618334654,16012.178051898703,-3564.3387625014147,22.93168860777651,16049.77473377753,39230.5536485644,9.700840352875924,16071.60271279885,-10227.661895901512,18.02673795268663,16285.976213385778,14644.31298824986,30.913362028565963,0.958530204613699,55.0,20.0,136.0,238.0,374.0,35.0,855.0,856.0,35.0,17.0,18.0,0.4857142857142857,97.55661855097898,3674.883740203963,75.0,62.0,13.0,0.8266666666666667,116.43186428159056,1962.308751518267,22.0,12.0,10.0,0.5454545454545454,1838.5812455079908,28717.753004544906,21.0,5.0,16.0,0.238095238095238,1272.8787270941211,23520.065145378332,80.0,40.0,40.0,0.5,77.73803123640252,14687.402808014607,0.0,0.0,0.0,0.0,15896.0,15931.0,15951.0,16025.0,16038.0,16060.0,16067.0,16087.0,16247.0,16325.0,0.025429741796670454,-0.032665768334511486,0.04686605399399638,-0.12445451756712807,0.005308410937322706
18,18,16731.20788862205,3434.0519387408135,10.633078520970772,16828.753390998565,-4555.839437385452,25.47965400864057,16866.512140741885,38867.107971289384,9.824375007919548,16888.602712798853,-11919.476591425257,20.383723206541905,17102.231547836032,14399.911532658663,29.90561300653338,0.9476221944569334,51.0,20.0,140.0,234.0,374.0,31.0,820.0,817.0,31.0,15.0,16.0,0.4838709677419355,110.03787879237318,3279.535263319578,78.0,63.0,15.0,0.8076923076923077,109.8321093738846,2932.4082361444016,21.0,12.0,9.0,0.5714285714285714,1781.574866658428,25445.33000655895,24.0,5.0,19.0,0.2083333333333333,1242.605424902244,25008.958254078112,78.0,39.0,39.0,0.5,81.94195544198695,14423.27935746163,0.0,0.0,0.0,0.0,16716.0,16747.0,16767.0,16843.0,16855.0,16876.0,16884.0,16907.0,17064.0,17141.0,0.03204316089427625,-0.024107985121818977,0.04583759789831684,-0.104249999181689,0.005690448532002749
19,19,17564.988942069274,4039.497151975341,14.12637500785802,17662.753390998565,-3321.6215779322756,25.47965400864057,17701.6061507305,39879.64410734001,9.72354311546681,17723.45203459914,-9045.359619096407,15.287792404739806,17937.769670782545,14411.8457389802,30.598160602446292,0.9640069280194472,59.0,21.0,132.0,239.0,371.0,38.0,833.0,835.0,38.0,18.0,20.0,0.4736842105263157,91.79260235398216,3952.180975272015,72.0,58.0,14.0,0.8055555555555556,102.23325726936685,1976.0658614638992,22.0,12.0,10.0,0.5454545454545454,1909.2903414127304,30801.83001677768,20.0,4.0,16.0,0.2,1324.7825681975446,22721.34719320937,79.0,40.0,39.0,0.5063291139240507,84.95714901911566,14519.175928635435,0.0,0.0,0.0,0.0,17547.0,17585.0,17606.0,17677.0,17690.0,17712.0,17720.0,17738.0,17899.0,17977.0,0.022723769543715355,-0.030778116913910317,0.047876313446370944,-0.14645991137828135,0.005894952704727419
20,20,18458.62737446768,3870.959451263627,12.83519506607958,18559.178051898707,-3487.969947430814,22.93168860777651,18596.629108893987,39038.464806638025,9.76006244650338,18618.027373698995,-10582.160646980794,15.015114833919368,18833.58982107338,14563.101472567669,30.628194795881424,0.9612544972502608,56.0,21.0,135.0,240.0,375.0,35.0,894.0,895.0,35.0,17.0,18.0,0.4857142857142857,103.49260912273448,3716.605633107068,74.0,61.0,13.0,0.8243243243243243,126.46291262439986,1832.8616666851449,22.0,12.0,10.0,0.5454545454545454,1887.3072495871284,28974.482110394572,21.0,4.0,17.0,0.1904761904761904,1334.421159297132,23706.260907634165,79.0,40.0,39.0,0.5063291139240507,86.84674368702417,14678.032828161871,0.0,0.0,0.0,0.0,18442.0,18477.0,18498.0,18572.0,18585.0,18607.0,18614.0,18633.0,18794.0,18873.0,0.026735647951298118,-0.036256881375239636,0.04834481219830689,-0.12610101129752332,0.005963478579794029
21,21,19328.647272299753,3359.70070341982,11.09044411634712,19427.178051898707,-4019.772227609206,22.93168860777651,19464.1950626604,37992.222735732925,9.854198538988433,19486.027373698995,-11753.496504166267,17.835757804038277,19700.260804424914,14692.310189249743,31.12506112096401,0.9533826048047016,52.0,20.0,139.0,236.0,375.0,32.0,869.0,868.0,32.0,16.0,16.0,0.5,102.59246527642176,3133.7946936127564,75.0,62.0,13.0,0.8266666666666667,123.11272736470572,2093.0411075386937,22.0,12.0,10.0,0.5454545454545454,1762.9361187441175,27282.88273900917,25.0,5.0,20.0,0.2,1263.3230878428374,24525.437333721304,81.0,40.0,41.0,0.4938271604938271,81.03962158513757,14792.30434888139,0.0,0.0,0.0,0.0,19313.0,19345.0,19365.0,19440.0,19452.0,19474.0,19482.0,19504.0,19661.0,19740.0,0.030536191861374285,-0.03062679186624663,0.046402552727877605,-0.10748487374757176,0.0055157848249374475
22,22,20197.25449569677,3623.221464008502,13.092967624734191,20294.753390998565,-3249.980474858585,25.47965400864057,20333.761320388585,39558.84384512017,9.740410545407924,20355.45203459914,-9588.229252404826,15.287792404970252,20571.357025229463,14429.165812989171,30.46463929314011,0.9621608149889112,58.0,23.0,132.0,240.0,372.0,35.0,868.0,869.0,35.0,17.0,18.0,0.4857142857142857,95.03830938372022,3580.6930019945507,72.0,58.0,14.0,0.8055555555555556,98.6351767387152,1928.8477155096052,22.0,12.0,10.0,0.5454545454545454,1890.0104539275749,30398.30181733557,21.0,4.0,17.0,0.1904761904761904,1335.0673223743493,23168.90303529692,79.0,39.0,40.0,0.4936708860759494,81.88305062793661,14485.624733033846,0.0,0.0,0.0,0.0,20180.0,20215.0,20238.0,20309.0,20322.0,20344.0,20352.0,20370.0,20533.0,20610.0,0.0262303340625985,-0.03034946748195682,0.04777719139940737,-0.13924023792396292,0.005674829140450052
23,23,21094.18209741612,3380.469235845595,11.194257962775474,21193.178051898707,-3883.6736634968033,22.93168860777651,21230.175810556444,39668.18800363662,9.672277599754809,21252.027373698995,-10449.498678049282,17.8357578060484,21467.981499266123,14384.517767479556,30.02377293772288,0.952232490851128,53.0,22.0,136.0,239.0,375.0,31.0,898.0,897.0,31.0,15.0,16.0,0.4838709677419355,110.7198783506633,3310.4440042563833,74.0,61.0,13.0,0.8243243243243243,123.08972248206922,2055.2110240065326,21.0,11.0,10.0,0.5238095238095238,1865.2578891059045,29933.772981770657,21.0,4.0,17.0,0.1904761904761904,1312.2907424894436,24086.31067215899,78.0,39.0,39.0,0.5,78.88411105883812,14350.197343958347,0.0,0.0,0.0,0.0,21079.0,21110.0,21132.0,21206.0,21219.0,21240.0,21248.0,21268.0,21429.0,21507.0,0.03275281347826486,-0.03169414661149491,0.04702150471140515,-0.12558408617689043,0.005483959374514376
24,24,21941.434881960155,3116.688573330913,10.263941485537933,22038.753390998565,-4667.184306147801,25.47965400864057,22075.76717549369,39314.489499365714,9.89489022074326,22097.602712798853,-12344.998352181108,20.3837232058548,22312.845806163252,14151.47462787602,29.719244947636795,0.944257517750848,50.0,20.0,140.0,235.0,375.0,30.0,848.0,845.0,30.0,14.0,16.0,0.4666666666666667,103.67178405172992,3012.611462041462,77.0,63.0,14.0,0.8181818181818182,131.78104925195996,2782.241031272153,22.0,12.0,10.0,0.5454545454545454,1780.343437119376,25982.143255056984,25.0,5.0,20.0,0.2,1266.157909744073,25559.765676209703,78.0,39.0,39.0,0.5,79.78147245117174,14078.814128593907,0.0,0.0,0.0,0.0,21927.0,21957.0,21977.0,22053.0,22064.0,22086.0,22093.0,22117.0,22274.0,22352.0,0.03326344022268875,-0.02823566429086006,0.04528466374078441,-0.1025644454233863,0.005637679079324757
25,25,22798.84558059993,3807.430525962895,13.210859924282325,22895.753390998565,-3665.899816375418,25.47965400864057,22934.67465450451,40417.76796292606,9.739144154966189,22956.45203459914,-9506.421853600885,15.287792405154596,23172.510869113394,14281.512623089971,30.213604524703857,0.960389108121952,57.0,22.0,132.0,241.0,373.0,35.0,857.0,859.0,35.0,17.0,18.0,0.4857142857142857,95.64260744996598,3671.185918970643,72.0,58.0,14.0,0.8055555555555556,99.55979619057932,2179.3410978468773,22.0,12.0,10.0,0.5454545454545454,1936.220855743438,31105.776651750777,21.0,4.0,17.0,0.1904761904761904,1348.2632805579983,23305.489444749695,79.0,40.0,39.0,0.5063291139240507,75.1197960698905,14104.78036985002,0.0,0.0,0.0,0.0,22782.0,22817.0,22839.0,22910.0,22923.0,22945.0,22953.0,22971.0,23134.0,23212.0,0.025119987560581442,-0.02715835161284276,0.047905190052045236,-0.1418265780039308,0.005259932757293426
26,26,23685.97021794803,3406.8667911053944,10.824545537913302,23782.753390998565,-4143.124321985796,25.47965400864057,23820.94638848166,39848.01212120395,9.799482101221193,23842.602712798853,-11353.165557734195,20.383723197099933,24059.147523241743,14318.030798314569,29.631506696829945,0.9470895107589776,51.0,20.0,138.0,238.0,376.0,31.0,888.0,887.0,31.0,15.0,16.0,0.4838709677419355,107.24625311084664,3222.958519473338,75.0,61.0,14.0,0.8133333333333334,99.95123710597991,2587.426975351537,22.0,12.0,10.0,0.5454545454545454,1814.203422983912,27805.820755136443,24.0,5.0,19.0,0.2083333333333333,1296.6966282013564,25089.258768199114,78.0,39.0,39.0,0.5,79.64036946955366,14209.68735694651,0.0,0.0,0.0,0.0,23671.0,23702.0,23722.0,23797.0,23809.0,23831.0,23838.0,23860.0,24021.0,24098.0,0.03147943834811617,-0.024124604848466957,0.04552807847643012,-0.11421454409409178,0.005562243201692822
27,27,24552.63512834143,3991.849642555736,12.548809164169828,24649.753390998565,-3764.7715966051137,25.47965400864057,24687.522695898817,39596.56035358779,9.729174366012408,24709.602712798853,-10620.86622690345,19.880963606755294,24925.67713772484,14378.61317798393,30.56411073677392,0.9529995792409992,56.0,22.0,134.0,239.0,373.0,34.0,866.0,866.0,34.0,17.0,17.0,0.5,102.60112577935038,3752.550414766726,73.0,59.0,14.0,0.8082191780821918,110.90902779429511,2167.1895298287045,22.0,12.0,10.0,0.5454545454545454,1825.8117910160809,27448.642713555655,22.0,5.0,17.0,0.2272727272727272,1270.643915079551,24203.688299934085,79.0,40.0,39.0,0.5063291139240507,79.88062983960063,14365.231207097797,0.0,0.0,0.0,0.0,24536.0,24570.0,24592.0,24664.0,24676.0,24698.0,24705.0,24726.0,24886.0,24965.0,0.025702652896931556,-0.02945969627860225,0.04611036349400098,-0.11963656145681553,0.005555516992550525
28,28,25479.126135532217,3714.734218001,12.804336997365002,25576.753390998565,-3434.895698656723,25.47965400864057,25615.717995565898,39556.09639331176,9.739424380006502,25637.45203459914,-9774.871120129555,15.28779240509586,25854.94578609644,14239.818598667713,30.70857757602875,0.9606281049971376,56.0,22.0,133.0,242.0,375.0,34.0,926.0,928.0,34.0,16.0,18.0,0.4705882352941176,105.63941288832083,3688.7149134951674,73.0,59.0,14.0,0.8082191780821918,97.8417459020056,2051.3332223253365,22.0,12.0,10.0,0.5454545454545454,1896.690748739762,30159.0909973753,21.0,4.0,17.0,0.1904761904761904,1333.1157592419838,23318.39506759859,80.0,40.0,40.0,0.5,72.64982532248699,14173.969054658322,0.0,0.0,0.0,0.0,25463.0,25497.0,25519.0,25591.0,25604.0,25626.0,25634.0,25652.0,25816.0,25894.0,0.028437946482526087,-0.02848463373728301,0.047949391413164295,-0.13638192696952048,0.005101878568121939
29,29,26395.84214489712,3283.002280561036,11.250641811849286,26493.753390998565,-3952.069928990431,25.47965400864057,26531.58143823484,39519.297967235834,9.72713575164546,26553.602712798853,-10824.215363394913,20.383723206892434,26770.55580459812,14262.940763025195,30.22318900727507,0.953129055977934,53.0,21.0,138.0,239.0,377.0,32.0,916.0,916.0,32.0,16.0,16.0,0.5,99.44945410497822,3121.7819445305686,76.0,62.0,14.0,0.8157894736842105,108.98572971625175,2515.4065074040213,22.0,12.0,10.0,0.5454545454545454,1817.4978336193813,27226.24879998315,23.0,5.0,18.0,0.217391304347826,1264.4293747430845,24351.20509068994,79.0,40.0,39.0,0.5063291139240507,72.30143453420581,14133.700659165395,0.0,0.0,0.0,0.0,26380.0,26412.0,26433.0,26508.0,26520.0,26542.0,26549.0,26571.0,26731.0,26810.0,0.03029222815160006,-0.027576872796907344,0.04599013462046339,-0.11681487593263372,0.005069181435685255
30,30,27231.27854174906,3069.212321056024,10.20495320722385,27328.753390998565,-4500.188592552283,25.47965400864057,27365.829023946444,39042.94578576362,9.839796158855298,27387.602712798853,-11616.295812257393,20.38372319515744,27603.585481611968,14321.642877944376,30.303669326029706,0.941791022766448,49.0,20.0,140.0,237.0,377.0,29.0,837.0,834.0,29.0,14.0,15.0,0.4827586206896552,100.79110375627464,2916.378943779099,78.0,64.0,14.0,0.8205128205128205,126.44101705554132,2691.109339693242,22.0,12.0,10.0,0.5454545454545454,1771.9696662325664,26472.45248857991,25.0,5.0,20.0,0.2,1258.1956398807006,24900.32024375687,79.0,40.0,39.0,0.5063291139240507,77.84894737733023,14248.90063564101,0.0,0.0,0.0,0.0,27217.0,27246.0,27266.0,27343.0,27354.0,27376.0,27383.0,27406.0,27565.0,27643.0,0.03283940412489789,-0.028096826267414336,0.04538514270812748,-0.10831298205690199,0.005435755383708053
31,31,28072.367996332818,3612.652630593569,11.950890552026667,28169.753390998565,-4158.635853630241,25.47965400864057,28207.69826560203,40928.47381872226,9.683596816914909,28230.027373698995,-9277.160969641478,17.835757806048235,28446.71654693438,14118.859271772271,29.552810978363823,0.9527559183614942,55.0,22.0,134.0,240.0,374.0,33.0,841.0,842.0,33.0,16.0,17.0,0.4848484848484848,100.62095052713444,3515.1268797033736,74.0,60.0,14.0,0.8108108108108109,114.66586463678088,2469.170189792201,22.0,12.0,10.0,0.5454545454545454,1926.9302547307475,31025.82990062645,20.0,4.0,16.0,0.2,1273.6000663541886,22888.97914364159,77.0,39.0,38.0,0.5064935064935064,79.74392993965557,14025.190635576657,0.0,0.0,0.0,0.0,28056.0,28089.0,28111.0,28184.0,28196.0,28218.0,28226.0,28245.0,28408.0,28485.0,0.027852373537115338,-0.027572951485205038,0.047080432641231185,-0.1372833855661133,0.005648043401005279
32,32,28901.479543021556,4269.994411627646,12.433387843070356,28998.178051898707,-4152.650556269445,22.93168860777651,29035.40454242004,39014.04743789953,9.75463845898418,29057.027373698995,-11517.74094032811,17.83575780550267,29272.393891555028,14536.067404361504,30.14552076066169,0.9558901220932816,54.0,18.0,135.0,238.0,373.0,36.0,830.0,828.0,36.0,17.0,19.0,0.4722222222222222,104.50220951312711,4160.036074989695,74.0,61.0,13.0,0.8243243243243243,122.55841567391222,2306.452799939809,21.0,11.0,10.0,0.5238095238095238,1817.7792748998631,28762.441897517907,23.0,5.0,18.0,0.217391304347826,1329.6633698136736,24955.794862805913,78.0,39.0,39.0,0.5,86.03199596899891,14607.721320985356,0.0,0.0,0.0,0.0,28884.0,28920.0,28938.0,29011.0,29024.0,29045.0,29053.0,29073.0,29234.0,29311.0,0.024473617395975172,-0.029513298557924703,0.04659294265208722,-0.11544480612148539,0.005918519333721944
33,33,30468.84846337137,4566.661485160965,13.467065678878084,30566.753390998565,-4124.991464056154,25.47965400864057,30604.937564579992,41238.98830084407,9.69209247119213,30627.027373698995,-9257.802945155898,17.835757804234756,30842.126580264197,14278.316600572713,30.05657348462081,0.9627950030491496,57.0,20.0,134.0,238.0,372.0,37.0,1569.0,1570.0,37.0,18.0,19.0,0.4864864864864865,101.27095038384591,4366.664617868306,73.0,59.0,14.0,0.8082191780821918,107.58103374516352,2383.6899058377853,22.0,12.0,10.0,0.5454545454545454,1932.7990061515377,31817.795105758407,20.0,4.0,16.0,0.2,1311.715414612147,23246.74424909817,78.0,39.0,39.0,0.5,81.93815272892238,14314.99547894423,0.0,0.0,0.0,0.0,30451.0,30488.0,30508.0,30581.0,30593.0,30615.0,30623.0,30642.0,30804.0,30880.0,0.02217614568386961,-0.026080304573376692,0.04686824497370072,-0.141687549668412,0.0057386423778861845
34,34,31396.10129305928,4260.194155480336,13.559373560462127,31492.753390998565,-3465.178476847903,25.47965400864057,31532.263396287697,39650.7536727635,9.791554254412333,31554.027373698995,-10624.567290088502,17.83575780601287,31769.91016017704,14449.981600593455,30.677921439714797,0.9564362799149824,58.0,22.0,133.0,240.0,373.0,36.0,925.0,927.0,36.0,17.0,19.0,0.4722222222222222,102.62419244978432,4178.775774297805,71.0,57.0,14.0,0.8028169014084507,98.21547315981044,2405.315636683702,22.0,12.0,10.0,0.5454545454545454,1830.6550033327735,29774.415133380535,21.0,4.0,17.0,0.1904761904761904,1318.1321007644844,24190.73706866317,80.0,40.0,40.0,0.5,74.2516857470148,14380.671051928515,0.0,0.0,0.0,0.0,31379.0,31415.0,31437.0,31507.0,31520.0,31542.0,31550.0,31570.0,31730.0,31810.0,0.02408908812706764,-0.028343553965841345,0.046169488187818956,-0.12406454444447351,0.005138531508162288
35,35,32267.37106146396,4259.335629477604,13.922207339728915,32367.178051898707,-3158.717423625777,22.93168860777651,32404.65836980716,38359.84963436058,9.773626308378738,32427.027373698995,-10119.176221484024,15.25684673482086,32641.78511128187,14564.69976007728,31.184825343566573,0.9642636726355492,60.0,22.0,133.0,239.0,372.0,38.0,870.0,872.0,38.0,18.0,20.0,0.4736842105263157,97.68126953398313,4208.479922502434,72.0,59.0,13.0,0.8194444444444444,117.47566321132356,1407.328361278277,22.0,12.0,10.0,0.5454545454545454,1849.2965555888836,29039.935390494473,21.0,5.0,16.0,0.238095238095238,1253.286255322707,22781.45735989799,80.0,40.0,40.0,0.5,73.49896294724931,14578.945619593902,0.0,0.0,0.0,0.0,32249.0,32287.0,32309.0,32380.0,32393.0,32415.0,32423.0,32442.0,32602.0,32681.0,0.022933452075943467,-0.037190937794137194,0.04820917113117119,-0.12385259707819445,0.0050463767985602015
36,36,33195.23864429313,4134.883520501727,14.987059950829384,33294.753390998565,-2813.181913315999,25.47965400864057,33334.243946288385,39143.97121530242,9.898725139288384,33356.027373699,-10124.513961003324,11.62765245642682,33572.46505802861,14790.410118039908,31.219116095662155,0.9678353001633504,60.0,23.0,132.0,242.0,374.0,37.0,928.0,930.0,37.0,17.0,20.0,0.4594594594594595,102.17559461012137,4246.403046643411,72.0,58.0,14.0,0.8055555555555556,87.54071833019647,1474.646262852435,23.0,12.0,11.0,0.5217391304347826,1943.1135241198656,33041.05453216512,19.0,4.0,15.0,0.2105263157894736,1330.042783811752,22666.76280530189,80.0,40.0,40.0,0.5,82.02191821426386,14924.893191863304,0.0,0.0,0.0,0.0,33178.0,33215.0,33238.0,33309.0,33322.0,33345.0,33352.0,33370.0,33533.0,33612.0,0.024710634314971797,-0.031118043918819695,0.04964017353865851,-0.13136855644969123,0.005545614865285005
37,37,34107.35593518448,3656.074306438923,11.565118505853697,34206.178051898714,-3660.753238404877,22.93168860777651,34243.33066533886,38247.83179266999,9.850228956555496,34265.027373699,-12245.810777130066,17.83575778956528,34481.50025701713,14680.047146073588,31.021181973582937,0.9598472457550264,54.0,22.0,137.0,238.0,375.0,32.0,912.0,909.0,32.0,15.0,17.0,0.46875,111.90206582692532,3605.413238330248,74.0,61.0,13.0,0.8243243243243243,121.11737797722031,1892.203954713969,22.0,12.0,10.0,0.5454545454545454,1771.6858101945938,27329.669659651045,25.0,5.0,20.0,0.2,1284.3686460653328,25145.86501481046,80.0,40.0,40.0,0.5,78.45967868386269,14663.922603522442,0.0,0.0,0.0,0.0,34092.0,34124.0,34146.0,34219.0,34231.0,34253.0,34261.0,34283.0,34442.0,34521.0,0.03060716398182831,-0.03308537071184715,0.0463212089981563,-0.1048822874565385,0.005344647595688954
38,38,34971.82987110561,3578.6680098420493,12.93068822228514,35071.178051898714,-3324.8995056164576,22.93168860777651,35109.20167638841,39858.7900425036,9.680633169784269,35131.027373699,-9695.932390252678,17.835757805395914,35348.03765148695,14279.5722486073,30.32108328738715,0.95906490040458,57.0,22.0,134.0,241.0,375.0,35.0,864.0,866.0,35.0,17.0,18.0,0.4857142857142857,96.82355692055074,3495.9221589823956,74.0,60.0,14.0,0.8108108108108109,104.15259153842814,1860.4447791747916,22.0,12.0,10.0,0.5454545454545454,1863.0526829586736,30801.13873688382,20.0,4.0,16.0,0.2,1316.786513565152,23522.199349830877,79.0,39.0,40.0,0.4936708860759494,73.3216421745227,14194.650460691944,0.0,0.0,0.0,0.0,34955.0,34990.0,35012.0,35084.0,35097.0,35119.0,35127.0,35146.0,35309.0,35387.0,0.02705575277009957,-0.03132503444464785,0.0467413255889604,-0.13580813691408553,0.005134722588183538
39,39,35855.91768184708,4038.7011104228936,14.63924781667538,35956.60271279886,-2675.8501432508915,20.383723206912453,35993.66703240568,38789.48725981904,9.805375010014314,36015.45203459914,-9632.589475114524,11.819584370062014,36231.88052460515,14720.52287054016,31.521818373010134,0.9685637487606976,61.0,23.0,130.0,243.0,373.0,38.0,885.0,884.0,38.0,18.0,20.0,0.4736842105263157,96.27895975757146,4005.021870033789,70.0,59.0,11.0,0.8428571428571429,143.57198154186878,591.5735172910381,22.0,12.0,10.0,0.5454545454545454,1947.857034343658,31719.290558610388,20.0,4.0,16.0,0.2,1339.0817827734031,22506.29754501033,80.0,40.0,40.0,0.5,86.33194104318027,14933.253575857363,0.0,0.0,0.0,0.0,35838.0,35876.0,35899.0,35968.0,35982.0,36004.0,36012.0,36029.0,36192.0,36272.0,0.023839090124569792,-0.05365471676505887,0.050216106784205655,-0.13901576375001515,0.005864733325196918
40,40,36690.70551221189,3550.6471873716305,10.949911731448807,36787.753390998565,-4249.668438642927,25.47965400864057,36825.15682476385,39418.487198396,9.918312399844927,36846.60271279886,-12457.498343063728,20.38372320667494,37062.910732496704,14312.374736157011,29.579942487642025,0.9499571619281316,50.0,19.0,140.0,236.0,376.0,31.0,836.0,832.0,31.0,15.0,16.0,0.4838709677419355,110.1282826487047,3316.747962831827,77.0,63.0,14.0,0.8181818181818182,118.8325848009229,2522.383933182724,21.0,11.0,10.0,0.5238095238095238,1768.0119017431502,26722.41816844,25.0,5.0,20.0,0.2,1298.0949159883598,25861.356930184607,78.0,39.0,39.0,0.5,78.98914294956855,14240.012527940282,0.0,0.0,0.0,0.0,36676.0,36707.0,36726.0,36802.0,36814.0,36835.0,36842.0,36866.0,37024.0,37102.0,0.03101639696571127,-0.027962789689745877,0.044852352979570805,-0.10420189352954098,0.005518940385903966
41,41,37484.92705654087,4292.351733239402,13.902436767268384,37583.178051898714,-3586.189035469767,22.93168860777651,37620.98833235869,39526.87331167178,9.707674881257653,37643.027373699,-10041.086255639411,17.835757802335316,37858.81123825114,14363.259807251954,30.700721053997768,0.9614907263102224,58.0,20.0,133.0,240.0,373.0,38.0,795.0,796.0,38.0,18.0,20.0,0.4736842105263157,94.20764310058946,4178.2999316780715,72.0,58.0,14.0,0.8055555555555556,110.17996305303534,1942.506618416737,22.0,12.0,10.0,0.5454545454545454,1851.99146471704,29787.645002409685,21.0,4.0,17.0,0.1904761904761904,1298.7807449073966,23634.373875019344,79.0,40.0,39.0,0.5063291139240507,82.16198754768108,14457.20872113588,0.0,0.0,0.0,0.0,37467.0,37505.0,37525.0,37596.0,37609.0,37631.0,37639.0,37658.0,37820.0,37898.0,0.021947792015984614,-0.030723411946019318,0.046853983367568075,-0.12934663758893195,0.005720288336370397
42,42,38325.20066569923,4028.973729377939,13.195618431404712,38423.753390998565,-3934.144658260092,25.47965400864057,38462.03650121178,40661.66412156682,9.7261340074402,38484.027373699,-9968.20857850081,17.835757802678383,38700.76475704983,14062.354474608212,29.918260376343177,0.9566364352073818,56.0,20.0,135.0,240.0,375.0,36.0,840.0,841.0,36.0,17.0,19.0,0.4722222222222222,97.68509528615662,3967.388560202614,74.0,60.0,14.0,0.8108108108108109,108.50060504858229,2319.5970558098174,22.0,12.0,10.0,0.5454545454545454,1898.700290895832,30861.71666235084,21.0,4.0,17.0,0.1904761904761904,1311.8669265788878,23757.09865884163,79.0,40.0,39.0,0.5063291139240507,79.79355743102357,14053.193872087606,0.0,0.0,0.0,0.0,38308.0,38344.0,38364.0,38438.0,38450.0,38472.0,38480.0,38499.0,38662.0,38739.0,0.02424565208104221,-0.027579210851023352,0.046695095538127944,-0.13160508392734585,0.005674267248425814
43,43,39212.62789260681,3968.955884530234,13.086120657431866,39313.60271279886,-3287.5478169195367,20.383723206912453,39350.03598793604,39331.37064978393,9.658530896943104,39372.027373699,-10057.504443727024,17.835757805012527,39588.40459496421,14385.19031958455,30.5767826695583,0.9583590095746004,56.0,21.0,135.0,241.0,376.0,35.0,886.0,888.0,35.0,17.0,18.0,0.4857142857142857,99.08326565844445,3810.417739892826,74.0,62.0,12.0,0.8378378378378378,160.30283187395483,1182.669817935674,22.0,12.0,10.0,0.5454545454545454,1852.5828240195565,29838.418764668644,21.0,4.0,17.0,0.1904761904761904,1297.1843910709845,23640.41356156688,79.0,39.0,40.0,0.4936708860759494,79.14501484302231,14440.153292231083,0.0,0.0,0.0,0.0,39196.0,39231.0,39252.0,39325.0,39338.0,39360.0,39368.0,39387.0,39549.0,39628.0,0.024964567140854464,-0.048760608453798884,0.04710191364840558,-0.1289767653923387,0.005501839953780191
44,44,40083.390331401104,3598.2899005449704,11.260770426659338,40182.178051898714,-3745.801586162797,22.93168860777651,40219.3542669588,39022.44866560905,9.74785004264096,40241.60271279886,-10461.154914542052,20.31145459801091,40457.92771649911,14320.74333334182,30.509616437960187,0.9507993445756572,52.0,20.0,139.0,238.0,377.0,32.0,870.0,869.0,32.0,15.0,17.0,0.46875,109.41447045813372,3509.7243876084185,76.0,62.0,14.0,0.8157894736842105,116.98095025875588,2121.209385724053,22.0,11.0,11.0,0.5,1779.3887128730323,29060.194546679828,23.0,5.0,18.0,0.217391304347826,1235.0469806003312,23766.324577264513,79.0,39.0,40.0,0.4936708860759494,76.46600808021552,14320.771028578323,0.0,0.0,0.0,0.0,40068.0,40100.0,40120.0,40195.0,40208.0,40230.0,40237.0,40259.0,40419.0,40497.0,0.030407352793215082,-0.03122988432993625,0.04559910445705138,-0.11806028977579638,0.005339527865301932
45,45,40972.34872940139,3614.724491161133,12.580138736691117,41070.753390998565,-3570.8858231195736,25.47965400864057,41109.8901229521,40497.165668305344,9.71073684201294,41132.027373699,-9600.464476293046,17.8357578058241,41349.56400343815,14155.009283002188,30.02865570537033,0.9589532775955532,56.0,22.0,135.0,242.0,377.0,34.0,888.0,891.0,34.0,16.0,18.0,0.4705882352941176,101.25738291738509,3594.9129318184378,74.0,60.0,14.0,0.8108108108108109,90.00189221841654,2180.935903400932,22.0,12.0,10.0,0.5454545454545454,1892.4571634534225,30771.02090277608,20.0,4.0,16.0,0.2,1296.795418739834,23357.929713042635,79.0,40.0,39.0,0.5063291139240507,75.75327293607413,14039.653673372504,0.0,0.0,0.0,0.0,40956.0,40990.0,41012.0,41085.0,41098.0,41120.0,41128.0,41147.0,41311.0,41389.0,0.028012475961856468,-0.02520436011582966,0.04673060774064327,-0.13507632072824,0.005351693624605475
46,46,41876.20832810509,3607.717150222037,11.333389053339928,41976.178051898714,-3760.663695475661,22.93168860777651,42013.54680509588,38846.07802147617,9.741893020163818,42035.027373699,-11086.16921283585,17.835757806034305,42252.45675100419,14667.05252655276,30.898292340203906,0.9583298611328144,53.0,22.0,138.0,240.0,378.0,31.0,906.0,903.0,31.0,15.0,16.0,0.4838709677419355,117.37527626433628,3563.7079748705396,76.0,62.0,14.0,0.8157894736842105,121.582698155743,2177.2249440647424,22.0,12.0,10.0,0.5454545454545454,1825.694696530027,27020.49986194165,22.0,4.0,18.0,0.1818181818181818,1311.9187231916353,24451.341445535603,80.0,40.0,40.0,0.5,82.4152001760241,14793.011313152065,0.0,0.0,0.0,0.0,41861.0,41892.0,41914.0,41989.0,42002.0,42023.0,42031.0,42052.0,42213.0,42292.0,0.03253450073188593,-0.03233011723489538,0.04699817303359907,-0.11833832751467137,0.005619070363784563
47,47,42719.50326484187,3383.260938986106,11.236003482951656,42817.753390998565,-4020.319873339045,25.47965400864057,42855.32445419571,38762.25365512141,9.815748278020225,42877.027373699,-11568.978665844144,17.835757806037364,43093.55672099131,14333.720741894183,30.829471335327437,0.9502905827727234,53.0,21.0,138.0,238.0,376.0,32.0,842.0,842.0,32.0,16.0,16.0,0.5,101.38419208671206,3099.2275308484573,76.0,62.0,14.0,0.8157894736842105,119.30694178465396,2180.4235721872446,21.0,11.0,10.0,0.5238095238095238,1792.41304677601,28127.335795827847,24.0,5.0,19.0,0.2083333333333333,1290.0455031900512,24748.21843669184,81.0,41.0,40.0,0.5061728395061729,75.54267545528062,14341.312460480378,0.0,0.0,0.0,0.0,42704.0,42736.0,42757.0,42832.0,42844.0,42865.0,42873.0,42895.0,43054.0,43133.0,0.029966412261743795,-0.029675982395292472,0.04624119801504859,-0.1115090225724711,0.0052702767701122205
48,48,43563.887892221865,3978.3737420295006,13.20323212368513,43661.753390998565,-3783.402855560414,25.47965400864057,43699.91856818038,40620.13673836005,9.695076406109504,43722.027373699,-9210.421007572091,17.8357578058803,43939.06204823485,14543.45501502288,30.282297575934003,0.9563239527843342,56.0,21.0,134.0,241.0,375.0,35.0,846.0,845.0,35.0,17.0,18.0,0.4857142857142857,98.11229241136084,3872.9724508343393,73.0,59.0,14.0,0.8082191780821918,114.68804757262356,2267.813439415863,22.0,12.0,10.0,0.5454545454545454,1898.9625219224936,31211.19170858852,20.0,4.0,16.0,0.2,1296.548756075845,23023.503250246173,78.0,39.0,39.0,0.5,83.69833648456292,14593.86982581655,0.0,0.0,0.0,0.0,43547.0,43582.0,43603.0,43676.0,43688.0,43710.0,43718.0,43737.0,43900.0,43978.0,0.024661406588037275,-0.030313464347067387,0.04674928925409521,-0.14076976014559198,0.005755051767142365
49,49,44382.31060678302,3949.083382972027,12.014175690937105,44477.32873009842,-4167.921120771705,28.027619409504627,44516.59532650297,39203.011338298995,9.8515287179638,44538.60271279886,-11440.73476801236,20.383723206773777,44753.70947195679,14621.56644471141,30.146201241463825,0.9475827314563258,54.0,20.0,137.0,237.0,374.0,34.0,819.0,816.0,34.0,17.0,17.0,0.5,102.55416754323146,3722.969225680841,74.0,58.0,16.0,0.7837837837837838,77.25219546530032,3082.6092318680526,22.0,12.0,10.0,0.5454545454545454,1779.890522126832,26177.599909785586,23.0,5.0,18.0,0.217391304347826,1265.8244082031692,24917.17614480886,79.0,40.0,39.0,0.5063291139240507,78.5855634824562,14523.058892857856,0.0,0.0,0.0,0.0,44365.0,44399.0,44419.0,44493.0,44505.0,44527.0,44534.0,44556.0,44715.0,44793.0,0.025969106650275534,-0.01853494661410406,0.04540188269639341,-0.1106418804273255,0.005374633680981591
50,50,45163.61659289314,5026.896945510809,14.405221606889008,45260.753390998565,-3387.8150573664907,25.47965400864057,45299.152775276074,38837.63075982426,9.790884982272546,45321.027373699,-10673.125895876115,17.05374175374552,45535.36964953966,15003.675649061646,31.62725075341937,0.9673138871906688,60.0,21.0,132.0,238.0,370.0,39.0,781.0,783.0,39.0,19.0,20.0,0.4871794871794871,102.37423812513926,4780.585164829705,71.0,57.0,14.0,0.8028169014084507,105.60494045605692,1885.8453488155717,22.0,12.0,10.0,0.5454545454545454,1812.0205885717364,29000.75067081325,22.0,4.0,18.0,0.1818181818181818,1287.896330980359,23883.449301165405,81.0,40.0,41.0,0.4938271604938271,85.00252645706023,15216.030152788626,0.0,0.0,0.0,0.0,45145.0,45184.0,45205.0,45275.0,45287.0,45309.0,45317.0,45337.0,45496.0,45575.0,0.020365294780224797,-0.031171990993554603,0.04665631124044231,-0.12066721066955433,0.005665446817518774
51,51,46034.46333100723,4490.374780277397,14.579510737189077,46130.32873009842,-3482.141119968369,28.027619409504627,46171.07396522414,41417.29744877327,9.691438261327576,46193.027373699,-9014.393769200078,17.835757806010335,46409.43463262232,14551.17205385657,29.905656923272065,0.9610677865592286,60.0,21.0,133.0,240.0,373.0,39.0,871.0,872.0,39.0,19.0,20.0,0.4871794871794871,91.99119670282076,4411.060439163823,73.0,56.0,17.0,0.7671232876712328,57.46423038884545,2628.2741960098106,23.0,12.0,11.0,0.5217391304347826,1928.965651907786,32370.546829702067,20.0,4.0,16.0,0.2,1320.1568076684352,23157.13242841852,78.0,39.0,39.0,0.5,78.01376574723653,14488.463822933432,0.0,0.0,0.0,0.0,46015.0,46054.0,46075.0,46146.0,46159.0,46182.0,46189.0,46208.0,46371.0,46448.0,0.020486307091083813,-0.0165025564470424,0.04657391405833795,-0.14644987133567205,0.005361338966956971
52,52,46899.183905471386,3986.579914038518,11.947864833992718,46996.753390998565,-4381.281845130142,25.47965400864057,47034.32751581734,39049.97140498303,9.838283649685383,47056.60271279887,-12025.808954369537,20.38372320605943,47271.98379412797,14655.696150214191,29.721934246193992,0.9484481049788196,55.0,20.0,138.0,236.0,374.0,35.0,866.0,863.0,35.0,17.0,18.0,0.4857142857142857,98.4800342535657,3757.092294945728,75.0,61.0,14.0,0.8133333333333334,115.32077832613189,2724.822675092455,21.0,11.0,10.0,0.5238095238095238,1769.4146103490568,27374.231880011765,24.0,5.0,19.0,0.2083333333333333,1235.2329918769483,25059.707852864936,78.0,39.0,39.0,0.5,85.49367659226458,14663.330092092448,0.0,0.0,0.0,0.0,46882.0,46917.0,46937.0,47011.0,47023.0,47044.0,47052.0,47075.0,47234.0,47311.0,0.024702887281093697,-0.02632124168279943,0.04531154688946246,-0.10271516839855756,0.005833477694678809
53,53,47752.0598401323,3946.061528955011,12.249805695852952,47849.753390998565,-4463.505261835158,25.47965400864057,47888.42911767278,40715.84288661829,9.80571727089102,47910.027373699,-10702.260517245586,17.835757806044544,48126.950415372616,14343.5591763155,29.364133877538872,0.9521278410744468,56.0,21.0,135.0,239.0,374.0,35.0,851.0,854.0,35.0,17.0,18.0,0.4857142857142857,98.82846386083202,3729.339544398229,75.0,60.0,15.0,0.8,104.3996927056774,2789.8861584974848,22.0,11.0,11.0,0.5,1882.55026155279,31082.04625565179,22.0,4.0,18.0,0.1818181818181818,1336.7114098871282,24463.444949439545,76.0,38.0,38.0,0.5,87.07084925266075,14349.174749693138,0.0,0.0,0.0,0.0,47735.0,47770.0,47791.0,47864.0,47877.0,47899.0,47906.0,47926.0,48089.0,48165.0,0.025044836005637144,-0.023389620171020867,0.04623630823007009,-0.12489991322236606,0.0060703796165483565
54,54,48663.76367791751,4177.306676042654,13.804035068570448,48762.753390998565,-3633.782875652667,25.47965400864057,48801.31147580506,40925.64800833811,9.667973905046193,48823.027373699,-9163.00013548508,17.835757794095453,49040.87153074108,14570.851709017328,30.141650540131696,0.958491995769572,60.0,23.0,132.0,242.0,374.0,37.0,912.0,913.0,37.0,18.0,19.0,0.4864864864864865,99.04815757671606,4060.348277542222,72.0,58.0,14.0,0.8055555555555556,100.05591198731878,2138.4314260025403,22.0,11.0,11.0,0.5,1905.2794510298977,32335.369745836146,20.0,4.0,16.0,0.2,1330.2509777561502,23307.71420974036,78.0,39.0,39.0,0.5,83.37054849032192,14583.698338075272,0.0,0.0,0.0,0.0,48646.0,48683.0,48706.0,48777.0,48790.0,48812.0,48819.0,48838.0,49002.0,49080.0,0.023711009331627224,-0.02753491758071749,0.04655465566829192,-0.1451763568795067,0.005721734745178085
55,55,49585.46548975438,3937.452856489273,12.0742360148812,49684.178051898714,-3582.917201439327,22.93168860777651,49721.640375487834,38576.20570362213,9.84390449227185,49743.60271279886,-11471.257310816753,17.57951246380518,49960.70503265695,15097.54189926017,30.908485018825044,0.9578493748481742,56.0,24.0,135.0,239.0,374.0,32.0,920.0,920.0,32.0,15.0,17.0,0.46875,116.94348248229068,3904.705754656101,72.0,59.0,13.0,0.8194444444444444,115.9830724908806,1756.023132056814,22.0,12.0,10.0,0.5454545454545454,1803.0771458126533,26958.793516520363,22.0,5.0,17.0,0.2272727272727272,1262.290467196549,24238.90291897318,80.0,40.0,40.0,0.5,79.44705874569755,15075.531532830126,0.0,0.0,0.0,0.0,49570.0,49602.0,49626.0,49697.0,49710.0,49732.0,49739.0,49761.0,49921.0,50000.0,0.029700287659205214,-0.03237112832087997,0.0467406556172359,-0.1100394170398636,0.005262251250953026
56,56,50424.04213313312,3947.191678010122,12.563995762856631,50519.32873009842,-3834.588787180011,28.027619409504627,50558.559337525105,40035.64833930535,9.806133563920476,50580.60271279886,-10359.787344177676,20.383723206908005,50797.591292172656,14631.73863295956,30.52728282989676,0.9538641202500546,55.0,20.0,136.0,239.0,375.0,35.0,839.0,837.0,35.0,17.0,18.0,0.4857142857142857,101.43093327210052,3739.763377025156,74.0,58.0,16.0,0.7837837837837838,77.46292639541426,2725.4634699482663,22.0,12.0,10.0,0.5454545454545454,1820.2774703345103,27928.4836852709,23.0,5.0,18.0,0.217391304347826,1261.9905153853056,24078.637898186884,79.0,40.0,39.0,0.5063291139240507,80.90354489073167,14658.308466388067,0.0,0.0,0.0,0.0,50407.0,50442.0,50462.0,50535.0,50547.0,50569.0,50576.0,50598.0,50758.0,50837.0,0.025696987009061183,-0.020201103871787293,0.04546641670212287,-0.12181625678779588,0.005529318621676836
57,57,51285.60350384113,3946.3469408963338,12.04613691483998,51382.753390998565,-4499.843450803935,25.47965400864057,51420.162648239784,40455.43290856225,9.702101836346404,51443.19557080457,-10035.105242126316,17.8357578060484,51660.7957838459,14231.8715423943,29.27596765342101,0.9512548235767,54.0,20.0,135.0,241.0,376.0,34.0,863.0,862.0,34.0,17.0,17.0,0.5,102.6077374540726,3661.1922413274647,74.0,60.0,14.0,0.8108108108108109,132.49881790634902,2593.45702809106,21.0,11.0,10.0,0.5238095238095238,1904.4058457116887,31203.58517929675,21.0,5.0,16.0,0.238095238095238,1245.4452389223434,23215.77317058178,77.0,39.0,38.0,0.5064935064935064,81.25633081040172,14170.631302245783,0.0,0.0,0.0,0.0,51269.0,51303.0,51323.0,51397.0,51409.0,51430.0,51438.0,51458.0,51623.0,51699.0,0.026000688482489914,-0.029445206117709934,0.047074168011402684,-0.12410883681559166,0.005709462073793533
58,58,52172.46605766359,3782.685891475173,11.769582733555662,52267.753390998565,-4232.668833086442,25.47965400864057,52305.83447955221,39285.11189656295,9.826853189931958,52327.60271279891,-11252.565282792748,20.38372320548581,52545.66492360411,14597.98937161756,29.869990563181936,0.9460454079791564,54.0,21.0,135.0,240.0,375.0,33.0,887.0,886.0,33.0,16.0,17.0,0.4848484848484848,102.38805792520816,3627.603417997027,72.0,58.0,14.0,0.8055555555555556,112.5328761211776,2711.7274480226897,22.0,12.0,10.0,0.5454545454545454,1787.4962365663812,27122.287721735724,23.0,5.0,18.0,0.217391304347826,1278.2844425311237,24704.98612986709,79.0,40.0,39.0,0.5063291139240507,79.93603072077616,14518.473262084492,0.0,0.0,0.0,0.0,52156.0,52189.0,52210.0,52282.0,52294.0,52316.0,52323.0,52345.0,52507.0,52585.0,0.027067554870457096,-0.026586742445219642,0.04550060188889952,-0.11359938026628087,0.005475824696529334
59,59,53002.46026652808,4630.235640863954,13.03886358336866,53098.178051898714,-3790.9373349249304,22.93168860777651,53135.31273388906,38667.65519337312,9.782839957404653,53157.027373699,-11336.708910844223,17.821501949645025,53373.81617088573,14779.160286925942,31.388230921928898,0.9578387305114404,56.0,20.0,133.0,240.0,373.0,36.0,831.0,829.0,37.0,18.0,19.0,0.4864864864864865,103.30571568227202,4465.734123974949,70.0,57.0,13.0,0.8142857142857143,123.39302466476424,2007.5770683173143,21.0,11.0,10.0,0.5238095238095238,1795.572586950376,28433.132570030873,22.0,4.0,18.0,0.1818181818181818,1300.406126638853,24599.790882537185,80.0,40.0,40.0,0.5,80.27718115334125,14862.902264602712,0.0,0.0,0.0,0.0,52985.0,53021.0,53041.0,53111.0,53124.0,53145.0,53153.0,53174.0,53334.0,53414.0,0.02231111409763937,-0.032549476227943956,0.046436034923009815,-0.11470755197700619,0.005431782293095277
60,60,53830.835958798736,4865.552145965991,14.17473950030742,53926.753390998565,-3577.6296989984708,25.47965400864057,53964.91824261256,40958.57561668174,9.646832011848026,53987.027373699,-8931.46852199186,17.835757803540005,54203.99722124263,14814.816292042837,31.001780831706732,0.963271252200552,59.0,20.0,131.0,242.0,373.0,39.0,828.0,830.0,39.0,19.0,20.0,0.4871794871794871,103.93428398119424,4689.290977777444,70.0,56.0,14.0,0.8,107.56508429729934,2088.8725791529764,22.0,12.0,10.0,0.5454545454545454,1920.2768252559508,31769.72029638927,20.0,4.0,16.0,0.2,1302.8032553855476,22940.434655645004,80.0,40.0,40.0,0.5,81.42599426172747,14865.93938835531,0.0,0.0,0.0,0.0,53812.0,53851.0,53871.0,53941.0,53953.0,53975.0,53983.0,54002.0,54164.0,54244.0,0.02136125168597067,-0.030066019500959346,0.04688338879816549,-0.1458666346052353,0.005496254064619219
61,61,54653.86575754904,4973.6425847657265,13.70755631099467,54748.753390998565,-3669.5473983903225,25.47965400864057,54787.46771933763,38940.26977531604,9.74847482084238,54809.027373699,-11327.614435137692,17.83575700177298,55025.4231429669,15170.425180185572,31.510177450958448,0.9614084907536712,60.0,22.0,131.0,240.0,371.0,38.0,823.0,822.0,38.0,19.0,19.0,0.5,108.031097002027,4720.600059571856,69.0,55.0,14.0,0.7971014492753623,98.56704936117178,2320.309756810211,21.0,11.0,10.0,0.5238095238095238,1802.380929264261,28748.27655435384,22.0,4.0,18.0,0.1818181818181818,1320.27352615336,24810.64396576715,81.0,40.0,41.0,0.4938271604938271,78.34678184607328,15248.196830106366,0.0,0.0,0.0,0.0,54635.0,54673.0,54695.0,54763.0,54776.0,54797.0,54805.0,54826.0,54986.0,55066.0,0.02172071980663154,-0.026860819240108205,0.04628578434776992,-0.11655353682042159,0.0051644420585128855
62,62,55469.65384461877,5074.745589727816,14.388498981407,55565.753390998565,-3317.2312017575036,25.47965400864057,55604.29053121655,39001.52501912136,9.742301735580902,55626.027373699,-10386.09206459372,17.650741980584122,55842.339290280855,14960.277790969036,31.67418229754269,0.9647103338046809,60.0,22.0,131.0,241.0,372.0,38.0,815.0,817.0,38.0,19.0,19.0,0.5,106.85997670095776,4881.704721870701,70.0,56.0,14.0,0.8,98.96852607527303,1866.089830637451,22.0,12.0,10.0,0.5454545454545454,1809.9364389301716,29406.998188794467,22.0,4.0,18.0,0.1818181818181818,1295.4754785716218,23842.221941078024,81.0,40.0,41.0,0.4938271604938271,76.21281690657864,15031.732144703648,0.0,0.0,0.0,0.0,55451.0,55489.0,55511.0,55580.0,55592.0,55614.0,55622.0,55642.0,55803.0,55883.0,0.021057208644559695,-0.029834678397706642,0.046406811991141626,-0.12473175382181612,0.005094345036332513
63,63,56355.27838160951,4826.4027748501085,14.04907135914485,56453.178051898714,-3870.9789991538582,22.93168860777651,56490.27186963747,40809.77017080125,9.650556762527284,56512.027373699,-9408.136960994914,17.835757806003983,56729.92457525391,14684.154725108594,30.714883289014253,0.9602282216965068,59.0,21.0,131.0,242.0,373.0,38.0,886.0,886.0,38.0,18.0,20.0,0.4736842105263157,101.4853589129126,4719.729258125326,70.0,57.0,13.0,0.8142857142857143,127.90218597629398,2174.1015779097525,22.0,11.0,11.0,0.5,1915.1761305848177,32143.27080432172,21.0,4.0,17.0,0.1904761904761904,1317.6240566540062,23358.53048604447,80.0,40.0,40.0,0.5,83.06878594813534,14775.213003282492,0.0,0.0,0.0,0.0,56337.0,56375.0,56396.0,56466.0,56479.0,56501.0,56508.0,56527.0,56691.0,56769.0,0.021027121781410876,-0.03304130195597848,0.04692935349964544,-0.14005153859012984,0.005657035594026746
64,64,57242.72028167197,4875.298987670682,12.950662528685635,57337.753390998565,-3773.073921714192,25.47965400864057,57375.69228910842,39554.06983151452,9.734184036759062,57397.60271279886,-11139.477372059106,20.383723206901905,57614.92735050038,14881.418195781916,31.055407517907582,0.9579479546405588,55.0,19.0,135.0,240.0,375.0,36.0,888.0,885.0,36.0,18.0,18.0,0.5,117.53555429651504,4623.306799768843,72.0,58.0,14.0,0.8055555555555556,105.18092494970492,2359.5590147071025,22.0,12.0,10.0,0.5454545454545454,1812.0312219810207,27181.020624706463,23.0,5.0,18.0,0.217391304347826,1275.710644194171,24736.81572483487,80.0,40.0,40.0,0.5,79.56184709894745,14905.53786706294,0.0,0.0,0.0,0.0,57225.0,57261.0,57280.0,57352.0,57364.0,57386.0,57393.0,57415.0,57575.0,57655.0,0.024108378705337847,-0.02787671991910481,0.045811498783806394,-0.11452158854364268,0.005346388768343259
65,65,58055.03511911393,4907.314842003339,13.679666683512028,58151.178051898714,-3625.324276850408,22.93168860777651,58188.542707798006,38413.60837264902,9.799585968279192,58210.027373699,-11217.896232277932,17.83575780604539,58426.49147187432,14971.43711863406,31.794450982636324,0.9617629124434364,59.0,22.0,131.0,240.0,371.0,37.0,811.0,813.0,37.0,18.0,19.0,0.4864864864864865,106.22673226229716,4736.495353982732,69.0,56.0,13.0,0.8115942028985508,116.11074916854788,1934.0082858559824,22.0,12.0,10.0,0.5454545454545454,1796.2041738269809,26501.062727599332,23.0,4.0,19.0,0.1739130434782608,1298.6478315168702,24390.247084950715,81.0,40.0,41.0,0.4938271604938271,76.3161496359724,15077.502220801787,0.0,0.0,0.0,0.0,58037.0,58074.0,58096.0,58164.0,58177.0,58198.0,58206.0,58227.0,58387.0,58467.0,0.021646610352583705,-0.03202768643621089,0.04675957948032555,-0.11576571975948505,0.005097449832720882
66,66,58884.94170999487,4976.035864391895,15.013611894544232,58982.178051898714,-3295.0685133657594,22.93168860777651,59020.06935493102,40731.90413087878,9.63269539819853,59042.027373699,-8877.772140886003,17.835757801721588,59259.02101747366,14816.127048776743,31.43680243522639,0.9663371576891636,61.0,21.0,129.0,243.0,372.0,40.0,832.0,832.0,40.0,19.0,21.0,0.475,97.0966130410962,4893.072953155969,68.0,55.0,13.0,0.8088235294117647,105.02083098201628,1835.5077029121376,23.0,12.0,11.0,0.5217391304347826,1911.819989655376,32097.289380240087,20.0,4.0,16.0,0.2,1317.1528695256698,22990.711573860684,80.0,40.0,40.0,0.5,82.78320964882205,14935.981143255496,0.0,0.0,0.0,0.0,58866.0,58906.0,58927.0,58995.0,59008.0,59031.0,59038.0,59056.0,59219.0,59299.0,0.01951284429758869,-0.03187212361625294,0.04693667115370698,-0.14836524846809343,0.005587371745415536
67,67,59749.16598177939,4840.042386498192,14.607360673682614,59843.753390998565,-3409.417622978649,25.47965400864057,59882.9972547807,39442.52495044343,9.6884512289061,59905.027373699,-10763.31541366092,17.835757772887742,60121.84431026811,14906.000471264697,31.39817791829831,0.9626573169786868,61.0,22.0,130.0,241.0,371.0,39.0,863.0,863.0,39.0,19.0,20.0,0.4871794871794871,92.98791643371464,4700.6144808926265,69.0,54.0,15.0,0.782608695652174,86.6891537848891,2245.9837768901098,22.0,12.0,10.0,0.5454545454545454,1846.693632293639,28898.825854248666,22.0,5.0,17.0,0.2272727272727272,1305.1593370499884,24338.680811192127,81.0,41.0,40.0,0.5061728395061729,82.38705263103809,15000.994162457377,0.0,0.0,0.0,0.0,59730.0,59769.0,59791.0,59858.0,59871.0,59893.0,59901.0,59921.0,60082.0,60162.0,0.01921221117672734,-0.025426381678978018,0.04681986344976319,-0.12125997305565028,0.005527106536046418
68,68,60572.32222911367,4836.44814787313,13.22547259083286,60669.178051898714,-3940.404887951815,22.93168860777651,60705.84571986363,38673.84442850869,9.75945375690402,60727.60271279886,-11372.433488398365,19.977385844114572,60943.94347142545,14929.859807584242,31.92044103906949,0.9589025613849012,59.0,21.0,133.0,239.0,372.0,38.0,822.0,823.0,38.0,18.0,20.0,0.4736842105263157,101.58390359543118,4604.466184840876,71.0,57.0,14.0,0.8028169014084507,127.80229360030168,2273.6302273025444,22.0,12.0,10.0,0.5454545454545454,1774.1935401345222,26740.931760313593,24.0,5.0,19.0,0.2083333333333333,1257.161407409524,24631.104707147177,82.0,41.0,41.0,0.5,79.80730247725654,15075.89060785567,0.0,0.0,0.0,0.0,60554.0,60592.0,60613.0,60682.0,60694.0,60716.0,60723.0,60746.0,60903.0,60985.0,0.021003823568356374,-0.03243379734683359,0.04587579968715661,-0.11054462606372,0.00534548237597751
69,69,61411.81968777939,4562.612758128071,13.62072903614227,61507.753390998565,-3953.223816473348,25.47965400864057,61546.50317268824,40836.00445691843,9.715768739879175,61568.027373699,-9715.185600896471,17.835757805997783,61785.89795025711,14210.86807438021,30.26692035651871,0.9590634889364478,57.0,20.0,133.0,241.0,374.0,37.0,841.0,840.0,37.0,18.0,19.0,0.4864864864864865,99.01230056661,4338.87550891102,71.0,57.0,14.0,0.8028169014084507,101.09899520707366,2540.021370683234,22.0,12.0,10.0,0.5454545454545454,1914.8581687839885,29859.59868406003,21.0,4.0,17.0,0.1904761904761904,1335.235077189399,23710.66905832285,79.0,40.0,39.0,0.5063291139240507,81.1252224879845,14245.480187293582,0.0,0.0,0.0,0.0,61394.0,61431.0,61451.0,61522.0,61535.0,61557.0,61564.0,61584.0,61747.0,61825.0,0.021700789835872973,-0.02557381011057036,0.046891418351277345,-0.13743793809417185,0.005708674661067296
70,70,62292.0265038212,5012.191261591037,14.380640271029304,62387.753390998565,-3394.1047065719545,25.47965400864057,62425.9537591624,40365.04793266079,9.62666200869245,62448.027373699,-8923.715513867308,17.83575780506647,62665.99429588794,14643.243172039713,31.189055760257855,0.963157333817808,61.0,22.0,129.0,243.0,372.0,39.0,880.0,880.0,39.0,19.0,20.0,0.4871794871794871,105.1487043194126,4857.893636925947,69.0,55.0,14.0,0.7971014492753623,102.87695014338256,1894.317051764138,22.0,12.0,10.0,0.5454545454545454,1895.196748340248,31278.18376572469,20.0,4.0,16.0,0.2,1294.821973425138,22820.995578062593,80.0,40.0,40.0,0.5,84.76402606739703,14777.874274417763,0.0,0.0,0.0,0.0,62273.0,62312.0,62334.0,62402.0,62414.0,62436.0,62444.0,62463.0,62626.0,62706.0,0.020978589768746152,-0.03031048215577541,0.046951430641230016,-0.14509897490714554,0.005788610150874789
71,71,63137.42764575969,4856.652284746973,13.813393494236452,63230.32873009842,-3564.303461847069,28.027619409504627,63270.00412720261,38772.87538530121,9.75338011894348,63291.027373699,-11114.264149475312,17.437705064454015,63508.70419468807,14987.894347491168,31.469261975640652,0.9591446140442522,57.0,19.0,131.0,242.0,373.0,38.0,844.0,844.0,38.0,18.0,20.0,0.4736842105263157,103.43348776580255,4673.770324403324,71.0,55.0,16.0,0.7746478873239436,73.27353340883522,2502.6094080496405,22.0,12.0,10.0,0.5454545454545454,1798.3963750241703,27485.87020976618,22.0,4.0,18.0,0.1818181818181818,1346.303265940572,24651.52916187066,82.0,41.0,41.0,0.5,73.41617702692135,14946.97521231501,0.0,0.0,0.0,0.0,63119.0,63157.0,63176.0,63246.0,63258.0,63280.0,63287.0,63307.0,63469.0,63549.0,0.021297280863744467,-0.020557602402031142,0.046382847729315994,-0.1211329196278036,0.004898364995427828
72,72,64631.15065075968,5100.389239417252,16.38931729458076,64727.753390998565,-3361.2006228757195,25.47965400864057,64767.38008827665,38398.33804089573,9.847146722982764,64789.027373699,-10411.412925081237,14.11104891218504,65003.729352288174,14748.722147384397,32.082455392448516,0.969690571667068,64.0,22.0,129.0,240.0,369.0,42.0,1494.0,1497.0,42.0,20.0,22.0,0.4761904761904761,91.48360089564488,5147.933401957898,67.0,53.0,14.0,0.7910447761194029,89.68024462512538,2059.0679676961645,22.0,12.0,10.0,0.5454545454545454,1848.4475980339384,30679.723116440524,20.0,4.0,16.0,0.2,1304.2029532831175,23122.71485998812,81.0,41.0,40.0,0.5061728395061729,76.72617904828937,14914.414839755633,0.0,0.0,0.0,0.0,64611.0,64653.0,64675.0,64742.0,64755.0,64777.0,64785.0,64804.0,64964.0,65044.0,0.01793659201314161,-0.02668101511548521,0.04813873965235864,-0.12526666290809335,0.0052022255407324445
73,73,65384.87195999683,4999.458748826812,15.911914144125156,65483.178051898714,-3165.756481233356,22.93168860777651,65521.19679892751,39050.861623959965,9.776432071141306,65543.027373699,-9471.333207184647,13.404903891950346,65757.51106993141,14925.802358735997,31.98277393066534,0.9705346335763152,63.0,22.0,129.0,241.0,370.0,41.0,757.0,754.0,41.0,20.0,21.0,0.4878048780487805,94.77737311484496,4987.444241860796,68.0,55.0,13.0,0.8088235294117647,108.42906285165368,1594.6811898889746,23.0,12.0,11.0,0.5217391304347826,1906.942740196052,32218.384539503793,19.0,4.0,15.0,0.2105263157894736,1300.4426993975455,22324.01369116433,81.0,41.0,40.0,0.5061728395061729,79.10739383808395,15045.45169508892,0.0,0.0,0.0,0.0,65365.0,65406.0,65428.0,65496.0,65509.0,65532.0,65539.0,65557.0,65718.0,65798.0,0.018957526779691043,-0.034250601236836285,0.048832283358020256,-0.1373030249227291,0.005300042968328787
74,74,66110.10127728057,4736.914782869455,14.260361245252028,66206.75339099858,-3818.47724533423,25.47965400864057,66245.1080369628,39493.1634090048,9.702170165745192,66267.027373699,-9773.78337016626,16.245241578828594,66480.3031154516,14793.838913812164,30.480222691712463,0.962085984369796,58.0,19.0,133.0,238.0,371.0,39.0,724.0,724.0,39.0,19.0,20.0,0.4871794871794871,100.12881233022236,4647.392022178294,72.0,58.0,14.0,0.8055555555555556,107.09231771339546,2153.146471523287,22.0,12.0,10.0,0.5454545454545454,1875.482332969715,30570.85351327904,20.0,4.0,16.0,0.2,1305.9372801961576,23219.437660605283,79.0,39.0,40.0,0.4936708860759494,82.39026404375127,14850.838844107802,0.0,0.0,0.0,0.0,66091.0,66130.0,66149.0,66221.0,66233.0,66255.0,66263.0,66282.0,66442.0,66520.0,0.021137980504172777,-0.028045817961662806,0.04748878466752774,-0.13361635210602613,0.005569228144483051
75,75,0.0,0.0,0.0,0.0,0.0,0.0,0.0,0.0,0.0,0.0,0.0,0.0,0.0,0.0,0.0,0.0,0.0,0.0,0.0,0.0,0.0,0.0,0.0,0.0,0.0,0.0,0.0,0.0,0.0,0.0,0.0,0.0,0.0,0.0,0.0,0.0,0.0,0.0,0.0,0.0,0.0,0.0,0.0,0.0,0.0,0.0,0.0,0.0,0.0,0.0,0.0,0.0,0.0,0.0,0.0,0.0,0.0,0.0,,66532.0,66810.0,66895.0,66906.0,66927.0,66934.0,66960.0,67118.0,67185.0,,,,,
76,76,67502.66362553737,4213.085657307517,13.196391731924932,67599.32873009844,-4413.965137710645,28.027619409504627,67639.24475877265,38820.54201901349,9.834733915452896,67661.027373699,-11678.752625641442,17.835757795404234,67873.52571032644,14341.10846310812,29.99917605040286,0.9498750953047754,56.0,19.0,138.0,234.0,372.0,37.0,1393.0,1394.0,37.0,19.0,18.0,0.5135135135135135,94.3061087298883,3938.43803750623,76.0,60.0,16.0,0.7894736842105263,64.13793987199668,3027.448079345637,21.0,11.0,10.0,0.5238095238095238,1795.91785233772,27740.629492844935,23.0,5.0,18.0,0.217391304347826,1309.705183526174,25007.388103438443,77.0,39.0,38.0,0.5064935064935064,85.76435008033162,14431.69782981072,0.0,0.0,0.0,0.0,67484.0,67521.0,67540.0,67615.0,67628.0,67649.0,67657.0,67678.0,67835.0,67912.0,0.022384094794350107,-0.014530685646797515,0.04626204990796154,-0.11214426964148837,0.005980315280437122
77,77,68255.27564124754,4888.751471254032,13.948279346027054,68354.17805189872,-3493.000357645222,22.93168860777651,68391.53800287971,36981.160022898126,9.765931202442337,68413.60271279886,-11689.849111922524,17.314560202637935,68625.27764228346,15044.82267035621,32.194635624785775,0.9618744353260322,60.0,21.0,135.0,235.0,370.0,39.0,753.0,752.0,39.0,19.0,20.0,0.4871794871794871,98.42988441502742,4729.49399372672,73.0,59.0,14.0,0.8082191780821918,112.76682307765007,1799.4100337811333,21.0,12.0,9.0,0.5714285714285714,1754.7942483789552,25062.084066698637,22.0,5.0,17.0,0.2272727272727272,1218.148669567226,23906.427398226737,82.0,41.0,41.0,0.5,83.30117302978555,15285.43451018066,0.0,0.0,0.0,0.0,68236.0,68275.0,68296.0,68367.0,68380.0,68401.0,68409.0,68431.0,68585.0,68666.0,0.020133951376705757,-0.03228365632165893,0.047451033101514814,-0.1042056794663698,0.005536866392843516
78,78,69025.94173033022,4668.167611097731,14.175466654197496,69124.32873009844,-3829.935851599613,28.027619409504627,69163.87901910835,39804.05364200285,9.666943373903663,69186.027373699,-9365.78956629901,17.00896966083832,69398.98706629299,14629.62750671473,31.208095032989657,0.963066308627454,59.0,20.0,135.0,237.0,372.0,39.0,770.0,773.0,39.0,19.0,20.0,0.4871794871794871,96.68473319668654,4460.570968147566,75.0,59.0,16.0,0.7866666666666666,71.99095510919975,2644.6652892342504,22.0,12.0,10.0,0.5454545454545454,1876.35483034452,30253.10430975553,19.0,4.0,15.0,0.2105263157894736,1288.1621187256303,22983.918146009783,80.0,40.0,40.0,0.5,81.02424045167227,14769.24924352843,0.0,0.0,0.0,0.0,69007.0,69046.0,69066.0,69140.0,69152.0,69174.0,69182.0,69201.0,69360.0,69438.0,0.020711495655562136,-0.01879690885139289,0.047139792525164176,-0.13753908408969956,0.005538366606701615
79,79,69900.27066527608,5187.404165876464,15.89322406149192,70000.17805189872,-3181.187045400639,22.93168860777651,70037.87949306308,40492.3207912195,9.58186207594791,70060.027373699,-8106.657671457851,17.835757805277627,70275.75527204131,14657.581563471376,31.145090433335323,0.9639341885442206,66.0,24.0,128.0,241.0,369.0,42.0,874.0,874.0,42.0,20.0,22.0,0.4761904761904761,92.91936861161304,5164.02693885418,67.0,54.0,13.0,0.8059701492537313,110.82259034904818,1751.6680715063776,22.0,12.0,10.0,0.5454545454545454,1912.136545810277,32112.05542989781,19.0,4.0,15.0,0.2105263157894736,1291.1552532342478,22110.026882165443,80.0,40.0,40.0,0.5,88.39377481252892,14852.05252039095,0.0,0.0,0.0,0.0,69880.0,69922.0,69946.0,70013.0,70026.0,70048.0,70056.0,70074.0,70236.0,70315.0,0.017912498359555405,-0.03483686710885973,0.04722220185079912,-0.1592709727684917,0.0060305838606293585
80,80,70784.39626925287,4848.710702858209,13.830101787771849,70880.75339099858,-3601.5612455253236,25.47965400864057,70918.73149841174,38351.139786436215,9.780332853967584,70940.027373699,-11634.26129862214,17.704097316247374,71155.36277195394,14497.39158842605,31.573480595150947,0.9589107376315742,59.0,21.0,132.0,239.0,371.0,38.0,883.0,880.0,38.0,18.0,20.0,0.4736842105263157,107.08703952317128,4752.853350252382,70.0,56.0,14.0,0.8,113.06810768375604,2149.199649338937,22.0,12.0,10.0,0.5454545454545454,1788.110227556669,26243.856700594835,23.0,4.0,19.0,0.1739130434782608,1310.4121542156477,24843.808743130143,82.0,41.0,41.0,0.5,74.69256195933897,14558.16993720342,0.0,0.0,0.0,0.0,70766.0,70804.0,70825.0,70895.0,70907.0,70929.0,70936.0,70957.0,71115.0,71196.0,0.022085673096570977,-0.03139419267803231,0.04662469583730798,-0.11263389402908129,0.00515213799004847
81,81,71589.0777276761,5368.407412917459,14.876333527358913,71686.60271279886,-3098.906022534719,20.383723206912453,71723.32300783532,38334.36771016847,9.724165571670415,71745.027373699,-10603.849324837303,16.202708067269317,71960.31313451467,14775.69346909224,32.049819228648424,0.971444475174102,62.0,22.0,129.0,239.0,368.0,40.0,805.0,805.0,40.0,19.0,21.0,0.475,108.30350308906571,5269.361167041789,66.0,55.0,11.0,0.8333333333333334,152.02050780479414,951.1410723885244,22.0,12.0,10.0,0.5454545454545454,1822.841556786135,29582.261814392263,21.0,4.0,17.0,0.1904761904761904,1297.6158108255834,23670.93975902527,81.0,40.0,41.0,0.4938271604938271,84.22899694842441,15055.69246829494,0.0,0.0,0.0,0.0,71570.0,71610.0,71632.0,71698.0,71711.0,71733.0,71741.0,71761.0,71920.0,72000.0,0.02017423320526417,-0.04905618521482316,0.04755110533106857,-0.12237214723394732,0.005700510580069519
82,82,72423.96352510988,4586.054006616342,13.815934671021331,72519.32873009844,-4161.775335049811,28.027619409504627,72559.02906113229,40637.476637912056,9.64049204655402,72581.027373699,-9583.427748859884,17.8357578060484,72797.87812131815,14233.7691806964,29.542242284196657,0.958629587562326,59.0,21.0,132.0,240.0,372.0,38.0,835.0,836.0,38.0,19.0,19.0,0.5,99.5361865871022,4374.1592968181385,73.0,56.0,17.0,0.7671232876712328,70.38608623770666,3163.7879794430896,22.0,12.0,10.0,0.5454545454545454,1908.9813149729212,30902.126653828625,20.0,4.0,16.0,0.2,1295.9865061375967,23347.997159098923,77.0,39.0,38.0,0.5064935064935064,87.45340251166127,14303.096092274624,0.0,0.0,0.0,0.0,72405.0,72443.0,72464.0,72535.0,72547.0,72569.0,72577.0,72596.0,72760.0,72836.0,0.021704102577837163,-0.016912514629255988,0.04697588218831405,-0.13523204223997798,0.006144079013889316
83,83,73279.69749842242,4438.97347635301,12.776250547606931,73371.90406919828,-4164.756953919181,30.57558481036868,73412.39460309471,39164.31583403225,9.75943024555974,73434.027373699,-11390.61316276845,17.835757806048175,73650.61945448021,14328.540909304187,29.9651387611842,0.955392140126234,53.0,18.0,136.0,238.0,374.0,35.0,856.0,853.0,35.0,18.0,17.0,0.5142857142857142,102.74097084709632,3979.973139465751,74.0,57.0,17.0,0.7702702702702703,61.294214817128065,3125.0289941527703,21.0,11.0,10.0,0.5238095238095238,1812.8933271295036,28361.188501587523,23.0,5.0,18.0,0.217391304347826,1306.4080366284504,24866.137849458275,77.0,39.0,38.0,0.5064935064935064,78.99978317602186,14310.421576741734,0.0,0.0,0.0,0.0,73262.0,73297.0,73315.0,73389.0,73401.0,73422.0,73430.0,73451.0,73612.0,73689.0,0.023145209448628353,-0.014717356977925946,0.04628941648852118,-0.11469163406396748,0.005513456232289753
84,84,74820.09799859708,4567.199251270848,14.23623518756791,74916.32873009844,-4072.657531486962,28.027619409504627,74955.2863825042,40923.99834056975,9.68819248880504,74977.027373699,-9581.768530050142,17.835757805987477,75191.8088210903,14436.408243856436,30.318790610940844,0.961543133695557,59.0,20.0,132.0,239.0,371.0,39.0,1541.0,1543.0,39.0,19.0,20.0,0.4871794871794871,95.61941848774354,4415.828098044223,73.0,57.0,16.0,0.7808219178082192,81.83158609870765,2867.788027087143,22.0,11.0,11.0,0.5,1901.784407309907,31641.526707090445,21.0,4.0,17.0,0.1904761904761904,1327.4067317388574,23622.590189323422,78.0,39.0,39.0,0.5,87.88726770937186,14569.050133449871,0.0,0.0,0.0,0.0,74801.0,74840.0,74860.0,74932.0,74944.0,74966.0,74973.0,74992.0,75153.0,75231.0,0.020936117131552103,-0.02009292101436043,0.0464711290300436,-0.13853462725340027,0.006087890161098291
85,85,75624.4821859617,5274.225272182308,16.394989030955355,75721.75339099858,-3217.2332578728224,25.47965400864057,75761.03398997,38114.85074999003,9.81515828587786,75783.027373699,-10649.392681513084,13.153492990060574,75997.0225870787,14886.879261742852,31.628731841924356,0.9708649712037948,65.0,23.0,128.0,240.0,368.0,42.0,805.0,806.0,42.0,20.0,22.0,0.4761904761904761,99.40430714116192,5405.559341368222,68.0,54.0,14.0,0.7941176470588235,88.57706326868032,1772.3018112513496,22.0,12.0,10.0,0.5454545454545454,1880.3397012511352,30185.107199567847,19.0,4.0,15.0,0.2105263157894736,1298.6893184946507,23088.303516046348,80.0,40.0,40.0,0.5,82.91192765763269,15086.42266442239,0.0,0.0,0.0,0.0,75604.0,75646.0,75669.0,75736.0,75749.0,75771.0,75779.0,75797.0,75957.0,76037.0,0.018847186460814853,-0.02753206129892052,0.049333518674518934,-0.12194961321589005,0.0055694632971669536
86,86,76419.06229329694,4590.225823099301,13.466684929412908,76516.17805189872,-4078.856438379379,22.93168860777651,76553.05598691573,38284.47221156472,9.811443610265854,76574.60271279886,-11599.945136281243,19.441732250974827,76789.25340663144,14463.99973892154,30.668564039315797,0.9596653876494972,58.0,21.0,134.0,235.0,369.0,37.0,794.0,792.0,37.0,18.0,19.0,0.4864864864864865,97.46340369914331,4415.285111210139,72.0,58.0,14.0,0.8055555555555556,124.924946317251,2254.3989635390667,22.0,12.0,10.0,0.5454545454545454,1754.3363686327111,26695.469823227515,24.0,5.0,19.0,0.2083333333333333,1267.3184754822475,24697.252855047245,80.0,40.0,40.0,0.5,82.06706954329184,14565.620035225542,0.0,0.0,0.0,0.0,76401.0,76438.0,76459.0,76529.0,76541.0,76563.0,76570.0,76593.0,76750.0,76828.0,0.02123281238336471,-0.030627443795714093,0.04582370520711457,-0.10925210943614252,0.0056738848883172675
87,87,77231.42483317484,4835.39170062346,15.249888312506377,77329.75339099858,-3573.0706764776037,25.47965400864057,77368.03153472119,40943.91651842389,9.611331707520351,77390.027373699,-8371.745464783904,17.8357578060484,77605.04998221576,14727.238626882749,31.016437255172946,0.9628750248910618,61.0,21.0,131.0,240.0,371.0,40.0,812.0,815.0,41.0,19.0,22.0,0.4634146341463415,93.16111244282357,4854.615688703956,72.0,58.0,14.0,0.8055555555555556,105.26621819367408,2085.2415568383844,23.0,12.0,11.0,0.5217391304347826,1924.927728279388,32466.043145841093,19.0,4.0,15.0,0.2105263157894736,1300.471406690068,22418.45812870949,80.0,40.0,40.0,0.5,85.95545539503716,14900.692434594064,0.0,0.0,0.0,0.0,77212.0,77252.0,77273.0,77344.0,77356.0,77379.0,77386.0,77404.0,77566.0,77644.0,0.019266507908927352,-0.02946099524049924,0.047013766438616385,-0.15534053348379442,0.005836495053331731
88,88,78123.43830754665,4605.105918190633,13.516428972916664,78219.32873009844,-4152.891817801481,28.027619409504535,78258.5761286251,40330.31096214642,9.714960096047635,78280.027373699,-10377.187238159588,17.835757801933653,78497.41007410325,14262.379360092387,29.81097523041687,0.9565375718522467,58.0,21.0,133.0,240.0,373.0,37.0,890.0,890.0,37.0,18.0,19.0,0.4864864864864865,103.294585847533,4469.179638481882,73.0,57.0,16.0,0.7808219178082192,75.78082248090166,2923.344862348391,22.0,12.0,10.0,0.5454545454545454,1890.349787350578,28664.308341400018,21.0,4.0,17.0,0.1904761904761904,1339.145891421322,24238.03696680037,78.0,39.0,39.0,0.5,82.27948251660321,14283.741445300097,0.0,0.0,0.0,0.0,78105.0,78142.0,78163.0,78235.0,78247.0,78269.0,78276.0,78296.0,78459.0,78536.0,0.022430447351820718,-0.018247723708107483,0.04687168886758249,-0.12904709731910183,0.005768987098101577
89,89,78976.04111353574,4940.376364621827,13.2255967199717,79069.75339099858,-3725.951761525211,25.47965400864057,79107.96516558308,37996.55168666144,9.795454827803958,79129.60271279886,-11469.41123224282,19.15871505259767,79345.40522511773,14827.559400656271,31.894723966261836,0.9598914998781548,57.0,20.0,133.0,238.0,371.0,37.0,854.0,850.0,37.0,18.0,19.0,0.4864864864864865,114.51997587758756,4726.542234145469,70.0,56.0,14.0,0.8,94.7096670068404,2275.699449379508,22.0,12.0,10.0,0.5454545454545454,1742.1677574692785,26245.57556154225,24.0,5.0,19.0,0.2083333333333333,1243.7615302874035,24372.38622534599,82.0,41.0,41.0,0.5,78.42980879606166,14959.524728734235,0.0,0.0,0.0,0.0,78958.0,78995.0,79015.0,79084.0,79096.0,79118.0,79125.0,79148.0,79305.0,79386.0,0.023180415301487615,-0.025418919263751064,0.04585068065744662,-0.10844161963527299,0.0052894617837504895
90,90,79797.57667649654,4684.562067864956,13.71663032060328,79892.75339099858,-3754.924126705335,25.47965400864057,79931.80244420288,39306.501470422474,9.751707166808044,79953.45203459915,-10271.081826552074,15.287792405073802,80169.42854587916,14445.037644409307,30.855566137977547,0.9640391832837728,58.0,20.0,132.0,240.0,372.0,38.0,821.0,823.0,38.0,19.0,19.0,0.5,100.89326906455618,4406.614019866562,71.0,57.0,14.0,0.8028169014084507,94.00136780249052,2344.7250569957555,22.0,12.0,10.0,0.5454545454545454,1888.32924936422,29696.367125620476,21.0,4.0,17.0,0.1904761904761904,1335.1205909629584,23661.18277759905,80.0,40.0,40.0,0.5,81.35946107479054,14569.017911078425,0.0,0.0,0.0,0.0,79779.0,79817.0,79837.0,79907.0,79920.0,79942.0,79950.0,79969.0,80130.0,80209.0,0.021537396154202196,-0.02503415904836663,0.0480411427810526,-0.12998831218650203,0.005632346766938283
91,91,80654.99610691212,4936.814232011012,14.194676187831742,80752.17805189872,-3426.661499268826,22.93168860777651,80789.76330573262,39425.2474473544,9.704161815447286,80811.45203459915,-9816.392149196055,15.28779240518434,81028.04918387118,14572.449854859824,31.042837414207504,0.9660172908794408,59.0,20.0,131.0,241.0,372.0,39.0,859.0,858.0,39.0,19.0,20.0,0.4871794871794871,101.0905875783665,4775.5464929941445,71.0,58.0,13.0,0.8169014084507042,110.95653563315446,1732.3088257823474,22.0,12.0,10.0,0.5454545454545454,1900.2907671034193,30264.8170509757,21.0,4.0,17.0,0.1904761904761904,1332.420676875552,23282.653170769205,80.0,40.0,40.0,0.5,84.78901399653623,14748.837875729443,0.0,0.0,0.0,0.0,80636.0,80675.0,80695.0,80765.0,80778.0,80800.0,80808.0,80826.0,80989.0,81067.0,0.020476887082945237,-0.032380360784638386,0.04819984375851868,-0.1357342551748684,0.005818446098015537
92,92,81499.7705599268,4867.087301606813,13.953728845730115,81597.17805189872,-3532.8390174098117,22.93168860777651,81633.92477895408,39244.7481249026,9.639611662051912,81655.027373699,-10672.63478188428,17.835757776956363,81871.6668217497,14938.290478302068,31.391593361622775,0.9633781676832036,59.0,21.0,131.0,241.0,372.0,38.0,844.0,845.0,38.0,19.0,19.0,0.5,104.05763283635773,4674.705602659013,70.0,57.0,13.0,0.8142857142857143,132.67646672592912,1877.408365122202,22.0,12.0,10.0,0.5454545454545454,1841.6021709131523,28395.00838745726,22.0,4.0,18.0,0.1818181818181818,1352.2372346519353,24491.63599149483,81.0,41.0,40.0,0.5061728395061729,83.07956854003017,15044.408428760253,0.0,0.0,0.0,0.0,81481.0,81519.0,81540.0,81610.0,81622.0,81644.0,81651.0,81671.0,81832.0,81912.0,0.021379857476976898,-0.037555197412647505,0.04692607951137724,-0.12670134997472426,0.005561517809598334
93,93,83027.86588101753,4785.308259029105,14.180552910722891,83124.75339099858,-3935.4676582379952,25.47965400864057,83163.5912255863,40372.55609756011,9.742927764240896,83185.027373699,-9734.402790018075,17.835757806013444,83400.71631323968,14577.61135003345,30.76905393863938,0.9642678698767008,60.0,21.0,132.0,238.0,370.0,39.0,1528.0,1529.0,39.0,19.0,20.0,0.4871794871794871,99.8291200240414,4595.588887729503,71.0,57.0,14.0,0.8028169014084507,98.02106904199734,2447.1175597394636,22.0,12.0,10.0,0.5454545454545454,1885.372006856832,29601.61830725278,21.0,4.0,17.0,0.1904761904761904,1330.460349668281,23623.12088336183,79.0,40.0,39.0,0.5063291139240507,86.12812281371359,14715.88062859831,0.0,0.0,0.0,0.0,83009.0,83048.0,83069.0,83139.0,83152.0,83174.0,83181.0,83201.0,83362.0,83439.0,0.020861586050528708,-0.024907095561263932,0.046699347009410024,-0.1366761144332934,0.005908246608146536
94,94,83825.1581363224,5205.372363856948,16.190402342867394,83922.75339099858,-2985.724509972604,25.47965400864057,83962.12752322535,38410.580272404266,9.855722256830674,83984.027373699,-9800.581733058929,11.940359054875607,84198.46520078053,15317.840753252502,31.90801786655555,0.9709940682545088,65.0,23.0,128.0,240.0,368.0,42.0,797.0,799.0,42.0,20.0,22.0,0.4761904761904761,96.68151252933066,5248.527978399753,68.0,54.0,14.0,0.7941176470588235,91.6079967214674,1818.3616649032197,22.0,12.0,10.0,0.5454545454545454,1905.5715376796425,32036.428413438276,19.0,4.0,15.0,0.2105263157894736,1293.4785510063118,22164.403141648807,81.0,40.0,41.0,0.4938271604938271,93.37579423065296,15677.728427770204,0.0,0.0,0.0,0.0,83805.0,83847.0,83870.0,83937.0,83950.0,83972.0,83980.0,83998.0,84159.0,84238.0,0.01857340950296474,-0.03068199909786987,0.04961058969079629,-0.13197977285809492,0.006095884905372585
95,95,84648.59883975124,4695.43361019214,13.155982498800256,84744.75339099858,-3840.4283135726105,25.47965400864057,84783.31890045313,37869.94677756895,9.82700088692106,84805.027373699,-12108.781825902235,17.8357578060484,85019.34982058534,14902.337534156362,30.628563784118636,0.958304578905091,56.0,20.0,136.0,236.0,372.0,36.0,824.0,821.0,36.0,18.0,18.0,0.5,106.5499308382582,4382.513170503318,73.0,59.0,14.0,0.8082191780821918,99.52021435136449,2397.589131268282,22.0,12.0,10.0,0.5454545454545454,1753.175760577172,26823.549777588152,24.0,5.0,19.0,0.2083333333333333,1281.5905774266903,24993.706678043316,79.0,39.0,40.0,0.4936708860759494,78.29475254227485,14911.679578867936,0.0,0.0,0.0,0.0,84631.0,84667.0,84687.0,84759.0,84771.0,84793.0,84801.0,84823.0,84980.0,85059.0,0.022692245207551368,-0.02591383205869151,0.046294645484308145,-0.10583976124544617,0.005253857145754631
96,96,85449.21703068791,5093.577715589019,14.702801383036906,85546.75339099858,-3589.1458351193724,25.47965400864057,85585.7812856436,38919.95476809035,9.829273707836022,85607.45203459915,-10431.596067474342,15.287792404808284,85822.2460508198,15140.497351968594,31.53467761322879,0.96744212133469,61.0,22.0,132.0,239.0,371.0,39.0,800.0,802.0,39.0,19.0,20.0,0.4871794871794871,100.980838381898,4981.63919449671,70.0,56.0,14.0,0.8,96.34896165849244,2037.162533072224,22.0,12.0,10.0,0.5454545454545454,1858.5635466515164,29188.09224206632,22.0,4.0,18.0,0.1818181818181818,1328.5172452522245,23694.68094003914,80.0,40.0,40.0,0.5,86.39599209759477,15373.533633009036,0.0,0.0,0.0,0.0,85430.0,85469.0,85491.0,85561.0,85574.0,85596.0,85604.0,85623.0,85783.0,85862.0,0.019825129608377953,-0.026844537972162935,0.047753486809684415,-0.12735512731311882,0.005706284944884021
97,97,86330.47549413674,4941.626190700714,15.18785432713507,86427.75339099858,-3466.551219478848,25.47965400864057,86466.86141318576,40213.19786847749,9.676002992127676,86488.45203459915,-8935.418719064057,15.287792395628095,86705.04164604322,15172.78605813152,31.225033284598663,0.964940995726045,62.0,22.0,130.0,242.0,372.0,40.0,881.0,882.0,40.0,19.0,21.0,0.475,96.26414701481026,4924.690607378172,70.0,56.0,14.0,0.8,92.5981748583486,2159.3712095586066,22.0,12.0,10.0,0.5454545454545454,1924.401523834342,31710.09621409887,20.0,3.0,17.0,0.15,1344.5484181599595,22777.40325401884,80.0,40.0,40.0,0.5,87.48254026446175,15314.85711725688,0.0,0.0,0.0,0.0,86311.0,86351.0,86373.0,86442.0,86455.0,86477.0,86485.0,86503.0,86666.0,86745.0,0.019480256761622874,-0.026711901540075775,0.04785497363647498,-0.15047402482564293,0.005765753232747747
98,98,87204.89538146381,4551.153252032203,12.78664517072334,87300.75339099858,-4338.081305157949,25.47965400864056,87338.61532131922,38128.31118694808,9.864795213665252,87360.0273738261,-12613.069507291391,17.835757806005788,87576.15811615113,14565.180652171615,29.870857853027356,0.9525567205487344,57.0,21.0,135.0,236.0,371.0,36.0,875.0,871.0,36.0,18.0,18.0,0.5,106.63557382447,4272.143419426933,72.0,58.0,14.0,0.8055555555555556,117.51804663367028,2707.561663452684,21.0,12.0,9.0,0.5714285714285714,1776.0487045762982,24937.35057438084,25.0,5.0,20.0,0.2,1288.4731320092185,25366.36235469303,78.0,39.0,39.0,0.5,85.0984227018121,14619.92517762754,0.0,0.0,0.0,0.0,87187.0,87223.0,87244.0,87315.0,87327.0,87348.0,87356.0,87379.0,87538.0,87615.0,0.023430451122878483,-0.027089867240141886,0.04658083847113238,-0.10215381206488833,0.00584259301233756
99,99,88026.39630020829,4881.682697825884,14.008173936702462,88122.75339099858,-3646.995586585605,25.47965400864057,88161.16765144601,39733.87584005114,9.692460496996455,88183.027373699,-9827.324831919248,17.83575780593698,88398.8825326121,14962.1624332569,31.316597866703933,0.9624534154888844,59.0,20.0,133.0,239.0,372.0,39.0,822.0,823.0,39.0,19.0,20.0,0.4871794871794871,97.9329449980423,4732.718270268626,71.0,57.0,14.0,0.8028169014084507,102.19123838013108,2141.251999607578,22.0,12.0,10.0,0.5454545454545454,1854.4465949535493,30321.975510371296,21.0,4.0,17.0,0.1904761904761904,1298.2909585037992,23521.020884672755,80.0,40.0,40.0,0.5,81.29085838179029,15121.97280422752,0.0,0.0,0.0,0.0,88007.0,88046.0,88066.0,88137.0,88149.0,88171.0,88179.0,88199.0,88360.0,88438.0,0.020061308991192302,-0.028020664120354668,0.046671676390660465,-0.13211031289888142,0.00543309556652736
100,100,88895.81633482673,4609.240827959003,13.542083875826467,88992.75339099858,-4097.48992296971,25.47965400864057,89031.0561840676,40393.32212698632,9.673464295566331,89053.027373699,-9665.62136062542,17.8357578060484,89270.35866599822,14611.932171711427,30.169074465511414,0.9578808985793996,58.0,21.0,132.0,241.0,373.0,37.0,869.0,870.0,37.0,18.0,19.0,0.4864864864864865,100.38701193769468,4380.953289439989,72.0,58.0,14.0,0.8055555555555556,106.52299956430916,2570.193357830683,22.0,12.0,10.0,0.5454545454545454,1895.625551355879,30897.86540678158,21.0,4.0,17.0,0.1904761904761904,1296.1677800518164,23345.77751337461,78.0,39.0,39.0,0.5,84.78912596727484,14721.716001272172,0.0,0.0,0.0,0.0,88878.0,88915.0,88936.0,89007.0,89019.0,89041.0,89049.0,89068.0,89231.0,89309.0,0.02177951113527444,-0.02599713521372255,0.04692918164533521,-0.1341008230812744,0.005802731970753728
101,101,89781.21111708376,4676.525894556531,12.96667883636546,89875.75339099858,-4017.7160667664048,25.47965400864057,89914.45227947566,38703.522590216846,9.763121108536184,89936.027373699,-11556.370573997296,17.835757805114547,90153.19281135488,14966.849827698716,30.68601456832967,0.9551551265220216,56.0,19.0,134.0,240.0,374.0,37.0,885.0,883.0,37.0,18.0,19.0,0.4864864864864865,104.96496970596397,4455.061132460413,73.0,58.0,15.0,0.7945205479452054,99.46595885443728,2570.511649190627,21.0,11.0,10.0,0.5238095238095238,1796.0408442019705,28345.100171547412,24.0,5.0,19.0,0.2083333333333333,1305.339185262486,24837.64309082785,80.0,40.0,40.0,0.5,84.03357385876201,15026.696843446363,0.0,0.0,0.0,0.0,89763.0,89800.0,89819.0,89890.0,89903.0,89924.0,89932.0,89953.0,90114.0,90193.0,0.022445073987111465,-0.024756841250479625,0.046405100208009455,-0.11295407817741648,0.005614646690931816
102,102,90588.41073294752,4601.8205122415775,12.955704822852264,90686.17805189872,-4120.818236123134,22.93168860777651,90722.5541062424,39200.46589525918,9.742888009901792,90744.60271279886,-10858.374560359764,20.3837232061829,90961.35165354187,14809.070909270808,30.757214492096043,0.9562728522610272,57.0,20.0,135.0,238.0,373.0,37.0,808.0,808.0,37.0,18.0,19.0,0.4864864864864865,99.55409289579036,4430.942697499528,72.0,59.0,13.0,0.8194444444444444,137.35301924810378,2299.385233472639,22.0,12.0,10.0,0.5454545454545454,1807.033441005697,27040.3543801403,23.0,5.0,18.0,0.217391304347826,1251.786209955923,24222.239507275764,79.0,39.0,40.0,0.4936708860759494,88.77293989616015,15016.870100697208,0.0,0.0,0.0,0.0,90570.0,90607.0,90627.0,90699.0,90711.0,90733.0,90740.0,90762.0,90923.0,91000.0,0.02163363230507591,-0.03333149180035796,0.046097243992812745,-0.11528301984771912,0.005994497591377344
103,103,91418.8461660154,4488.218946478831,13.556428730950683,91515.75339099858,-4189.94841008262,25.47965400864057,91554.02556798088,40480.13475069363,9.668672022834862,91576.027373699,-9606.91817096718,17.835757806047603,91793.58569105952,14486.331370663342,30.45650901692727,0.9565228075932484,59.0,21.0,132.0,241.0,373.0,38.0,830.0,832.0,38.0,19.0,19.0,0.5,94.6266352044138,4249.532216865653,72.0,58.0,14.0,0.8055555555555556,109.4952436879776,2671.347823221716,22.0,12.0,10.0,0.5454545454545454,1900.035125704794,30948.06714426893,21.0,4.0,17.0,0.1904761904761904,1291.805455803381,23276.272977942128,79.0,40.0,39.0,0.5063291139240507,85.59905273096822,14570.082332547268,0.0,0.0,0.0,0.0,91400.0,91438.0,91459.0,91530.0,91542.0,91564.0,91572.0,91591.0,91754.0,91832.0,0.02108333758509081,-0.026132838157264686,0.046937470376682396,-0.1344661662370887,0.00590895310487769
104,104,92258.1047596956,4769.087884802676,13.555995159136224,92355.17805189872,-3807.691052356414,22.93168860777651,92392.25015589858,38774.76361791635,9.71836976805038,92414.027373699,-11022.503202995324,17.835757801899373,92630.36177192775,15016.00748876118,31.60312190479734,0.9601875017115092,58.0,21.0,132.0,241.0,373.0,37.0,839.0,838.0,37.0,18.0,19.0,0.4864864864864865,103.46644801471784,4594.58821202322,71.0,58.0,13.0,0.8169014084507042,125.61077278630368,2048.5632229289195,21.0,11.0,10.0,0.5238095238095238,1813.544702107264,28688.235777756498,23.0,5.0,18.0,0.217391304347826,1301.9237318547414,24410.82455571712,81.0,40.0,41.0,0.4938271604938271,76.72333865093188,15060.687793809831,0.0,0.0,0.0,0.0,92240.0,92277.0,92298.0,92368.0,92381.0,92402.0,92410.0,92430.0,92591.0,92671.0,0.02169522779071177,-0.03298869867831548,0.046771263907055605,-0.11811506949718541,0.005109436626770192
105,105,93038.39953354203,3825.965269747022,11.445953664813455,93134.75339099858,-5071.161260132806,25.47965400864057,93171.94273786106,38501.18299728609,9.821043466755343,93194.9109315768,-11882.609168590128,20.383723206912453,93409.20214953995,14667.057501380994,30.320839374280595,0.9419342654495072,52.0,19.0,139.0,235.0,374.0,33.0,781.0,780.0,34.0,17.0,17.0,0.5,97.17530572563928,3591.2755182759556,76.0,62.0,14.0,0.8157894736842105,130.06543012430424,3248.5416856161855,21.0,11.0,10.0,0.5238095238095238,1765.786215113779,26326.74237434627,25.0,6.0,19.0,0.24,1196.3749211475365,24540.523439931178,79.0,39.0,40.0,0.4936708860759494,80.54310956570517,14683.21978031832,0.0,0.0,0.0,0.0,93022.0,93055.0,93074.0,93149.0,93161.0,93182.0,93189.0,93213.0,93370.0,93448.0,0.02539889906843421,-0.025648056421873285,0.045863167769111084,-0.10068284702235027,0.005491429317579313
106,106,93837.11925538097,4433.410763391065,13.79904451161256,93934.75339099858,-4092.470703053436,25.47965400864057,93973.3483772489,40611.17632284701,9.682791581808264,93995.027373699,-9647.892908683416,17.8357578060484,94211.58645038489,14633.135432904231,30.522459220763995,0.9575627205526516,57.0,19.0,134.0,241.0,375.0,38.0,799.0,801.0,38.0,18.0,20.0,0.4736842105263157,95.58950242520596,4321.864411300938,74.0,59.0,15.0,0.7972972972972973,97.68791701881736,2565.0446408910793,22.0,11.0,11.0,0.5,1893.4958605065376,31661.825490931584,21.0,4.0,17.0,0.1904761904761904,1318.3169084833503,23522.95575481633,79.0,40.0,39.0,0.5063291139240507,86.58295564836268,14735.40685005127,0.0,0.0,0.0,0.0,93819.0,93857.0,93876.0,93949.0,93962.0,93984.0,93991.0,94010.0,94173.0,94251.0,0.021561165325472944,-0.023870156711428957,0.046624994199965984,-0.13664298733009592,0.005916910702109084
107,107,94627.0423310733,4391.630613134206,13.858518200819509,94723.32873009844,-3823.317801492274,28.027619409504627,94762.95068773149,39855.97941279668,9.70849631111484,94785.027373699,-10361.234589090764,17.835757767322946,94999.71446630954,14881.95184976918,31.054835225381108,0.9594582265606878,57.0,18.0,136.0,238.0,374.0,39.0,790.0,790.0,39.0,19.0,20.0,0.4871794871794871,90.9697178081747,4177.330963947711,75.0,59.0,16.0,0.7866666666666666,71.47834530619672,2712.3017679346817,22.0,12.0,10.0,0.5454545454545454,1859.9784014159225,29331.439587883793,22.0,5.0,17.0,0.2272727272727272,1303.0254419781113,24069.395050566727,81.0,41.0,40.0,0.5061728395061729,88.15973222708375,15037.21520562315,0.0,0.0,0.0,0.0,94608.0,94647.0,94665.0,94739.0,94751.0,94773.0,94781.0,94801.0,94960.0,95039.0,0.020714337297883918,-0.018695371145526562,0.04666748700745097,-0.12575966992872192,0.005923936128610113
108,108,95386.69025892006,4679.02853502193,13.653836618914433,95483.32873009844,-4057.1336193159623,28.027619409504627,95522.32341807954,38075.30936216079,9.849364286226132,95544.027373699,-12002.562698655043,17.8357578060484,95757.90646232678,15010.256522478276,31.47016309033844,0.9597846013930365,58.0,20.0,136.0,236.0,372.0,38.0,758.0,759.0,38.0,19.0,19.0,0.5,100.45855490425632,4393.504829162016,74.0,58.0,16.0,0.7837837837837838,78.33335099822229,2869.1827978325264,21.0,11.0,10.0,0.5238095238095238,1753.5353851263542,26866.25747483308,24.0,5.0,19.0,0.2083333333333333,1274.445463890556,24910.75530220675,80.0,40.0,40.0,0.5,83.35653900735949,15150.512084335816,0.0,0.0,0.0,0.0,95368.0,95406.0,95426.0,95499.0,95511.0,95532.0,95540.0,95562.0,95718.0,95798.0,0.021469959875717124,-0.019307560053057702,0.04605439626103251,-0.10618111280796434,0.005553305427027896
109,109,96152.15776264964,4952.056196802568,15.028284747819468,96250.75339099858,-3448.5292603860194,25.47965400864057,96289.33276389254,40621.09229113263,9.658231497984918,96311.027373699,-9112.317554153662,17.8357578057292,96525.97369787333,14764.188422630888,31.421881717017197,0.9671855014515424,61.0,21.0,132.0,240.0,372.0,40.0,767.0,767.0,40.0,19.0,21.0,0.475,100.3537314819191,4923.596326029718,72.0,58.0,14.0,0.8055555555555556,102.1353769315853,2086.4320191999927,22.0,11.0,11.0,0.5,1889.9831080240167,32106.543279307683,20.0,4.0,16.0,0.2,1323.321240243724,23208.000678115313,80.0,40.0,40.0,0.5,84.80317336431563,14963.413728237689,0.0,0.0,0.0,0.0,96133.0,96173.0,96194.0,96265.0,96278.0,96300.0,96307.0,96326.0,96487.0,96566.0,0.02026506313614035,-0.029617082883661695,0.046527136554537954,-0.14522334547488586,0.005743842528745256
110,110,96935.82935169568,5021.933295112879,15.34424191905615,97036.17805189872,-3459.956645092784,22.93168860777651,97074.05798404707,37956.22886521187,9.913040487196126,97096.027373699,-10058.117043307144,11.618460988017269,97310.12519039726,15243.626983206304,31.92389943378936,0.9690123816592672,62.0,21.0,132.0,240.0,372.0,41.0,783.0,785.0,41.0,20.0,21.0,0.4878048780487805,94.579890850521,4924.57797815613,72.0,59.0,13.0,0.8194444444444444,111.88323950027193,1699.2389373008448,22.0,12.0,10.0,0.5454545454545454,1901.0517562318312,31738.764174216245,19.0,4.0,15.0,0.2105263157894736,1286.8975389211805,22132.47462088112,80.0,40.0,40.0,0.5,89.49784783248833,15549.329501194752,0.0,0.0,0.0,0.0,96916.0,96957.0,96978.0,97049.0,97062.0,97084.0,97092.0,97110.0,97271.0,97350.0,0.018833362629997876,-0.03233660157532743,0.05008536972897767,-0.12794616859002508,0.005871164909183811
111,111,97734.28194132938,5102.765316764825,13.839595219223597,97830.32873009844,-3746.581896985436,28.027619409504627,97870.60484778136,38459.39186334679,9.809476519582596,97892.027373699,-11626.8525758553,17.83575780441663,98106.2076347303,14842.327432679496,31.279711987193387,0.9647350284966884,57.0,19.0,136.0,237.0,373.0,38.0,798.0,796.0,38.0,18.0,20.0,0.4736842105263157,111.0293307689058,4944.9862949184,75.0,58.0,17.0,0.7733333333333333,62.860700295988195,2754.3891213801107,21.0,12.0,9.0,0.5714285714285714,1790.0462818802037,25930.678133641544,23.0,4.0,19.0,0.1739130434782608,1303.713020971288,24841.33790859722,80.0,40.0,40.0,0.5,84.09870996066462,14986.5546006714,0.0,0.0,0.0,0.0,97716.0,97754.0,97773.0,97846.0,97859.0,97880.0,97888.0,97909.0,98067.0,98146.0,0.021758659055733112,-0.01677814659451779,0.046543801010701456,-0.11212948753462487,0.005666140323484442
112,112,98496.48502146888,5010.0119678276205,14.62708457601708,98594.75339099858,-3585.903693582405,25.47965400864057,98632.90197438796,38864.72754375621,9.6939768619602,98655.027373699,-10443.72341336234,17.06095259037466,98868.75167184856,14905.936953827364,31.704566493432313,0.9651147577592124,61.0,21.0,133.0,238.0,371.0,40.0,762.0,763.0,40.0,19.0,21.0,0.475,100.104624240393,4952.251475336723,72.0,58.0,14.0,0.8055555555555556,109.1997311510222,2037.299713115175,22.0,12.0,10.0,0.5454545454545454,1834.1954905473224,28685.558439530643,22.0,5.0,17.0,0.2272727272727272,1278.6713856692586,23696.0949505324,80.0,40.0,40.0,0.5,88.22418391901677,15164.205431779972,0.0,0.0,0.0,0.0,98477.0,98517.0,98538.0,98609.0,98621.0,98643.0,98651.0,98671.0,98829.0,98909.0,0.019980915192064727,-0.030452499699435323,0.04719434835821958,-0.12243443598221378,0.005918727832560948
113,113,99291.68206113209,5059.164013054469,15.026433325517022,99392.17805189872,-3631.16208494702,22.93168860777651,99428.98629976716,40459.671446398555,9.600003794320433,99451.027373699,-8801.198986931191,17.835757799313274,99666.27655021056,14750.082264295388,31.25109388273282,0.9661343338002052,63.0,22.0,130.0,241.0,371.0,41.0,796.0,796.0,41.0,20.0,21.0,0.4878048780487805,97.11316105657328,4885.004177366629,71.0,58.0,13.0,0.8169014084507042,125.34407553866228,1817.852756409502,22.0,12.0,10.0,0.5454545454545454,1910.8436136418152,31727.22739696412,20.0,4.0,16.0,0.2,1293.558116160074,22670.97012697249,80.0,40.0,40.0,0.5,86.10357146603728,14955.173041031368,0.0,0.0,0.0,0.0,99272.0,99313.0,99335.0,99405.0,99417.0,99439.0,99447.0,99465.0,99627.0,99706.0,0.019195495699682055,-0.03451899766696619,0.04722835221668379,-0.14697521531792032,0.005837497711756013
114,114,100118.02490975212,4895.848942509066,14.18544246689977,100214.75339099858,-3602.1314682441275,25.47965400864057,100253.10911763426,38503.859579232514,9.714546425447182,100275.027373699,-10658.044444499226,17.83575780581375,100489.75536214768,14694.845708945531,31.31997149192506,0.9601472486611164,59.0,20.0,133.0,239.0,372.0,39.0,826.0,824.0,39.0,19.0,20.0,0.4871794871794871,103.21716116373842,4725.749720747963,71.0,57.0,14.0,0.8028169014084507,101.1670626370399,2026.6403109010505,22.0,12.0,10.0,0.5454545454545454,1800.7774690561907,28284.316340569894,22.0,5.0,17.0,0.2272727272727272,1283.91498734603,23935.95574095258,81.0,41.0,40.0,0.5061728395061729,82.47304083815082,14846.868286254268,0.0,0.0,0.0,0.0,100099.0,100138.0,100158.0,100229.0,100241.0,100263.0,100271.0,100291.0,100450.0,100530.0,0.021082586978437456,-0.02808533323364629,0.046768752242891,-0.1204644054574831,0.005612378821231523
115,115,100900.40487888631,4832.068476784676,13.74416666476924,100998.17805189872,-3808.4931634292657,22.93168860777651,101035.0500413281,38308.466002519854,9.787206057179958,101056.60271279886,-11378.864931151302,18.01167689160192,101271.3548049574,14808.460972581965,31.630551112617983,0.9622637557337108,59.0,20.0,134.0,237.0,371.0,39.0,783.0,782.0,39.0,19.0,20.0,0.4871794871794871,96.39163650763648,4661.803010279222,71.0,58.0,13.0,0.8169014084507042,128.9554040877557,2040.8696333163807,22.0,12.0,10.0,0.5454545454545454,1779.1850116292444,27360.507960761748,23.0,5.0,18.0,0.217391304347826,1264.70374405271,24254.551533767648,82.0,41.0,41.0,0.5,83.1145669666439,15005.416240003022,0.0,0.0,0.0,0.0,100881.0,100920.0,100940.0,101011.0,101023.0,101045.0,101052.0,101074.0,101231.0,101311.0,0.019948317572638537,-0.033859954200794976,0.04644365064140687,-0.11114498253603478,0.005612640443901056
116,116,101693.43739712512,4760.916864785759,14.55646790916516,101793.17805189872,-3906.2835575579006,22.93168860777651,101829.70189364887,40048.923685730246,9.621978907474356,101852.027373699,-9164.11674213078,17.83575780062089,102067.0640086311,14434.494124451769,30.769467085914368,0.9628465824535404,61.0,21.0,132.0,239.0,371.0,40.0,794.0,795.0,40.0,19.0,21.0,0.475,95.9737651047269,4745.863721935659,72.0,59.0,13.0,0.8194444444444444,135.3921919532217,1954.5156781885864,22.0,12.0,10.0,0.5454545454545454,1897.7902809567356,30454.642871264605,19.0,4.0,15.0,0.2105263157894736,1268.2654157496745,22708.355056597247,79.0,39.0,40.0,0.4936708860759494,83.23623843453181,14533.770236703984,0.0,0.0,0.0,0.0,101674.0,101714.0,101735.0,101806.0,101818.0,101840.0,101848.0,101867.0,102028.0,102106.0,0.02015867275788814,-0.03466010338426766,0.04738679860285318,-0.13839472492957197,0.005766481160814022
117,117,102496.99039398968,4957.891512801914,15.172611105647327,102595.75339099858,-3577.9929259984697,25.47965400864057,102634.15595795053,39601.49848454184,9.65491414073571,102656.027373699,-9871.285940135958,17.835757788381176,102871.11231281598,14512.240929453696,31.31547117824944,0.9642629797807788,61.0,20.0,133.0,240.0,373.0,41.0,802.0,804.0,41.0,20.0,21.0,0.4878048780487805,95.6597677987768,4905.339357554256,72.0,58.0,14.0,0.8055555555555556,104.18973231109425,2171.1870465070606,22.0,12.0,10.0,0.5454545454545454,1852.2634712470176,30097.38075872099,21.0,4.0,17.0,0.1904761904761904,1302.336417869924,23581.090539199024,80.0,40.0,40.0,0.5,74.1370010447361,14584.210746934605,0.0,0.0,0.0,0.0,102477.0,102518.0,102538.0,102610.0,102622.0,102644.0,102652.0,102671.0,102831.0,102911.0,0.01929444554237844,-0.029119602656011177,0.046772560184055546,-0.13193178941101433,0.005108583946829977
118,118,103279.48170633144,4732.362047552704,13.435590557313798,103377.17805189872,-3767.212920511191,22.93168860777651,103414.0096475531,38313.790448289,9.757724348695492,103435.60271279886,-11738.342284175062,18.935601322123325,103649.6215366868,14609.418317572265,31.635367338778163,0.9619648599041494,59.0,21.0,134.0,236.0,370.0,38.0,783.0,780.0,38.0,18.0,20.0,0.4736842105263157,101.13851471595882,4607.166994759629,71.0,58.0,13.0,0.8169014084507042,122.86418551693352,2067.3304833545367,22.0,12.0,10.0,0.5454545454545454,1772.6117370177333,26682.170671409905,24.0,5.0,19.0,0.2083333333333333,1260.56965176643,24722.97368080599,81.0,41.0,40.0,0.5061728395061729,79.4711948377524,14679.107731696366,0.0,0.0,0.0,0.0,103261.0,103299.0,103320.0,103390.0,103402.0,103424.0,103431.0,103454.0,103610.0,103690.0,0.021371677335689402,-0.032614080517716394,0.04626563219867727,-0.10738906919300313,0.005439723410627797
119,119,104030.08987093164,5016.559767383326,15.081448274032509,104129.17805189872,-3594.171150157411,22.93168860777651,104166.66250539082,39897.30708387819,9.689239580500622,104188.027373699,-9927.297685418278,17.558596201658556,104402.78672039288,14730.7484961535,31.77872788353803,0.9667237103054304,62.0,22.0,131.0,238.0,369.0,40.0,753.0,752.0,40.0,19.0,21.0,0.475,97.18920044228088,5002.321633061487,71.0,57.0,14.0,0.8028169014084507,118.33121613253256,2033.678932333723,22.0,12.0,10.0,0.5454545454545454,1874.7562381192756,29371.854284464403,22.0,4.0,18.0,0.1818181818181818,1333.7280446347936,23744.868122401316,81.0,41.0,40.0,0.5061728395061729,81.82041903248495,14954.960284322668,0.0,0.0,0.0,0.0,104011.0,104051.0,104073.0,104142.0,104155.0,104177.0,104184.0,104204.0,104363.0,104442.0,0.01937367537693575,-0.03292308885383772,0.046989543283657655,-0.13434955683799443,0.005554396577597529
120,120,104815.73960145377,4861.704433799336,14.759951003938546,104915.17805189872,-3606.020094089341,22.93168860777651,104952.43117711863,40235.140490339014,9.643169762506185,104974.027373699,-9075.444816567302,17.835757803459796,105189.52321963692,14630.068751553708,31.386057267537527,0.9658327698188888,61.0,22.0,131.0,240.0,371.0,39.0,783.0,786.0,40.0,20.0,20.0,0.5,97.30211232646045,4749.044923101055,71.0,58.0,13.0,0.8169014084507042,118.70690681573024,1941.0699796852043,22.0,11.0,11.0,0.5,1877.6705239121632,32122.86248057437,20.0,4.0,16.0,0.2,1320.0997203597217,23052.70656159757,79.0,40.0,39.0,0.5063291139240507,80.65952615467147,14746.142444281995,0.0,0.0,0.0,0.0,104797.0,104836.0,104858.0,104928.0,104941.0,104963.0,104970.0,104989.0,105150.0,105229.0,0.020013991728909067,-0.03291909188479115,0.046667428049940986,-0.14545840419302294,0.005513270479067671
121,121,105615.09365237736,4701.790261703929,13.9669603272175,105712.75339099858,-3915.596706096029,25.47965400864057,105750.81421445336,39299.161872114295,9.742431902250978,105772.027373699,-10990.262606009652,17.83575780338743,105987.1923228277,14624.470402331017,31.6349722670116,0.9622716790435925,60.0,21.0,132.0,239.0,371.0,39.0,799.0,798.0,39.0,19.0,20.0,0.4871794871794871,96.03261529420566,4506.97346797198,71.0,57.0,14.0,0.8028169014084507,109.93863367980302,2292.2827132485418,22.0,12.0,10.0,0.5454545454545454,1830.9579455062208,27813.94406639076,22.0,4.0,18.0,0.1818181818181818,1341.7830687582857,24646.15067549196,81.0,40.0,41.0,0.4938271604938271,81.2312082483364,14773.158731403782,0.0,0.0,0.0,0.0,105596.0,105635.0,105656.0,105727.0,105739.0,105761.0,105768.0,105788.0,105948.0,106027.0,0.02042469143644945,-0.028077108530774927,0.04659025430273674,-0.12208835374184573,0.005554471786916047
122,122,106360.67049332202,4839.520251811128,13.81021165427613,106457.75339099858,-3811.206529104424,25.47965400864057,106495.915832301,38130.72898660477,9.7745937788913,106517.60271279886,-11511.657257845272,17.627786414346545,106730.67502856704,14868.771665973374,31.866201807243797,0.9627084623280124,58.0,20.0,135.0,236.0,371.0,38.0,747.0,745.0,38.0,19.0,19.0,0.5,100.95341374157935,4612.463633709006,73.0,59.0,14.0,0.8082191780821918,104.40373769055516,2257.254836028923,22.0,12.0,10.0,0.5454545454545454,1781.4913234990104,26748.836521437777,23.0,5.0,18.0,0.217391304347826,1253.2226022127827,24232.1874808968,81.0,41.0,40.0,0.5061728395061729,78.5866608653531,15001.4374695938,0.0,0.0,0.0,0.0,106342.0,106380.0,106400.0,106472.0,106484.0,106506.0,106513.0,106535.0,106690.0,106771.0,0.0208602110310002,-0.02739388088608477,0.04672062063447158,-0.10886552423706873,0.005285349901848027
123,123,107114.4586586077,4766.020518830221,14.638657158008712,107214.17805189872,-3938.250852306024,22.93168860777651,107251.1909159073,39815.88779825215,9.6609427414942,107273.027373699,-9480.361445145509,17.835757773399482,107487.51687136204,14324.781654532006,30.807452882689212,0.96468599755491,61.0,21.0,132.0,239.0,371.0,40.0,754.0,756.0,40.0,19.0,21.0,0.475,95.9409399071966,4782.771176328875,71.0,58.0,13.0,0.8169014084507042,125.52695969962495,2109.426764417972,21.0,11.0,10.0,0.5238095238095238,1868.6836326417024,30929.954062629266,20.0,4.0,16.0,0.2,1303.0886693833904,23225.522306560408,79.0,40.0,39.0,0.5063291139240507,77.17248400630329,14350.830160267711,0.0,0.0,0.0,0.0,107095.0,107135.0,107156.0,107227.0,107240.0,107261.0,107269.0,107288.0,107448.0,107527.0,0.020130198669548422,-0.031873784684417254,0.04693311479353059,-0.13745137006887506,0.0053873410337034935
124,124,107905.32732581523,5101.813858469973,15.564356307085111,108003.75339099858,-3415.0870357466524,25.47965400864057,108041.95865133296,39057.683431376994,9.709239525899534,108063.45203459916,-10102.34071842412,15.287792405181854,108277.93473069993,14841.05914237786,31.7491276424113,0.966958730161662,63.0,23.0,129.0,240.0,369.0,40.0,791.0,790.0,40.0,19.0,21.0,0.475,101.65846637769538,5154.622037775479,70.0,56.0,14.0,0.8,107.1202525074621,1833.3709663333664,22.0,12.0,10.0,0.5454545454545454,1873.3873177550024,29857.74790636531,21.0,4.0,17.0,0.1904761904761904,1338.6828100628843,23529.395954057116,81.0,41.0,40.0,0.5061728395061729,71.84723129708308,14815.17367932212,0.0,0.0,0.0,0.0,107886.0,107926.0,107949.0,108018.0,108030.0,108052.0,108060.0,108078.0,108238.0,108318.0,0.019925945790617815,-0.03136677085714216,0.0479646295727313,-0.13251214222278848,0.004841112120625347
125,125,108692.3215753644,4608.848854559476,13.133172448154692,108790.17805189872,-4005.3773789627303,22.93168860777651,108826.50562464818,38443.056657628906,9.735329205143849,108848.60271279886,-11443.023501544618,20.383723206142925,109062.09508406334,14395.572031663129,31.01169028936402,0.9555503049728494,57.0,20.0,136.0,235.0,371.0,37.0,786.0,785.0,37.0,18.0,19.0,0.4864864864864865,101.80207500987856,4459.972780504122,73.0,60.0,13.0,0.821917808219178,132.58676483844178,2276.786646349695,21.0,12.0,9.0,0.5714285714285714,1776.7302370538237,25668.998707300932,24.0,5.0,19.0,0.2083333333333333,1237.5599368348549,24577.119584855947,80.0,40.0,40.0,0.5,76.5570277575253,14414.698154346,0.0,0.0,0.0,0.0,108674.0,108711.0,108731.0,108803.0,108815.0,108836.0,108844.0,108867.0,109022.0,109102.0,0.022088395220243997,-0.03310219045396858,0.04621719476880455,-0.10814973303758442,0.005318095563631495
126,126,109466.52794714343,4410.573345463517,13.636111991773465,109563.32873009844,-4208.694236417719,28.027619409504616,109602.52246457788,40052.53182803053,9.725406406028728,109624.027373699,-10156.957850266896,17.835757803357943,109839.15075553957,14059.67265961626,30.167596117987944,0.959623336692968,57.0,19.0,135.0,237.0,372.0,38.0,775.0,776.0,38.0,19.0,19.0,0.5,97.76867461922718,4144.63417914246,75.0,59.0,16.0,0.7866666666666666,78.96402151484085,3033.645830788977,22.0,12.0,10.0,0.5454545454545454,1873.0929287173296,28491.70527792597,22.0,4.0,18.0,0.1818181818181818,1316.2090576890648,23895.120254495523,78.0,39.0,39.0,0.5,79.66781552516386,14122.8732388127,0.0,0.0,0.0,0.0,109448.0,109486.0,109505.0,109579.0,109591.0,109613.0,109620.0,109640.0,109800.0,109877.0,0.022166885563707238,-0.01876211886137208,0.04676590575496295,-0.12958693706250624,0.005666406142868072
127,127,110281.0952078653,4768.4394058407,14.60042527674913,110377.32873009844,-3629.3089346513257,28.027619409504627,110416.88888488614,39599.17048554056,9.733383716331955,110438.45203459916,-9551.243696767391,15.287792404643993,110653.91977728505,14594.739513511817,31.22135344467593,0.9651251179764668,60.0,21.0,131.0,240.0,371.0,39.0,813.0,814.0,39.0,19.0,20.0,0.4871794871794871,96.15958379411629,4621.782568172237,72.0,56.0,16.0,0.7777777777777778,73.41650764934455,2525.3699215166216,22.0,12.0,10.0,0.5454545454545454,1887.9291221967117,30502.38785704199,21.0,4.0,17.0,0.1904761904761904,1327.727563962328,23098.76677988052,80.0,40.0,40.0,0.5,80.82170303062982,14746.423336128635,0.0,0.0,0.0,0.0,110262.0,110301.0,110322.0,110393.0,110405.0,110427.0,110435.0,110453.0,110614.0,110693.0,0.020165839514775772,-0.02022878431438844,0.047675976517893966,-0.1390109608879204,0.0055377283682113716
128,128,111084.62762093062,4492.907648115268,13.39951757503487,111181.75339099858,-4171.965867470945,25.47965400864057,111219.334248105,37974.25213856461,9.769960859762683,111241.027373699,-11900.743048705695,17.835757805935426,111455.17210916856,14301.140291863305,31.3508418550658,0.958342739656314,57.0,19.0,136.0,236.0,372.0,38.0,805.0,803.0,38.0,19.0,19.0,0.5,92.46438712225,4179.983563180449,73.0,59.0,14.0,0.8082191780821918,111.8385376160958,2349.2752576059797,21.0,11.0,10.0,0.5238095238095238,1768.0953880271732,27087.259340969984,24.0,5.0,19.0,0.2083333333333333,1274.9636381458376,24813.16305817569,82.0,41.0,41.0,0.5,78.1107683233927,14367.186978030106,0.0,0.0,0.0,0.0,111066.0,111104.0,111123.0,111196.0,111208.0,111229.0,111237.0,111259.0,111415.0,111495.0,0.020580077393987373,-0.026807155467907164,0.046560374160248184,-0.10713311201895923,0.005461855958984904
129,129,111864.6334001762,4814.289869663717,14.109714638879376,111963.17805189872,-3931.7502370296033,22.93168860777651,111999.99853361702,38675.75650803837,9.703418707650435,112022.027373699,-10601.11756965755,17.835757806021437,112236.63761390104,14389.706290444676,31.257072808978155,0.9627041362715024,61.0,22.0,131.0,238.0,369.0,39.0,779.0,781.0,39.0,19.0,20.0,0.4871794871794871,97.1324442893235,4596.251969903755,69.0,56.0,13.0,0.8115942028985508,132.2145942533909,2173.751320314985,22.0,12.0,10.0,0.5454545454545454,1818.2951826382955,28487.91114117588,22.0,5.0,17.0,0.2272727272727272,1270.0036735357255,23784.163834656614,81.0,41.0,40.0,0.5061728395061729,77.95637251213951,14467.11976710413,0.0,0.0,0.0,0.0,111846.0,111885.0,111907.0,111976.0,111988.0,112010.0,112018.0,112038.0,112197.0,112276.0,0.020175861221274637,-0.033627414327639917,0.04701382330453913,-0.11979903677049313,0.0054175096376988295
130,130,112670.00479986446,4450.089270771523,13.367887445559331,112767.75339099858,-4342.682216713952,25.47965400864057,112805.93785184018,40023.52634849775,9.666439763455095,112828.027373699,-9715.976658958309,17.835757806048196,113043.8366578484,14250.036193465488,30.1472887808343,0.9580160052097276,56.0,19.0,135.0,239.0,374.0,37.0,806.0,806.0,37.0,18.0,19.0,0.4864864864864865,97.0002494166789,4254.313186980032,74.0,60.0,14.0,0.8108108108108109,104.17078976690154,2679.2922843768883,22.0,12.0,10.0,0.5454545454545454,1885.0561092506805,30240.803226447308,20.0,4.0,16.0,0.2,1282.6026256596842,23268.48741084789,78.0,39.0,39.0,0.5,84.77652838890577,14339.700907310056,0.0,0.0,0.0,0.0,112652.0,112689.0,112708.0,112782.0,112794.0,112816.0,112824.0,112843.0,113005.0,113082.0,0.02179737158393268,-0.023987661212227993,0.0470987012197998,-0.13200964459677875,0.005949214952014016
131,131,113485.9389134726,4766.456684258292,14.155968807837048,113583.75339099858,-3750.252891658734,25.47965400864057,113622.03168075044,39730.32594985675,9.635304070602515,113644.027373699,-9153.187274434222,17.83575779637547,113859.1539840522,14852.645306540342,31.378268507285956,0.9618269832245232,60.0,21.0,132.0,240.0,372.0,39.0,816.0,816.0,39.0,19.0,20.0,0.4871794871794871,102.75370014897644,4634.707023374649,71.0,57.0,14.0,0.8028169014084507,105.84873363417088,2314.889555816487,22.0,12.0,10.0,0.5454545454545454,1864.4190867136256,30582.501075446584,20.0,4.0,16.0,0.2,1283.4755681356314,22853.570307816153,80.0,40.0,40.0,0.5,88.94371838000595,15076.890570774383,0.0,0.0,0.0,0.0,113467.0,113506.0,113527.0,113598.0,113610.0,113632.0,113640.0,113659.0,113820.0,113899.0,0.021557669974916795,-0.028224425576632,0.046926851017197554,-0.1402217096246363,0.005988409239183791
132,132,114274.70111171776,4310.776368291239,12.82830099314758,114370.75339099858,-4337.1952817640795,25.47965400864057,114408.56365252796,38635.288965787775,9.781400382610954,114430.60271279886,-11527.711846684562,20.383723206745167,114644.57672674827,14295.643443128132,30.973435790260545,0.9528903518777508,56.0,19.0,137.0,235.0,372.0,37.0,790.0,786.0,37.0,19.0,18.0,0.5135135135135135,93.2068302845524,3977.401299998281,75.0,60.0,15.0,0.8,102.91917395308263,2713.366440687698,22.0,12.0,10.0,0.5454545454545454,1774.3925584433084,25708.858680113924,24.0,5.0,19.0,0.2083333333333333,1236.3457689463785,24684.39521904528,81.0,41.0,40.0,0.5061728395061729,73.2283386536672,14259.403283477031,0.0,0.0,0.0,0.0,114256.0,114293.0,114312.0,114385.0,114397.0,114418.0,114426.0,114449.0,114605.0,114684.0,0.021621819904682024,-0.02372943048836437,0.04592673190601898,-0.10724988491987322,0.005122423411369274
133,133,115031.40565054253,4700.621936291959,13.983637597203884,115130.17805189872,-4009.695553729452,22.93168860777651,115166.82512524303,39105.9006327473,9.709535468173346,115188.60271279886,-10473.819546698704,19.055763346185778,115402.65655455294,14662.549331901551,31.468228233494894,0.9603639290881056,58.0,19.0,135.0,238.0,373.0,39.0,756.0,759.0,39.0,19.0,20.0,0.4871794871794871,95.4208556625422,4621.483329699268,73.0,60.0,13.0,0.821917808219178,127.31615372593406,2090.9780243883224,22.0,12.0,10.0,0.5454545454545454,1817.256668716485,28176.532727666123,22.0,5.0,17.0,0.2272727272727272,1262.4370439754152,23793.641556683844,81.0,41.0,40.0,0.5061728395061729,81.51940756665347,14790.570576529284,0.0,0.0,0.0,0.0,115012.0,115051.0,115070.0,115143.0,115155.0,115177.0,115184.0,115205.0,115363.0,115443.0,0.020299623529777856,-0.031752074944322445,0.04647013978229958,-0.12053263266057788,0.005559702185573579
134,134,115832.59573437789,4686.325603428182,14.433759985824866,115931.17805189872,-3862.307248257973,22.93168860777651,115968.72183270512,38998.722325694696,9.68819314790928,115990.45203459916,-9726.916726525937,15.28779240488791,116205.07280163364,14493.316709065815,31.078329157441228,0.9626439492874472,60.0,20.0,132.0,240.0,372.0,40.0,800.0,801.0,40.0,20.0,20.0,0.5,91.4188117081209,4498.977729529315,72.0,58.0,14.0,0.8055555555555556,116.25228098516992,2168.63044516017,22.0,12.0,10.0,0.5454545454545454,1886.369390185378,29822.934330646225,21.0,4.0,17.0,0.1904761904761904,1322.6557415305597,23107.309604688664,80.0,40.0,40.0,0.5,80.81084672082058,14625.38841132428,0.0,0.0,0.0,0.0,115813.0,115853.0,115873.0,115944.0,115957.0,115979.0,115987.0,116005.0,116166.0,116245.0,0.019507567216679397,-0.030099179975286407,0.048370030546937295,-0.13597893132194616,0.005575731790244535
135,135,116639.70756660926,5152.714567079587,15.282793247881273,116739.17805189872,-3402.4656399279093,22.93168860777651,116776.34621188768,38018.99750239046,9.80321434373097,116798.027373699,-10443.759474117483,13.512094261588873,117012.12320716218,14806.672099805,31.963588375521315,0.966300089659223,63.0,22.0,129.0,240.0,369.0,41.0,808.0,808.0,41.0,20.0,21.0,0.4878048780487805,101.51090256835528,5079.670231196476,70.0,57.0,13.0,0.8142857142857143,127.53514239928032,1565.9699378399382,22.0,12.0,10.0,0.5454545454545454,1862.3450778288811,30731.88089905729,19.0,4.0,15.0,0.2105263157894736,1301.8769076066783,22954.187655259997,82.0,41.0,41.0,0.5,82.73063895619683,15058.172650508786,0.0,0.0,0.0,0.0,116620.0,116661.0,116683.0,116752.0,116764.0,116786.0,116794.0,116812.0,116972.0,117052.0,0.01970047074155881,-0.0374831536585282,0.04898459191912636,-0.12465596424669569,0.00558738914447132
