Unnamed: 0,cycle,p_center,p_height,p_width,q_center,q_height,q_width,r_center,r_height,r_width,s_center,s_height,s_width,t_center,t_height,t_width,r_squared,pr_interval,pr_segment,qrs_duration,st_segment,qt_interval,p_duration,pp_interval,rr_interval,fwhm_p,rise_time_p,decay_time_p,rise_decay_symmetry_p,sharpness_deriv_p,sharpness_diff_p,fwhm_q,rise_time_q,decay_time_q,rise_decay_symmetry_q,sharpness_deriv_q,sharpness_diff_q,fwhm_r,rise_time_r,decay_time_r,rise_decay_symmetry_r,sharpness_deriv_r,sharpness_diff_r,fwhm_s,rise_time_s,decay_time_s,rise_decay_symmetry_s,sharpness_deriv_s,sharpness_diff_s,fwhm_t,rise_time_t,decay_time_t,rise_decay_symmetry_t,sharpness_deriv_t,sharpness_diff_t,Average_Heart_Rate,SDNN,RMSSD,NN50,p_on,p_off,q_on,q_off,r_on,r_off,s_on,s_off,t_on,t_off,sharpness_deriv_p_norm,sharpness_deriv_q_norm,sharpness_deriv_r_norm,sharpness_deriv_s_norm,sharpness_deriv_t_norm
0,0,,,,,,,,,,,,,,,,,,,,,,,,,,,,,,,,,,,,,,,,,,,,,,,,,,,,,,,78.94593354156548,268.11065764140716,388.5654432005438,306.0,,,,,,,,,,,,,,,
1,1,2235.2466090014395,2266.110226795698,12.149210097157937,2340.876695501417,-6166.391756831154,12.739827004320048,2367.669430185784,37871.176505730495,9.008250623603168,2393.7260172995684,-7591.739352889043,5.299842470693145,2603.114876488993,12784.813942998204,28.660006422558684,0.9398088621228938,112.0,83.0,65.0,238.0,303.0,29.0,,,44.0,19.0,25.0,0.4318181818181818,253.09360624005973,1638.6828137731302,17.0,9.0,8.0,0.5294117647058824,907.9773754858744,2885.3469233080236,24.0,12.0,12.0,0.5,2095.5503618992648,35729.44447260149,11.0,7.0,4.0,0.6363636363636364,1298.236776779779,17212.687884316107,69.0,33.0,36.0,0.4782608695652174,338.8641144498718,13850.971554444222,,,,,2221.0,2250.0,2333.0,2348.0,2357.0,2380.0,2388.0,2398.0,2570.0,2636.0,0.11168636161089858,-0.14724613863204739,0.05533364831119455,-0.17100650014884056,0.026505205000300833
2,2,2986.4520345991364,2980.24433229536,8.825588713490678,3086.6926206935254,-7146.268461248057,17.8357578060484,3109.1200835722675,40986.7962173948,8.96649911738351,3133.4520345991364,-8006.549592260106,6.361507805338675,3342.320216584488,12067.94183066621,29.195968882335855,0.9335017425896612,94.0,82.0,65.0,233.0,298.0,12.0,758.0,741.0,15.0,6.0,9.0,0.4,392.9915363657256,2529.2453322213014,14.0,10.0,4.0,0.7142857142857143,1323.2258235371196,8794.145803386662,22.0,10.0,12.0,0.4545454545454545,2246.477334112065,37934.05021130761,15.0,6.0,9.0,0.4,1344.5138137832682,18236.679834036924,74.0,38.0,36.0,0.5135135135135135,395.4636068950655,13313.00390535035,,,,,2983.0,2995.0,3077.0,3091.0,3099.0,3121.0,3127.0,3142.0,3309.0,3375.0,0.13186554273657378,-0.18516318421460834,0.05480978123288054,-0.16792674525903187,0.032769764094333055
3,3,3668.864044953032,4896.821524593206,15.922324697335728,3784.698643600575,-6626.381132672812,7.6680358360091185,3806.678480551321,36740.33527416513,9.189678130605396,3832.87669549928,-9500.904220486964,5.508116021745163,4040.232799296688,13537.986025405757,35.96514004904986,0.9334834272895252,114.0,97.0,63.0,233.0,296.0,17.0,682.0,699.0,17.0,6.0,11.0,0.3529411764705882,482.3514069639392,6269.770063270392,11.0,8.0,3.0,0.7272727272727273,1346.8029157867816,9847.654469643114,24.0,11.0,13.0,0.4583333333333333,1974.835886967055,36110.204416194334,15.0,7.0,8.0,0.4666666666666667,1336.8934030763137,16971.15406917576,82.0,48.0,34.0,0.5853658536585366,281.7351971324751,14133.026973310494,,,,,3663.0,3680.0,3777.0,3787.0,3796.0,3819.0,3826.0,3840.0,3994.0,4073.0,0.09850295840708828,-0.2032486343331622,0.05375116672807582,-0.14071222823124008,0.020810717089215714
4,4,4368.301356399425,3496.5235780457274,9.924521877591683,4468.394173739776,-6442.045661187616,10.191861603449905,4492.422833233808,36724.18373444629,9.257630391328004,4518.301356399425,-8746.181347021242,5.803510792235014,4728.356103797409,11503.55281536536,28.622551342111592,0.9395806045775336,92.0,82.0,68.0,230.0,298.0,10.0,699.0,686.0,28.0,17.0,11.0,0.6071428571428571,403.7099837663333,2866.31976166037,17.0,12.0,5.0,0.7058823529411765,1056.3556072416554,5952.4950212131025,24.0,11.0,13.0,0.4583333333333333,1962.3514212460457,36469.89537173122,14.0,7.0,7.0,0.5,1431.612849787282,17294.30786724463,71.0,40.0,31.0,0.5633802816901409,360.8817057186901,12119.52262374702,,,,,4364.0,4374.0,4456.0,4473.0,4481.0,4505.0,4512.0,4524.0,4695.0,4754.0,0.11546039223106695,-0.16397828621520702,0.053434854684201276,-0.163684331822694,0.03137132601648583
5,5,5080.178051898705,3638.919161947666,13.911007841528876,5180.545560696722,-7690.328457502443,7.594280938687755,5202.9133958334305,38414.54905150224,9.708890379264608,5225.876695499281,-9246.61899665364,4.895467122758268,5433.914639435045,13083.591034571344,31.68802318666059,0.9528516488321858,97.0,77.0,61.0,241.0,302.0,20.0,714.0,709.0,23.0,6.0,17.0,0.2608695652173913,367.7685595257181,2854.8827135776896,12.0,10.0,2.0,0.8333333333333334,1435.7858583845994,10848.445820053395,23.0,11.0,12.0,0.4782608695652174,2169.989095803027,38062.36100577422,11.0,4.0,7.0,0.3636363636363636,1390.719167188062,18296.29871040176,79.0,35.0,44.0,0.4430379746835443,454.49373307367995,12991.73686389816,,,,,5075.0,5095.0,5172.0,5183.0,5192.0,5215.0,5222.0,5233.0,5401.0,5474.0,0.10106532823578213,-0.186700199649326,0.05648873016558728,-0.15040299245501135,0.03473769027729095
6,6,5826.602712798849,4388.205984882547,14.044576480940464,5926.702362536169,-4815.5413544366575,20.383723206912453,5955.317853464259,41336.14892038218,8.897074882521073,5981.726017299569,-6246.5162730714355,5.064686068888813,6193.232799296688,13242.010093597972,32.39927861319115,0.9581205036491952,104.0,80.0,68.0,240.0,308.0,24.0,746.0,752.0,47.0,27.0,20.0,0.574468085106383,398.6481284442549,3008.1819680094127,17.0,9.0,8.0,0.5294117647058824,797.8446531202757,448.9039282345032,23.0,10.0,13.0,0.4347826086956521,2079.0103427967874,39731.694809636785,12.0,8.0,4.0,0.6666666666666666,1202.6474821146207,14702.583680336094,81.0,43.0,38.0,0.5308641975308642,349.8624701922668,12461.874847531812,,,,,5814.0,5838.0,5918.0,5935.0,5945.0,5968.0,5974.0,5986.0,6154.0,6226.0,0.09084535452930087,-0.16568119644226603,0.050295211264145157,-0.19253091315861962,0.02642064669331528
7,7,6593.726017299569,3493.27656051223,7.64389620259217,6685.30135640815,-6337.485487267845,10.191861603417264,6710.100440672812,38956.09036688158,8.693486516931912,6737.726017299569,-5842.1378674978605,5.952103816313164,6956.904069198273,11989.42903697584,30.073121574317913,0.8977400811308417,103.0,77.0,67.0,232.0,299.0,26.0,765.0,755.0,31.0,26.0,5.0,0.8387096774193549,404.0009973153359,1571.8045326820334,16.0,10.0,6.0,0.625,1031.530262833453,4305.704056532752,24.0,11.0,13.0,0.4583333333333333,2080.002102712101,36871.771860571505,13.0,9.0,4.0,0.6923076923076923,1076.3843199986095,12987.03984906512,68.0,49.0,19.0,0.7205882352941176,535.6237956601025,10940.796365715669,,,,,6572.0,6598.0,6675.0,6691.0,6700.0,6722.0,6729.0,6742.0,6910.0,6974.0,0.11565101998568816,-0.162766489155016,0.053393502354137916,-0.1842449364276328,0.0446746708294631
8,8,8665.178051898705,3488.048742845589,10.613549651645371,8760.301356399426,-6289.218830027176,10.191861603456228,8785.433391368178,38840.195388673645,8.843524834409582,8812.150678199714,-6496.658875961301,5.095930801728113,9017.531736414372,12430.84704295508,30.044563797805996,0.9608823217117884,102.0,70.0,67.0,237.0,304.0,32.0,2074.0,2076.0,34.0,21.0,13.0,0.6176470588235294,439.1389234213089,1118.7786873463035,19.0,12.0,7.0,0.631578947368421,1030.9759173286548,5699.046484334714,24.0,11.0,13.0,0.4583333333333333,2149.6821535177296,38105.9294211582,12.0,8.0,4.0,0.6666666666666666,1162.9246447412431,15904.563070177155,69.0,32.0,37.0,0.463768115942029,461.0725781674267,11759.00701159689,,,,,8646.0,8678.0,8748.0,8766.0,8775.0,8798.0,8805.0,8815.0,8986.0,9052.0,0.12589816134938941,-0.1639274996135251,0.05534684189937437,-0.17900349501868631,0.03709100245334688
9,9,9370.60271279885,4003.4689899830983,10.5828534962766,9469.97977495951,-8272.065871471394,10.191861603451462,9492.018002223494,40293.21761285182,9.300552305879112,9518.72601729957,-6351.745560723505,4.692730522413615,9724.396995106015,13099.480155741065,30.22871425656309,0.9523528484325824,94.0,73.0,68.0,241.0,309.0,21.0,705.0,706.0,22.0,10.0,12.0,0.4545454545454545,432.9058235546631,1974.843366993982,19.0,15.0,4.0,0.7894736842105263,1373.4048258641185,9179.300187621757,24.0,11.0,13.0,0.4583333333333333,2130.6014809067988,39921.73792168695,9.0,5.0,4.0,0.5555555555555556,1313.3955906465667,15282.418440323954,77.0,36.0,41.0,0.4675324675324675,393.4461770653677,13814.397558455776,,,,,9361.0,9382.0,9455.0,9474.0,9482.0,9505.0,9515.0,9523.0,9689.0,9764.0,0.10813267809437702,-0.1660292419334693,0.052877422234635034,-0.20677711002280172,0.03003525119986791
10,10,10103.698643600574,3670.8587399513976,10.191861603456228,10222.72601729957,-7301.071296264868,7.64389620259217,10247.246477075358,39826.55869774249,9.039471963181937,10272.301356399426,-6395.171883863249,5.252121797955839,10480.505314442302,13082.80899091847,30.357145863047375,0.9524723219882568,117.0,103.0,69.0,239.0,308.0,14.0,728.0,755.0,31.0,19.0,12.0,0.6129032258064516,429.6420244533066,3613.912300860052,18.0,14.0,4.0,0.7777777777777778,1210.3364716469232,7026.788708789376,23.0,11.0,12.0,0.4782608695652174,2214.2337369045986,38694.50994804327,11.0,5.0,6.0,0.4545454545454545,1364.9513961060372,16275.7253900003,73.0,37.0,36.0,0.5068493150684932,479.1091815248999,14303.61914364975,,,,,10092.0,10106.0,10209.0,10227.0,10236.0,10259.0,10267.0,10278.0,10451.0,10517.0,0.11704128512964655,-0.16577518867212207,0.05559691344936888,-0.21343466929328037,0.0366212777284662
11,11,10829.669502754648,5352.548143898029,16.235604299096373,10947.27398270043,-5708.435791568311,7.6438962025919714,10968.744777823387,37084.19926960205,8.942271010630101,10997.72601729957,-6208.835797325891,6.756062397557985,11204.082121096975,13614.71153090592,34.27094540575367,0.9404571760826116,122.0,95.0,62.0,232.0,294.0,27.0,725.0,720.0,42.0,22.0,20.0,0.5238095238095238,429.3497970100856,4715.551452091222,10.0,7.0,3.0,0.7,1345.3754343682672,11480.023946641482,24.0,11.0,13.0,0.4583333333333333,2015.403116527799,37530.68296360914,13.0,9.0,4.0,0.6923076923076923,922.3203684583696,12014.821347157133,84.0,52.0,32.0,0.6190476190476191,373.85168715520626,13447.536518693105,,,,,10818.0,10845.0,10940.0,10949.0,10958.0,10982.0,10989.0,11002.0,11171.0,11234.0,0.08021409344996731,-0.23568197725118747,0.05434668015549756,-0.14854964740017887,0.027459390990881336
12,12,11510.698643600565,4117.76302491406,10.191861603456228,11628.72601729957,-7161.803746132377,7.64389620259217,11652.528024305637,35566.91097629122,8.937299809067074,11680.301356399426,-8397.045133055592,5.275552975654016,11882.889915026652,13011.686066037211,32.60850414392189,0.945225147849688,112.0,100.0,69.0,232.0,301.0,12.0,682.0,686.0,20.0,14.0,6.0,0.7,452.4334205817233,5418.703504923168,16.0,12.0,4.0,0.75,1151.9919205721988,5594.5913701851005,23.0,11.0,12.0,0.4782608695652174,1910.160076268094,34604.3026865705,15.0,9.0,6.0,0.6,1168.9311166444063,13854.267855475671,77.0,38.0,39.0,0.4935064935064935,376.86301659646887,13469.970074915209,,,,,11505.0,11517.0,11617.0,11633.0,11642.0,11665.0,11671.0,11686.0,11851.0,11918.0,0.10987359346429747,-0.16085220447353288,0.05370609996300775,-0.13920743524919524,0.028963426775269932
13,13,12234.635037725526,2791.289167853066,7.64389620259178,12325.39728720115,-6044.418129681229,20.383723206912453,12356.435081327663,39537.036525127325,8.92190952373214,12382.301356399426,-6330.093671749194,6.028318259738623,12587.881700289696,12270.008499847483,28.329335184680875,0.942603638328212,83.0,71.0,74.0,235.0,309.0,12.0,725.0,704.0,12.0,4.0,8.0,0.3333333333333333,407.73222367830493,1978.8267325069571,24.0,11.0,13.0,0.4583333333333333,733.4535465107339,3961.1128785708174,24.0,11.0,13.0,0.4583333333333333,2101.121593121172,36304.747404952606,14.0,7.0,7.0,0.5,1276.0968830276947,17310.77867595751,67.0,32.0,35.0,0.4776119402985074,316.51886133564483,12113.34938516782,,,,,12231.0,12243.0,12314.0,12338.0,12346.0,12369.0,12375.0,12388.0,12557.0,12623.0,0.14607308636242594,-0.12134394589763677,0.053143122949688634,-0.2015921010336441,0.025796140348197737
14,14,12924.39728720115,4189.294006393163,19.38354744224061,13032.619047549097,-5151.13264098973,12.739827004320285,13057.661124937184,40317.91614762775,9.226699460012656,13082.72601729957,-6033.925928600056,4.633298404275763,13287.920613248769,13105.82938269574,33.888297915204454,0.9621835851712096,108.0,92.0,66.0,235.0,301.0,16.0,687.0,701.0,44.0,14.0,30.0,0.3181818181818182,408.8185322944457,5392.764651646188,17.0,12.0,5.0,0.7058823529411765,1121.463453170857,7459.818152592814,24.0,12.0,12.0,0.5,2144.308789104404,38406.60114194562,11.0,6.0,5.0,0.5454545454545454,1432.920752562139,16324.931302301104,77.0,38.0,39.0,0.4935064935064935,333.9284704805459,14127.729180504462,,,,,12913.0,12929.0,13021.0,13038.0,13047.0,13070.0,13078.0,13087.0,13251.0,13322.0,0.09758649826690591,-0.21771201235372983,0.05318501038726357,-0.23747735214485702,0.025479384839348498
15,15,13637.45203459914,3216.6398519680547,15.28779240518434,13726.972626301009,-7517.013421607891,9.052988124424,13748.906741331914,41633.59025322805,9.369920024394665,13774.301356399426,-6529.327560343231,4.690034795149021,13981.138990735708,13165.20359138762,31.57437404359711,0.9562257093946293,83.0,67.0,67.0,242.0,309.0,16.0,719.0,691.0,43.0,33.0,10.0,0.7674418604651163,593.3040768530813,2559.4175245666675,19.0,15.0,4.0,0.7894736842105263,1428.3686487856005,11156.597151933363,24.0,11.0,13.0,0.4583333333333333,2245.0596068989444,42045.603723329754,12.0,5.0,7.0,0.4166666666666667,1359.265814932905,16344.243487301414,79.0,37.0,42.0,0.4683544303797468,333.93880998402284,12376.110760982536,,,,,13630.0,13646.0,13713.0,13731.0,13738.0,13762.0,13772.0,13780.0,13945.0,14022.0,0.18444840086467149,-0.19001810541932915,0.05392423745451244,-0.2081785302346589,0.0253652598431883
16,16,14342.821948101297,4019.641339611355,13.58757500215452,14454.71019292622,-5213.153040300729,10.191861603456228,14477.65248583541,39790.76867580528,8.99587808891239,14504.301356399426,-7738.9181238978845,5.6523476325952355,14714.808138396544,12135.459145846591,32.874164038237204,0.9564826789474268,116.0,96.0,64.0,239.0,303.0,20.0,699.0,729.0,26.0,19.0,7.0,0.7307692307692307,459.6634726832043,4313.000774262466,12.0,9.0,3.0,0.75,1267.3208292125269,10261.677064150135,23.0,11.0,12.0,0.4782608695652174,2145.024661189618,37894.63621709487,13.0,7.0,6.0,0.5384615384615384,1221.1323798742148,17085.545758434193,86.0,51.0,35.0,0.5930232558139535,354.26460538763035,12202.139969888183,,,,,14330.0,14350.0,14446.0,14458.0,14467.0,14490.0,14497.0,14510.0,14667.0,14749.0,0.11435435001463279,-0.2431006378319213,0.053907595469345565,-0.15779109693683688,0.0291925176567282
17,17,15058.83049082316,3464.873475684547,10.191861603456228,15166.39728720115,-5192.111499903259,20.38372320660613,15190.14518037203,37842.81249569409,8.811131200253175,15214.45203459914,-10237.949445793029,5.761956434959651,15420.971086038331,11956.820140194755,30.591906170117795,0.930486080815816,99.0,85.0,69.0,232.0,301.0,14.0,720.0,713.0,14.0,4.0,10.0,0.2857142857142857,453.24287056979176,4380.288927542311,18.0,13.0,5.0,0.7222222222222222,1021.989816835862,5675.619852409226,22.0,10.0,12.0,0.4545454545454545,2081.6860416581894,33983.41660136852,15.0,6.0,9.0,0.4,1322.2446654253306,18698.676968957385,72.0,37.0,35.0,0.5138888888888888,487.09920861575665,12233.103708825764,,,,,15055.0,15069.0,15154.0,15171.0,15180.0,15202.0,15208.0,15223.0,15389.0,15455.0,0.13081079980279672,-0.19683510588224157,0.055008756072108866,-0.12915131808632505,0.040738189828439006
18,18,16390.150678199716,3044.8963024687805,1.762036736578131,16527.050764224474,-8099.511438463284,10.191861601761335,16550.711530062195,38053.50419616832,9.006905443073263,16576.72601729957,-7462.194947048643,5.028978927952651,16791.630086497844,12021.648402590648,25.335740002741673,0.9251381335242422,131.0,126.0,62.0,232.0,294.0,5.0,1332.0,1360.0,5.0,2.0,3.0,0.4,437.4532144985864,3717.3144068002703,17.0,12.0,5.0,0.7058823529411765,1231.9157672011386,4049.2621329211943,24.0,11.0,13.0,0.4583333333333333,2103.7705771965543,37663.40343778335,11.0,7.0,4.0,0.6363636363636364,1319.18005181575,17050.944441737654,58.0,36.0,22.0,0.6206896551724138,275.8348033057658,12051.56927012167,,,,,16388.0,16393.0,16519.0,16532.0,16541.0,16563.0,16571.0,16581.0,16757.0,16813.0,0.14366768882864828,-0.15209754027273395,0.055284542688932896,-0.17678177281303753,0.02294484034704623
19,19,17137.809354098154,3659.6074431426464,6.1862535237040355,17227.30135639943,-6182.062263644328,10.191861603456228,17253.278787605654,38712.97211261931,9.04162378206024,17279.72601729957,-6834.294932163976,5.381145195128547,17485.17545831427,12293.31849445987,31.621354233658288,0.948021221282933,72.0,53.0,83.0,236.0,319.0,19.0,748.0,702.0,19.0,9.0,10.0,0.4736842105263157,432.6961810811619,2168.7997637789576,36.0,29.0,7.0,0.8055555555555556,908.0301177516408,5235.3708218353095,24.0,11.0,13.0,0.4583333333333333,2100.047783245829,37778.52323183048,11.0,7.0,4.0,0.6363636363636364,1220.78137767345,16480.817531734032,67.0,31.0,36.0,0.4626865671641791,357.66886669978237,14360.968583117854,,,,,17129.0,17148.0,17201.0,17233.0,17243.0,17266.0,17273.0,17284.0,17454.0,17520.0,0.11823568177836828,-0.14688142548993946,0.0542466173130963,-0.17862579677797252,0.029094574167338957
20,20,17810.861680503418,4054.443196800647,17.45122013696916,17925.123304500717,-5983.005340633406,12.739827004312252,17946.201082736392,38538.10887931843,9.270896947812927,17972.30135639943,-8386.075792982538,5.6822864862875955,18176.648058437553,13046.76206743038,32.52617976760448,0.9568138161794844,121.0,90.0,66.0,237.0,303.0,31.0,667.0,694.0,45.0,20.0,25.0,0.4444444444444444,400.19227689923986,4311.7579443789145,16.0,13.0,3.0,0.8125,1407.3998960535414,9711.951629133957,24.0,11.0,13.0,0.4583333333333333,1984.3821259927856,36334.2719715625,14.0,7.0,7.0,0.5,1414.255572444646,16255.6619916673,68.0,29.0,39.0,0.4264705882352941,514.1862975064956,13434.557183002402,,,,,17791.0,17822.0,17912.0,17928.0,17936.0,17959.0,17966.0,17978.0,18149.0,18215.0,0.0987046204556598,-0.2352329332710479,0.05149142455865833,-0.16864330914205355,0.03941102741423466
21,21,,,,,,,,,,,,,,,,,,,,,,,,,,,,,,,,,,,,,,,,,,,,,,,,,,,,,,,,,,,,18888.0,19217.0,19249.0,19257.0,19279.0,19285.0,19303.0,19469.0,19531.0,,,,,
22,22,19828.30135639943,2521.6268959643253,10.191861603456228,19926.917793393754,-7064.8100862101255,7.643896202590365,19950.937332678972,37696.68083076703,9.732257869209311,19974.30135639943,-7908.226187691171,4.723300867808166,20182.174487819408,11598.989965187116,28.87802152345801,0.9552433346829188,98.0,84.0,63.0,240.0,303.0,14.0,2024.0,2004.0,29.0,23.0,6.0,0.7931034482758621,333.6791285961589,1615.559142330625,12.0,9.0,3.0,0.75,1170.712130858078,7598.200070547433,25.0,12.0,13.0,0.48,2008.0044063829853,36951.75841830419,10.0,3.0,7.0,0.3,1401.8692319614788,16848.8968018525,73.0,34.0,39.0,0.4657534246575342,370.2304178052345,13240.041648595812,,,,,19820.0,19834.0,19918.0,19930.0,19940.0,19964.0,19972.0,19981.0,20148.0,20221.0,0.132326923197951,-0.1657103469976076,0.05326740609863204,-0.1772672150100399,0.03191919459508403
23,23,20567.30135639943,3599.5628142421956,10.191861603456228,20670.452426778716,-6383.088662067113,10.191861603456228,20695.42648245195,41370.57889431634,9.0190674159918,20720.30135639943,-7331.269049992432,5.032287445639566,20936.780764697556,12783.070220574533,30.44718791707628,0.9461380101020704,105.0,85.0,68.0,235.0,303.0,20.0,739.0,744.0,33.0,19.0,14.0,0.5757575757575758,322.5601760112478,2128.0575872635973,25.0,19.0,6.0,0.76,1122.3884319144115,6534.007762009651,24.0,11.0,13.0,0.4583333333333333,2285.3251634209696,41537.70723086909,12.0,6.0,6.0,0.5,1359.8309016596538,17751.646761550364,73.0,44.0,29.0,0.6027397260273972,461.8712809042277,13172.365554643216,,,,,20553.0,20573.0,20658.0,20676.0,20685.0,20708.0,20714.0,20726.0,20895.0,20961.0,0.08961093128726394,-0.1758378257511051,0.05524034771809627,-0.1854836989867474,0.03613148272946505
24,24,21357.72601729957,3729.980324875899,7.643896202102454,21454.69864360057,-7475.274232256334,10.191861603456228,21476.392821148653,36220.925130872456,9.716517773429311,21499.225950870732,-10599.947254779276,5.780307869319039,21711.496179902253,12832.109641484973,30.64786265355352,0.9438039364951432,89.0,80.0,64.0,237.0,301.0,9.0,790.0,780.0,9.0,2.0,7.0,0.2222222222222222,536.0639380316711,3472.8079070397084,14.0,11.0,3.0,0.7857142857142857,1409.2607869677356,10606.690691012163,23.0,10.0,13.0,0.4347826086956521,1961.586169894447,36571.348314735136,14.0,4.0,10.0,0.2857142857142857,1425.0230877682673,19480.262818695883,72.0,37.0,35.0,0.5138888888888888,342.88584902181964,13741.358670015812,,,,,21356.0,21365.0,21445.0,21457.0,21466.0,21489.0,21495.0,21509.0,21675.0,21746.0,0.1437176315533264,-0.18852295490199894,0.05415615870679442,-0.13443680930824978,0.02672092575591022
25,25,22756.54796540086,2314.562498863594,12.50219559518109,22864.876695499283,-5823.824425379781,12.739827004320285,22892.458056754567,37134.554353698746,8.717352808713956,22918.30135639943,-7928.557054982153,5.783433476582936,23124.044695861587,12299.118448417668,29.74774649790391,0.9494561072688515,115.0,102.0,62.0,235.0,297.0,13.0,1395.0,1417.0,14.0,10.0,4.0,0.7142857142857143,326.4739815534043,3545.108329064566,44.0,34.0,10.0,0.7727272727272727,819.7438384498633,2531.1074006745825,23.0,10.0,13.0,0.4347826086956521,2081.685218239421,36752.42980184331,14.0,7.0,7.0,0.5,1310.6696175095212,17778.852764323743,73.0,37.0,36.0,0.5068493150684932,319.11493452230667,13217.443128967208,,,,,22747.0,22760.0,22862.0,22874.0,22882.0,22905.0,22911.0,22924.0,23087.0,23159.0,0.14105213478300838,-0.14075696287777537,0.05605790225491361,-0.1653099811756947,0.025946163203539364
26,26,23591.068956644584,3111.7263233861836,11.861754411947151,23696.754698866414,-6666.651819060674,10.191861603455802,23722.21718180376,39620.52324111054,8.874023218623277,23748.72601729957,-6208.960689217466,4.984029183259061,23958.226386493396,12246.257628705132,28.995058505357633,0.9501562006519524,108.0,88.0,65.0,239.0,304.0,20.0,834.0,830.0,31.0,17.0,14.0,0.5483870967741935,404.14065302550347,2543.9913194388228,14.0,9.0,5.0,0.6428571428571429,1109.7367241718905,3869.250092785621,23.0,10.0,13.0,0.4347826086956521,2148.3895376189403,40816.7822787212,10.0,6.0,4.0,0.6,1215.2675779468882,16198.537766038868,67.0,33.0,34.0,0.4925373134328358,440.7718458285197,13574.124769909493,,,,,23580.0,23600.0,23688.0,23702.0,23712.0,23735.0,23744.0,23753.0,23926.0,23992.0,0.12987667006194722,-0.16646087935761605,0.05422415863982725,-0.19572801935392056,0.03599237082807681
27,27,24467.63719136174,3225.812322751939,4.791868618760873,24572.30135639943,-6788.985597104743,10.191861603456228,24596.83289652633,37870.057641691485,8.753657132317475,24623.72601729957,-7263.791642027861,6.185849509448379,24830.888211424768,12227.198322520548,30.565198047521154,0.9373890398900608,89.0,79.0,78.0,241.0,319.0,10.0,880.0,875.0,10.0,7.0,3.0,0.7,422.5480039885173,4872.780250555825,28.0,22.0,6.0,0.7857142857142857,1062.5794586443694,5359.6769852998095,23.0,11.0,12.0,0.4782608695652174,2089.5819660661346,36388.67832770256,12.0,8.0,4.0,0.6666666666666666,1192.11661482851,15989.825980832236,87.0,45.0,42.0,0.5172413793103449,492.1585540909803,10539.108498540343,,,,,24461.0,24471.0,24550.0,24578.0,24586.0,24609.0,24616.0,24628.0,24795.0,24869.0,0.13098964282833472,-0.15651520296309382,0.055177681160054406,-0.16411767759567814,0.04025113039873597
28,28,25961.220043217876,3842.1085125103714,21.279380755176383,26064.150678199716,-4280.455006630769,5.095930801728113,26088.82184947474,36437.28166137072,8.617253925950852,26115.30135639943,-8958.647308651625,5.086233124924847,26321.518010511725,13095.366338527952,33.274721902622204,0.9523887003377922,107.0,72.0,65.0,237.0,302.0,35.0,1493.0,1490.0,35.0,12.0,23.0,0.3428571428571428,301.162519564097,6088.923020476469,17.0,13.0,4.0,0.7647058823529411,916.9046542204948,6422.83802734203,23.0,11.0,12.0,0.4782608695652174,1973.100938107454,34651.49309636673,13.0,7.0,6.0,0.5384615384615384,1323.2375164065722,16547.161109011973,77.0,37.0,40.0,0.4805194805194805,437.37544569007224,13560.642657515102,,,,,25949.0,25984.0,26056.0,26067.0,26078.0,26101.0,26108.0,26121.0,26286.0,26358.0,0.07838469907434298,-0.21420728702909753,0.05415060751360201,-0.14770505756250538,0.03339925240604132
29,29,26704.246609001435,4737.264762524865,15.515880456980009,26809.71237100517,-6283.634075601947,6.045099735410454,26832.384799182455,40269.63502152199,9.07653102654802,26857.30135639943,-6968.979164855461,4.618403768021983,27065.359403178943,13062.182560018216,36.37695304669916,0.9659782078552154,112.0,77.0,61.0,241.0,302.0,35.0,739.0,746.0,41.0,16.0,25.0,0.3902439024390244,311.3953573372044,4678.768579090596,11.0,8.0,3.0,0.7272727272727273,1424.699803308847,9568.77593397586,24.0,11.0,13.0,0.4583333333333333,2182.9519220310513,40687.95684620425,12.0,5.0,7.0,0.4166666666666667,1336.155907483169,15053.424510804543,77.0,34.0,43.0,0.4415584415584415,324.74907072075933,14850.865269393133,,,,,26690.0,26725.0,26802.0,26813.0,26822.0,26844.0,26855.0,26863.0,27032.0,27104.0,0.06573315466776594,-0.22673182209012807,0.05420838606717887,-0.19172907191650088,0.024861777059737133
30,30,27463.027373698995,3947.0232197256864,15.155893562550853,27561.972626301005,-5570.206436293667,9.985416339254076,27587.136210133373,39327.208182741786,9.679033929424694,27609.526198419782,-9568.049760326565,5.101800882850342,27818.978112835845,13252.25202992622,32.84215749369257,0.9612150584583756,89.0,71.0,70.0,241.0,311.0,18.0,766.0,754.0,19.0,4.0,15.0,0.2105263157894736,343.17009424427147,4062.7903810531097,20.0,15.0,5.0,0.75,1059.156474537252,7929.736446229642,24.0,11.0,13.0,0.4583333333333333,2055.850947398839,38276.58629204817,12.0,4.0,8.0,0.3333333333333333,1381.4717721889365,19400.1644768692,85.0,40.0,45.0,0.4705882352941176,342.06665132572283,14662.378748076731,,,,,27459.0,27477.0,27548.0,27566.0,27576.0,27600.0,27606.0,27618.0,27779.0,27859.0,0.08694402721758536,-0.19014671837584515,0.052275537532334194,-0.14438384067745336,0.025811963925321396
31,31,28207.27398270043,3904.890137801689,7.64389620259217,28321.640728588805,-6621.680414537424,10.191861600346382,28344.55925193456,38027.16155488408,8.932579879331865,28371.30135639943,-7839.942997956782,5.217040391764359,28585.232799296693,13197.028401658768,33.51740407330871,0.9277712827372956,107.0,94.0,67.0,241.0,308.0,13.0,740.0,757.0,14.0,5.0,9.0,0.3571428571428571,424.05638915265786,5440.354956435389,16.0,12.0,4.0,0.75,1282.8458562759656,6971.789526811878,23.0,11.0,12.0,0.4782608695652174,2097.654430959272,35627.45859387575,13.0,7.0,6.0,0.5384615384615384,1267.6140146824457,14798.468543273351,81.0,48.0,33.0,0.5925925925925926,331.66578462429607,13508.914198706345,,,,,28203.0,28216.0,28310.0,28326.0,28334.0,28357.0,28364.0,28377.0,28538.0,28618.0,0.10859624065925352,-0.19373418467305814,0.055162003820131464,-0.1616866366264151,0.025131853515038896
32,32,29620.07939598687,3996.742791038776,19.19821117037432,29725.69864360057,-6482.9001992110825,5.587427327946146,29748.24910819512,36692.632101519426,8.63288487814714,29775.72601729957,-7717.09524142913,5.291265163241696,29981.029233754125,12608.98061237529,32.823357806348035,0.9632538026323174,110.0,79.0,60.0,236.0,296.0,31.0,1420.0,1405.0,37.0,15.0,22.0,0.4054054054054054,354.94271787285237,4604.785406515814,10.0,6.0,4.0,0.6,1317.2590324291843,9357.782099973894,24.0,11.0,13.0,0.4583333333333333,2003.3802451610447,35359.29752904147,12.0,8.0,4.0,0.6666666666666666,1123.8173648409518,14305.9162813478,71.0,32.0,39.0,0.4507042253521127,364.2278851449609,13226.111559400048,,,,,29610.0,29641.0,29720.0,29729.0,29738.0,29761.0,29768.0,29780.0,29950.0,30016.0,0.08880799601832791,-0.20318977493892074,0.05459897887996118,-0.14562699172193083,0.02888638632590834
33,33,30375.602712798853,4331.703626780099,14.690635836751088,30468.54796540086,-4771.963159939686,7.592419147986573,30494.92532203741,39479.107383467875,9.064431022234857,30520.72601729957,-5614.284803783711,5.1491673091026575,30727.276108423972,13119.511990926276,33.57905187024359,0.95206053690983,110.0,73.0,65.0,238.0,303.0,37.0,753.0,745.0,39.0,27.0,12.0,0.6923076923076923,509.3495830779278,1648.0849516355984,15.0,10.0,5.0,0.6666666666666666,978.3099753170768,5953.455113479244,23.0,11.0,12.0,0.4782608695652174,2081.6542807553483,37511.946815640345,9.0,5.0,4.0,0.5555555555555556,1217.9420210074093,16268.640024524706,85.0,44.0,41.0,0.5176470588235295,441.3357346771499,15791.8165815996,,,,,30350.0,30387.0,30460.0,30474.0,30484.0,30507.0,30516.0,30525.0,30684.0,30763.0,0.11758643410619127,-0.20501205531717515,0.052727997635201196,-0.21693627302031152,0.03363964566535606
34,34,31263.72601729957,4169.6702435559055,7.64389620259217,31360.29520464814,-5981.028284302813,10.191861603456228,31382.51876941651,40806.87171639058,8.97573818778166,31408.72601729957,-5874.008505890444,4.106034831165682,31621.53415569611,13070.832157155248,31.55319184015745,0.9486764158609228,101.0,84.0,61.0,247.0,308.0,17.0,886.0,889.0,17.0,13.0,4.0,0.7647058823529411,366.9402249775099,3045.413253927807,12.0,8.0,4.0,0.6666666666666666,1350.5328406658846,10515.022935236855,23.0,11.0,12.0,0.4782608695652174,2236.951693828496,39107.232375070955,11.0,7.0,4.0,0.6363636363636364,1363.4977956727864,15091.260927009913,80.0,40.0,40.0,0.5,351.8674088558492,12597.855435635936,,,,,31251.0,31268.0,31352.0,31364.0,31372.0,31395.0,31402.0,31413.0,31583.0,31660.0,0.08800221685266467,-0.22580278448278754,0.054818014705351616,-0.23212390555878043,0.02692004645344861
35,35,32747.753390998565,3747.344839906053,15.841579508996444,32857.69864360057,-6840.07742408589,8.432518729981723,32878.961128705596,35586.73914465293,8.93722572846892,32906.30135639943,-8843.955028264583,5.645553608873545,33114.2327992967,13037.66220745339,31.30090032369983,0.9371156304385236,126.0,87.0,63.0,235.0,298.0,39.0,1487.0,1493.0,46.0,25.0,21.0,0.5434782608695652,332.82328055055405,2950.136611058715,13.0,10.0,3.0,0.7692307692307693,1423.9775687253389,11150.990499813275,23.0,10.0,13.0,0.4347826086956521,1861.1227021362388,34683.902977086254,14.0,8.0,6.0,0.5714285714285714,1275.1603054950326,15968.253487635897,79.0,42.0,37.0,0.5316455696202531,404.0109674946059,14070.985167059092,,,,,32723.0,32762.0,32849.0,32860.0,32869.0,32892.0,32898.0,32912.0,33076.0,33147.0,0.08881576016337424,-0.20818149860571786,0.05229820845824479,-0.1441843950381612,0.03098799164037555
36,36,33498.726017299574,3142.264556429211,4.233197320748483,33586.55533684057,-6897.997619563653,7.64389620255908,33609.86945292302,37205.455336398656,9.322715554386294,33634.30135639943,-7550.64290984382,4.653228379691915,33849.780764697556,12402.92983585265,28.864023887126653,0.9379168627518046,97.0,76.0,61.0,234.0,295.0,21.0,748.0,734.0,34.0,30.0,4.0,0.8823529411764706,380.54197410137385,318.2702931013831,11.0,8.0,3.0,0.7272727272727273,1316.4874310340178,7585.451788053222,24.0,11.0,13.0,0.4583333333333333,2081.518716379349,37002.80389332656,11.0,5.0,6.0,0.4545454545454545,1343.567640245753,17079.855941176113,71.0,42.0,29.0,0.5915492957746479,428.3983599132151,12806.998791895245,,,,,33482.0,33503.0,33579.0,33590.0,33599.0,33622.0,33630.0,33640.0,33822.0,33874.0,0.12110437147081339,-0.19085066473497783,0.055946599700473706,-0.17794082653466972,0.03454009379903619
37,37,34299.972626301,4279.765713901387,14.321165008600293,34411.12330450071,-6970.097257956181,5.922466356304622,34434.149616398936,39607.255070902465,8.980902259869923,34459.726017299574,-5137.82369259152,5.085346750442513,34672.808138396555,13298.133428521043,31.942349572900785,0.960949631821913,114.0,88.0,60.0,243.0,303.0,26.0,797.0,825.0,32.0,10.0,22.0,0.3125,292.70341951041326,4988.871998701485,12.0,8.0,4.0,0.6666666666666666,1316.8671382536763,9150.256187753488,24.0,11.0,13.0,0.4583333333333333,2121.8372353872956,39147.112162095655,11.0,7.0,4.0,0.6363636363636364,1214.9125758236005,14507.107079710502,73.0,37.0,36.0,0.5068493150684932,425.9356770125748,13252.35895598456,,,,,34290.0,34316.0,34404.0,34415.0,34423.0,34447.0,34453.0,34464.0,34636.0,34707.0,0.06839239320032499,-0.18893095598494086,0.05357193351543583,-0.23646443484922275,0.032029734045159554
38,38,35125.972626301,3617.1657643847543,15.567818083765962,35237.12330450071,-5592.053527751513,12.739821635795767,35259.125811807964,39871.841335780504,8.848212957391562,35286.726017299574,-7516.040410199674,4.8628613131225915,35491.57770032775,12521.545660906577,37.98639794601677,0.950614298085777,114.0,97.0,61.0,241.0,302.0,17.0,826.0,825.0,36.0,10.0,26.0,0.2777777777777778,421.8850331768327,5173.715948720423,15.0,12.0,3.0,0.8,1309.022504144978,10280.768552418522,23.0,10.0,13.0,0.4347826086956521,2062.8356609269117,38482.1724600212,13.0,9.0,4.0,0.6923076923076923,1223.3007074255625,14029.102235933067,79.0,36.0,43.0,0.4556962025316455,589.4420121640071,13597.900127284816,,,,,35116.0,35133.0,35230.0,35240.0,35249.0,35272.0,35279.0,35291.0,35458.0,35532.0,0.11663414414976123,-0.23408618992088187,0.051736654034980525,-0.16275866555553337,0.047074221356257925
39,39,36548.45203459914,3361.964863110927,15.22364239010653,36643.12330450071,-5251.814993331634,12.561862030591817,36665.30613632878,38659.15287155211,9.004171953986365,36688.3486169137,-8542.008719009933,5.363923411749692,36899.231569757925,12243.70576802768,32.73047319986046,0.9515600488769652,110.0,74.0,66.0,238.0,304.0,36.0,1428.0,1403.0,50.0,40.0,10.0,0.8,416.4153097892165,1653.1268073521887,19.0,15.0,4.0,0.7894736842105263,1173.447302269705,10425.677200294693,23.0,10.0,13.0,0.4347826086956521,2077.785302563926,38388.89359131592,13.0,4.0,9.0,0.3076923076923077,1344.9094017608331,17647.041684867156,76.0,38.0,38.0,0.5,329.41728240172944,14035.24948911552,,,,,36521.0,36557.0,36631.0,36646.0,36655.0,36678.0,36684.0,36697.0,36872.0,36935.0,0.1238606965701286,-0.22343652694538205,0.05374627088874712,-0.15744650304181798,0.026905030931235356
40,40,37258.12330450071,3454.4958466028584,12.723056953989532,37369.32267371066,-7938.824629399368,9.27660188718527,37393.23419709759,40247.65974133763,9.12258415899864,37418.30135639943,-7350.995195395787,4.803068542202101,37632.2327992967,12874.512178346138,31.944439176577397,0.9597776691966112,108.0,96.0,67.0,241.0,308.0,12.0,705.0,731.0,46.0,18.0,28.0,0.391304347826087,289.74470435772804,2967.4029449105365,17.0,12.0,5.0,0.7058823529411765,1220.4395172861805,4919.063903771637,23.0,10.0,13.0,0.4347826086956521,2183.180440707746,41104.09809757226,12.0,5.0,7.0,0.4166666666666667,1302.8957427115758,15895.651738873712,80.0,46.0,34.0,0.575,382.4614336074839,13064.900225074936,,,,,37249.0,37261.0,37357.0,37374.0,37383.0,37406.0,37414.0,37424.0,37587.0,37665.0,0.0838746715074682,-0.15373050473575153,0.054243661736819986,-0.1772407283747961,0.029706867981433294
41,41,37987.521949281254,4619.707591792857,5.748488437562116,38102.30135639945,-6196.66828382263,10.19186160345553,38127.02577202971,37627.334025050426,9.048451859325237,38153.30135639943,-5679.238344544514,5.626288367534036,38361.97800081803,13099.165963328162,31.049811471072783,0.9519946629958436,109.0,96.0,69.0,239.0,308.0,13.0,733.0,734.0,13.0,7.0,6.0,0.5384615384615384,369.1503145097552,4739.672954995354,25.0,19.0,6.0,0.76,989.9120386387874,6489.8573541734195,24.0,11.0,13.0,0.4583333333333333,2072.3515069012747,37197.503269367146,13.0,7.0,6.0,0.5384615384615384,1107.7728540471624,14081.016502996765,75.0,38.0,37.0,0.5066666666666667,375.10572601375793,16279.43730116457,,,,,37981.0,37994.0,38090.0,38108.0,38117.0,38139.0,38147.0,38159.0,38325.0,38398.0,0.07990772298349993,-0.15974907697142793,0.05507569325856584,-0.19505658802140094,0.028635848042836247
42,42,38748.30135639943,3147.7536388906597,10.191861603449302,38841.69864360057,-5571.217443631611,6.830946012823865,38866.81920617813,37596.34896946264,8.956298694325824,38888.5310496619,-10734.633195075075,5.972920031762248,39097.44314160766,12545.824848765767,33.29743823151792,0.9430260949138316,110.0,82.0,62.0,240.0,302.0,28.0,761.0,739.0,39.0,31.0,8.0,0.7948717948717948,380.26067183282225,1079.1143038891855,12.0,7.0,5.0,0.5833333333333334,1193.0052280309862,6476.705356287768,22.0,11.0,11.0,0.5,2211.4737611275314,35275.22365617099,15.0,5.0,10.0,0.3333333333333333,1444.4338791516675,19111.1750287052,85.0,43.0,42.0,0.5058823529411764,300.5853264995023,12918.4067963641,,,,,38726.0,38754.0,38836.0,38847.0,38856.0,38878.0,38884.0,38898.0,39060.0,39138.0,0.12080382248937208,-0.21413725816691925,0.0588215031976585,-0.13455828931484654,0.02395899274243999
43,43,39438.027378787076,3846.794768272606,17.140894292817542,39553.273982700426,-6803.944353996663,5.5851681320053,39574.04782406499,35600.95442457575,8.872960110757267,39598.64357143232,-8688.332223221245,5.756615201288731,39805.619256787846,12756.914039793255,32.02737803354397,0.9452299827029794,113.0,96.0,60.0,232.0,292.0,17.0,691.0,706.0,25.0,5.0,20.0,0.2,430.7007563624551,4144.6612487512075,9.0,7.0,2.0,0.7777777777777778,1509.3619060720548,9644.832582545663,22.0,10.0,12.0,0.4545454545454545,2027.7668971927897,36314.786929337795,14.0,6.0,8.0,0.4285714285714285,1243.263533555083,16106.537631259158,72.0,35.0,37.0,0.4861111111111111,493.4122432894316,14879.070076914744,,,,,39434.0,39451.0,39547.0,39555.0,39564.0,39586.0,39593.0,39607.0,39776.0,39839.0,0.111963539077979,-0.22183630957908257,0.05695821727164142,-0.14309576356118398,0.03867802524578492
44,44,40204.60271279886,3800.935032568468,12.515905589087827,40308.55973142255,-6434.909941154047,8.649714748430405,40331.82012861544,39256.48066985524,9.128857429413966,40358.15067819971,-4733.796587617168,5.0388554748892105,40565.43919298895,12947.315367315863,33.194642643238105,0.9670185403728736,113.0,85.0,60.0,241.0,301.0,28.0,767.0,759.0,31.0,18.0,13.0,0.5806451612903226,321.3747184854598,2877.2634015097574,14.0,11.0,3.0,0.7857142857142857,1308.107154918505,9262.121829324606,23.0,11.0,12.0,0.4782608695652174,2121.2367515852407,38818.72511955036,7.0,4.0,3.0,0.5714285714285714,1161.1242462578246,15567.032739869102,77.0,39.0,38.0,0.5064935064935064,385.1925267870165,13889.920680260278,,,,,40188.0,40216.0,40301.0,40312.0,40321.0,40344.0,40354.0,40361.0,40531.0,40602.0,0.08455148949712303,-0.20328290013083028,0.05403532653435545,-0.24528393325879996,0.029750764220928344
45,45,41068.75601077422,3109.4528614824035,4.0730987776036,41181.85166413475,-7016.575860713862,11.023483064810442,41206.991736811135,39319.6676414883,9.167010444623925,41234.15067819971,-5263.58166152802,4.642139992715662,41443.91911055194,12715.379108286055,29.892595918684897,0.9470283183627471,105.0,97.0,68.0,242.0,310.0,8.0,860.0,875.0,8.0,5.0,3.0,0.625,419.0775853500341,4424.119671558153,19.0,13.0,6.0,0.6842105263157895,1185.1254896112646,5161.8650391835345,24.0,11.0,13.0,0.4583333333333333,2095.1725265353,38751.60951467183,12.0,8.0,4.0,0.6666666666666666,1278.378623132597,14972.68524175604,82.0,42.0,40.0,0.5121951219512195,414.3177714789343,11720.051353590345,,,,,41064.0,41072.0,41169.0,41187.0,41196.0,41220.0,41226.0,41237.0,41412.0,41479.0,0.13477534602349386,-0.16890368081771023,0.05328561130370723,-0.24287238335758682,0.03258398888075162
46,46,41872.12330450071,3251.667545708627,11.202293328908087,41988.12330450071,-7454.734560225317,11.62645698464613,42009.11070569275,36626.35294197511,9.332267160841685,42035.45203459914,-9614.80973402801,5.856598027570473,42242.17860534651,12513.41129715945,33.70551393692596,0.9435347326739152,109.0,93.0,70.0,239.0,309.0,16.0,802.0,800.0,16.0,7.0,9.0,0.4375,448.0509588325585,6063.751919190252,22.0,19.0,3.0,0.8636363636363636,1317.2362441251057,10358.353242450085,23.0,10.0,13.0,0.4347826086956521,1888.9032184699984,36970.570437498245,15.0,6.0,9.0,0.4,1319.7902710771557,16796.923357560325,79.0,32.0,47.0,0.4050632911392405,356.4132767422447,13038.859591568213,,,,,41865.0,41881.0,41974.0,41991.0,41999.0,42022.0,42029.0,42044.0,42211.0,42283.0,0.13779113409790975,-0.17669794054817328,0.05157224421067728,-0.1372663950287288,0.028482503154287808
47,47,43349.12330449522,5521.368293836702,12.739827004320285,43459.972626301,-4697.145863226481,10.871111728520344,43483.509000899845,40611.71767255016,8.96431840902905,43509.726017299574,-6732.192066188464,4.119315580879138,43718.5020892944,13921.82310873833,34.91961205649607,0.9598122305667792,105.0,90.0,67.0,242.0,309.0,15.0,1477.0,1477.0,31.0,18.0,13.0,0.5806451612903226,437.8338082427806,4844.342234666487,22.0,18.0,4.0,0.8181818181818182,1135.1106265634876,10379.0644723351,23.0,11.0,12.0,0.4782608695652174,2124.181246263114,39495.19679547977,10.0,6.0,4.0,0.6,1311.8620728782823,15773.895727317213,71.0,34.0,37.0,0.4788732394366197,356.57886439463374,16125.292051002594,,,,,43342.0,43357.0,43447.0,43464.0,43473.0,43496.0,43504.0,43514.0,43685.0,43756.0,0.07929806253488256,-0.24165965026765793,0.052304639350402755,-0.19486402942467052,0.025612943190667276
48,48,44148.92102669001,2457.0537808195386,11.792760100570586,44255.75579647657,-5233.520551368761,15.287792382442356,44281.10220799333,39182.305571117366,8.832787029151728,44309.15067819971,-6945.558101404861,5.095930801728113,44517.37924839701,12820.631373418635,29.268618942716092,0.9425415406338606,102.0,84.0,68.0,243.0,311.0,18.0,805.0,797.0,20.0,8.0,12.0,0.4,352.58663363802305,1904.910520688575,18.0,13.0,5.0,0.7222222222222222,995.1858532293992,4747.713146847494,24.0,11.0,13.0,0.4583333333333333,1995.275450557317,36923.13982356924,12.0,8.0,4.0,0.6666666666666666,1143.144009736662,15361.13975351802,78.0,40.0,38.0,0.5128205128205128,285.214863252114,11512.078925620955,,,,,44142.0,44160.0,44244.0,44260.0,44270.0,44294.0,44301.0,44312.0,44482.0,44555.0,0.14349976235376477,-0.1901560992187412,0.05092286994025445,-0.16458634324942742,0.02224655361696599
49,49,44697.633828228834,2916.21795117845,1.3083860218421255,45034.30228473391,-6171.389689745117,10.191861603456228,45059.090242589344,35717.724518931616,8.745262406373763,45087.726017299574,-8839.921032743483,6.318148432353525,45294.14360803563,12350.707313453771,31.708914304827616,0.9231294316012936,330.0,327.0,66.0,236.0,302.0,3.0,546.0,777.0,3.0,2.0,1.0,0.6666666666666666,454.2661544124825,3609.24970699561,14.0,8.0,6.0,0.5714285714285714,1003.68906302101,3320.7670340294776,23.0,10.0,13.0,0.4347826086956521,1888.825504490273,35338.30216436651,14.0,10.0,4.0,0.7142857142857143,1171.9447334700917,14696.350168838806,72.0,38.0,34.0,0.5277777777777778,352.33257335084573,12214.768001007902,,,,,44696.0,44699.0,45026.0,45040.0,45049.0,45072.0,45078.0,45092.0,45257.0,45328.0,0.15577236064571665,-0.16263582652847566,0.052882022299296554,-0.13257411792810742,0.02852731948129365
50,50,46348.027373699,3921.5980825498114,14.76551655330149,46441.348149763435,-5443.031730962327,5.993514289837059,46464.4270388036,39443.9952724263,8.624280074650015,46490.30135639943,-6111.606952032242,5.357850631647608,46695.91562398055,12422.37346671794,33.31263081746929,0.9575376717548488,90.0,75.0,63.0,239.0,302.0,15.0,1653.0,1407.0,15.0,5.0,10.0,0.3333333333333333,462.5642956999039,3668.521204361277,12.0,8.0,4.0,0.6666666666666666,1277.7154561060736,8335.869214526305,22.0,10.0,12.0,0.4545454545454545,2205.341231416284,38613.82777234295,13.0,7.0,6.0,0.5384615384615384,1130.9436061593756,14715.993527765915,77.0,35.0,42.0,0.4545454545454545,367.0109334830587,12514.498435310044,,,,,46343.0,46358.0,46433.0,46445.0,46454.0,46476.0,46483.0,46496.0,46662.0,46735.0,0.11795300945250002,-0.23474334144294504,0.055910696068811994,-0.18504848479879948,0.029544348708107633
51,51,47050.90632736068,4123.2938833765,22.146648021040985,47153.29199708173,-6556.46774829195,7.64389620259217,47177.27276184481,40636.08279477227,9.275219367343649,47203.726017299574,-3972.9689082675222,4.89143683495909,47421.93144289727,14054.010939985066,34.62006712313129,0.9430352176543731,109.0,72.0,63.0,241.0,304.0,37.0,706.0,710.0,39.0,16.0,23.0,0.4102564102564102,309.521725965793,4782.13839819525,18.0,14.0,4.0,0.7777777777777778,1267.0167340053915,7582.715735497335,24.0,11.0,13.0,0.4583333333333333,2041.7721631005752,41364.36810035976,11.0,7.0,4.0,0.6363636363636364,1090.2254151447949,12767.242302540224,86.0,53.0,33.0,0.6162790697674418,372.8068121672284,12750.743272006675,,,,,47036.0,47073.0,47145.0,47157.0,47166.0,47190.0,47197.0,47208.0,47372.0,47449.0,0.07506661778673185,-0.1932468491643945,0.050245299809341955,-0.2744107593885514,0.026526719934915927
52,52,47772.54796540086,2744.8998607749563,15.085384378672789,47886.726017299574,-7771.023727732612,7.64389620259217,47911.027567063386,38964.25700774107,9.46603922552013,47932.336069468896,-11183.985681336437,5.641685266865398,48144.05211236146,12478.838009350618,31.07853412308328,0.9492278836358026,102.0,88.0,75.0,241.0,316.0,14.0,713.0,735.0,16.0,10.0,6.0,0.625,397.4944638928195,3669.7954852029097,25.0,21.0,4.0,0.84,1232.505338964024,8284.922856510848,23.0,11.0,12.0,0.4782608695652174,2224.7095648878053,37063.629117436954,12.0,3.0,9.0,0.25,1720.0988199604465,21573.977046982047,75.0,37.0,38.0,0.4933333333333333,447.2471886513853,12933.786553200238,,,,,47764.0,47778.0,47866.0,47891.0,47900.0,47923.0,47929.0,47941.0,48107.0,48182.0,0.14481200920043638,-0.15860269922552891,0.05709616288707417,-0.15380016292679144,0.03584045151609908
53,53,48492.60271279886,3752.2351715083537,19.48487580084771,48603.53879408694,-5309.861315578916,7.695944327373236,48626.18191288611,37179.35428861008,8.660725025212914,48651.87669549929,-11680.904188590925,6.000825804755173,48865.383477496405,13133.5384472648,35.82770869238585,0.9495977484202014,108.0,83.0,63.0,242.0,305.0,25.0,726.0,717.0,35.0,14.0,21.0,0.4,406.5796407033797,4333.254218681359,17.0,13.0,4.0,0.7647058823529411,1286.119469177421,10466.938275326773,22.0,10.0,12.0,0.4545454545454545,2108.6779632767657,35106.77770569249,15.0,8.0,7.0,0.5333333333333333,1449.003915270851,19736.257596194457,83.0,44.0,39.0,0.5301204819277109,399.5311127552551,11774.732503113291,,,,,48488.0,48513.0,48596.0,48607.0,48616.0,48638.0,48644.0,48659.0,48823.0,48901.0,0.10835665200055666,-0.24221338237290663,0.05671636863049988,-0.12404895133769993,0.030420675613011337
54,54,49194.86746867684,4413.831109700364,5.578938012180981,49296.21375725128,-6373.131582928051,15.28779240518434,49317.96936689854,36547.51077987693,9.02237534065188,49344.87669549929,-9912.341658260855,6.341012358359592,49564.63008649785,10547.098795396672,28.42004293174376,0.8969829415127769,95.0,78.0,69.0,234.0,303.0,17.0,699.0,692.0,17.0,7.0,10.0,0.4117647058823529,460.5588587442268,2515.2944061377557,22.0,18.0,4.0,0.8181818181818182,1172.2259056446917,7992.360848484815,23.0,10.0,13.0,0.4347826086956521,1922.80758649267,33290.45703607396,15.0,8.0,7.0,0.5333333333333333,1297.9592118541434,17290.74148940801,69.0,47.0,22.0,0.6811594202898551,414.5066637681747,8993.506249442526,,,,,49188.0,49205.0,49283.0,49300.0,49308.0,49331.0,49337.0,49352.0,49519.0,49586.0,0.1043444679457824,-0.18393248129142314,0.05261117776457072,-0.13094375240510764,0.039300538641876374
55,55,49912.69864360057,3035.1931462472053,10.191861603456228,50030.12330450071,-6175.004302988583,12.739827004320285,50052.00105975065,40196.61493991798,9.445059008786355,50077.30135639943,-6091.756123533477,4.686055140499847,50286.41660663053,13055.366056160536,33.83994535723196,0.960059641839102,113.0,102.0,63.0,243.0,306.0,11.0,716.0,734.0,41.0,8.0,33.0,0.1951219512195122,297.86536609920864,3118.4021680754954,15.0,11.0,4.0,0.7333333333333333,1338.2757895050268,9870.863872926577,24.0,11.0,13.0,0.4583333333333333,2073.085723090725,38787.30273439839,12.0,5.0,7.0,0.4166666666666667,1256.440191397868,14298.72606617604,84.0,43.0,41.0,0.5119047619047619,369.1738423044993,14320.890714655225,,,,,49907.0,49918.0,50020.0,50033.0,50041.0,50065.0,50072.0,50083.0,50247.0,50326.0,0.09813720305328753,-0.21672467318886354,0.05157363937708122,-0.2062525429315905,0.02827755581240822
56,56,50732.39728720113,2973.720022244115,10.22357422930624,50836.301356403455,-6229.054727896093,10.191861603454695,50861.42678620675,40415.791833114105,8.603007964620193,50887.726017299574,-5940.171901759205,4.183061161378795,51110.32873009842,12163.034131635284,28.027619402977756,0.9208173896650176,103.0,86.0,69.0,234.0,303.0,17.0,818.0,807.0,19.0,13.0,6.0,0.6842105263157895,396.6695314823121,3771.179584386242,32.0,26.0,6.0,0.8125,1040.0645081578907,5351.740505342098,23.0,10.0,13.0,0.4347826086956521,2231.732764823988,41232.1219161325,11.0,7.0,4.0,0.6363636363636364,1214.6772144411063,14455.135255697956,65.0,49.0,16.0,0.7538461538461538,449.65751063636645,10365.947224871456,,,,,50720.0,50737.0,50823.0,50842.0,50851.0,50874.0,50882.0,50892.0,51063.0,51126.0,0.13339168735292228,-0.16696987802982102,0.0552193255062109,-0.2044851958040768,0.0369691892475115
57,57,51506.726017299574,4061.447171644272,7.64389620259217,51608.972626301,-5054.710980795169,14.592123758075342,51630.8403862727,38153.37692669708,9.174747078248853,51655.45203459914,-9203.845667523983,5.74385646888524,51869.95881659626,12748.596077554314,33.13453511521134,0.9452223718128188,98.0,80.0,73.0,243.0,316.0,18.0,779.0,772.0,26.0,21.0,5.0,0.8076923076923077,327.8380383188949,3544.7509022492213,22.0,18.0,4.0,0.8181818181818182,1180.2576249343736,11483.29896206172,23.0,11.0,12.0,0.4782608695652174,2039.1294379412295,34496.18321822767,14.0,5.0,9.0,0.3571428571428571,1344.420383882324,16927.18346021941,88.0,49.0,39.0,0.5568181818181818,431.37614205666944,11817.132506850783,,,,,51493.0,51511.0,51591.0,51613.0,51620.0,51643.0,51650.0,51664.0,51827.0,51907.0,0.08071951313506069,-0.23349655982679038,0.05344558207413585,-0.14607159142467452,0.03383714876779
58,58,52923.12330450071,4868.398231537639,12.739827004320285,53038.273982700426,-4484.23474358448,5.085509958688731,53060.36675778749,38243.07997624017,8.906011050840554,53087.30135639943,-6791.77054174598,4.892267135988079,53292.0265736866,13026.146253943494,38.103418063849006,0.9476532583636064,118.0,105.0,59.0,242.0,301.0,13.0,1413.0,1428.0,43.0,11.0,32.0,0.2558139534883721,434.1566554986963,5761.942234065604,6.0,4.0,2.0,0.6666666666666666,1340.102419457993,11469.34234837782,24.0,11.0,13.0,0.4583333333333333,2037.9772494269769,38153.8883064547,13.0,7.0,6.0,0.5384615384615384,1198.8080856083377,13801.718139931165,99.0,54.0,45.0,0.5454545454545454,349.5077161017443,13300.652246039152,,,,,52916.0,52929.0,53034.0,53040.0,53049.0,53073.0,53081.0,53093.0,53262.0,53335.0,0.08917854186336188,-0.298847517154461,0.05329009197724504,-0.17650892035291826,0.026831244582098516
59,59,53674.69864360057,4040.6336703681745,10.191861603456228,53779.972626301,-5986.122717997997,11.561634401821976,53803.29231737325,39400.55404783214,9.315629840276255,53830.726017299574,-6242.12080770465,5.45602543174237,54039.23249559731,14054.05012599093,31.918547010516917,0.9544943225732604,99.0,87.0,71.0,242.0,313.0,12.0,752.0,745.0,37.0,14.0,23.0,0.3783783783783784,388.940989686347,4087.118643118022,20.0,16.0,4.0,0.8,1185.4706589630612,9763.103866818004,25.0,11.0,14.0,0.44,1991.3706733870467,39069.21399446958,9.0,4.0,5.0,0.4444444444444444,1230.953133457357,15410.53685730284,79.0,40.0,39.0,0.5063291139240507,397.1734904824476,15205.468486672413,,,,,53665.0,53677.0,53764.0,53784.0,53792.0,53817.0,53828.0,53835.0,54004.0,54077.0,0.09625742430912017,-0.1980364778354445,0.0505416921541136,-0.19720110702407287,0.0282604293368737
60,60,54430.027373699,3420.8757710138525,17.167473297988845,54527.54796540086,-5515.836383833257,9.656399145638506,54549.89952544634,41432.137808241874,9.181864018474656,54575.30135639943,-7392.701563187546,4.469452921895291,54784.15580424229,13363.106888692611,33.09907111259096,0.962150687585832,88.0,69.0,67.0,241.0,308.0,19.0,760.0,746.0,21.0,5.0,16.0,0.238095238095238,360.216467937708,2100.0449054559544,17.0,14.0,3.0,0.8235294117647058,1361.7835748833131,11898.186200041284,24.0,11.0,13.0,0.4583333333333333,2202.215654358982,41065.376798871774,11.0,5.0,6.0,0.4545454545454545,1354.304806427495,15708.997014752364,79.0,39.0,40.0,0.4936708860759494,409.0109329186277,14251.633189682185,,,,,54426.0,54445.0,54514.0,54531.0,54539.0,54563.0,54570.0,54581.0,54752.0,54822.0,0.10529948821583482,-0.2468861438447772,0.05315235396617423,-0.18319484356995375,0.030607472972076447
61,61,55125.972626301,3595.7750497382144,17.8357578060484,55247.5050225232,-4489.651426806582,15.28779240518429,55272.938325337986,40426.295507452734,8.246854162380819,55300.30135639943,-8680.711342975506,5.4400214980737065,55511.2327992967,13433.449884037118,33.69268070427643,0.947330464408067,118.0,104.0,72.0,238.0,310.0,14.0,690.0,720.0,15.0,11.0,4.0,0.7333333333333333,415.79896837301806,6024.108288409153,19.0,14.0,5.0,0.7368421052631579,908.3103678044638,4991.943729203043,22.0,10.0,12.0,0.4545454545454545,2253.2445794444966,39307.330603528506,14.0,8.0,6.0,0.5714285714285714,1261.6884948897975,15863.65269427779,85.0,46.0,39.0,0.5411764705882353,400.0247708343376,12821.60000112261,,,,,55116.0,55130.0,55234.0,55253.0,55263.0,55285.0,55292.0,55306.0,55468.0,55544.0,0.11563542285641304,-0.2023120018585787,0.05573710257545371,-0.1453439061662573,0.029778260557601396
62,62,55827.698643599935,3596.9694274930566,10.191861603456228,55933.027373699,-5032.175375274904,17.8357578060484,55962.480368657125,37830.52452165217,8.580027295175316,55987.87669549929,-11405.950173279844,6.169747781194972,56193.538808254285,12156.54203638495,31.92404146936082,0.9367253774044464,104.0,92.0,73.0,236.0,309.0,12.0,703.0,690.0,15.0,12.0,3.0,0.8,461.9987879489129,2678.6633241141208,22.0,12.0,10.0,0.5454545454545454,615.7310358560935,21.614044162509344,22.0,10.0,12.0,0.4545454545454545,2084.919742860597,35910.037621653406,15.0,8.0,7.0,0.5333333333333333,1436.070991239508,19920.23866685485,78.0,38.0,40.0,0.4871794871794871,401.00637331723453,12898.053236824107,,,,,55818.0,55830.0,55922.0,55943.0,55952.0,55974.0,55980.0,55995.0,56157.0,56231.0,0.12844112168918476,-0.122358818987396,0.05511210244170155,-0.12590542387285897,0.03298687835052177
63,63,56252.424660900135,1215.4101337241682,0.9214894256304832,56606.178051898714,-8611.81248317279,22.93168860777651,56637.38721559416,34781.53093494236,9.194177131327582,56662.74431050199,-11724.64528548393,7.892823361145643,56877.47940829813,9297.994552554936,21.77480549968328,0.8310380079821347,338.0,335.0,83.0,224.0,307.0,3.0,426.0,676.0,3.0,1.0,2.0,0.3333333333333333,347.5963645141449,3303.3465818774603,73.0,59.0,14.0,0.8082191780821918,636.4629060918571,4193.408831757622,23.0,10.0,13.0,0.4347826086956521,1892.0957913786312,31073.123368267305,17.0,8.0,9.0,0.4705882352941176,1355.0296986049266,20641.42928429735,67.0,40.0,27.0,0.5970149253731343,383.9377182720379,9159.393569208622,,,,,56251.0,56254.0,56589.0,56619.0,56627.0,56649.0,56656.0,56672.0,56845.0,56896.0,0.28599100408112144,-0.07390580175026867,0.054399439602521533,-0.11557106126550065,0.04129252992157735
64,64,57209.12330450071,2917.784666879152,12.739827004320285,57322.30810652541,-7520.9832700546285,10.191861603456228,57345.29698603194,38922.4863844952,10.06885742908756,57368.45203459914,-8402.206740781488,5.268374687428794,57579.06448089676,12557.865275832606,31.894122328534348,0.961279998216727,105.0,93.0,70.0,238.0,308.0,12.0,955.0,708.0,12.0,7.0,5.0,0.5833333333333334,415.0525698299311,5418.862001571426,19.0,15.0,4.0,0.7894736842105263,1248.2029761607916,8827.12217816091,24.0,11.0,13.0,0.4583333333333333,2071.9272402876386,40116.69431292763,14.0,4.0,10.0,0.2857142857142857,1345.2513119767414,16906.35782216446,82.0,43.0,39.0,0.524390243902439,452.5754321354134,12897.236602715784,,,,,57202.0,57214.0,57307.0,57326.0,57334.0,57358.0,57365.0,57377.0,57544.0,57615.0,0.14224921206192684,-0.16596273802796604,0.053232139895178755,-0.1601069044691966,0.03603920110581111
65,65,57932.84932180029,2960.7907864633116,5.095930801728113,58052.54796539834,-7207.902042788,15.287792405183028,58075.062796434155,41697.155758756766,9.363309086775258,58101.30135639943,-7691.854156618922,5.234177392578713,58309.918922468205,12837.827216148453,30.562159009563302,0.9511345314719428,107.0,96.0,70.0,240.0,310.0,11.0,725.0,731.0,11.0,3.0,8.0,0.2727272727272727,410.22270314982023,3299.570872571614,22.0,18.0,4.0,0.8181818181818182,1378.349794087994,10592.651194797803,24.0,11.0,13.0,0.4583333333333333,2126.0760701217127,38096.01609369559,14.0,7.0,7.0,0.5,1452.6405641791555,17462.599648091727,75.0,35.0,40.0,0.4666666666666667,324.3946588252202,13381.736346368414,,,,,57930.0,57941.0,58037.0,58056.0,58064.0,58088.0,58095.0,58107.0,58275.0,58347.0,0.13855173591641526,-0.1912275979759086,0.050988515437895746,-0.18885440813111917,0.025268657488797672
66,66,58689.23920911665,5163.113822157158,17.072843309330562,58797.6159357301,-5259.7008339652375,5.674716969427755,58821.23556859131,37591.95795314143,8.770267666291062,58848.726017299574,-8219.273044817503,5.3353191990481985,59061.383477496405,12894.61548772474,35.3803434791983,0.949823152467747,113.0,91.0,64.0,244.0,308.0,22.0,759.0,746.0,29.0,16.0,13.0,0.5517241379310345,384.31799344627905,5354.726197342683,12.0,9.0,3.0,0.75,1282.5147934314862,8728.2572234463,24.0,11.0,13.0,0.4583333333333333,2015.839955665008,35108.50203616699,12.0,8.0,4.0,0.6666666666666666,1194.5597133023405,14845.066683922449,79.0,42.0,37.0,0.5316455696202531,355.4249637232516,13866.099763619171,,,,,58676.0,58698.0,58789.0,58801.0,58810.0,58834.0,58841.0,58853.0,59020.0,59097.0,0.07443531300762808,-0.24383797366372464,0.05362423415608634,-0.14533641926587973,0.027563828022759168
67,67,59382.499798975594,4504.088241602417,16.553554319054523,59493.39728720114,-6259.664849032924,7.920300532238462,59517.97575687792,35199.414653488566,9.988965566546836,59540.52340833011,-11388.149181206836,5.743965472145133,59748.08567073954,12557.853080291918,35.13828165420614,0.952532173608671,112.0,93.0,68.0,238.0,306.0,19.0,689.0,696.0,19.0,12.0,7.0,0.631578947368421,408.42023009908905,5837.590422299529,16.0,11.0,5.0,0.6875,1108.291432233361,7252.479731276859,24.0,12.0,12.0,0.5,1976.7939223603491,33495.50497877324,15.0,5.0,10.0,0.3333333333333333,1479.744120754596,19163.56556345606,90.0,49.0,41.0,0.5444444444444444,346.50794324409196,12804.527959162686,,,,,59370.0,59389.0,59482.0,59498.0,59506.0,59530.0,59536.0,59550.0,59723.0,59788.0,0.09067767063857204,-0.17705283892388976,0.0561598521401671,-0.12993719147941327,0.0275929285864871
68,68,60109.45203459914,4349.274067168617,15.28779240518434,60211.51665358175,-7448.998220800279,8.520103431036738,60233.361232835785,37636.50411685281,9.47177033212486,60260.726017299574,-6938.22904948114,5.577577253538968,60466.90996891776,12523.349149660124,32.86298631279168,0.9625170999823908,113.0,84.0,63.0,242.0,305.0,29.0,732.0,716.0,50.0,32.0,18.0,0.64,345.70086659681846,2748.987126810394,15.0,12.0,3.0,0.8,1410.2454796051748,11225.306191648038,24.0,10.0,14.0,0.4166666666666667,1902.7471497843949,39197.30044302155,11.0,7.0,4.0,0.6363636363636364,1169.0161867420989,16420.78553755474,84.0,43.0,41.0,0.5119047619047619,332.07399096166677,13340.666252592951,,,,,60089.0,60118.0,60202.0,60214.0,60223.0,60247.0,60254.0,60265.0,60427.0,60507.0,0.07948472808517909,-0.18932015256323498,0.05055589498633551,-0.16848913150676703,0.026516388467112174
69,69,60937.30135639943,2932.0405023960957,9.466732115892166,61039.577273682735,-6823.330947450808,10.191861603456228,61064.80860339067,39529.29528306133,9.398064961539683,61091.30135639943,-6657.82835512298,4.989730435317974,61303.95363211397,12356.531538484467,29.110765936685,0.9518451449047436,90.0,79.0,72.0,245.0,317.0,11.0,827.0,829.0,18.0,8.0,10.0,0.4444444444444444,417.4464175788745,2718.3117262292753,20.0,15.0,5.0,0.75,1080.4864466740837,6404.232243500561,24.0,11.0,13.0,0.4583333333333333,2040.6474538661207,40598.88798354307,11.0,5.0,6.0,0.4545454545454545,1227.334985772776,16065.79581805706,74.0,35.0,39.0,0.4729729729729729,317.3380696795121,13111.092278621993,,,,,60935.0,60946.0,61025.0,61045.0,61054.0,61078.0,61086.0,61097.0,61269.0,61342.0,0.1423740283388762,-0.15835175737412427,0.051623674018306046,-0.18434464217275626,0.025681807932198562
70,70,61773.54796540086,3167.9889029014603,14.513534559965109,61888.69864360057,-8062.212013053478,10.191861603456228,61909.09222817357,38935.37108740603,9.35665333680611,61934.45203459914,-8963.489886744777,5.546564661518403,62144.75112508893,12583.759090559142,31.980100903682647,0.9486442378292818,115.0,102.0,64.0,238.0,302.0,13.0,832.0,846.0,20.0,11.0,9.0,0.55,358.5706589592575,3255.752262361849,12.0,10.0,2.0,0.8333333333333334,1499.5611885225185,11932.23648432926,23.0,10.0,13.0,0.4347826086956521,2081.0391174743513,39852.07313434925,15.0,6.0,9.0,0.4,1308.7614324334963,17347.13181844398,73.0,37.0,36.0,0.5068493150684932,382.0620853291156,13962.590823428083,,,,,61764.0,61777.0,61879.0,61891.0,61899.0,61922.0,61928.0,61943.0,62108.0,62181.0,0.11318557922688872,-0.1859987291446303,0.05344854972109103,-0.1460102537036266,0.0303615225450203
71,71,62514.09853591833,4052.888686240073,13.456427242507596,62622.599490553934,-5751.259028057093,9.864501163654868,62645.45595418889,36747.55916523704,8.746236307141892,62672.30135639943,-9196.376931054056,5.230229067260823,62881.2327992967,12642.79305980636,33.83133668679355,0.9437666474131128,108.0,87.0,67.0,236.0,303.0,21.0,740.0,736.0,31.0,11.0,20.0,0.3548387096774194,427.1819819906698,3592.495322053313,15.0,12.0,3.0,0.8,1207.2898300256686,8289.138487000231,23.0,10.0,13.0,0.4347826086956521,1987.5295880645313,37624.460888398,15.0,8.0,7.0,0.5333333333333333,1409.2431476700544,15697.406045529438,84.0,44.0,40.0,0.5238095238095238,348.8819652784256,12574.889204322144,,,,,62503.0,62524.0,62611.0,62626.0,62635.0,62658.0,62665.0,62678.0,62843.0,62914.0,0.10540185410001306,-0.20991748487348497,0.054086030017055434,-0.15323895032089904,0.027595323567193557
72,72,63337.87669549929,3626.6183762164264,12.739827004320285,63434.726017299574,-5665.068432537249,7.643896202580904,63459.99736283493,39618.55933247111,8.911990552776786,63487.15067819971,-4902.109189882072,3.858123062126225,63699.10949479597,13431.070520192268,32.15233265390978,0.9564406888990576,91.0,77.0,64.0,249.0,313.0,14.0,829.0,815.0,19.0,3.0,16.0,0.1578947368421052,479.72899551744814,2460.149166450491,13.0,9.0,4.0,0.6923076923076923,1053.9600415487537,6493.448997980535,24.0,11.0,13.0,0.4583333333333333,2094.2050514633797,38755.13711256723,10.0,7.0,3.0,0.7,1212.3131022668383,14644.87494264756,83.0,41.0,42.0,0.4939759036144578,510.38427491461823,11911.995623027688,,,,,63335.0,63349.0,63426.0,63439.0,63449.0,63473.0,63480.0,63490.0,63663.0,63739.0,0.13227997703412597,-0.18604542100415727,0.052859192427701006,-0.2473043857874578,0.0380002676739212
73,73,64165.229284690664,2757.901856618641,5.599811952959792,64258.30135639943,-7971.312110497489,10.191861603456228,64283.279294761734,38070.898125219486,9.751763691482578,64306.89127978283,-9766.574119084456,5.268558116358657,64521.65746019684,12708.610454395995,31.47352335475276,0.9455114952418066,92.0,82.0,64.0,238.0,302.0,10.0,825.0,823.0,10.0,6.0,4.0,0.6,463.58939229743754,1767.4052666456278,32.0,26.0,6.0,0.8125,1103.4034506996932,5002.665128058772,24.0,11.0,13.0,0.4583333333333333,2083.210383085615,37958.79067532813,14.0,5.0,9.0,0.3571428571428571,1577.8229626343457,18510.865625364226,77.0,45.0,32.0,0.5844155844155844,381.0476076948906,12358.3047478501,,,,,64159.0,64169.0,64251.0,64264.0,64272.0,64296.0,64303.0,64315.0,64483.0,64553.0,0.16809495638319302,-0.13842181003634418,0.054719233999515865,-0.16155337003496317,0.029983420222238665
74,74,64984.726017299574,4653.784928958713,7.6438962025921695,65084.97262630083,-4594.0426550618995,17.835757783839036,65108.58704913779,39590.5820118106,8.539894970810932,65134.87669549929,-9113.218635524436,5.454515879318517,65345.45916488176,12728.66586090706,34.667392814278905,0.94770200887349,103.0,83.0,70.0,243.0,313.0,20.0,821.0,826.0,21.0,17.0,4.0,0.8095238095238095,443.7646924204126,4567.010218846464,19.0,14.0,5.0,0.7368421052631579,1140.9405377409662,7461.70890993238,23.0,11.0,12.0,0.4782608695652174,2148.784270967359,35244.958276216465,15.0,8.0,7.0,0.5333333333333333,1266.2742871941527,15673.47801690588,77.0,36.0,41.0,0.4675324675324675,356.76826295237316,13750.443164219423,,,,,64969.0,64989.0,65072.0,65089.0,65099.0,65121.0,65127.0,65142.0,65313.0,65385.0,0.09535565119458694,-0.24835218638726228,0.05427513721132812,-0.138949183360757,0.028028724050970524
75,75,65752.87669549929,4602.44720737074,6.19146335859786,65843.09421347192,-6073.280954697114,6.943673813773001,65866.3910507221,37506.90578743911,8.87509343434796,65893.30135639943,-8179.392274098657,5.9191631563567375,66102.46463053596,14053.824468681856,32.112653461341125,0.9461159517558156,89.0,75.0,64.0,239.0,303.0,14.0,769.0,759.0,14.0,7.0,7.0,0.5,445.5397115293382,3173.1561917648455,12.0,8.0,4.0,0.6666666666666666,1196.962222566654,7439.231943532957,24.0,11.0,13.0,0.4583333333333333,1969.4435017177584,36106.92208637121,14.0,8.0,6.0,0.5714285714285714,1271.073408321089,16224.48440103048,73.0,36.0,37.0,0.4931506849315068,402.6391761174034,14782.734772165357,,,,,65746.0,65760.0,65835.0,65847.0,65856.0,65879.0,65885.0,65899.0,66069.0,66138.0,0.09680495863500922,-0.19708658820417582,0.052508823651811774,-0.15539949249605553,0.02864979401263064
76,76,66531.47297415689,2794.114588767927,7.902431878839296,66640.30135639945,-6904.986275862181,10.191861603455774,66665.28184639227,38769.33936166601,9.209793213416592,66691.30135639943,-8754.152733340925,6.048123131460088,66902.32686657213,12716.327612015968,30.93018549084069,0.9487189524004132,94.0,78.0,79.0,248.0,327.0,16.0,775.0,797.0,16.0,7.0,9.0,0.4375,325.56541036626663,2815.983524764237,34.0,28.0,6.0,0.8235294117647058,1013.2540536504484,6019.543022376939,23.0,10.0,13.0,0.4347826086956521,2065.7533653543924,38493.56049945304,13.0,6.0,7.0,0.4615384615384615,1380.2829504145573,17494.430339293824,91.0,46.0,45.0,0.5054945054945055,305.37439856083654,13201.097189426302,,,,,66524.0,66540.0,66618.0,66646.0,66655.0,66678.0,66685.0,66697.0,66857.0,66945.0,0.1165182744025633,-0.14674237039289842,0.05328317168584381,-0.15767179217214636,0.02401435444870741
77,77,67359.69864360057,1789.7809026497218,10.191861603456228,67469.582023905,-8599.353032938916,15.28779240518434,67492.54396965486,40594.16985263573,9.01593059390424,67520.72601729959,-8580.10425621016,6.05086262815859,67731.90942119466,12433.652148151335,28.70440165291763,0.9242154013938882,110.0,97.0,66.0,242.0,308.0,13.0,828.0,828.0,18.0,11.0,7.0,0.6111111111111112,340.4664302241683,1808.5466651370664,17.0,12.0,5.0,0.7058823529411765,1435.8276160122866,5000.740473008901,23.0,10.0,13.0,0.4347826086956521,2036.3576422890897,37522.20655437254,13.0,9.0,4.0,0.6923076923076923,1264.0473545962652,17768.156494274597,74.0,38.0,36.0,0.5135135135135135,386.4116776228202,11744.750321833224,,,,,67349.0,67362.0,67459.0,67475.0,67483.0,67506.0,67512.0,67525.0,67699.0,67767.0,0.19022799367236348,-0.1669692604213945,0.05016379568005556,-0.1473230763695401,0.031077890310794387
78,78,68818.39127792334,3330.433278349867,20.383723206912453,68933.03311249288,-6690.035856531591,6.902938854501513,68954.82563028274,36901.50680526758,8.851210818523544,68983.30135639943,-7768.046169825192,5.915712031921265,69192.10949479598,13398.165949821952,33.33174491686692,0.941586266740894,116.0,99.0,64.0,243.0,307.0,17.0,1460.0,1463.0,17.0,9.0,8.0,0.5294117647058824,465.3402822046535,4767.688513845114,11.0,8.0,3.0,0.7272727272727273,1360.8584532563502,8703.744391381271,24.0,11.0,13.0,0.4583333333333333,1967.0036610549153,36161.13253748364,15.0,9.0,6.0,0.6,1060.321329097812,13656.320602559794,91.0,50.0,41.0,0.5494505494505495,346.96091423989,14092.477452810324,,,,,68809.0,68826.0,68925.0,68936.0,68944.0,68968.0,68974.0,68989.0,69162.0,69232.0,0.13972364653863178,-0.20341571890496252,0.05330415561171967,-0.13649781501255842,0.02589614993121508
79,79,69593.86293805508,4287.939410575967,15.17307217308598,69699.70151140419,-7963.2576870950015,6.753848685831277,69722.71180781683,39039.31593151085,9.77024504382886,69745.45203459915,-7942.5488799242285,5.105068746279735,69959.4727646091,13730.907009696091,31.921184369206575,0.9687899779579784,112.0,76.0,63.0,242.0,305.0,36.0,772.0,766.0,40.0,18.0,22.0,0.45,283.69969457918523,3832.308394745347,13.0,10.0,3.0,0.7692307692307693,1410.7729173162973,9579.659108006585,24.0,12.0,12.0,0.5,2148.823567210716,38438.54691231367,13.0,4.0,9.0,0.3076923076923077,1386.4955348963676,17409.43953176099,77.0,39.0,38.0,0.5064935064935064,361.6468461519448,14703.803481442968,,,,,69579.0,69615.0,69691.0,69703.0,69711.0,69735.0,69742.0,69754.0,69928.0,69996.0,0.0661622442424106,-0.17716027444428306,0.05504255174400427,-0.17456556526846262,0.026338161484639553
80,80,70380.12330450071,2792.680377419696,12.739827004320285,70488.94947844415,-4819.366521952317,12.739827004319906,70517.98038591306,39487.41411153391,8.873638467230757,70545.72601729959,-5204.19014004536,6.409396267984194,70770.63008649785,12525.413285021908,29.68956756070856,0.9116658145746264,110.0,98.0,67.0,242.0,309.0,12.0,788.0,796.0,19.0,12.0,7.0,0.631578947368421,362.8793392293233,3848.3971770580697,18.0,10.0,8.0,0.5555555555555556,707.65123386821,607.1375677777608,23.0,11.0,12.0,0.4782608695652174,2108.788441906327,37863.14591151077,12.0,8.0,4.0,0.6666666666666666,1026.3653547925996,13217.762495879168,70.0,49.0,21.0,0.7,392.93142517331097,11531.786054022035,,,,,70373.0,70385.0,70483.0,70497.0,70507.0,70530.0,70538.0,70550.0,70728.0,70792.0,0.12993944533122928,-0.14683490675482838,0.053404065304199534,-0.19721903450354214,0.03137073533878397
81,81,71143.30135639943,3732.659848819041,10.191861603429372,71230.39728720114,-3131.549368272999,20.3837232069101,71270.847894167,37688.23006882691,8.361365850054497,71298.72601729959,-8284.467960474303,5.445710818093521,71507.2327992967,12718.73392169273,31.859954544623964,0.9325906454674822,78.0,67.0,84.0,237.0,321.0,11.0,767.0,751.0,31.0,21.0,10.0,0.6774193548387096,407.6951994807865,2386.0267159528003,34.0,12.0,22.0,0.3529411764705882,435.8939865788862,3360.7086189274596,23.0,11.0,12.0,0.4782608695652174,2006.5367335757744,35537.08511768635,13.0,9.0,4.0,0.6923076923076923,1178.245681410407,13760.709720219433,76.0,39.0,37.0,0.5131578947368421,385.190897765012,13014.464109205031,,,,,71141.0,71152.0,71219.0,71235.0,71260.0,71283.0,71290.0,71303.0,71475.0,71540.0,0.10922377500049336,-0.13919435248094938,0.0532404076793047,-0.14222345804605538,0.030285317716100716
82,82,72574.027373699,2963.477167021477,11.8852155542584,72669.12330450071,-5488.815987419822,12.739827004320285,72691.65599141782,39123.93210033501,9.283562602911068,72717.30135639943,-8611.556257108954,4.786272764583114,72929.35402680321,13192.8268549564,29.193643135153284,0.9553792039513356,96.0,73.0,66.0,243.0,309.0,23.0,1432.0,1423.0,23.0,13.0,10.0,0.5652173913043478,349.3904932019132,2412.049412205545,22.0,18.0,4.0,0.8181818181818182,1200.899547153614,10468.352373534844,23.0,11.0,12.0,0.4782608695652174,2032.2618764221604,36685.585242157875,12.0,6.0,6.0,0.5,1425.451674959353,17450.223910783854,64.0,27.0,37.0,0.421875,354.4205082164216,14305.103863365464,,,,,72561.0,72584.0,72657.0,72672.0,72681.0,72704.0,72711.0,72723.0,72902.0,72966.0,0.11789883083630356,-0.2187902727848838,0.05194421335796047,-0.16552776668939762,0.02686463728456117
83,83,73404.1375979793,2316.595087766264,12.90547624540263,73512.87669549929,-7148.941901689066,12.739827004320285,73538.70639719599,39856.18429729956,9.051893233868167,73565.72601729959,-7421.088243825279,4.809268044046477,73776.69901973841,12862.510056533269,29.778889034000603,0.9516264509005404,109.0,92.0,66.0,242.0,308.0,17.0,826.0,846.0,17.0,9.0,8.0,0.5294117647058824,351.4749447095409,2865.2415536581293,17.0,10.0,7.0,0.5882352941176471,1011.5586159114137,2957.3029854036927,23.0,11.0,12.0,0.4782608695652174,2097.2969882676084,38201.776853812546,10.0,6.0,4.0,0.6,1251.9526823606443,17039.286613069115,77.0,40.0,37.0,0.5194805194805194,342.16613345416977,13050.58133577238,,,,,73395.0,73412.0,73504.0,73520.0,73528.0,73551.0,73561.0,73570.0,73738.0,73812.0,0.15172049123545558,-0.14149766914071785,0.0526216200884466,-0.16870203415278512,0.026601816593361804
84,84,74252.39728720114,3550.2514183719813,14.826692078305664,74362.972626301,-5232.919408421634,17.8357578060484,74384.92010895575,41685.79628956083,8.41619839828962,74413.30135639943,-6911.152176084099,6.235979957008131,74620.99242769547,12598.621460149196,34.60779610039729,0.9501481996684792,107.0,70.0,71.0,242.0,313.0,37.0,846.0,848.0,39.0,12.0,27.0,0.3076923076923077,378.6342225977557,2556.594315615916,22.0,18.0,4.0,0.8181818181818182,1217.4909605155567,10385.997771676735,22.0,10.0,12.0,0.4545454545454545,2212.025935325402,38168.205472387745,15.0,9.0,6.0,0.6,1102.1467811474608,13016.699643617145,78.0,35.0,43.0,0.4487179487179487,326.5416238157041,13149.384652413692,,,,,74241.0,74278.0,74348.0,74367.0,74375.0,74397.0,74404.0,74419.0,74587.0,74661.0,0.10664997431967335,-0.23265998680510527,0.05306426006498882,-0.15947366706255106,0.025918837616368633
85,85,75820.72601729959,2197.563711843321,4.26212619218358,75914.40365705914,-6671.975798085845,15.28779240518434,75938.75400869212,40069.30955722721,9.020020483833688,75964.30135639943,-7533.400173785577,5.173279904906046,76176.85074289748,12929.461436132173,30.15706378978967,0.9397935925371688,91.0,80.0,65.0,241.0,306.0,11.0,1573.0,1553.0,13.0,9.0,4.0,0.6923076923076923,402.70664619443414,931.5761666241914,15.0,9.0,6.0,0.6,1138.041346461145,3881.598260115177,24.0,11.0,13.0,0.4583333333333333,2114.2827970869107,37745.78528224875,12.0,6.0,6.0,0.5,1305.7233956958082,17841.099450720252,73.0,37.0,36.0,0.5068493150684932,400.675421401962,14196.76322638123,,,,,75814.0,75825.0,75905.0,75920.0,75928.0,75952.0,75958.0,75970.0,76140.0,76211.0,0.18325140883248522,-0.17057036489665373,0.05276564084707475,-0.17332457662867984,0.030989335741568477
86,86,76697.78105278166,4995.238188594636,4.719228011077351,76812.69864360057,-8456.819484096151,10.191861603294535,76833.01083484727,38544.19120690644,9.755817008705174,76858.10045349275,-8191.539859198136,5.063978788162281,77078.2327992967,12935.439278959522,30.536127154372544,0.9404033180595645,112.0,100.0,62.0,245.0,307.0,12.0,875.0,895.0,12.0,6.0,6.0,0.5,486.0277878063727,5002.6834462203415,25.0,23.0,2.0,0.92,1501.9284597399562,13035.33330827312,24.0,11.0,13.0,0.4583333333333333,1981.0808989601433,40603.573383466035,12.0,4.0,8.0,0.3333333333333333,1231.1414957974062,15862.995989447278,91.0,52.0,39.0,0.5714285714285714,308.6774920205391,11892.507285453868,,,,,76692.0,76704.0,76804.0,76815.0,76822.0,76846.0,76855.0,76866.0,77041.0,77111.0,0.09729822071670062,-0.1775996830208419,0.0513976512913616,-0.15029426908238494,0.02386293077210192
87,87,78244.45203459915,3663.692117194227,15.287792405184252,78346.69864360057,-6055.633302082534,10.191861603280394,78368.62603017678,36730.06509961934,9.3127306769586,78392.77402234157,-10276.331737973163,5.551387547810048,78606.35903417577,13599.606966923417,31.82899285659127,0.9519044135766342,96.0,83.0,65.0,244.0,309.0,13.0,1550.0,1532.0,33.0,18.0,15.0,0.5454545454545454,336.2290541154534,2312.3193116263456,23.0,20.0,3.0,0.8695652173913043,1268.118259374259,11651.321993974596,23.0,11.0,12.0,0.4782608695652174,2023.54285438477,35415.355347920624,13.0,5.0,8.0,0.3846153846153846,1293.6975988157697,17390.38874044692,82.0,40.0,42.0,0.4878048780487805,286.1033036284186,14370.584105856507,,,,,78240.0,78253.0,78336.0,78349.0,78358.0,78381.0,78388.0,78401.0,78573.0,78645.0,0.09177328316904215,-0.20941133587764516,0.05509227519462635,-0.12589099221420524,0.021037615596117668
88,88,79010.60271279886,3793.31879349234,10.465009431167928,79098.87960490923,-5686.188312642317,10.191861603456228,79123.78300451204,40251.35028808799,8.800840236270252,79149.45203459915,-6130.2456564015465,6.099678048712601,79361.01930603708,12734.801816223688,31.67121183578678,0.9536472297957308,83.0,67.0,69.0,240.0,309.0,16.0,767.0,759.0,17.0,6.0,11.0,0.3529411764705882,405.0447144166118,1347.734354953933,15.0,10.0,5.0,0.6666666666666666,1083.702471088109,5752.926782566396,23.0,11.0,12.0,0.4782608695652174,2241.2543294351885,38773.03543449696,16.0,6.0,10.0,0.375,1223.487359467935,14193.413635056952,72.0,35.0,37.0,0.4861111111111111,372.3436143480836,15294.942790598468,,,,,79006.0,79022.0,79089.0,79104.0,79113.0,79136.0,79144.0,79158.0,79326.0,79398.0,0.10677845350395798,-0.19058504775135082,0.05568146940149898,-0.19958210943639768,0.029238273176244563
89,89,79749.54796540085,3071.5037374710946,11.654430918440328,79856.30135639943,-6142.368062641624,10.191861603456228,79882.92106140596,38764.97912352141,9.1669895200327,79908.30135639943,-10390.704209281888,5.012335939186991,80120.87757672103,12755.091173760102,30.985637184171026,0.9582660866037624,88.0,74.0,87.0,242.0,329.0,14.0,733.0,758.0,26.0,12.0,14.0,0.4615384615384615,362.252460353113,2938.8217339851126,36.0,29.0,7.0,0.8055555555555556,830.4458263181476,4005.174734026012,23.0,11.0,12.0,0.4782608695652174,2083.887428461137,37306.30341685664,13.0,6.0,7.0,0.4615384615384615,1572.3556036539458,19474.96117193288,83.0,42.0,41.0,0.5060240963855421,336.918224607487,13802.14487595638,,,,,79739.0,79753.0,79827.0,79862.0,79872.0,79895.0,79903.0,79914.0,80091.0,80156.0,0.1179397752097061,-0.135199619731189,0.05375695990499574,-0.15132329551344362,0.02641441131370338
90,90,80484.87669549929,3960.677661348177,12.739827004320205,80576.72601729959,-6088.2839385355,7.64389620259217,80600.40806903406,38133.96714494719,8.760537991410894,80628.30135639943,-10055.938795193792,4.8620140731094725,80834.68483389584,13832.241002007948,36.94367501002623,0.9415144791403872,81.0,69.0,73.0,242.0,315.0,12.0,740.0,718.0,42.0,35.0,7.0,0.8333333333333334,428.61688454513313,2685.7919668002532,20.0,16.0,4.0,0.8,1173.7666082023534,8563.531308828871,23.0,10.0,13.0,0.4347826086956521,2049.1322647077245,38498.86551032231,13.0,7.0,6.0,0.5384615384615384,1396.1079247900416,16272.835388053829,81.0,39.0,42.0,0.4814814814814814,380.4573724183219,14750.445002113258,,,,,80480.0,80492.0,80561.0,80581.0,80590.0,80613.0,80622.0,80634.0,80800.0,80876.0,0.10821806801597583,-0.19279104260776245,0.053735092835187424,-0.13883417085407357,0.02750511449034853
91,91,81856.60271279886,3653.6031144036538,17.03720033134004,81957.69864360057,-7548.563898770642,7.34024792120537,81979.90790593816,36380.06069920001,10.14810462145111,82002.41466179512,-10638.443352382186,6.1663523768966275,82220.80813839656,12971.011060706527,31.267666501161777,0.9452450007991072,96.0,79.0,65.0,242.0,307.0,17.0,1373.0,1379.0,19.0,7.0,12.0,0.3684210526315789,452.1102833428949,2529.840063244089,12.0,10.0,2.0,0.8333333333333334,1374.5419545356806,11468.272035337037,23.0,11.0,12.0,0.4782608695652174,2004.0875541282908,35759.49340328668,15.0,4.0,11.0,0.2666666666666666,1396.1518500575532,19445.2764357083,86.0,49.0,37.0,0.5697674418604651,321.0017591741053,12549.458864862116,,,,,81852.0,81869.0,81948.0,81960.0,81969.0,81992.0,81998.0,82013.0,82184.0,82255.0,0.12374367690911303,-0.18209317334646108,0.05508752639800736,-0.131236479230293,0.024747628205061482
92,92,82326.1322589311,1990.9872737480664,1.2933215454994107,82664.31453334434,-7405.441483549763,22.93168860777651,82691.45571039515,41405.238735121704,8.923802956274987,82717.87669549929,-7008.204747436456,7.056940678401839,82929.0348177606,10891.153662004195,26.467363317248452,0.9229666395979044,327.0,323.0,74.0,236.0,310.0,4.0,466.0,712.0,4.0,2.0,2.0,0.5,393.3525878736225,1068.500096892352,22.0,13.0,9.0,0.5909090909090909,833.8793497623097,1768.351725879736,23.0,10.0,13.0,0.4347826086956521,2115.4945010434008,38828.27738359256,15.0,8.0,7.0,0.5333333333333333,1113.3468940396372,16714.715360329385,71.0,38.0,33.0,0.5352112676056338,309.4377049752577,10947.784861179302,,,,,82324.0,82328.0,82651.0,82673.0,82681.0,82703.0,82710.0,82725.0,82892.0,82961.0,0.19756660078149557,-0.11260359718116275,0.051092435780329105,-0.15886335148054717,0.0284118390556538
93,93,83374.69864360057,3134.407779367681,10.191861603456228,83486.97262630072,-6081.070048909197,17.835757804907374,83510.00372814566,41440.80165452615,9.27251292859964,83535.30135639943,-8662.89712342874,4.898789014438699,83750.31084715002,13661.993817300665,31.087518845146043,0.944572296648457,111.0,98.0,66.0,246.0,312.0,13.0,1047.0,819.0,14.0,11.0,3.0,0.7857142857142857,312.22987787192505,3259.947576489998,16.0,12.0,4.0,0.75,1269.672004732517,8203.632811795902,24.0,11.0,13.0,0.4583333333333333,2081.9006339612324,38701.209464081294,12.0,6.0,6.0,0.5,1360.3172814462876,18527.654636011448,78.0,40.0,38.0,0.5128205128205128,390.7330030699582,14250.539715201525,,,,,83364.0,83377.0,83475.0,83491.0,83499.0,83523.0,83530.0,83541.0,83716.0,83787.0,0.09961367500654707,-0.20879088622902262,0.050237943061939974,-0.15702798521839995,0.028599998528410928
94,94,84108.39728720114,3255.2259545442,15.738009836969814,84222.69864360057,-6232.434806350982,10.191861603437223,84242.54335042737,38683.95080515179,8.636376871932189,84269.30135639943,-8846.443195770275,5.527005471382345,84476.91769803554,13310.962242842614,33.35740662418382,0.9430235678797868,116.0,92.0,62.0,240.0,302.0,24.0,732.0,732.0,25.0,11.0,14.0,0.44,369.745965961053,2766.7499295307416,17.0,15.0,2.0,0.8823529411764706,1413.544534673876,12857.79263078461,23.0,11.0,12.0,0.4782608695652174,2204.9446551706565,36743.01831340605,14.0,8.0,6.0,0.5714285714285714,1309.1767113500298,16634.4599205872,73.0,34.0,39.0,0.4657534246575342,305.3536964247435,14091.633860729517,,,,,84097.0,84121.0,84213.0,84225.0,84233.0,84255.0,84261.0,84275.0,84443.0,84515.0,0.11358534587895458,-0.22680454406573883,0.05699895200148507,-0.14798904852245962,0.022940016721100236
95,95,85504.84932180027,3008.4469855583047,5.095930801728113,85607.84341293754,-5998.917859014366,10.191861603454612,85629.89270642011,37742.10686827727,8.902642229986522,85657.30135639943,-8130.90316152908,5.594882380376862,85878.90406919828,11850.58446813531,27.514306454494285,0.9070016867738806,97.0,86.0,64.0,233.0,297.0,11.0,1399.0,1387.0,18.0,9.0,9.0,0.5,296.9421559344611,3365.856653578964,12.0,9.0,3.0,0.75,1334.090772495382,8707.41683568584,24.0,11.0,13.0,0.4583333333333333,2091.4358917057043,36470.06947043176,14.0,8.0,6.0,0.5714285714285714,1171.0312956576995,15916.316722026491,62.0,44.0,18.0,0.7096774193548387,443.9410879052508,11500.439433059477,,,,,85502.0,85513.0,85599.0,85611.0,85620.0,85642.0,85649.0,85663.0,85836.0,85896.0,0.09870280492223958,-0.22238857138053492,0.055413861738163414,-0.14402229031559122,0.037461535260049916
96,96,86216.54796540085,3620.2142598066994,14.377974430679055,86328.30135639943,-5397.134938482994,10.191861603456228,86353.81175172317,39159.661040919025,9.128845206944144,86379.72601729959,-7352.34353268262,3.992130682342974,86589.24263535744,13756.352458912836,33.083701332953325,0.9625630941765831,116.0,99.0,60.0,243.0,303.0,17.0,710.0,724.0,19.0,10.0,9.0,0.5263157894736842,431.8935781246512,6018.12725054387,30.0,24.0,6.0,0.8,964.2145624167376,5999.361004063323,24.0,11.0,13.0,0.4583333333333333,2035.6808161027648,37910.57257886708,10.0,6.0,4.0,0.6,1397.7882388004834,16497.297231171302,85.0,42.0,43.0,0.4941176470588235,298.76557438674257,13380.232639146414,,,,,86208.0,86225.0,86324.0,86334.0,86343.0,86367.0,86374.0,86384.0,86550.0,86627.0,0.11930055712992857,-0.17865303969734642,0.051984127594353405,-0.19011465291128446,0.021718371587169556
97,97,86968.24275955507,3146.937276898278,14.631623344717072,87065.12404316204,-5362.042270816983,17.8357578060484,87092.87091170008,42438.82612727488,8.847156266805325,87119.72601729959,-6814.705284522163,4.89339724207942,87332.80813839656,12743.589585056694,31.56015930287608,0.9534846708784872,95.0,75.0,67.0,243.0,310.0,20.0,757.0,739.0,39.0,18.0,21.0,0.4615384615384615,292.59072121562525,3022.537635435669,30.0,21.0,9.0,0.7,800.8437963350026,2257.0889994673635,24.0,11.0,13.0,0.4583333333333333,2116.9431759198765,39274.52124831575,13.0,8.0,5.0,0.6153846153846154,1350.7626733373218,16100.457803572022,87.0,49.0,38.0,0.5632183908045977,330.51435806072044,11294.037601720696,,,,,86962.0,86982.0,87057.0,87074.0,87082.0,87106.0,87113.0,87124.0,87287.0,87367.0,0.09297634349548016,-0.14935424897591917,0.049882227410605606,-0.19821292586272646,0.025935734657390887
98,98,87693.60271279886,3771.613187248821,11.86991551769318,87790.24660900142,-4923.103818966082,20.29293703950377,87814.48663881652,40477.094027341635,8.92376720649212,87839.45203459915,-8336.705560658935,5.953925462035429,88050.60444320379,12503.83184636562,31.869135889703735,0.9534082316526172,84.0,66.0,77.0,238.0,315.0,18.0,726.0,722.0,36.0,24.0,12.0,0.6666666666666666,419.0743003116015,1581.2926828550983,30.0,24.0,6.0,0.8,1022.2789502410724,8640.61520518169,22.0,10.0,12.0,0.4545454545454545,2146.136869545306,37306.24267721123,15.0,6.0,9.0,0.4,1361.4519657653707,17294.069576704005,71.0,36.0,35.0,0.5070422535211268,431.4638231176924,13885.645527607634,,,,,87687.0,87705.0,87771.0,87796.0,87804.0,87826.0,87833.0,87848.0,88015.0,88086.0,0.11111274659035027,-0.20764927733247857,0.05302102142252665,-0.1633081504269609,0.034506527952317456
99,99,,,,,,,,,,,,,,,,,,,,,,,,,,,,,,,,,,,,,,,,,,,,,,,,,,,,,,,,,,,,88805.0,89147.0,89166.0,89174.0,89196.0,89203.0,89218.0,89383.0,89452.0,,,,,
100,100,89722.84932180027,2087.766343528978,5.095930801728113,89847.46522483669,-6267.467490866,15.28779240518434,89871.54304208844,38580.13461841534,9.059877378976074,89897.72601729959,-8671.506970736122,5.062285783690981,90105.76128635988,12143.951719383078,27.421810025735155,0.9433000129920106,120.0,111.0,67.0,236.0,303.0,9.0,2025.0,2058.0,10.0,8.0,2.0,0.8,361.0077041327171,3449.224278192401,18.0,12.0,6.0,0.6666666666666666,1072.4556477379836,4931.945781993429,23.0,11.0,12.0,0.4782608695652174,2043.395164278803,35098.07357633787,12.0,7.0,5.0,0.5833333333333334,1338.7790867029428,18100.59027450361,66.0,33.0,33.0,0.5,353.32955133769457,12836.695513480994,,,,,89715.0,89724.0,89835.0,89853.0,89861.0,89884.0,89891.0,89902.0,90074.0,90138.0,0.1729157600665701,-0.17111467260116547,0.05296495682271247,-0.15438828466850604,0.02909510507800701
101,101,90477.54796540084,2856.5394547930955,15.28779240518434,90590.7260172996,-6876.199027698068,7.64389620259217,90615.51817317354,40014.38055361171,9.121161989668924,90641.30135639945,-5265.082854820555,5.393895893204995,90849.9135150039,13563.647366528088,34.60037718655971,0.963430372707642,112.0,98.0,66.0,243.0,309.0,14.0,753.0,742.0,16.0,10.0,6.0,0.625,361.49373875740537,4262.962732017107,15.0,10.0,5.0,0.6666666666666666,1207.6560655070818,7321.95095649353,24.0,12.0,12.0,0.5,2138.387963583659,37742.76895254782,11.0,4.0,7.0,0.3636363636363636,1228.3337539063236,15017.473197947736,77.0,37.0,40.0,0.4805194805194805,425.29417763856935,14942.486719418968,,,,,90469.0,90483.0,90581.0,90595.0,90605.0,90628.0,90638.0,90647.0,90813.0,90890.0,0.1265495346653943,-0.17562843376733478,0.05344048649506452,-0.2332980862365152,0.03135544342505512
102,102,91233.24660900142,3404.801287877798,15.338838347015171,91335.5306067509,-6548.103345609947,10.191861603456228,91359.87071193216,39683.72771056505,9.125446729093786,91386.30135639945,-5560.882915157953,5.061651819713607,91594.98076114502,13653.649503323784,33.7920496108865,0.949654252011352,99.0,79.0,74.0,239.0,313.0,20.0,754.0,744.0,39.0,16.0,23.0,0.4102564102564102,399.8149564853332,3944.9825316389865,22.0,18.0,4.0,0.8181818181818182,1144.1614824171832,7758.953423264844,24.0,11.0,13.0,0.4583333333333333,2080.3904885731527,39427.9247605926,13.0,7.0,6.0,0.5384615384615384,1179.999372496068,13582.148505096142,56.0,19.0,37.0,0.3392857142857143,465.3992021372039,16009.000217298822,,,,,91219.0,91239.0,91318.0,91340.0,91349.0,91373.0,91379.0,91392.0,91576.0,91631.0,0.11742681075362744,-0.17473173864677394,0.052424270818169326,-0.2121964066676543,0.03408606629486931
103,103,91912.12330450072,3101.482325923907,12.739827004320285,92002.35101187749,-3771.5358864388063,4.612635130495237,92064.97966608957,36090.75767051826,8.318761503065463,92089.87669549928,-9722.131319526034,5.185861543256422,92306.65746019685,12535.957666889046,32.64426570898065,0.904823892664022,93.0,81.0,99.0,241.0,340.0,12.0,681.0,706.0,13.0,8.0,5.0,0.6153846153846154,567.0011193402563,6699.677438898407,9.0,4.0,5.0,0.4444444444444444,433.71866218411185,3802.4776323490887,23.0,11.0,12.0,0.4782608695652174,1978.435082655837,33182.06451527863,14.0,7.0,7.0,0.5,1378.3787885072788,16989.78740044915,89.0,58.0,31.0,0.651685393258427,314.2138541385651,12392.4631736414,,,,,91905.0,91917.0,91998.0,92007.0,92054.0,92077.0,92083.0,92097.0,92267.0,92338.0,0.1828161697395297,-0.11499788819287667,0.054818330518784784,-0.14177742957852543,0.0250650060001791
104,104,92645.027373699,3354.345203362569,13.14005857126133,92734.972626301,-4480.287236806283,9.758554656943106,92764.90099609368,36476.72801791395,8.871129691255705,92789.87669549928,-7793.032288140654,5.819479664996755,92997.3447316558,12594.23963802223,31.746460293511348,0.9498662985226296,86.0,70.0,72.0,239.0,311.0,16.0,738.0,700.0,18.0,7.0,11.0,0.3888888888888889,463.13326647017186,934.6936669069836,20.0,10.0,10.0,0.5,619.0112021422151,1392.631394191303,24.0,12.0,12.0,0.5,2009.2742738351487,34915.70620600095,15.0,7.0,8.0,0.4666666666666667,1259.4612950413534,15949.519079160356,89.0,45.0,44.0,0.5056179775280899,315.8338707740888,10035.570937272088,,,,,92639.0,92655.0,92725.0,92745.0,92754.0,92777.0,92783.0,92797.0,92954.0,93036.0,0.13806964948208167,-0.13816328494676372,0.05508373099825131,-0.1616137657940911,0.02507764500689512
105,105,93420.3213723581,4036.321893131766,17.592746342931143,93525.12330413352,-7118.627425642248,12.739827003010172,93547.93501796982,41878.154743431085,9.59045635328173,93574.7260172996,-6435.10177546004,4.748782276075806,93785.15591662037,13236.541036100443,33.39121847046891,0.9660318516739652,106.0,65.0,70.0,249.0,319.0,41.0,779.0,783.0,48.0,23.0,25.0,0.4791666666666667,205.76317806759053,3949.9434736707017,19.0,16.0,3.0,0.8421052631578947,1300.9688466320993,10026.04577601558,24.0,11.0,13.0,0.4583333333333333,2106.131273759923,41455.83288803519,9.0,5.0,4.0,0.5555555555555556,1226.1979741215553,16856.40467145951,83.0,39.0,44.0,0.4698795180722891,365.3131591474795,13738.517630454891,,,,,93403.0,93444.0,93509.0,93528.0,93537.0,93561.0,93570.0,93579.0,93748.0,93828.0,0.05097789113839474,-0.18275557475389642,0.050291883361701505,-0.19054834203207227,0.027598838559949247
106,106,94229.12330450072,3008.0512072333345,12.495427638460514,94340.6908509533,-6501.142229761784,10.191861603456228,94364.541272401,40558.87377450051,9.031806274320315,94389.236514938,-6775.67724152602,5.199760493415766,94600.8072172968,12488.466079226624,31.990519303209,0.9530343583770402,115.0,101.0,64.0,239.0,303.0,14.0,800.0,817.0,19.0,12.0,7.0,0.631578947368421,387.1325455700662,3590.3198407175455,13.0,8.0,5.0,0.6153846153846154,1256.4529119834742,8563.084485247888,22.0,11.0,11.0,0.5,2276.1842254941635,40159.86188257349,13.0,4.0,9.0,0.3076923076923077,1217.509449447512,15784.282809500755,78.0,38.0,40.0,0.4871794871794871,432.2191126063537,12583.40358636666,,,,,94218.0,94232.0,94333.0,94346.0,94354.0,94376.0,94386.0,94397.0,94565.0,94636.0,0.1286987883182124,-0.1932664857310026,0.0561204987630896,-0.17968822983269847,0.03460946363343286
107,107,95011.72601745283,3191.472130455359,7.64389620259217,95112.60271279886,-5484.6344345963635,20.383723206912453,95143.92901587396,37163.542401991945,8.269059423671088,95172.30135639945,-9232.386616942928,7.282880365339079,95380.66246702816,11697.20022750696,30.349573984582893,0.9218092723434472,97.0,87.0,71.0,237.0,308.0,10.0,786.0,779.0,11.0,2.0,9.0,0.1818181818181818,526.0444866414657,4522.893909846156,48.0,37.0,11.0,0.7708333333333334,549.6244153570301,2510.6140028445125,21.0,10.0,11.0,0.4761904761904761,2076.4706361410463,34756.94849882673,17.0,10.0,7.0,0.5882352941176471,1082.6400030498637,13395.907772014789,69.0,34.0,35.0,0.4927536231884058,400.68018287858155,12324.44105006046,,,,,95010.0,95020.0,95107.0,95124.0,95134.0,95155.0,95162.0,95178.0,95350.0,95415.0,0.16482816240867806,-0.10021167717032707,0.05587386190692491,-0.11726545344873704,0.03425436643688017
108,108,96399.12330450072,2597.0749558982043,12.581070059011989,96508.5103120367,-7321.203860839248,10.191861603368864,96531.64126616991,37184.26573695289,9.036165305760694,96558.30135639945,-7126.132262104247,5.4390958725441,96769.37475836083,12920.102727941045,29.47457747372271,0.9462859323238452,105.0,91.0,67.0,242.0,309.0,14.0,1384.0,1388.0,14.0,7.0,7.0,0.5,383.84594598773134,3246.4001227174267,16.0,12.0,4.0,0.75,1302.7976462164622,7055.441508815409,23.0,11.0,12.0,0.4782608695652174,2039.678396658686,35147.48580991139,13.0,7.0,6.0,0.5384615384615384,1255.288142195447,15344.942190912469,79.0,40.0,39.0,0.5063291139240507,375.7387664812574,13421.954577859742,,,,,96392.0,96406.0,96497.0,96513.0,96521.0,96544.0,96552.0,96564.0,96740.0,96806.0,0.14779933290565245,-0.17794855477048815,0.05485326538616304,-0.17615279874482404,0.02908171663903909
109,109,97089.6728698178,2895.9852115837407,13.267874994040657,97193.30135639945,-6797.431355151319,10.191861603456228,97219.08647074856,39786.489148467066,9.178374011095492,97244.30135639945,-8692.492936144146,4.968654951392538,97460.65746019685,12730.507915350045,30.538634920191427,0.9483965715102096,98.0,79.0,72.0,242.0,314.0,19.0,694.0,687.0,24.0,14.0,10.0,0.5833333333333334,304.8214737573886,4202.252690305973,21.0,15.0,6.0,0.7142857142857143,919.6780079384712,3998.184664172069,24.0,11.0,13.0,0.4583333333333333,2114.5329577568036,38786.08272290004,12.0,5.0,7.0,0.4166666666666667,1348.9809972955006,17346.604740328945,78.0,46.0,32.0,0.5897435897435898,318.6153233668462,12114.557221336385,,,,,97080.0,97099.0,97178.0,97199.0,97208.0,97232.0,97239.0,97250.0,97416.0,97492.0,0.1052565712484041,-0.13529787354770545,0.05314701053079157,-0.15518919683976037,0.025027699246993117
110,110,97771.75339099858,2762.282915985547,9.715639163553234,97868.4478713111,-6177.518499264174,12.739827004320285,97892.40132245356,39957.84541599988,8.77662285643709,97919.7260172996,-7361.158152821053,6.064354139612657,98125.73014151397,11770.22722932543,29.811925626756683,0.9393372426639588,91.0,71.0,67.0,237.0,304.0,20.0,685.0,672.0,37.0,23.0,14.0,0.6216216216216216,359.39766691187253,353.463605489605,16.0,11.0,5.0,0.6875,1070.0720954973958,4866.2137356259545,23.0,10.0,13.0,0.4347826086956521,2064.1714537724747,39635.170119728646,13.0,9.0,4.0,0.6923076923076923,1206.0317496331736,16325.006016890233,75.0,38.0,37.0,0.5066666666666667,329.1252415269485,11820.62837404228,,,,,97766.0,97786.0,97857.0,97873.0,97882.0,97905.0,97911.0,97924.0,98094.0,98161.0,0.13010892723261985,-0.17322037896363335,0.05165872764866199,-0.16383722840827433,0.027962522312817845
111,111,98445.8577597762,2891.8052916690735,3.848335108411838,98535.87669549928,-7788.80588395692,12.739827004320285,98560.56587078692,40669.112969535585,8.617291745434734,98585.87669549928,-9165.47568501946,6.581664645947306,98796.0551172884,11272.149943615776,26.545381231921276,0.9234143025847206,77.0,68.0,73.0,239.0,312.0,9.0,670.0,670.0,9.0,3.0,6.0,0.3333333333333333,461.44945366957,819.2419191183453,37.0,30.0,7.0,0.8108108108108109,1079.7543929370825,5209.693586554727,21.0,10.0,11.0,0.4761904761904761,2349.9380739272456,39048.06760123823,15.0,7.0,8.0,0.4666666666666667,1246.4487436137065,18339.909432928263,73.0,36.0,37.0,0.4931506849315068,403.26341054608514,11424.760924113563,,,,,98443.0,98452.0,98520.0,98543.0,98551.0,98572.0,98579.0,98593.0,98762.0,98832.0,0.15957141201689745,-0.13862900283098833,0.05778188660489195,-0.13599389561972963,0.035775199279928144
112,112,99101.779855365,4124.531459655762,14.394035221460957,99206.30135639945,-6258.686960513335,10.191861603456228,99231.59872536184,40931.81592099197,8.611729383375328,99258.30135639945,-6602.733230183754,4.815200674297026,99464.99054290944,12744.13864836383,30.89132031367196,0.95492720895813,113.0,81.0,69.0,241.0,310.0,32.0,651.0,669.0,36.0,20.0,16.0,0.5555555555555556,285.73320068063856,3445.7241252679232,21.0,14.0,7.0,0.6666666666666666,971.9116150431188,4620.420832546937,23.0,11.0,12.0,0.4782608695652174,2257.596672174192,39235.833905455314,13.0,7.0,6.0,0.5384615384615384,1315.375294933449,15840.148372745352,80.0,38.0,42.0,0.475,418.2377732051613,12782.531026389544,,,,,99082.0,99114.0,99195.0,99212.0,99221.0,99244.0,99251.0,99264.0,99428.0,99505.0,0.06927652352165262,-0.15529001868522962,0.055155057780282325,-0.19921678630303258,0.0328180495163443
113,113,,,,,,,,,,,,,,,,,,,,,,,,,,,,,,,,,,,,,,,,,,,,,,,,,,,,,,,,,,,,99507.0,99829.0,99868.0,99876.0,99897.0,99904.0,99920.0,100094.0,100152.0,,,,,
114,114,100426.27763223262,4450.769434857341,13.260178600921089,100530.87669549928,-5457.539785301472,12.739827004320285,100557.01998419403,38228.482320416224,8.741745180441074,100584.30135639945,-10582.601336803533,6.069555817042272,100788.06940811063,11949.942472486811,32.895254444363694,0.9523091003141636,102.0,68.0,75.0,234.0,309.0,34.0,1332.0,1327.0,37.0,15.0,22.0,0.4054054054054054,327.94444635787823,4682.805029419062,23.0,16.0,7.0,0.6956521739130435,838.4677331578278,4566.880798536646,24.0,11.0,13.0,0.4583333333333333,2131.4320805459597,35499.35158778685,15.0,8.0,7.0,0.5333333333333333,1383.1373154150897,18507.33364644228,76.0,39.0,37.0,0.5131578947368421,465.7802453986902,14146.647345199835,,,,,100413.0,100447.0,100515.0,100538.0,100546.0,100570.0,100576.0,100590.0,100752.0,100824.0,0.07368264098101718,-0.15363474498455007,0.055755079751299765,-0.1306991798514509,0.03897761403212515
115,115,,,,,,,,,,,,,,,,,,,,,,,,,,,,,,,,,,,,,,,,,,,,,,,,,,,,,,,,,,,,101509.0,101821.0,101867.0,101875.0,101897.0,101904.0,101918.0,102092.0,102151.0,,,,,
116,116,102456.54796540084,4594.905274684015,15.28779240518434,102571.25106405916,-5114.884892180126,9.74722827357701,102595.39704833044,39335.790564513314,9.404297742687223,102621.7260172996,-5108.204919538101,4.323628344443195,102828.53822014078,12493.284749954462,34.71528340282747,0.9638817151344976,110.0,70.0,68.0,238.0,306.0,40.0,2025.0,2039.0,42.0,11.0,31.0,0.2619047619047619,394.55485925756074,4543.53842207197,17.0,13.0,4.0,0.7647058823529411,1120.7984053686764,7820.539431642518,25.0,11.0,14.0,0.44,2004.064387464003,40412.9731008028,9.0,5.0,4.0,0.5555555555555556,1246.647451406361,15258.294663824605,75.0,38.0,37.0,0.5066666666666667,326.6370500454614,12544.348597812044,,,,,102448.0,102488.0,102558.0,102575.0,102584.0,102608.0,102618.0,102626.0,102792.0,102864.0,0.08586789839420438,-0.21912485402793816,0.0509476067139722,-0.24404805035094135,0.026145009625803333
117,117,103238.5629379134,4208.791651186321,9.645066831620902,103344.61940986569,-6209.699412065076,12.739827004320285,103368.30489560268,41295.34276129068,9.00872439042275,103394.7260172996,-7253.413815084492,5.336140018980417,103603.59230558542,12269.917226414203,29.185134288573803,0.9492513469813332,107.0,87.0,64.0,239.0,303.0,20.0,787.0,770.0,21.0,11.0,10.0,0.5238095238095238,493.04272251947066,5368.571999137002,14.0,10.0,4.0,0.7142857142857143,1271.800490858298,7774.796233840738,23.0,10.0,13.0,0.4347826086956521,2076.41546105696,40701.692663041635,12.0,7.0,5.0,0.5833333333333334,1365.578751584891,18240.035121063946,69.0,34.0,35.0,0.4927536231884058,427.7874671217588,12287.992305302769,,,,,103228.0,103248.0,103335.0,103349.0,103358.0,103381.0,103388.0,103399.0,103571.0,103638.0,0.11714590870291666,-0.2048087043291122,0.050282073527268184,-0.18826704037552336,0.03486473944590551
118,118,103996.82194810128,3420.5786343992995,21.24518871059003,104116.2739827004,-5558.527657871564,6.720686773666285,104137.42436090128,35921.548360359186,9.425308526285605,104162.45203459916,-8667.535287893217,5.348465236840674,104369.18148467364,12968.512152196696,38.16203763850375,0.9543221644895936,128.0,110.0,59.0,239.0,298.0,18.0,752.0,772.0,23.0,17.0,6.0,0.7391304347826086,452.9550725796022,4440.469952610683,11.0,8.0,3.0,0.7272727272727273,1278.0940512509692,11182.666944374503,24.0,11.0,13.0,0.4583333333333333,1881.8677218778423,37205.33382257191,14.0,5.0,9.0,0.3571428571428571,1278.7025349616297,15815.12758865362,85.0,38.0,47.0,0.4470588235294118,381.82884381375345,12971.326719171277,,,,,103984.0,104002.0,104112.0,104118.0,104126.0,104150.0,104157.0,104171.0,104335.0,104410.0,0.13242059925897517,-0.2299339195409111,0.05238826854007652,-0.1475278141350883,0.02944276408370228
119,119,104708.60271279886,3846.938434161565,18.902137243454337,104816.2739827004,-8104.795917293216,7.64389620259217,104836.8051110114,36278.48783235858,10.30898283164138,104857.34221904728,-12133.903351934005,6.029005965565317,105070.33433840465,12487.320193402402,33.64948280754176,0.9514384581337116,98.0,73.0,66.0,241.0,307.0,25.0,719.0,699.0,53.0,33.0,20.0,0.6226415094339622,295.6494414238348,3428.5583700270363,17.0,15.0,2.0,0.8823529411764706,1302.960873923584,12153.910899884024,24.0,12.0,12.0,0.5,2104.7940580095737,33703.053603463835,14.0,3.0,11.0,0.2142857142857142,1692.2829781207615,21191.78654330954,93.0,50.0,43.0,0.5376344086021505,364.8460196030298,11951.667786166876,,,,,104704.0,104729.0,104802.0,104818.0,104826.0,104849.0,104854.0,104868.0,105044.0,105109.0,0.07685317726907454,-0.16076418051976538,0.05801768992510773,-0.1394673197105226,0.029217319164747128
120,120,105410.972626301,3669.3403115233577,17.8357578060484,105521.58639767344,-6205.436685362963,10.191861603442186,105544.79378156744,37075.1119733263,9.589228780747051,105571.7260172996,-6071.144010288239,5.1218545554646395,105781.45421509548,13082.283843697744,31.69744385131677,0.9618548199761716,112.0,78.0,63.0,240.0,303.0,34.0,696.0,708.0,46.0,15.0,31.0,0.3260869565217391,312.90973323698347,5257.711241007222,12.0,9.0,3.0,0.75,1223.5275882182736,8897.380581765128,24.0,11.0,13.0,0.4583333333333333,1900.026065534435,36557.83400594433,12.0,7.0,5.0,0.5833333333333334,1175.5920061137792,14628.458105364252,81.0,40.0,41.0,0.4938271604938271,339.7530068120446,13292.21761676696,,,,,105401.0,105435.0,105513.0,105525.0,105534.0,105558.0,105565.0,105576.0,105750.0,105816.0,0.08527683634420824,-0.19717026379533645,0.05124801961222422,-0.19363599415886132,0.025970465927149036
121,121,106190.94316922977,4057.630257177695,7.64389620259217,106290.69864360055,-7043.090098673799,10.191861603456228,106312.11658819077,40290.528532552205,9.216743699390548,106338.30135639945,-6913.79955307637,5.14718535463225,106555.2327992967,12883.10125684217,30.831247441228555,0.9420103175414336,97.0,82.0,59.0,244.0,303.0,15.0,783.0,766.0,15.0,3.0,12.0,0.2,354.899758136935,4027.6292213251554,18.0,15.0,3.0,0.8333333333333334,1486.9853210750784,12175.980731170905,24.0,11.0,13.0,0.4583333333333333,2147.3035120266086,40741.14207840228,13.0,6.0,7.0,0.4615384615384615,1236.5588161773962,15451.611929425171,74.0,40.0,34.0,0.5405405405405406,348.09676749467957,12866.954655513568,,,,,106188.0,106203.0,106285.0,106293.0,106301.0,106325.0,106333.0,106344.0,106516.0,106588.0,0.0874647850205522,-0.21112683498895962,0.053295491278842935,-0.17885372676550565,0.02701964073361657
122,122,106989.7260172996,4261.949767878048,5.737701810876677,107079.12330450072,-6776.186184811061,12.739827004319384,107101.20490483726,39212.0436367742,9.53304742413563,107126.45203459916,-8461.721584804543,5.632117199155458,107337.28785365388,12738.58850140769,32.238127200916125,0.938943129471384,81.0,73.0,68.0,239.0,307.0,8.0,800.0,791.0,20.0,15.0,5.0,0.75,468.96892800034254,2932.030228041839,16.0,13.0,3.0,0.8125,1366.8163737056807,9128.282938047334,24.0,11.0,13.0,0.4583333333333333,2088.860365125948,38149.52250948616,14.0,5.0,9.0,0.3571428571428571,1298.3072853055166,17553.897893216374,81.0,41.0,40.0,0.5061728395061729,333.4608933105657,12623.066208832246,,,,,106986.0,106994.0,107067.0,107082.0,107091.0,107114.0,107121.0,107135.0,107303.0,107374.0,0.11003624011125644,-0.20170879849338014,0.05327088749760938,-0.1534329949636964,0.026177224680247448
123,123,109060.027373699,4002.070272224843,11.275504276655438,109151.39160854332,-4707.862000824545,12.739827004320258,109177.47948494177,37242.7338888039,9.104451064962763,109204.30135639945,-7753.483106942404,5.727346409733051,109413.39191707228,11950.796038879036,30.479057686368225,0.9542208209026972,103.0,68.0,72.0,242.0,314.0,35.0,2072.0,2076.0,37.0,26.0,11.0,0.7027027027027027,400.33568503903,2211.8574732415605,19.0,13.0,6.0,0.6842105263157895,906.852124902209,3664.754206934856,24.0,11.0,13.0,0.4583333333333333,1971.533559895332,36510.20506550296,13.0,7.0,6.0,0.5384615384615384,1277.986216272913,16193.550872594276,73.0,33.0,40.0,0.4520547945205479,368.7138196843378,12032.115590218256,,,,,109035.0,109070.0,109138.0,109157.0,109167.0,109190.0,109197.0,109210.0,109381.0,109452.0,0.10003214781545407,-0.1926250439675974,0.05293740158232649,-0.16482736837700912,0.03085265772127783
124,124,109761.30135639945,4038.545630548178,10.191861603456228,109848.69864360055,-5020.082060786125,10.191861603456228,109883.04613426128,40343.038137076655,8.566183967108245,109908.30135639945,-6594.103450979617,4.385085140002892,110117.10949479598,12883.759531886064,33.5666591322831,0.9575605435160812,91.0,76.0,71.0,243.0,314.0,15.0,700.0,704.0,15.0,9.0,6.0,0.6,397.6088194912491,3582.5326872300175,19.0,6.0,13.0,0.3157894736842105,472.1254093002375,4315.185876337919,23.0,11.0,12.0,0.4782608695652174,2163.474948443879,39669.83969542077,12.0,6.0,6.0,0.5,1305.461440223483,15227.08971671451,82.0,41.0,41.0,0.5,308.34256069418115,13138.469559703168,,,,,109752.0,109767.0,109843.0,109862.0,109872.0,109895.0,109903.0,109914.0,110081.0,110157.0,0.09845346713026469,-0.09404734894439246,0.05362697130277777,-0.19797406120911618,0.023932654124059285
125,125,110471.65372116682,4394.2584184405805,17.538485772052635,110573.69864360055,-3713.1068423972774,10.191861603456228,110605.7791549282,41109.49298100321,8.803672648326168,110631.7260172996,-4336.818346529083,4.746795225395353,110840.2601729957,13634.370832245317,34.91312305289996,0.9584276312094084,107.0,88.0,68.0,247.0,315.0,19.0,706.0,724.0,50.0,25.0,25.0,0.5,381.7506942691512,3977.066427361354,22.0,11.0,11.0,0.5,522.2631019262764,14.970837032233703,24.0,12.0,12.0,0.5,2225.351753052014,38488.87052246347,8.0,4.0,4.0,0.5,1200.9291390170451,14484.598362323166,97.0,53.0,44.0,0.5463917525773195,399.7219660619707,13487.905891439876,,,,,110461.0,110480.0,110568.0,110585.0,110595.0,110618.0,110628.0,110636.0,110792.0,110883.0,0.08687488488777262,-0.14065393862706355,0.05413230842035327,-0.2769147893819886,0.029317228567425156
126,126,111268.84932180028,2221.162965818101,5.095930801728113,111370.4926580298,-7174.04757644226,10.191861591147235,111394.55242373572,39495.69452441772,8.943545467783295,111421.30135639945,-5122.57573068422,6.336875664268157,111631.27363412132,12646.783339760508,31.11588789142562,0.9511766405714108,99.0,92.0,65.0,242.0,307.0,7.0,799.0,788.0,11.0,9.0,2.0,0.8181818181818182,393.9351560361605,1558.077790130003,13.0,8.0,5.0,0.6153846153846154,1185.6553238143167,4261.2388257412895,23.0,11.0,12.0,0.4782608695652174,2216.7608355850125,38352.57974950191,13.0,7.0,6.0,0.5384615384615384,1128.3589883837587,14202.445863993304,83.0,40.0,43.0,0.4819277108433735,408.9462753589447,11904.759053226351,,,,,111263.0,111270.0,111362.0,111375.0,111384.0,111407.0,111416.0,111427.0,111593.0,111669.0,0.1773553593763733,-0.16527006702711394,0.056126645252801616,-0.22027180225465295,0.03233599124555643
127,127,113378.82194810128,4109.48414489811,18.66125285624366,113489.20103971937,-4842.432477180952,9.389481476502834,113512.62527959772,38555.65370711321,8.977390397168833,113539.7260172996,-4765.965426371465,4.295073096466276,113747.07479538712,12574.126477638556,34.912943301793995,0.9635342565177966,110.0,71.0,68.0,240.0,308.0,39.0,2107.0,2118.0,48.0,17.0,31.0,0.3541666666666667,332.90360481803305,4144.779546034986,17.0,13.0,4.0,0.7647058823529411,1166.2384650719223,8104.696640580153,23.0,11.0,12.0,0.4782608695652174,2050.439678514963,37960.35929388852,12.0,8.0,4.0,0.6666666666666666,1091.0009638248553,11953.95394503464,80.0,38.0,42.0,0.475,408.5963745961546,14908.463662765662,,,,,113366.0,113405.0,113476.0,113493.0,113502.0,113525.0,113533.0,113544.0,113709.0,113784.0,0.08100861156292088,-0.24083732102979247,0.05318129719939551,-0.22891499753397948,0.03249501071289445
128,128,114104.30135639945,2561.8517414192547,8.749833164501974,114205.8521416462,-6807.123069994649,12.739827004320285,114228.02705925948,41987.36309922353,8.947741513352153,114254.7260172996,-5225.137129771772,5.066318760947191,114464.41950631305,12021.768228082248,30.554869797428704,0.95370515021582,97.0,86.0,63.0,239.0,302.0,11.0,731.0,714.0,15.0,7.0,8.0,0.4666666666666667,351.1577226923706,1385.3630560176682,17.0,13.0,4.0,0.7647058823529411,1401.7353759882424,10054.799449837728,23.0,10.0,13.0,0.4347826086956521,2232.2085039485605,41437.499877003786,12.0,7.0,5.0,0.5833333333333334,1138.3863005086298,14141.731557839334,76.0,39.0,37.0,0.5131578947368421,398.3345899355802,12907.50691573152,,,,,114099.0,114110.0,114196.0,114209.0,114218.0,114241.0,114249.0,114259.0,114430.0,114498.0,0.1370718363654529,-0.20592185003485536,0.05316381737699172,-0.21786725826243591,0.033134442652545115
129,129,114827.972626301,3738.873237832837,17.8357578060484,114934.54796540084,-4633.478769841749,15.28779240518434,114957.3398618154,41880.68597269767,9.41960589821308,114982.30135639945,-6375.492187680361,4.839663600030523,115190.5990318562,12967.671831613376,33.583871443361886,0.96643871964633,101.0,82.0,69.0,244.0,313.0,19.0,719.0,731.0,21.0,11.0,10.0,0.5238095238095238,320.2289495279795,4197.399239337434,19.0,16.0,3.0,0.8421052631578947,1290.2183905265822,12201.181550666688,24.0,11.0,13.0,0.4583333333333333,2136.1799867908935,41135.15727143453,12.0,5.0,7.0,0.4166666666666667,1341.2883198102031,16305.72538999766,85.0,41.0,44.0,0.4823529411764706,349.88362560276914,13037.941060608293,,,,,114818.0,114837.0,114919.0,114938.0,114946.0,114970.0,114980.0,114988.0,115151.0,115232.0,0.08564851738958495,-0.27845566033976843,0.051006327551164875,-0.21038192508525577,0.026981221467202898
130,130,115567.972626301,3360.152189198693,16.20029967894827,115678.69864360055,-6687.535626355146,10.191861603455864,115701.27730942244,39600.54635956142,9.317221976321632,115727.30135639945,-8785.130188401943,4.829427933647643,115932.73025331246,12147.346033684384,33.83039104281649,0.9567128188326914,115.0,99.0,60.0,241.0,301.0,16.0,740.0,745.0,44.0,16.0,28.0,0.3636363636363636,335.4875220071966,3290.5120430182697,18.0,14.0,4.0,0.7777777777777778,1384.676845078115,11553.887309797195,24.0,11.0,13.0,0.4583333333333333,2046.2600848142813,40351.45617723424,11.0,5.0,6.0,0.4545454545454545,1427.549718044978,18091.084609072048,85.0,43.0,42.0,0.5058823529411764,429.707873119756,12114.481080172542,,,,,115558.0,115574.0,115673.0,115682.0,115690.0,115714.0,115722.0,115733.0,115892.0,115974.0,0.099842954460703,-0.20705337847041788,0.051672521541365514,-0.16249613693028903,0.03537463013963572
131,131,116272.98618704216,3329.9644018168674,18.004772061497423,116382.26444209956,-5528.846777914237,8.55811601637492,116407.41030066214,36368.95385953823,8.953062517778324,116431.87669549928,-11323.346205703214,5.4893364365692054,116642.80813839656,12148.912995925695,32.59059781258164,0.9457635606487712,107.0,89.0,68.0,238.0,306.0,18.0,708.0,706.0,18.0,9.0,9.0,0.5,409.99221712564,5179.895317905228,16.0,11.0,5.0,0.6875,938.669021275627,4050.682062816411,24.0,11.0,13.0,0.4583333333333333,2021.4435925268824,34629.13231805935,14.0,7.0,7.0,0.5,1428.768965561172,18779.0763341212,81.0,43.0,38.0,0.5308641975308642,402.3601546724793,13141.861689377776,,,,,116264.0,116282.0,116371.0,116387.0,116397.0,116419.0,116425.0,116439.0,116603.0,116677.0,0.1231221021167504,-0.1697766385976319,0.05558157103814336,-0.12617904103661037,0.03311902511833086
132,132,116951.00240303384,3872.8856181532688,16.090787869620893,117058.27100517567,-6271.52243535322,7.331421322289127,117082.7853075357,35973.12053501319,8.847293491152518,117110.30135639945,-8387.88026014707,6.076659924534713,117313.19362358628,11892.75661016596,34.09302595021965,0.9527737095436694,115.0,83.0,65.0,240.0,305.0,32.0,682.0,675.0,46.0,23.0,23.0,0.5,359.85883106016735,4674.042087948811,14.0,9.0,5.0,0.6428571428571429,1091.9846966474784,4801.063880090988,23.0,11.0,12.0,0.4782608695652174,2017.1558760594692,34002.73396691124,14.0,8.0,6.0,0.5714285714285714,1187.9369295615868,15337.386205918803,87.0,39.0,48.0,0.4482758620689655,289.97980193666075,12112.673166479237,,,,,116936.0,116968.0,117051.0,117063.0,117072.0,117095.0,117102.0,117116.0,117275.0,117356.0,0.09291749525816385,-0.17411796065527052,0.056073975403277576,-0.1416254038825249,0.02438289216217418
133,133,117643.15067819972,2098.825743840612,4.528786208302523,117731.87669549928,-8551.45858811049,12.739827004320285,117758.44400204858,35900.88255863001,9.616834889023426,117783.87669549928,-8281.524089142036,7.555247869833332,117996.78076469756,10621.694800476826,24.538564709376455,0.9187753860963856,75.0,70.0,74.0,230.0,304.0,5.0,689.0,675.0,19.0,12.0,7.0,0.631578947368421,409.92491670169903,39.55097222158725,25.0,18.0,7.0,0.72,922.690812723139,1425.4219909281735,23.0,10.0,13.0,0.4347826086956521,1961.9397810862424,36455.892762593416,14.0,6.0,8.0,0.4285714285714285,1253.2638897380864,17911.592101195358,60.0,31.0,29.0,0.5166666666666667,321.6913697577253,10603.348563962954,,,,,117642.0,117647.0,117717.0,117739.0,117748.0,117771.0,117778.0,117791.0,117968.0,118021.0,0.19531155356975138,-0.10789864713909753,0.054648789702653786,-0.15133251757140323,0.03028625617667757
134,134,118362.24924723824,3347.9111216634437,2.731981238701048,118448.12330450072,-7421.253301924292,12.739827004320285,118471.21592811476,41233.76949727876,9.676538437592503,118496.30135639945,-7197.503226441545,4.698660200929453,118710.082121097,12468.609809234156,29.461406808416164,0.9485709665174904,77.0,71.0,65.0,238.0,303.0,6.0,719.0,712.0,10.0,6.0,4.0,0.6,467.1044905035219,1424.6894536287325,24.0,20.0,4.0,0.8333333333333334,1364.8425116746737,10014.772969583164,25.0,11.0,14.0,0.44,2117.636426207737,41749.337662284684,11.0,4.0,7.0,0.3636363636363636,1362.7790626156657,16664.137661826357,68.0,37.0,31.0,0.5441176470588235,364.3669496269331,12745.874963735332,,,,,118360.0,118366.0,118437.0,118451.0,118460.0,118484.0,118493.0,118502.0,118675.0,118740.0,0.13952117410794235,-0.18390997533001296,0.05135684784645971,-0.1893405282000027,0.029222740562230582
135,135,119113.972626301,3250.1376697427786,17.677225257893642,119231.54796540084,-6076.013430365326,15.28779240518434,119255.06925872932,42722.02334881098,9.367604026365829,119279.87669549928,-7138.46933039283,5.437897394412934,119491.3662611516,12736.82822681201,32.62164017871284,0.9583648852501204,118.0,101.0,68.0,244.0,312.0,17.0,748.0,785.0,31.0,25.0,6.0,0.8064516129032258,486.32961592139173,2856.2046136934728,17.0,13.0,4.0,0.7647058823529411,1328.0391659086154,8919.206514751964,24.0,11.0,13.0,0.4583333333333333,2221.6841281528073,39822.13985427347,10.0,3.0,7.0,0.3,1321.054634133622,17936.327222356595,77.0,36.0,41.0,0.4675324675324675,327.0488052468851,13623.10921241124,,,,,119101.0,119118.0,119219.0,119235.0,119245.0,119268.0,119277.0,119287.0,119461.0,119531.0,0.14963354335691284,-0.21857080816701976,0.052003251578547724,-0.18506133079665754,0.025677413514804417
136,136,119883.69864360055,3288.088069594404,10.191861603456228,119984.17805189989,-4868.535054201039,22.93168860777651,120017.4301197024,40498.48633963789,8.799184693998932,120044.7260172996,-7112.2273097521875,5.224723621794792,120249.5054270003,12084.276972748365,32.832908866672796,0.9386145241078694,104.0,93.0,70.0,243.0,313.0,11.0,771.0,762.0,35.0,9.0,26.0,0.2571428571428571,446.47327085863174,3178.0721405395334,35.0,21.0,14.0,0.6,499.07492334922705,2698.576042302303,23.0,10.0,13.0,0.4347826086956521,2030.034417289472,38531.00310609097,12.0,8.0,4.0,0.6666666666666666,1265.8864048393343,15630.911905763964,79.0,36.0,43.0,0.4556962025316455,425.6514002799392,12624.519750846694,,,,,119875.0,119886.0,119979.0,119997.0,120007.0,120030.0,120037.0,120049.0,120215.0,120292.0,0.13578507065770462,-0.1025102865221392,0.05012618003213063,-0.1779873378208214,0.035223572021713764
137,137,120579.82194810128,4103.01638593956,22.93168860777651,120699.62337508924,-5328.559536766769,6.9441471774307155,120724.01810345185,37656.91319180106,8.900621800597012,120750.30135639945,-8865.533840689597,5.537389214796847,120952.03126469564,13422.06047464352,39.734099520388725,0.9445455668510544,123.0,99.0,66.0,241.0,307.0,24.0,694.0,707.0,48.0,14.0,34.0,0.2916666666666667,440.0152111169792,4791.92993722434,13.0,10.0,3.0,0.7692307692307693,1138.584155212788,6708.5842892837245,24.0,11.0,13.0,0.4583333333333333,2013.6091345432944,35514.6522943086,14.0,8.0,6.0,0.5714285714285714,1392.4429830043275,16752.223608134824,77.0,32.0,45.0,0.4155844155844156,469.2823390097206,15305.661121806526,,,,,120567.0,120591.0,120690.0,120703.0,120713.0,120737.0,120742.0,120756.0,120920.0,120997.0,0.10724188492759797,-0.21367578749127591,0.05347249585453839,-0.15706250836396532,0.03496350950707398
138,138,121280.7260172996,3138.5615334426216,7.64389620259217,121380.25888388984,-5577.935950504581,15.28779240518434,121404.22758635576,36995.881723004975,9.23458512910886,121429.87669549928,-9094.295506917975,5.606022702068034,121637.8793028696,12047.01206166318,32.05821008628709,0.948128848105715,98.0,78.0,74.0,237.0,311.0,20.0,706.0,681.0,25.0,21.0,4.0,0.84,306.21085801252644,3201.403054338569,23.0,17.0,6.0,0.7391304347826086,1060.3930276431242,6580.27947081069,23.0,10.0,13.0,0.4347826086956521,1919.935208170772,35587.63126940989,14.0,7.0,7.0,0.5,1277.8862522557552,17744.306657004687,73.0,35.0,38.0,0.4794520547945205,309.25936827762956,13160.441343788834,,,,,121265.0,121285.0,121363.0,121386.0,121394.0,121417.0,121424.0,121437.0,121608.0,121674.0,0.09756407664776616,-0.19010491283020214,0.05189591702518899,-0.14051514504709847,0.02567104330058536
139,139,121963.12330450072,4392.011782122012,12.739827004320285,122077.37558106096,-5027.84903989124,7.64389620259217,122101.37202583576,37580.04841438135,9.487604831553613,122124.87669549928,-7052.512861456113,5.067127946205456,122334.58062444798,12814.51872705791,34.47656924559085,0.9637888634105264,113.0,101.0,63.0,239.0,302.0,12.0,679.0,696.0,16.0,9.0,7.0,0.5625,498.76210884511903,6714.321963307636,13.0,9.0,4.0,0.6923076923076923,1080.2499367139903,8657.049145457293,24.0,11.0,13.0,0.4583333333333333,2018.3807682700497,38219.00076489095,11.0,4.0,7.0,0.3636363636363636,1227.3797659938289,16231.007560163562,78.0,41.0,37.0,0.5256410256410257,343.5747496837625,15051.766533363552,,,,,121956.0,121968.0,122069.0,122081.0,122090.0,122114.0,122121.0,122132.0,122296.0,122371.0,0.11356119554946659,-0.21485329574202128,0.05370883895662157,-0.1740343888916234,0.02681136584226944
140,140,122726.65061920889,4223.0085902347055,17.86339154602565,122831.73026911436,-5418.860820778742,12.739827004320285,122857.6232725636,41362.03672523056,9.368002208249145,122883.7260172996,-5449.024784181392,5.020394881206317,123094.7313955666,13168.015436480902,31.811648614795793,0.9622749847436064,102.0,71.0,73.0,241.0,314.0,31.0,768.0,757.0,39.0,14.0,25.0,0.358974358974359,349.9986069544822,4764.0215834615165,23.0,17.0,6.0,0.7391304347826086,1029.0808123961806,7242.780950752458,25.0,12.0,13.0,0.48,2129.1373553247995,38025.55093621946,11.0,7.0,4.0,0.6363636363636364,1259.245152387443,16325.060613412894,65.0,31.0,34.0,0.4769230769230769,291.55130916812857,14404.293314910094,,,,,122713.0,122744.0,122815.0,122838.0,122846.0,122870.0,122877.0,122888.0,123064.0,123129.0,0.08287897111169032,-0.18990722338727495,0.05147564104419549,-0.2310955083271143,0.022140869334069103
