Unnamed: 0,cycle,p_center,p_height,p_width,q_center,q_height,q_width,r_center,r_height,r_width,s_center,s_height,s_width,t_center,t_height,t_width,r_squared,pr_interval,pr_segment,qrs_duration,st_segment,qt_interval,p_duration,pp_interval,rr_interval,fwhm_p,rise_time_p,decay_time_p,rise_decay_symmetry_p,sharpness_deriv_p,sharpness_diff_p,fwhm_q,rise_time_q,decay_time_q,rise_decay_symmetry_q,sharpness_deriv_q,sharpness_diff_q,fwhm_r,rise_time_r,decay_time_r,rise_decay_symmetry_r,sharpness_deriv_r,sharpness_diff_r,fwhm_s,rise_time_s,decay_time_s,rise_decay_symmetry_s,sharpness_deriv_s,sharpness_diff_s,fwhm_t,rise_time_t,decay_time_t,rise_decay_symmetry_t,sharpness_deriv_t,sharpness_diff_t,Average_Heart_Rate,SDNN,RMSSD,NN50,p_on,p_off,q_on,q_off,r_on,r_off,s_on,s_off,t_on,t_off,sharpness_deriv_p_norm,sharpness_deriv_q_norm,sharpness_deriv_r_norm,sharpness_deriv_s_norm,sharpness_deriv_t_norm
0,0,0.0,0.0,0.0,0.0,0.0,0.0,0.0,0.0,0.0,0.0,0.0,0.0,0.0,0.0,0.0,0.0,0.0,0.0,0.0,0.0,0.0,0.0,0.0,0.0,0.0,0.0,0.0,0.0,0.0,0.0,0.0,0.0,0.0,0.0,0.0,0.0,0.0,0.0,0.0,0.0,0.0,0.0,0.0,0.0,0.0,0.0,0.0,0.0,0.0,0.0,0.0,0.0,0.0,0.0,67.97576294869766,254.008820085927,363.20419854555234,1247.0,,,,,,,,,,,,,,,
1,1,1956.12330450072,3342.956600816326,6.407700936008498,2081.2739827004316,-5658.688599578333,7.643896202592166,2104.183222485577,46204.05645951842,9.879253711697183,2164.110465597976,-1082.2470269354285,9.736142123234371,2366.681008302105,10102.728096397848,37.015482395410665,0.9789493717022932,124.0,106.0,96.0,243.0,339.0,18.0,,,18.0,7.0,11.0,0.3888888888888889,233.2088803875357,4784.004646056056,10.0,8.0,2.0,0.8,1322.068362066375,13383.7701946018,21.0,10.0,11.0,0.4761904761904761,2272.7608558409675,50728.04061386085,17.0,11.0,6.0,0.6470588235294118,131.32159975464634,1233.8221978896445,94.0,47.0,47.0,0.5,120.61083704041516,9948.212221704687,0.0,0.0,0.0,0.0,1949.0,1967.0,2073.0,2083.0,2094.0,2115.0,2154.0,2169.0,2322.0,2412.0,0.0697612647231459,-0.23363511506268272,0.04918963896237643,-0.12134161285386608,0.011938442358299165
2,2,2878.9726263010075,4119.653705285584,9.662332078267283,3003.2739827004316,-5486.269139629725,7.601348912062669,3025.785185604769,44704.431587408304,9.63707808059896,3089.12330450072,-1114.2967100373892,12.65944294682828,3286.1782970528325,11196.415271958933,37.33378070292124,0.9765616036790916,125.0,107.0,98.0,240.0,338.0,18.0,922.0,921.0,28.0,10.0,18.0,0.3571428571428571,268.8007470762075,5117.444267944066,11.0,9.0,2.0,0.8181818181818182,1241.4744582077174,13235.174229113712,21.0,10.0,11.0,0.4761904761904761,2320.6536963576136,47777.40459300888,35.0,12.0,23.0,0.3428571428571428,117.74673535119364,1140.185271990002,94.0,47.0,47.0,0.5,127.43613234582875,11663.08604938446,0.0,0.0,0.0,0.0,2869.0,2887.0,2994.0,3005.0,3016.0,3036.0,3077.0,3092.0,3242.0,3332.0,0.0652483840404672,-0.2262875602000645,0.05191104358010139,-0.10566910436919692,0.011381869040262244
3,3,3775.972626301007,3625.9108988911257,8.417546392914621,3899.12330450072,-5232.464533502788,9.995127027146394,3924.149920646301,46861.3144558985,9.460723315675647,3992.36991350216,-1559.8015871167108,17.650162317368014,4186.2601729956805,9870.586993015024,35.21432295516299,0.9776954377115288,126.0,106.0,119.0,218.0,337.0,20.0,897.0,899.0,25.0,10.0,15.0,0.4,236.8826475127572,4144.032210508146,12.0,7.0,5.0,0.5833333333333334,1015.52104493649,8306.291478629231,21.0,10.0,11.0,0.4761904761904761,2354.534074106138,51015.93564178431,69.0,30.0,39.0,0.4347826086956521,111.38347339832043,873.4611164420157,89.0,44.0,45.0,0.4943820224719101,101.2049193750354,9930.753625591444,0.0,0.0,0.0,0.0,3766.0,3786.0,3892.0,3904.0,3914.0,3935.0,3971.0,4011.0,4143.0,4229.0,0.06533052083138627,-0.19408082719610253,0.050244729612141076,-0.07140874475208894,0.010253181441656269
4,4,4914.942874119937,4520.752002640422,14.057429923623037,5042.698643600575,-6858.536870924496,8.554188280114545,5064.317404358118,45151.17056830415,9.614619049101677,5129.2466090014395,-2246.0108945066327,19.65432568791573,5332.697395089314,10191.805184504845,35.66331321890849,0.9799117006517208,140.0,98.0,117.0,226.0,343.0,42.0,1141.0,1140.0,42.0,22.0,20.0,0.5238095238095238,101.64592871414608,4125.838913876336,15.0,13.0,2.0,0.8666666666666667,1484.4935317044171,15742.809747544334,21.0,10.0,11.0,0.4761904761904761,2291.188940490762,49440.57233041118,68.0,19.0,49.0,0.2794117647058823,144.0564934155688,2476.006992431714,89.0,45.0,44.0,0.5056179775280899,153.64183491598973,10713.945834531298,0.0,0.0,0.0,0.0,4893.0,4935.0,5033.0,5045.0,5054.0,5075.0,5115.0,5150.0,5291.0,5376.0,0.02248429656277939,-0.21644463821396864,0.05074484031426558,-0.064138822197126,0.01507503647632313
5,5,6032.057180731598,5010.785241346186,15.356164528624245,6153.123304500719,-5288.6419035110985,8.355695765078671,6177.372033422516,46304.94014305667,9.675637171321403,6237.123304500719,-1184.592879106696,8.360974874989669,6442.088047943627,9909.640684648864,38.43729159467768,0.9798274701491956,135.0,93.0,121.0,224.0,345.0,42.0,1112.0,1113.0,44.0,23.0,21.0,0.5227272727272727,96.45776588079524,4294.582126637403,11.0,8.0,3.0,0.7272727272727273,1107.34623401246,10562.442342878176,21.0,10.0,11.0,0.4761904761904761,2308.2443153691565,50881.88991416029,36.0,7.0,29.0,0.1944444444444444,114.93185538255156,1575.5238394686207,95.0,47.0,48.0,0.4947368421052631,124.53286640588809,10525.875141976278,0.0,0.0,0.0,0.0,6010.0,6052.0,6145.0,6156.0,6167.0,6188.0,6230.0,6266.0,6396.0,6490.0,0.019250029932410578,-0.20938196501398576,0.049848770093168404,-0.09702224064458492,0.012566839744129506
6,6,7112.671269901583,4738.326585617313,15.406198782077473,7235.273982700431,-5763.147960586653,7.039563101237068,7257.80129748228,44820.5959013332,10.044312892277638,7336.397287201151,-774.0428471672748,16.13377260982468,7521.3754383696705,10124.82004457268,37.65882188081012,0.9801026671455764,130.0,92.0,117.0,225.0,342.0,38.0,1082.0,1081.0,40.0,17.0,23.0,0.425,173.3311071463427,4841.208616310247,10.0,8.0,2.0,0.8,1355.623303811217,13946.798010252198,22.0,11.0,11.0,0.5,2185.0259264647134,48821.93848118838,40.0,12.0,28.0,0.3,91.50627862747164,645.2388453723531,93.0,45.0,48.0,0.4838709677419355,106.8389126937036,10301.739727260454,0.0,0.0,0.0,0.0,7097.0,7135.0,7227.0,7237.0,7247.0,7269.0,7325.0,7344.0,7477.0,7569.0,0.03658065859632193,-0.23522271388521193,0.04875048808531613,-0.1182186218273995,0.010552178924994687
7,7,8054.397287201151,3096.439222386073,9.41080430714016,8175.9726263008915,-5078.371825188189,17.835757799245776,8199.812171444899,45980.31160831646,9.043444742620126,8271.191861603438,-2649.6914591490195,24.20379671476064,8463.893875716578,9952.118265208464,32.629719990990026,0.9604606755167708,123.0,98.0,140.0,200.0,340.0,25.0,943.0,941.0,29.0,11.0,18.0,0.3793103448275862,147.51701706753315,2662.998503094263,15.0,11.0,4.0,0.7333333333333333,1048.8012697972977,8644.689656281485,21.0,10.0,11.0,0.4761904761904761,2365.23734346734,46669.50079043953,84.0,35.0,49.0,0.4166666666666667,132.9698395904825,1692.837447719489,85.0,41.0,44.0,0.4823529411764706,150.23392984357898,9971.081083262869,0.0,0.0,0.0,0.0,8043.0,8068.0,8166.0,8180.0,8190.0,8210.0,8237.0,8306.0,8424.0,8506.0,0.04764085663333594,-0.20652313495348132,0.05144021997100906,-0.05018314080734041,0.015095673688764395
8,8,8975.52059170187,4369.719074672622,13.775552232664234,9099.27398270043,-5821.511308797888,7.472433635230382,9121.883012668608,46501.79853889517,9.810979818516495,9184.821948101297,-1422.069149907581,15.490823417054957,9385.672731931822,10317.473935445474,36.578288976289834,0.9823168374698422,133.0,95.0,100.0,241.0,341.0,38.0,919.0,923.0,40.0,20.0,20.0,0.5,163.92672132149363,4250.4070590513775,11.0,9.0,2.0,0.8181818181818182,1321.420747212809,14307.290896208602,22.0,11.0,11.0,0.5,2264.1213978858887,50583.328059569234,70.0,21.0,49.0,0.3,122.07127584720838,1412.9447973953493,90.0,44.0,46.0,0.4888888888888889,131.19880096053257,10594.937594938048,0.0,0.0,0.0,0.0,8957.0,8995.0,9090.0,9101.0,9111.0,9133.0,9170.0,9190.0,9342.0,9431.0,0.037514247145000956,-0.2269892948959461,0.04868889954852231,-0.08584060476604931,0.012716174693672035
9,9,9926.24660900144,3698.2180631489,12.170277267918944,10052.27398270043,-6913.118210938142,7.64389620259217,10073.681111531743,43628.8638867026,9.51991061249484,10136.945252602014,-2371.6690714481956,23.96322125589079,10338.426640577887,10627.536520885404,32.73862541635603,0.974349812157959,129.0,94.0,121.0,218.0,339.0,35.0,952.0,951.0,35.0,14.0,21.0,0.4,145.1009648392589,3938.72848953853,28.0,26.0,2.0,0.9285714285714286,1335.0884054251296,14189.164137501635,21.0,10.0,11.0,0.4761904761904761,2313.41630428908,46714.31473792263,88.0,28.0,60.0,0.3181818181818182,147.14935370495934,2329.9366180965117,86.0,42.0,44.0,0.4883720930232558,129.51079484114095,10580.115485985754,0.0,0.0,0.0,0.0,9912.0,9947.0,10041.0,10054.0,10064.0,10084.0,10117.0,10162.0,10299.0,10380.0,0.03923537291787241,-0.19312390800908236,0.05302490365774052,-0.06204463998643224,0.012186342016950426
10,10,10799.0053424724,3318.3067712708594,12.661574244421404,10926.27398270043,-6954.834376798579,7.64389620259217,10948.549339643132,45752.38746784264,9.535908400000396,11015.52059170187,-2104.8367370365236,19.491266077807293,11211.58847159332,10062.625055843511,32.74866050095088,0.9762522341768048,133.0,98.0,138.0,197.0,335.0,35.0,879.0,876.0,37.0,16.0,21.0,0.4324324324324324,133.285775465157,3103.8140201414744,12.0,10.0,2.0,0.8333333333333334,1360.059311176395,13110.47458065703,21.0,11.0,10.0,0.5238095238095238,2308.0696838626222,48892.86276399707,60.0,20.0,40.0,0.3333333333333333,135.21422501528517,1806.9347252017376,81.0,40.0,41.0,0.4938271604938271,110.7010260804711,10172.335367239506,0.0,0.0,0.0,0.0,10784.0,10819.0,10917.0,10928.0,10939.0,10959.0,10997.0,11055.0,11173.0,11252.0,0.04016680332846702,-0.19555595970963324,0.05044697799617264,-0.06423976864146633,0.011001207484739324
11,11,11825.11570459026,4288.096656981747,15.803542249305844,11950.27398270043,-5724.577782653756,7.64389620248904,11972.696475731564,44912.64608501796,9.65168748515276,12032.39728720115,-1573.0674242954626,13.04516074603513,12237.021593739222,10509.078291320846,37.411555449055875,0.9795104227794348,137.0,94.0,126.0,216.0,342.0,43.0,1019.0,1024.0,44.0,22.0,22.0,0.5,150.1449540958404,4404.791648941611,11.0,9.0,2.0,0.8181818181818182,1294.761455756491,13163.527541443418,22.0,11.0,11.0,0.5,2257.7263594969554,48662.6323547371,46.0,11.0,35.0,0.2391304347826087,100.373567621519,1762.4320118555222,93.0,47.0,46.0,0.5053763440860215,118.80155589033876,11083.185804721215,0.0,0.0,0.0,0.0,11804.0,11847.0,11941.0,11952.0,11962.0,11983.0,12021.0,12067.0,12191.0,12283.0,0.035014358608586635,-0.2261758866618588,0.05026927950811814,-0.06380754319318119,0.01130465989471728
12,12,12803.704255039693,3780.4768968888297,11.508155709328124,12925.123304500716,-4812.666069487323,12.102878048377685,12950.30111021416,45360.94291380126,9.284838968834142,13040.660120843007,-2005.2068569081912,27.24285728558994,13214.698984885816,10048.339778213776,34.7955934035799,0.9754078548102711,128.0,100.0,157.0,185.0,342.0,28.0,980.0,977.0,35.0,15.0,20.0,0.4285714285714285,177.39758603368657,3459.220570259462,12.0,7.0,5.0,0.5833333333333334,911.1996016734764,6967.0332782885625,21.0,10.0,11.0,0.4761904761904761,2305.5955286991175,48507.94947073229,93.0,50.0,43.0,0.5376344086021505,131.9923737229498,1287.1188889819323,88.0,43.0,45.0,0.4886363636363636,102.07054984894968,10350.645534541653,0.0,0.0,0.0,0.0,12790.0,12818.0,12918.0,12930.0,12940.0,12961.0,12995.0,13075.0,13172.0,13260.0,0.04692465815084789,-0.18933364345607787,0.050827769014422985,-0.06582481666079455,0.010157951671802848
13,13,13779.380876882911,4790.934498660334,17.227022369022563,13900.27398270043,-5553.183290481916,7.051786892618781,13923.815482293883,45940.10085568118,10.153024867728908,13996.244026818516,-151.99555408100915,0.0280230060431007,14185.351766767784,11072.937479266731,39.60460805924048,0.976160373157927,136.0,94.0,104.0,236.0,340.0,42.0,973.0,974.0,43.0,22.0,21.0,0.5116279069767442,170.68271546444518,5036.502145306074,10.0,7.0,3.0,0.7,1227.8899064914815,12585.970004524164,22.0,11.0,11.0,0.5,2204.5938353774195,50015.93424004594,2.0,1.0,1.0,0.5,115.4840309684077,240.6191956303037,97.0,48.0,49.0,0.4948453608247423,111.84060593229144,11872.943799256647,0.0,0.0,0.0,0.0,13757.0,13799.0,13893.0,13902.0,13913.0,13935.0,13995.0,13997.0,14140.0,14233.0,0.03562618430958978,-0.22111460080852524,0.04798844134676706,-0.7597855849576897,0.010100355586916736
14,14,15257.3661912123,3590.4642172374297,11.991284223686726,15387.698643600574,-7237.566959437539,10.191861603456228,15410.016892016532,44626.665845030424,9.5808537295604,15491.32429711654,-3039.3331778644592,36.157894479897585,15672.494027486024,9577.877670126034,31.94121284310157,0.9698223650386062,135.0,103.0,152.0,184.0,336.0,32.0,1484.0,1486.0,32.0,15.0,17.0,0.46875,143.00833424779066,3787.9859866557417,26.0,24.0,2.0,0.9230769230769232,1382.111363725969,13072.075690701138,21.0,10.0,11.0,0.4761904761904761,2264.766604152192,48694.20443713186,86.0,47.0,39.0,0.5465116279069767,119.06256672517696,2688.263649707248,85.0,43.0,42.0,0.5058823529411764,119.86472653783284,9481.092896096585,0.0,0.0,0.0,0.0,15242.0,15274.0,15377.0,15390.0,15400.0,15421.0,15444.0,15529.0,15634.0,15713.0,0.03983004023859175,-0.19096353394337076,0.05074917790221592,-0.03917391077500573,0.01251474811708005
15,15,16830.09098410648,4568.707998458674,12.715457777123396,16959.69864360057,-6320.811120866433,9.336403724453415,16981.965014306137,45129.977131726046,9.454309214013763,17061.894134253725,-2100.594307287655,24.000542317026778,17245.68151076921,9741.16036826017,36.36619927539205,0.9748030944008192,136.0,98.0,136.0,205.0,341.0,38.0,1574.0,1572.0,38.0,17.0,21.0,0.4473684210526316,145.46579846527706,4467.110649358835,13.0,11.0,2.0,0.8461538461538461,1366.2779460694082,13945.441386303944,21.0,10.0,11.0,0.4761904761904761,2335.487693212517,48706.601049995195,65.0,41.0,24.0,0.6307692307692307,157.10122594470238,1845.8082550125437,91.0,46.0,45.0,0.5054945054945055,133.6089631550849,9985.403309562991,0.0,0.0,0.0,0.0,16813.0,16851.0,16949.0,16962.0,16972.0,16993.0,17022.0,17085.0,17201.0,17290.0,0.031839591962181044,-0.21615547750810246,0.051750252086227765,-0.07478894206257077,0.01371591864870902
16,16,17849.652314768402,4884.896314467947,15.29777288280568,17974.123304500717,-4675.548644756108,7.837264038422515,17998.590990879427,45855.46533382138,9.644860085146492,18081.123304500717,-1178.0236167143607,12.739827004320285,18266.260172995684,10249.28293459048,39.489689629816894,0.9762260697157432,141.0,96.0,120.0,222.0,342.0,45.0,1019.0,1016.0,45.0,24.0,21.0,0.5333333333333333,123.41660828124203,4870.6057188068235,11.0,7.0,4.0,0.6363636363636364,1068.7192787993092,10583.402469149669,22.0,11.0,11.0,0.5,2231.202833660593,48864.76100936528,37.0,12.0,25.0,0.3243243243243243,168.97826456209228,1060.044502127018,97.0,54.0,43.0,0.5567010309278351,122.26990700723825,10918.495274230658,0.0,0.0,0.0,0.0,17826.0,17871.0,17967.0,17978.0,17988.0,18010.0,18074.0,18087.0,18212.0,18309.0,0.02526493917909992,-0.22857622922989762,0.04865729346366345,-0.14344217056818565,0.011929605981954841
17,17,18825.985858025615,4076.214499747244,12.123150222525124,18947.123304500717,-5162.292081858163,11.80943773238999,18972.03905384476,44210.858845792005,9.030441014015508,19034.821948101293,-2028.1108505932723,16.324421441772056,19235.213561597368,10065.694402612338,36.83810327992176,0.968462781057482,129.0,95.0,100.0,240.0,340.0,34.0,978.0,973.0,34.0,15.0,19.0,0.4411764705882353,182.31816321096736,4092.7476479204033,14.0,8.0,6.0,0.5714285714285714,896.7180700242141,6085.386386912535,21.0,10.0,11.0,0.4761904761904761,2385.5301865481456,47099.42386576585,94.0,26.0,68.0,0.2765957446808511,121.83054442784764,1801.2334986924122,91.0,45.0,46.0,0.4945054945054945,107.62731577024546,10166.306993282671,0.0,0.0,0.0,0.0,18811.0,18845.0,18940.0,18952.0,18963.0,18982.0,19013.0,19040.0,19191.0,19280.0,0.04472732316277086,-0.17370541143449617,0.05395801504035248,-0.06007094947113429,0.010692487916413702
18,18,19782.821948101293,3633.7702577761142,10.179086368485509,19905.69864360057,-7051.506944947855,10.191861573731174,19928.525514955694,45605.361465362206,9.797443885404745,19990.7945744023,-2175.6689962958817,18.497231612997783,20193.01953650897,9664.355672339812,36.31763871249841,0.9760220250918734,125.0,98.0,143.0,199.0,342.0,27.0,951.0,958.0,31.0,13.0,18.0,0.4193548387096774,178.38649504122313,3901.516868858901,22.0,19.0,3.0,0.8636363636363636,1344.4379898439115,13320.683775635349,22.0,11.0,11.0,0.5,2232.247672350285,48467.14929709809,83.0,24.0,59.0,0.2891566265060241,125.94674522529134,2065.522240871146,90.0,44.0,46.0,0.4888888888888889,108.34612678497972,10031.430105733729,0.0,0.0,0.0,0.0,19770.0,19797.0,19895.0,19908.0,19918.0,19940.0,19968.0,20038.0,20150.0,20237.0,0.04909129702393364,-0.19065967038537085,0.04894704483475485,-0.057888743848314286,0.011210900183969358
19,19,20657.54796540086,4963.630533083871,9.610809077946216,20778.27398270043,-4906.806580002648,7.64389620259217,20801.353650036475,43327.90589045412,9.497001483728027,20855.987190806532,1342.3233110651984,101.91861603456228,21063.83551209554,11364.525409442074,37.9243495236692,0.9781822942463514,122.0,96.0,128.0,209.0,337.0,26.0,876.0,872.0,26.0,9.0,17.0,0.3461538461538461,260.15657614010394,6793.753965336434,9.0,7.0,2.0,0.7777777777777778,1099.4415384616664,12617.896938981745,21.0,10.0,11.0,0.4761904761904761,2287.1130720597025,48564.25344258787,79.0,76.0,3.0,0.9620253164556962,129.32931007395422,672.2103466971549,99.0,55.0,44.0,0.5555555555555556,144.86596439482454,12117.862501709687,0.0,0.0,0.0,0.0,20649.0,20675.0,20771.0,20780.0,20791.0,20812.0,20760.0,20899.0,21011.0,21108.0,0.05241255859115492,-0.22406457652974637,0.0527861438270801,0.09634736207577678,0.012747207575818736
20,20,21457.701357555423,2894.3267893882844,4.519898243390961,21582.27398270043,-7295.958549673773,7.64389620259217,21604.674083966456,45150.543163981565,9.926931751357236,21674.40765139873,-2150.724176442265,61.15116962073736,21866.604580303858,8628.351067553258,30.34639840536019,0.9661553462132496,121.0,109.0,161.0,173.0,334.0,12.0,801.0,803.0,13.0,7.0,6.0,0.5384615384615384,268.1499005349332,4316.254857595828,13.0,11.0,2.0,0.8461538461538461,1332.1396719257916,12161.110096832155,20.0,10.0,10.0,0.5,2282.240116748466,47583.25160115988,104.0,33.0,71.0,0.3173076923076923,100.16977905145735,2237.4605593118604,80.0,40.0,40.0,0.5,151.14219616794804,8354.283505621202,0.0,0.0,0.0,0.0,21451.0,21463.0,21572.0,21584.0,21595.0,21615.0,21643.0,21733.0,21830.0,21906.0,0.09264672583554624,-0.18258597041856223,0.05054734576413916,-0.04657490725619615,0.017516927044880597
21,21,22332.397287201147,4074.2700185234366,11.246401683057693,22452.123304500717,-5095.016452545767,7.159471349539848,22476.570009878295,46899.3189918208,10.054475784988956,22554.01663032475,-343.01045349157454,0.670517481053071,22737.248870852,10361.980981820792,40.391579384903366,0.9774543362003416,124.0,98.0,110.0,230.0,340.0,26.0,873.0,872.0,32.0,12.0,20.0,0.375,248.72306599902393,4533.835643347733,10.0,7.0,3.0,0.7,1136.788496837067,11447.439400120771,22.0,11.0,11.0,0.5,2259.4335796045734,50436.95043687888,2.0,1.0,1.0,0.5,116.22369411835705,251.61970646263148,99.0,50.0,49.0,0.5050505050505051,142.16962521203422,10959.071328804024,0.0,0.0,0.0,0.0,22321.0,22347.0,22445.0,22455.0,22466.0,22487.0,22553.0,22555.0,22694.0,22785.0,0.061047271012529526,-0.22311772835768987,0.048176255608287546,-0.33883426273249684,0.01372031327421452
22,22,23190.54796540086,3334.0033600681095,7.075454083109529,23311.54796540086,-4526.8364246324045,15.28779240518434,23336.677776720902,44830.24906224456,9.203534065378197,23402.945252602018,-1951.6017685300667,18.17466958182596,23597.56891914198,10371.019961778838,34.629221565054905,0.9698630813741436,121.0,103.0,144.0,193.0,337.0,18.0,859.0,860.0,24.0,9.0,15.0,0.375,268.1397849797303,4705.786373782015,14.0,9.0,5.0,0.6428571428571429,955.65597938077,7906.561155214682,20.0,10.0,10.0,0.5,2324.8539627680657,45827.45011251856,68.0,22.0,46.0,0.3235294117647059,137.67254482128914,1619.8003647020423,90.0,45.0,45.0,0.5,103.05158086867256,10549.232789136144,0.0,0.0,0.0,0.0,23182.0,23200.0,23303.0,23317.0,23327.0,23347.0,23383.0,23447.0,23556.0,23640.0,0.08042576926924648,-0.21110901515695316,0.051859046322498055,-0.07054335932734021,0.00993649431285032
23,23,24020.972626301005,3737.090925885691,9.901620828394258,24144.27398270043,-5319.019514204609,6.76374476217324,24167.252235106913,47300.16185801197,9.964653776830293,24215.93144289727,1500.9320349784002,-16.137114205472358,24426.83551209554,10326.62212055604,38.82510714691936,0.9748703428854189,126.0,101.0,106.0,228.0,334.0,25.0,830.0,831.0,28.0,11.0,17.0,0.3928571428571428,245.23726374842315,4299.878420204685,10.0,8.0,2.0,0.8,1315.3939787195418,14060.554946501125,21.0,10.0,11.0,0.4761904761904761,2346.2465013788874,52427.120782917606,77.0,70.0,7.0,0.9090909090909092,141.89642539666585,382.4989430626374,89.0,43.0,46.0,0.4831460674157303,115.2145718881616,11048.201235324172,0.0,0.0,0.0,0.0,24011.0,24036.0,24137.0,24146.0,24157.0,24178.0,24110.0,24243.0,24385.0,24471.0,0.06562250387052113,-0.24730008513913906,0.04960335037376763,0.09453887457249713,0.011157043469114355
24,24,24939.868828142156,3902.846247857084,9.934981207830935,25061.69864360057,-5441.935777367419,7.3221978627249005,25084.54854297113,45503.87840518023,9.821816172652598,25161.72601729957,-707.4226551544305,7.64389620259217,25346.21699096157,10942.429812022088,38.9743058420881,0.980277222048492,126.0,100.0,114.0,224.0,338.0,26.0,919.0,917.0,27.0,13.0,14.0,0.4814814814814814,269.3169579885554,4111.488635863805,11.0,9.0,2.0,0.8181818181818182,1344.7204481981996,14998.918482633788,21.0,11.0,10.0,0.5238095238095238,2223.1262363956844,48883.87554454674,7.0,2.0,5.0,0.2857142857142857,137.2442802389157,769.4536951414091,91.0,46.0,45.0,0.5054945054945055,136.96804363277394,11934.16271491079,0.0,0.0,0.0,0.0,24927.0,24953.0,25053.0,25064.0,25074.0,25095.0,25160.0,25167.0,25303.0,25391.0,0.06900526971474417,-0.2471033292584572,0.048855752834962754,-0.19400605739570959,0.012517150759540779
25,25,25774.123304500717,3232.686031630544,6.012286844411143,25896.54796540086,-4812.024411934513,15.28779240518434,25921.85347018728,45108.9748372172,9.155002742567422,25987.945252602018,-1778.3549283190634,18.421004559610175,26182.260172995684,10150.347778004369,33.93508013657701,0.9700931189884056,121.0,107.0,124.0,213.0,337.0,14.0,835.0,837.0,15.0,7.0,8.0,0.4666666666666667,258.8126917082381,4211.509665075295,29.0,24.0,5.0,0.8275862068965517,912.4777698873858,7645.939698504521,21.0,10.0,11.0,0.4761904761904761,2369.1410187364977,46919.85006466656,88.0,28.0,60.0,0.3181818181818182,134.17933223662658,1447.4964383889203,90.0,45.0,45.0,0.5,138.55429503226387,9877.80481993976,0.0,0.0,0.0,0.0,25767.0,25781.0,25888.0,25902.0,25912.0,25932.0,25968.0,26012.0,26141.0,26225.0,0.08006119034631234,-0.18962450972283298,0.05252039150270903,-0.07545137930562351,0.013650201752939803
26,26,26654.397287201147,4102.655944404504,10.97369449201884,26777.27398270043,-6254.352618143022,7.359192198656427,26799.78351823428,46555.252801896,9.946605694752744,26859.972626301005,-1703.28909042611,12.074038317672128,27063.38569613179,10141.288212460082,36.492482664856645,0.9840888562763892,125.0,107.0,118.0,220.0,338.0,18.0,879.0,879.0,28.0,12.0,16.0,0.4285714285714285,260.13889186432385,4534.088350910612,11.0,9.0,2.0,0.8181818181818182,1387.7399985370707,14404.112977325503,22.0,11.0,11.0,0.5,2298.3226959692374,50682.70017352601,41.0,11.0,30.0,0.2682926829268293,117.17141155002577,2106.032242083352,86.0,42.0,44.0,0.4883720930232558,104.56488142672612,10658.6857969928,0.0,0.0,0.0,0.0,26643.0,26661.0,26768.0,26779.0,26789.0,26811.0,26850.0,26886.0,27022.0,27106.0,0.06340743542463508,-0.2218838756406901,0.049367634319357326,-0.06879126521071835,0.01031080857146458
27,27,27573.123304500717,3950.5887782132936,8.075136735951784,27699.849321800284,-5963.047334259256,5.095930801728113,27722.068349134523,44195.65447673008,9.726741151640656,27780.48758462325,-769.8515815479735,3.832833693951003,27985.684833895823,10363.004142828057,36.76374877397872,0.9733277451875296,124.0,99.0,94.0,243.0,337.0,25.0,920.0,921.0,25.0,7.0,18.0,0.28,251.0559889437654,5668.180269291979,12.0,10.0,2.0,0.8333333333333334,1358.0978471526546,15530.334806459006,21.0,10.0,11.0,0.4761904761904761,2220.0988100769823,48205.758043239264,6.0,2.0,4.0,0.3333333333333333,131.16308087056478,1288.0474683009463,95.0,53.0,42.0,0.5578947368421052,107.9663248296727,10376.806396074078,0.0,0.0,0.0,0.0,27566.0,27591.0,27690.0,27701.0,27712.0,27733.0,27778.0,27784.0,27934.0,28027.0,0.06354900574017952,-0.22775231706614665,0.050233418564848045,-0.17037450336444016,0.010418438837003954
28,28,28423.97262630091,3161.6116952974207,7.338836610335588,28548.69864360057,-6690.296654418509,8.274447107801139,28570.725629431978,45394.708949571555,9.784888085377196,28632.123304500717,-1138.62024039558,12.739827004320285,28831.684833895823,9870.83448085772,33.84575139135955,0.9721354363924898,124.0,108.0,97.0,238.0,335.0,16.0,850.0,849.0,24.0,10.0,14.0,0.4166666666666667,265.3238727480242,3604.272928283377,14.0,12.0,2.0,0.8571428571428571,1434.128348526529,15604.117632868149,22.0,11.0,11.0,0.5,2289.8309466959863,48711.55011605266,11.0,7.0,4.0,0.6363636363636364,123.71118150211127,1511.7427390003977,87.0,45.0,42.0,0.5172413793103449,121.37172412826028,9957.109386249784,0.0,0.0,0.0,0.0,28414.0,28430.0,28538.0,28551.0,28561.0,28582.0,28625.0,28635.0,28790.0,28873.0,0.08392044890986036,-0.21435945558249345,0.050442683733025635,-0.10865008113603486,0.012295994261035746
29,29,29345.821948101293,4053.9250484091863,11.718284979923554,29466.69864360057,-5478.286179088715,7.148946664354087,29490.257247284117,46469.69127362893,10.123974123624116,29549.575339099854,-560.1332466008176,0.6287136801543164,29752.690941317684,10076.533165323664,39.65229585714981,0.9817430270147603,126.0,100.0,92.0,246.0,338.0,26.0,921.0,920.0,29.0,14.0,15.0,0.4827586206896552,237.68018902762697,3900.068796108412,11.0,9.0,2.0,0.8181818181818182,1334.9307181202266,14500.120451628092,22.0,11.0,11.0,0.5,2247.579465472628,51587.68609077796,3.0,2.0,1.0,0.6666666666666666,142.97835753901,753.6875453969556,93.0,43.0,50.0,0.4623655913978494,132.5845162965546,10650.495799396786,0.0,0.0,0.0,0.0,29333.0,29359.0,29459.0,29469.0,29479.0,29501.0,29548.0,29551.0,29710.0,29797.0,0.05862964563710812,-0.24367670371362118,0.0483665676244358,-0.25525775948254753,0.013157751194906716
30,30,30225.123304500717,3581.1115813876354,6.108321771142589,30350.69864360057,-6243.552406353503,8.501662030829658,30373.01561828472,43462.78683152549,9.450850674115657,30440.64389620259,-1894.5535374874364,18.835785827770067,30633.260172995684,10225.98860380558,35.32399673168813,0.9727909539245132,123.0,109.0,138.0,197.0,335.0,14.0,881.0,882.0,18.0,7.0,11.0,0.3888888888888889,263.46643676863755,4507.915367758234,13.0,11.0,2.0,0.8461538461538461,1320.9648358364836,13216.967064086486,21.0,10.0,11.0,0.4761904761904761,2318.5736812743658,47108.17788157968,76.0,31.0,45.0,0.4078947368421052,106.03343110722795,1403.0027931273662,92.0,45.0,47.0,0.4891304347826087,172.79460749889174,10431.660936492975,0.0,0.0,0.0,0.0,30218.0,30232.0,30341.0,30353.0,30363.0,30384.0,30415.0,30479.0,30591.0,30676.0,0.07357113309118049,-0.211572635234431,0.053346180728397315,-0.05596750316586454,0.016897594373866856
31,31,31088.397287201147,4057.1402171692457,10.727941274968808,31212.27398270043,-5938.698775465198,7.509991952597312,31235.013600021022,46092.00113008813,9.863222858355195,31292.69864360057,-1085.1353486857745,8.659349977371637,31499.109494795972,9815.288460693457,36.56137642567271,0.9820361897664938,126.0,99.0,100.0,236.0,336.0,27.0,862.0,863.0,29.0,12.0,17.0,0.4137931034482758,211.5919765485723,4433.838837950198,11.0,9.0,2.0,0.8181818181818182,1312.6927911103685,13551.90196281844,22.0,11.0,11.0,0.5,2292.202526488165,50277.61708017981,32.0,7.0,25.0,0.21875,114.82822048510876,1417.3696209250188,87.0,44.0,43.0,0.5057471264367817,128.74123572755022,10478.271727025896,0.0,0.0,0.0,0.0,31077.0,31104.0,31203.0,31214.0,31225.0,31246.0,31287.0,31303.0,31456.0,31539.0,0.05215298590202647,-0.22104047380438838,0.0497310264316524,-0.10581926081772115,0.013116398590129114
32,32,32041.123304500717,3276.9394798573453,5.643261785930055,32166.27398270043,-6745.701076531522,7.64389620259217,32188.553848523457,43441.78145388554,9.61794379295559,32277.46584430389,-2031.810672138028,32.582820493236696,32453.816772465492,9443.315581057588,32.159320863452265,0.9764491109857332,121.0,108.0,138.0,202.0,340.0,13.0,954.0,954.0,14.0,7.0,7.0,0.5,274.8911802198135,4466.664015630278,13.0,11.0,2.0,0.8461538461538461,1281.039240932622,12493.724802531722,21.0,11.0,10.0,0.5238095238095238,2186.4654635190204,46818.722032722566,113.0,53.0,60.0,0.4690265486725664,148.9629057277501,1011.160231312085,83.0,40.0,43.0,0.4819277108433735,156.68443920011563,9569.868913788545,0.0,0.0,0.0,0.0,32034.0,32047.0,32155.0,32168.0,32178.0,32199.0,32238.0,32293.0,32415.0,32495.0,0.08388655997753744,-0.18990453718582234,0.050330934651931905,-0.0733153476209473,0.016592100290962426
33,33,32898.12330450071,3190.3039116133223,5.920502883540381,33023.69864360057,-6257.383033900968,9.12940703385677,33045.37025156769,43920.60177289225,9.505811874802127,33107.54796540086,-1382.603783979814,14.662788185531676,33305.26017299569,10137.764244859793,37.22148199038843,0.9653760651303804,122.0,104.0,98.0,237.0,335.0,18.0,857.0,855.0,18.0,7.0,11.0,0.3888888888888889,233.00991188845143,4406.010001219525,14.0,12.0,2.0,0.8571428571428571,1370.6766724695317,15143.774962325504,20.0,9.0,11.0,0.45,2373.635699377532,48296.922071366906,47.0,17.0,30.0,0.3617021276595745,147.4331528853057,1364.0531783851534,102.0,55.0,47.0,0.5392156862745098,116.17138733224644,10002.439474968178,0.0,0.0,0.0,0.0,32891.0,32909.0,33013.0,33026.0,33036.0,33056.0,33097.0,33111.0,33255.0,33348.0,0.0730369012934004,-0.2190495076046234,0.05404378818968135,-0.10663442021033716,0.0114592709522861
34,34,33780.12330450071,3288.50281991882,6.802787121050569,33904.273982700426,-7186.229835520046,7.643896202592163,33926.81677518554,45138.675473160605,9.903057472338327,33987.821948101286,-2200.0665453221204,18.37042017662445,34191.28302607043,9378.7282509589,32.17710141929229,0.978201999615316,122.0,98.0,120.0,216.0,336.0,24.0,882.0,883.0,25.0,8.0,17.0,0.32,228.1521492567743,4789.898040542632,11.0,9.0,2.0,0.8181818181818182,1357.5225385604392,12662.424115070224,22.0,11.0,11.0,0.5,2245.8359741101667,49984.398101964165,104.0,22.0,82.0,0.2115384615384615,150.70959015693765,2143.122957433062,85.0,44.0,41.0,0.5176470588235295,134.02948608829985,9881.491089686966,0.0,0.0,0.0,0.0,33773.0,33797.0,33895.0,33906.0,33916.0,33938.0,33975.0,34015.0,34153.0,34231.0,0.06937873000285476,-0.1889060842238146,0.04975413989374894,-0.06850228711371623,0.014290795351128378
35,35,34697.972626301,3601.22158525932,9.120346031206818,34820.273982700426,-6115.674699625012,7.64389620259217,34842.53323558543,43781.54778437996,9.695188290815388,34923.86278224965,-1379.6035127212108,16.889972310281962,35103.21550131844,10462.245873219506,36.48353918205546,0.977396019734896,123.0,107.0,133.0,204.0,337.0,16.0,917.0,915.0,27.0,11.0,16.0,0.4074074074074074,264.71186756108705,4418.052921429772,12.0,10.0,2.0,0.8333333333333334,1269.855681828493,12820.562854497368,21.0,11.0,10.0,0.5238095238095238,2241.3028679221015,46515.94856437048,42.0,22.0,20.0,0.5238095238095238,103.61776063866768,1392.682963585388,91.0,44.0,47.0,0.4835164835164835,123.30780845776376,10742.432102994017,0.0,0.0,0.0,0.0,34688.0,34704.0,34811.0,34822.0,34833.0,34853.0,34902.0,34944.0,35062.0,35148.0,0.07350613154286796,-0.20763950736397987,0.051192865061790625,-0.0751069127348668,0.011785978837813215
36,36,35545.82774401621,3930.250326742232,8.44003200273888,35669.273982700426,-6492.909981724998,7.64389620259217,35691.65787584514,45724.21932069203,9.778825475136175,35773.82169414309,-870.3111375478737,19.617512023586013,35955.53415569612,10311.138198752878,34.565153924535615,0.9775999712557704,124.0,108.0,119.0,215.0,334.0,16.0,848.0,850.0,27.0,11.0,16.0,0.4074074074074074,239.49186172756657,4432.157666840542,12.0,10.0,2.0,0.8333333333333334,1328.7760360768402,13850.829343687556,22.0,11.0,11.0,0.5,2262.2925841196243,49375.58688703325,24.0,14.0,10.0,0.5833333333333334,83.93900017129758,1017.5230653333376,84.0,45.0,39.0,0.5357142857142857,146.72065445812345,10300.131618140153,0.0,0.0,0.0,0.0,35536.0,35552.0,35660.0,35671.0,35681.0,35703.0,35761.0,35779.0,35911.0,35994.0,0.060935523647950525,-0.2046503093092042,0.049476899064208775,-0.09644711707102599,0.014229336435028012
37,37,36497.972626301,4436.259328991465,9.89895102808272,36621.273982700426,-6031.4355693940015,7.64389620259217,36643.93611209301,45143.93517851261,10.000371727668863,36708.67126990158,-1584.818199546538,15.0984326159272,36906.60234529379,10187.453384831537,37.45491439523138,0.983150800385998,124.0,98.0,120.0,221.0,341.0,26.0,952.0,952.0,27.0,10.0,17.0,0.3703703703703703,240.7982118171237,5864.613834499514,11.0,9.0,2.0,0.8181818181818182,1318.002072947169,13620.275777893576,22.0,11.0,11.0,0.5,2220.4073171521877,50090.41779706194,53.0,16.0,37.0,0.3018867924528302,117.22905535791628,1740.6387715215656,89.0,43.0,46.0,0.4831460674157303,114.5987471547692,10441.869600508544,0.0,0.0,0.0,0.0,36488.0,36514.0,36612.0,36623.0,36633.0,36655.0,36693.0,36732.0,36864.0,36953.0,0.05427956166662298,-0.2185221176257368,0.04918506347246941,-0.07397003352905644,0.011249008248263434
38,38,37364.33454850557,2637.0831583561276,4.632483786110323,37485.54796540086,-5031.530626863124,15.28779240518434,37510.50548411614,44924.77435643283,9.34096814464742,37576.91787890302,-2046.1059909913756,53.50727323466416,37770.86612647109,9407.114982256038,32.03119805648429,0.9607493028846796,119.0,109.0,144.0,192.0,336.0,10.0,868.0,866.0,11.0,6.0,5.0,0.5454545454545454,257.0311226830432,4265.654697491302,25.0,20.0,5.0,0.8,951.226311150524,6974.591573647421,20.0,10.0,10.0,0.5,2281.996147064225,44915.56915392855,98.0,30.0,68.0,0.3061224489795918,113.85836285680412,2668.7899769513056,87.0,43.0,44.0,0.4942528735632184,119.44518845224955,9737.864981150458,0.0,0.0,0.0,0.0,37358.0,37368.0,37477.0,37491.0,37501.0,37521.0,37547.0,37621.0,37732.0,37813.0,0.09746796261186852,-0.1890530698694286,0.05079594009663543,-0.055646366003570355,0.012697324171922039
39,39,38218.09428102714,4058.927347350608,8.764535505970038,38340.273982700426,-5817.788774605443,7.238304087961972,38363.155581179264,46580.033168956295,9.96067028138012,38425.821948101286,-1285.430126944917,11.690202725571856,38624.29320238818,10036.043915410792,36.88555336943786,0.9842343422344147,125.0,106.0,112.0,222.0,334.0,19.0,853.0,853.0,20.0,11.0,9.0,0.55,261.9108601699227,4746.83411948842,10.0,8.0,2.0,0.8,1331.316831727956,13672.271152653404,22.0,11.0,11.0,0.5,2282.60869021992,51564.88593962193,36.0,13.0,23.0,0.3611111111111111,124.61097055952054,1416.472878595479,92.0,45.0,47.0,0.4891304347826087,121.26427910166888,10318.275586913824,0.0,0.0,0.0,0.0,38208.0,38227.0,38333.0,38342.0,38352.0,38374.0,38413.0,38445.0,38580.0,38667.0,0.06452711215461403,-0.22883553929271774,0.049004015989863786,-0.0969410689445124,0.01208287649234597
40,40,39113.12330450071,3283.15872856107,6.207964883012004,39232.54796540086,-4637.197557035523,15.28779240518434,39257.97547681509,45416.89128767892,9.304245384375156,39321.821948101286,-2141.7053867458058,17.94297036536243,39519.858805284646,9765.62761368616,33.78253973407618,0.9731175390563056,118.0,106.0,140.0,199.0,339.0,12.0,895.0,894.0,15.0,8.0,7.0,0.5333333333333333,255.4269750831516,4290.027976895753,14.0,9.0,5.0,0.6428571428571429,930.9896311141454,7566.086986675039,21.0,10.0,11.0,0.4761904761904761,2294.094211588017,47439.3558616213,55.0,13.0,42.0,0.2363636363636363,160.23869508010017,2821.9434516312695,90.0,45.0,45.0,0.5,107.17384033118029,10071.681820446418,0.0,0.0,0.0,0.0,39106.0,39118.0,39224.0,39238.0,39248.0,39269.0,39309.0,39364.0,39478.0,39563.0,0.07779915508230671,-0.2007655743934512,0.05051191630569348,-0.07481827149138069,0.010974598312655315
41,41,39936.54796540086,3642.075125899506,7.529023350509328,40055.69864360057,-4933.305028766985,10.191861603456228,40082.57437893277,45279.19110495523,9.31412671557804,40150.94525260201,-1543.0618350810043,16.497057908737087,40339.9635676402,9865.118861352432,35.513114408771244,0.9728069704135318,122.0,106.0,120.0,214.0,334.0,16.0,823.0,825.0,18.0,10.0,8.0,0.5555555555555556,260.78912688329586,4318.283598185736,12.0,6.0,6.0,0.5,789.8456464543793,5587.222897170612,21.0,11.0,10.0,0.5238095238095238,2272.69676786357,47606.23471704693,66.0,30.0,36.0,0.4545454545454545,118.13802270844494,1430.9092916206905,93.0,48.0,45.0,0.5161290322580645,155.05013110937438,10662.225313551791,0.0,0.0,0.0,0.0,39928.0,39944.0,40050.0,40062.0,40072.0,40093.0,40131.0,40170.0,40299.0,40384.0,0.07160454352760973,-0.16010476584128652,0.05019296308972385,-0.07656078325742739,0.015717005875803325
42,42,40824.39728720114,4416.535210727082,13.166209739437846,40945.273982700426,-4989.142777206832,6.47421917942181,40968.90405875763,47353.151115566405,10.127713203519631,41024.250769848586,-473.05687010931433,0.4556273610129479,41228.42390552689,10491.838834388254,41.36841054824476,0.9806969913458072,125.0,97.0,87.0,250.0,337.0,28.0,887.0,887.0,31.0,12.0,19.0,0.3870967741935484,249.1833977006834,5204.33249253473,9.0,7.0,2.0,0.7777777777777778,1269.013832911284,13508.893959854471,22.0,11.0,11.0,0.5,2282.9552322093896,51863.34603052464,2.0,1.0,1.0,0.5,132.06100251126273,658.3471739434315,93.0,44.0,49.0,0.4731182795698925,113.08384075769148,11049.30098513776,0.0,0.0,0.0,0.0,40813.0,40841.0,40938.0,40947.0,40958.0,40980.0,41023.0,41025.0,41185.0,41275.0,0.05642056177780615,-0.2543550845465562,0.04821126320902673,-0.2791651720029898,0.010778267045719925
43,43,41718.69864360057,3311.0264575373517,6.120389867233122,41841.54796540086,-5175.507181158081,10.464413959732726,41865.167647160495,44732.68875867555,9.550978080667608,41928.54796540086,-1398.2378351061486,14.66888970298772,42127.26017299569,10082.819575623334,34.470973236380125,0.9695939167873682,120.0,96.0,99.0,238.0,337.0,24.0,896.0,896.0,24.0,6.0,18.0,0.25,254.9631174492867,5208.733306779057,12.0,9.0,3.0,0.75,1148.0208871575358,11890.410354505071,21.0,10.0,11.0,0.4761904761904761,2295.5301313840237,48921.910763962325,80.0,17.0,63.0,0.2125,125.0929412960102,1252.3887307298205,93.0,48.0,45.0,0.5161290322580645,125.41035847947224,9620.355815002516,0.0,0.0,0.0,0.0,41713.0,41737.0,41833.0,41845.0,41855.0,41876.0,41913.0,41932.0,42082.0,42170.0,0.07700425252382945,-0.22181804545398245,0.051316614205061034,-0.08946470918984512,0.012438024655590367
44,44,42528.60353444264,2952.6827404871046,5.402398183645653,42648.12330450071,-5001.111000017234,12.739827004320285,42674.274375787856,45510.34583108016,9.160950371955035,42738.52059170187,-2343.5056722312374,18.234578063684417,42935.95881659626,9787.844515380106,31.45866036890007,0.9686351505140312,120.0,108.0,126.0,206.0,332.0,12.0,810.0,808.0,16.0,8.0,8.0,0.5,249.37240469176123,3935.5635808594434,14.0,8.0,6.0,0.5714285714285714,823.2181667038375,5145.683570793304,21.0,10.0,11.0,0.4761904761904761,2376.0253257707286,48824.546925995746,93.0,28.0,65.0,0.3010752688172043,138.75711239533908,2164.764597034273,80.0,42.0,38.0,0.525,94.21355879847444,10043.328324231235,0.0,0.0,0.0,0.0,42521.0,42533.0,42641.0,42654.0,42664.0,42685.0,42720.0,42767.0,42894.0,42973.0,0.08445621375855038,-0.16460705765198985,0.05220846562207579,-0.05920920697547503,0.00962556757521354
45,45,43401.821948101286,3729.326714049856,10.36099233157177,43521.273982700426,-6822.162052074167,7.64389620259217,43543.66314996599,47198.03795963151,10.008695930641457,43623.42647091817,-1354.4968515884643,15.28779240518434,43802.46305674283,10060.643680612608,37.283442529101215,0.977355195925332,122.0,97.0,119.0,217.0,336.0,25.0,871.0,871.0,28.0,14.0,14.0,0.5,207.085367135252,3395.777947257059,12.0,10.0,2.0,0.8333333333333334,1395.1382377205327,14528.859148962532,22.0,11.0,11.0,0.5,2344.5510917686092,52158.83072032041,39.0,12.0,27.0,0.3076923076923077,106.25885162122697,1255.4172521560397,92.0,46.0,46.0,0.5,109.6842692236752,10692.344354501176,0.0,0.0,0.0,0.0,43389.0,43414.0,43511.0,43523.0,43533.0,43555.0,43615.0,43630.0,43757.0,43847.0,0.05552888845996762,-0.20450089386199258,0.049674757534919234,-0.07844894692565259,0.010902311293962491
46,46,44261.54796540086,3759.861119361005,7.045077782145614,44385.273982700426,-6495.216841549206,7.64389620259217,44406.98698160418,44303.17536691252,9.377482128153018,44494.013809704746,-1994.25178992518,28.036262656928884,44666.53364497577,10567.18461244611,33.81694884246748,0.975966203627296,122.0,99.0,143.0,190.0,333.0,23.0,861.0,863.0,23.0,9.0,14.0,0.391304347826087,246.61821479474037,4901.831924455808,12.0,10.0,2.0,0.8333333333333334,1347.7312326254544,13062.344351735324,21.0,10.0,11.0,0.4761904761904761,2367.976447023816,48657.87562451203,89.0,50.0,39.0,0.5617977528089888,132.44220313264353,1180.2221092655368,90.0,46.0,44.0,0.5111111111111111,142.5427038591552,10672.826058371576,0.0,0.0,0.0,0.0,44253.0,44276.0,44375.0,44387.0,44397.0,44417.0,44447.0,44518.0,44625.0,44708.0,0.06559237348550086,-0.2074959567175898,0.05344936175370221,-0.06641197656270499,0.01348918459239061
47,47,45083.49490017552,2821.5470388924373,4.887083834313971,45209.12330450071,-6637.967414863932,10.402162448033248,45231.55085701626,46457.52823981624,9.635609875844551,45320.0786814325,-2456.0584678006217,29.980135296442075,45492.11583268971,9011.991331401923,30.09486436792646,0.9719760295422816,121.0,110.0,158.0,174.0,332.0,11.0,823.0,825.0,14.0,7.0,7.0,0.5,266.0765856389103,4384.290004808981,14.0,11.0,3.0,0.7857142857142857,1345.6013109572702,13231.004061780328,22.0,11.0,11.0,0.5,2296.249897926546,49121.04618268369,98.0,51.0,47.0,0.5204081632653061,123.9432728984436,1657.7164625110297,77.0,38.0,39.0,0.4935064935064935,144.29561293381187,8912.05416428851,0.0,0.0,0.0,0.0,45077.0,45088.0,45198.0,45212.0,45222.0,45243.0,45277.0,45356.0,45454.0,45530.0,0.09430166570724806,-0.20271285272418785,0.04942686330777612,-0.05046430063590208,0.01601151261997108
48,48,46006.821948101286,3911.054927934604,13.61435678764817,46127.69864360057,-4689.647553407256,6.725466820334223,46151.3637339706,47097.60244946341,9.816318925125447,46248.15067819971,-410.47476369446525,2.1095015554710073,46410.551139527226,10122.345089710576,37.63722126668664,0.980601466672842,127.0,95.0,130.0,202.0,332.0,32.0,921.0,920.0,35.0,13.0,22.0,0.3714285714285714,214.2620790784168,4299.741720131737,9.0,7.0,2.0,0.7777777777777778,1294.4903839601602,14375.62029029654,21.0,10.0,11.0,0.4761904761904761,2307.337451384433,51998.42483505169,8.0,5.0,3.0,0.625,122.96026284973097,38.41427320589469,95.0,49.0,46.0,0.5157894736842106,123.95825359393568,10644.615479881788,0.0,0.0,0.0,0.0,45994.0,46026.0,46121.0,46130.0,46141.0,46162.0,46244.0,46251.0,46370.0,46453.0,0.05478370491502323,-0.276031486208308,0.048990550078642496,-0.2995562059480368,0.01224600154364822
49,49,46863.946588998566,2907.905670512144,7.355294400212916,46984.54796540086,-4724.6325867578,15.28779240518434,47008.501796122335,45206.56316630578,9.237821056637262,47079.21923530245,-2044.388009570406,19.86493088470782,47266.68483389583,10125.007297590935,34.020321182442636,0.9676882560354034,122.0,107.0,139.0,193.0,332.0,15.0,858.0,856.0,24.0,11.0,13.0,0.4583333333333333,262.5204438245417,3255.614005019329,12.0,9.0,3.0,0.75,1103.1262601881892,9585.236357587224,20.0,10.0,10.0,0.5,2313.9015856379337,45932.49238789484,68.0,32.0,36.0,0.4705882352941176,123.0170491671372,1393.0638581515766,89.0,46.0,43.0,0.5168539325842697,146.9813043900262,10402.100396819576,0.0,0.0,0.0,0.0,46854.0,46869.0,46976.0,46988.0,46999.0,47019.0,47055.0,47115.0,47225.0,47308.0,0.09027818422263549,-0.23348403075405938,0.051185080739837685,-0.06017304376236641,0.01451666157564131
50,50,47721.649991629005,3359.08462480708,7.765406579257346,47845.69864360057,-6527.693594405338,8.449402486960087,47868.85509215807,46175.29368172037,9.881495985680743,47929.972626301,-959.2441339947349,12.459925548322015,48129.10949479597,9761.630837058863,34.31921882954826,0.9805772492370696,124.0,109.0,98.0,235.0,333.0,15.0,858.0,861.0,16.0,10.0,6.0,0.625,239.5134552074335,3930.286479519009,13.0,10.0,3.0,0.7692307692307693,1369.86459409943,13890.567338614888,22.0,11.0,11.0,0.5,2283.612955640037,50419.094002114594,59.0,15.0,44.0,0.2542372881355932,113.89514296089072,1012.1313647933003,86.0,45.0,41.0,0.5232558139534884,152.86378284059174,9945.360999954606,0.0,0.0,0.0,0.0,47712.0,47727.0,47836.0,47848.0,47858.0,47880.0,47919.0,47934.0,48088.0,48169.0,0.07130319177987048,-0.20985430371203295,0.049455299004282485,-0.11873426057512475,0.015659656198046608
51,51,48650.36293263525,2928.5895199293245,6.982918743070954,48769.12330450071,-4972.445801610765,12.739827004320285,48794.53103245917,44929.46678180988,9.190292656130172,48864.34253980316,-2262.2238482872717,24.01872553275525,49056.924346799075,9673.12926344289,33.89580034477437,0.9707284040029404,121.0,107.0,142.0,195.0,337.0,14.0,930.0,925.0,15.0,9.0,6.0,0.6,253.5385349999194,3836.521298886838,14.0,8.0,6.0,0.5714285714285714,897.7419389037835,6096.477044792684,21.0,11.0,10.0,0.5238095238095238,2288.803407081043,46364.41120598263,110.0,33.0,77.0,0.3,122.33816398354084,1349.6010831895585,84.0,41.0,43.0,0.4880952380952381,118.9894197081374,10168.880464975318,0.0,0.0,0.0,0.0,48641.0,48655.0,48762.0,48775.0,48785.0,48805.0,48833.0,48904.0,49019.0,49099.0,0.08657359909081352,-0.18054333314462084,0.05094214490005225,-0.05407871731003233,0.012301026531075872
52,52,49469.972626301,3641.514358130247,9.347772150333324,49591.69864360057,-6145.794379833397,9.068050676089184,49614.04840494226,45140.96372498617,9.549553756853978,49679.94525260201,-1612.4553487881549,16.32937771029625,49873.24488174735,9756.615075442764,33.71838421121863,0.9781623832955614,122.0,107.0,130.0,203.0,333.0,15.0,818.0,819.0,28.0,12.0,16.0,0.4285714285714285,264.95198350258636,4097.123994018575,16.0,14.0,2.0,0.875,1341.208818419337,14360.252747790177,21.0,10.0,11.0,0.4761904761904761,2344.643924903399,48787.93353743895,75.0,23.0,52.0,0.3066666666666666,114.35411843592924,1314.845399051341,86.0,43.0,43.0,0.5,136.4354232990783,10246.5812485411,0.0,0.0,0.0,0.0,49459.0,49474.0,49581.0,49594.0,49604.0,49625.0,49660.0,49711.0,49835.0,49914.0,0.07275873646112087,-0.21823197060095834,0.05194049332193599,-0.07091924655270138,0.0139838891095011
53,53,50362.54796540086,3841.75797545408,8.283574717221054,50486.273982700426,-5878.436146549995,7.643896202592159,50509.305692254864,45939.16356942128,9.911066096487325,50575.12330450071,-1610.0672266332754,12.739827004320285,50769.55892481976,9699.000948824225,35.65377106957447,0.9824567864582094,124.0,105.0,100.0,234.0,334.0,19.0,893.0,896.0,19.0,9.0,10.0,0.4736842105263157,237.39385847303237,5099.397782715098,10.0,8.0,2.0,0.8,1278.8021367891845,13008.319947849628,21.0,10.0,11.0,0.4761904761904761,2276.176792915662,50994.36578465161,41.0,18.0,23.0,0.4390243902439024,129.9924901707919,1410.975603088746,87.0,44.0,43.0,0.5057471264367817,113.29030729836772,9909.456371773784,0.0,0.0,0.0,0.0,50354.0,50373.0,50478.0,50488.0,50499.0,50520.0,50558.0,50578.0,50727.0,50812.0,0.061793028085006675,-0.21754121417814545,0.04954763247868024,-0.08073730588418485,0.011680616168214883
54,54,51239.54796540086,3135.8194787689126,8.086081268895962,51361.273982700426,-6661.698888089351,7.64389620259217,51383.27013860294,42970.33944586952,9.528349843613109,51448.09593080172,-1676.3227096982296,17.46130100720555,51645.95881659626,10099.17145974154,32.954929097927895,0.9741473656861264,120.0,103.0,138.0,194.0,332.0,17.0,877.0,873.0,26.0,10.0,16.0,0.3846153846153846,227.53436749586976,3793.763578012691,14.0,11.0,3.0,0.7857142857142857,1273.7461096514262,12260.356776311342,21.0,10.0,11.0,0.4761904761904761,2338.712330601169,47684.003217436635,86.0,26.0,60.0,0.3023255813953488,131.0804926244432,1387.0680958580017,81.0,43.0,38.0,0.5308641975308642,137.88747264858344,10204.276095561134,0.0,0.0,0.0,0.0,51231.0,51248.0,51351.0,51363.0,51374.0,51394.0,51431.0,51489.0,51604.0,51683.0,0.07255977872335852,-0.19120439561277597,0.054426200973983124,-0.0781952614887859,0.013653345048972195
55,55,52051.972626301,4137.198504423087,9.530735405626576,52174.12330450071,-5378.556563642596,7.90634378814111,52198.48183434105,46231.10689501577,9.754711168840174,52258.54796540086,-1382.8064264535928,11.839728146428692,52456.6035051167,9997.105631605167,35.15834968254216,0.9798749116174934,125.0,98.0,120.0,211.0,331.0,27.0,812.0,817.0,28.0,10.0,18.0,0.3571428571428571,251.12365154924004,5286.65322503809,11.0,7.0,4.0,0.6363636363636364,1136.161621751794,10441.066566665351,21.0,10.0,11.0,0.4761904761904761,2289.9730406937215,51235.73164077026,38.0,9.0,29.0,0.2368421052631578,120.0201795689427,1796.3657556023077,89.0,45.0,44.0,0.5056179775280899,104.8068397776658,10081.792835105,0.0,0.0,0.0,0.0,52042.0,52069.0,52167.0,52178.0,52188.0,52209.0,52250.0,52287.0,52416.0,52498.0,0.060698961212705474,-0.21123913234117503,0.049533164886013274,-0.08679463536827191,0.010483718352072437
56,56,52946.547965397134,2797.481317150322,6.232636650651695,53068.69864360057,-6063.8248819964265,8.74933859270436,53091.2302947174,44673.032721930984,9.658424367229356,53155.52059170187,-2046.010322079715,21.329153891144372,53352.6229042855,9596.976823020135,32.75267141647815,0.9755209650170976,121.0,107.0,136.0,197.0,333.0,14.0,895.0,893.0,18.0,9.0,9.0,0.5,219.23961412519913,3573.1869094966196,12.0,10.0,2.0,0.8333333333333334,1331.7212030493815,13944.246223819418,21.0,10.0,11.0,0.4761904761904761,2244.7403088220203,49245.29903798771,81.0,20.0,61.0,0.2469135802469135,122.74212942123108,2292.309348165949,80.0,40.0,40.0,0.5,131.54685203884569,10241.480497091032,0.0,0.0,0.0,0.0,52938.0,52952.0,53059.0,53071.0,53081.0,53102.0,53137.0,53195.0,53317.0,53392.0,0.0783703586440854,-0.21961735850968897,0.050248218489989095,-0.0599909629470818,0.01370711365305229
57,57,53773.972626301,3756.084865200384,8.513683302128392,53893.12330450071,-4418.931254539534,12.546547461825025,53918.304904241166,44859.42071233974,9.234664526875324,53985.09593080172,-1721.4523116308503,15.110951557125228,54174.97843392301,10043.53268176427,36.05871142795053,0.9741681691886896,122.0,98.0,117.0,216.0,333.0,24.0,827.0,825.0,26.0,11.0,15.0,0.4230769230769231,238.72367551415985,4116.6508825798555,13.0,8.0,5.0,0.6153846153846154,882.3515904380479,7202.3620472018965,21.0,10.0,11.0,0.4761904761904761,2321.961633352121,48432.88623496704,37.0,17.0,20.0,0.4594594594594595,125.15680024353232,1686.1219091045336,88.0,43.0,45.0,0.4886363636363636,134.52305734473734,10869.787812147144,0.0,0.0,0.0,0.0,53764.0,53788.0,53886.0,53898.0,53908.0,53929.0,53968.0,54003.0,54133.0,54219.0,0.0635565180451332,-0.1996753376807152,0.05176084747597745,-0.07270419249950796,0.013393998068925156
58,58,54664.54796540086,3673.051939620235,8.594975423423394,54788.84932180029,-6481.501299235304,5.095930801728113,54811.532647385786,45810.937291673254,9.683905393300034,54905.027373699,-1056.7290641310362,17.8357578060484,55072.26523797072,9905.749794789272,35.906958714852294,0.9822090057792368,125.0,98.0,135.0,199.0,334.0,27.0,891.0,895.0,27.0,9.0,18.0,0.3333333333333333,238.84630719563907,5176.339165637996,11.0,9.0,2.0,0.8181818181818182,1433.9070900569643,15106.481799221605,22.0,11.0,11.0,0.5,2252.309123685011,48938.14237637045,19.0,7.0,12.0,0.3684210526315789,137.4932180355391,677.697315985077,85.0,42.0,43.0,0.4941176470588235,135.82898491774722,10608.688854603211,0.0,0.0,0.0,0.0,54656.0,54683.0,54781.0,54790.0,54801.0,54822.0,54901.0,54916.0,55031.0,55115.0,0.06502666205703966,-0.2212307031746084,0.049165314155106755,-0.13011208142420289,0.013712135651679537
59,59,55597.21171469403,3878.018247286564,9.510396230057932,55716.12330450071,-6222.603435289489,9.071177035171155,55738.44718355047,43514.78047451899,9.51800049848498,55818.04503381542,-1645.9724806875693,20.400260035645168,55999.26017299569,9996.88409365938,36.35136020849106,0.97566185303162,121.0,95.0,126.0,210.0,336.0,26.0,932.0,926.0,27.0,13.0,14.0,0.4814814814814814,245.9399130930306,4077.9268996874503,14.0,11.0,3.0,0.7857142857142857,1236.7790937172333,12318.04155024153,20.0,9.0,11.0,0.45,2331.813540647243,48293.33006097552,42.0,31.0,11.0,0.7380952380952381,115.1789436535636,1702.2396658522314,97.0,51.0,46.0,0.5257731958762887,104.03028854009412,10174.976838673596,0.0,0.0,0.0,0.0,55585.0,55611.0,55706.0,55719.0,55729.0,55749.0,55784.0,55832.0,55954.0,56042.0,0.06341896747523401,-0.1987558915779912,0.05358670123620837,-0.06997622682333675,0.010406271350697797
60,60,56420.49711183462,3108.8593021675706,4.779356365762991,56544.69864360057,-7355.245700160472,10.191861603456228,56566.55112470225,45351.45960418854,9.618102164094564,56635.34253980316,-1922.426880256708,26.6327442543474,56827.95881659626,9142.152813113413,30.229412981095372,0.9718175705039496,119.0,107.0,138.0,194.0,332.0,12.0,826.0,828.0,12.0,6.0,6.0,0.5,248.5465885595196,4475.70373879653,19.0,17.0,2.0,0.8947368421052632,1414.3513318692385,14128.521211218602,21.0,10.0,11.0,0.4761904761904761,2304.758625936355,48156.25058789509,107.0,31.0,76.0,0.2897196261682243,131.26183643824046,1373.516897216847,82.0,42.0,40.0,0.5121951219512195,125.23798289048776,9070.665183749052,0.0,0.0,0.0,0.0,56414.0,56426.0,56533.0,56547.0,56557.0,56577.0,56604.0,56671.0,56788.0,56865.0,0.0799478408000732,-0.1922915140466866,0.050819943747157675,-0.0682792348496046,0.01369895969260628
61,61,57313.54796540086,3999.6490465988695,9.22613609531416,57436.84932180029,-6056.402748093108,5.095930801728113,57459.59014501214,46242.44840332758,9.922390311463689,57533.215933968735,2109.2653129394103,131.65581499112233,57722.455226710015,10173.230738041842,37.47990799063974,0.9844554442577998,125.0,97.0,374.0,-40.0,334.0,28.0,891.0,894.0,28.0,9.0,19.0,0.3214285714285714,241.21104859432543,6282.285528862017,9.0,8.0,1.0,0.8888888888888888,1411.1312628838891,17441.79016859394,23.0,12.0,11.0,0.5217391304347826,2238.140239029153,51531.15073079534,366.0,96.0,270.0,0.2622950819672131,106.33113968016482,1365.9367999905153,92.0,50.0,42.0,0.5434782608695652,142.14137346389415,11947.462942397517,0.0,0.0,0.0,0.0,57305.0,57333.0,57430.0,57438.0,57448.0,57471.0,57429.0,57804.0,57675.0,57764.0,0.060308053477702246,-0.2329982535141329,0.048400124048537566,0.05041145797442848,0.013972097667299515
62,62,58179.54796540086,3330.3617477780563,8.016902839738195,58301.69864360057,-5871.89369289594,8.304086644663803,58323.881001963215,43502.969734825216,9.577188571083576,58387.246609001435,-1355.126211281132,14.618729217902503,58578.67202510803,10092.55486616089,36.61071668806502,0.9731856473070928,121.0,97.0,133.0,199.0,332.0,24.0,866.0,863.0,25.0,10.0,15.0,0.4,260.3861085401937,4036.888802852411,13.0,11.0,2.0,0.8461538461538461,1327.0167600734978,14225.391379799592,21.0,10.0,11.0,0.4761904761904761,2290.053029647125,46623.17605700933,52.0,14.0,38.0,0.2692307692307692,121.93384839942142,1660.8897621412402,94.0,48.0,46.0,0.5106382978723404,150.8954960953957,10878.722427002112,0.0,0.0,0.0,0.0,58171.0,58195.0,58292.0,58304.0,58314.0,58334.0,58373.0,58425.0,58535.0,58624.0,0.07818553306226193,-0.22599468407934184,0.052641303423795464,-0.08997969885339724,0.014951169262535294
63,63,58994.54796540086,3920.162499956676,8.772749469483328,59118.273982700426,-6177.49849167055,7.407481087143382,59141.13177005384,46431.23790140612,10.079801376773313,59221.575339099865,-556.9413928731881,1.3680550824839417,59399.66363243819,10113.004301379144,38.36416599092187,0.9778881404902654,123.0,106.0,114.0,219.0,333.0,17.0,815.0,818.0,29.0,10.0,19.0,0.3448275862068966,268.921365725897,4978.927574777856,11.0,9.0,2.0,0.8181818181818182,1313.797904508577,13779.46542608014,21.0,10.0,11.0,0.4761904761904761,2314.8608080905005,51479.67702096145,3.0,2.0,1.0,0.6666666666666666,133.83410567774547,846.4333117311658,91.0,45.0,46.0,0.4945054945054945,150.08785421038417,11003.65451531722,0.0,0.0,0.0,0.0,58986.0,59003.0,59109.0,59120.0,59131.0,59152.0,59220.0,59223.0,59361.0,59442.0,0.0685995454853897,-0.2126747430663141,0.04985567718452747,-0.2403019552691402,0.014841074891060433
64,64,59927.972626301,3805.7451693551234,12.121988284370529,60050.273982700426,-4881.125349026573,7.167347868097491,60073.52984349851,46362.68578773966,9.837042792645642,60150.87669549929,-740.8437607483152,10.998498994924198,60331.91038007379,10595.734593286592,40.62973401387854,0.9805611425008752,124.0,95.0,116.0,222.0,338.0,29.0,933.0,932.0,29.0,10.0,19.0,0.3448275862068966,242.10658049160708,5673.661371678892,10.0,8.0,2.0,0.8,1229.5258405702382,13434.29312856962,22.0,11.0,11.0,0.5,2241.273827159481,49160.66585751093,19.0,12.0,7.0,0.631578947368421,111.6824305099862,787.7569160335779,100.0,51.0,49.0,0.51,141.79832801291784,10982.84646988608,0.0,0.0,0.0,0.0,59918.0,59947.0,60042.0,60052.0,60063.0,60084.0,60143.0,60158.0,60285.0,60380.0,0.06361607772404572,-0.25189392868499855,0.04834219133508811,-0.15075031528534094,0.013382585866463717
65,65,60787.742398363815,3014.0227316470364,7.807753374002794,60909.273982700426,-6578.336082795493,7.64389620259217,60930.97396605701,43720.295936322,9.606257939755452,60996.246609001435,-1637.284567429963,14.73200573197626,61189.10949479597,9752.402558190686,34.75836836789316,0.9720192509264616,121.0,106.0,120.0,211.0,331.0,15.0,860.0,857.0,26.0,12.0,14.0,0.4615384615384615,242.27773454988036,3152.821975231175,13.0,11.0,2.0,0.8461538461538461,1309.8976299097146,14149.084657003872,21.0,10.0,11.0,0.4761904761904761,2336.3253512883875,47555.022603509584,57.0,17.0,40.0,0.2982456140350877,124.85520457449675,1709.6581443247087,83.0,42.0,41.0,0.5060240963855421,136.7239642228306,9917.185792879758,0.0,0.0,0.0,0.0,60777.0,60792.0,60898.0,60911.0,60921.0,60942.0,60982.0,61018.0,61148.0,61229.0,0.0803835127074459,-0.1991229413370239,0.05343800404945138,-0.07625748575306082,0.01401951605330331
66,66,61655.821948101286,4110.607946504374,11.260105519271486,61776.273982700426,-5991.259235267533,7.167188326340316,61799.18706625739,47154.415305285416,9.978871261338044,61884.8014495356,-689.5056477842475,16.85568801924338,62059.835512095546,9715.515781123104,36.55001577099772,0.9839013467612416,125.0,98.0,125.0,211.0,336.0,27.0,867.0,869.0,29.0,14.0,15.0,0.4827586206896552,228.36210153627263,3787.455475423657,10.0,8.0,2.0,0.8,1362.799771364097,13886.191060089091,22.0,11.0,11.0,0.5,2328.274972209058,52170.062703096424,16.0,8.0,8.0,0.5,131.09348657398016,1118.149068982832,86.0,41.0,45.0,0.4767441860465116,147.4439196336881,10015.904015717417,0.0,0.0,0.0,0.0,61643.0,61670.0,61768.0,61778.0,61789.0,61810.0,61877.0,61893.0,62020.0,62104.0,0.05555433758416923,-0.22746466441344743,0.0493755453680302,-0.1901267770543346,0.015176128880379804
67,67,62624.69864360057,3102.4695403763517,6.26164316208134,62745.54796540086,-5006.220510022704,11.053236359934298,62770.03957008856,44801.979535609666,9.349789208211716,62849.821948101286,-1563.5583130470852,22.758887393031497,63030.2268146921,9450.728277919008,35.01958441842857,0.973141206336573,118.0,100.0,118.0,218.0,336.0,18.0,971.0,970.0,23.0,6.0,17.0,0.2608695652173913,238.92216754976653,4630.046282146419,13.0,9.0,4.0,0.6923076923076923,1057.611011755244,9278.602966313969,21.0,10.0,11.0,0.4761904761904761,2258.441286497289,47757.38196829173,34.0,29.0,5.0,0.8529411764705882,137.55239583258196,1888.4218585478843,91.0,44.0,47.0,0.4835164835164835,118.04318525076596,9711.400786255872,0.0,0.0,0.0,0.0,62619.0,62637.0,62737.0,62750.0,62760.0,62781.0,62821.0,62855.0,62989.0,63073.0,0.07701031853508014,-0.21125937414020293,0.05040940846603055,-0.08797394678841101,0.012490379765395005
68,68,63535.53300264146,3880.4415666329214,9.93461815012704,63652.84932180029,-6626.483785156149,5.095930801728113,63675.44326428733,46012.03658733834,9.79334379883904,63735.62081454368,-442.439292742142,4.785134619987168,63933.26017299569,9634.03952440392,37.69138626548607,0.9760449415316912,120.0,95.0,96.0,237.0,333.0,25.0,909.0,906.0,28.0,14.0,14.0,0.5,229.16860631369056,3363.085193703526,12.0,10.0,2.0,0.8333333333333334,1396.006918496985,15435.70530720216,21.0,10.0,11.0,0.4761904761904761,2332.379352900761,51314.17134775859,5.0,2.0,3.0,0.4,124.18574855004113,1070.239675931837,98.0,50.0,48.0,0.5102040816326531,110.40486349678528,10169.915494187302,0.0,0.0,0.0,0.0,63523.0,63548.0,63643.0,63654.0,63665.0,63686.0,63734.0,63739.0,63889.0,63976.0,0.05905735272095369,-0.21067084199679953,0.050690635014025626,-0.28068426694285,0.011459872384488302
69,69,64470.246609001435,4384.105907312501,12.027817132891338,64587.84932180029,-6040.728432039198,5.095930801728113,64610.69751817658,45671.223047707455,9.805620127312936,64605.5493540688,1749.9614084350362,176.19709126044003,64872.07729663924,10323.894129191354,39.22464393114999,0.9860393538647356,125.0,94.0,389.0,-51.0,338.0,31.0,934.0,936.0,41.0,15.0,26.0,0.3658536585365853,224.1693979858108,6066.301127400795,8.0,7.0,1.0,0.875,1378.6589346597823,16870.621212768856,22.0,11.0,11.0,0.5,2211.5416673135032,51004.33782171036,23.0,7.0,16.0,0.3043478260869565,2294.3380153157837,57782.51681620857,97.0,49.0,48.0,0.5051546391752577,176.2621137379702,11946.427594567504,0.0,0.0,0.0,0.0,64456.0,64487.0,64581.0,64589.0,64600.0,64622.0,64256.0,64970.0,64823.0,64919.0,0.051132295324322764,-0.22822726599453863,0.04842308831982364,1.3110792068080948,0.01707321980758983
70,70,66139.82194810128,4144.730089367666,11.126540028848524,66260.27398270041,-5477.823198561953,6.988018218394651,66283.02129540838,46808.4053486775,10.058751216987664,66361.84932180027,-366.6908189228314,1.974360646404699,66539.17072779276,10100.382685208162,38.53206783789414,0.9794565879917037,125.0,99.0,112.0,220.0,332.0,26.0,1670.0,1672.0,29.0,14.0,15.0,0.4827586206896552,257.7305100004459,3773.512440819005,10.0,8.0,2.0,0.8,1305.1423104801129,14959.229104901086,22.0,11.0,11.0,0.5,2303.238757602918,51291.77584454819,5.0,3.0,2.0,0.6,117.84842569706456,387.1308691811949,98.0,50.0,48.0,0.5102040816326531,96.68192482079507,10255.72416325326,0.0,0.0,0.0,0.0,66127.0,66153.0,66252.0,66262.0,66272.0,66294.0,66359.0,66364.0,66500.0,66584.0,0.062182700548243944,-0.23825929811366328,0.04920566595776997,-0.32138362788370023,0.009572105120569748
71,71,67017.972626301,4150.4585415769825,11.557189673966228,67140.84932180027,-5570.40627633595,5.095930801728113,67163.76836802663,46213.20315716181,9.829422828168596,67224.76996563321,-849.7398643619887,7.64389620259217,67423.70231529964,10136.989688403,35.43679064715603,0.9837711061725796,124.0,96.0,95.0,238.0,333.0,28.0,879.0,881.0,30.0,11.0,19.0,0.3666666666666666,223.09892640484972,5438.320602055579,11.0,9.0,2.0,0.8181818181818182,1366.145280714883,15242.315163192156,22.0,11.0,11.0,0.5,2257.1139252752014,49960.79885325177,13.0,10.0,3.0,0.7692307692307693,137.2710219772309,1408.8010338735903,89.0,44.0,45.0,0.4943820224719101,121.75459372550291,10218.02628606667,0.0,0.0,0.0,0.0,67008.0,67036.0,67132.0,67142.0,67153.0,67175.0,67216.0,67227.0,67381.0,67465.0,0.05375283819124294,-0.24525056395231074,0.04884132176683816,-0.16154475944270108,0.012010922124621827
72,72,67872.13656047446,3317.8828881963577,8.82309574676313,67992.27398270041,-5351.664890488392,7.64389620259217,68015.02836632186,43660.23517459065,9.55728520354627,68091.84932180027,-1191.7786718318414,5.095930801728113,68271.44365284636,9829.308842481414,37.200692159419354,0.9739241208279504,123.0,106.0,121.0,210.0,331.0,17.0,854.0,850.0,27.0,12.0,15.0,0.4444444444444444,232.34461500677483,3236.04743098915,11.0,9.0,2.0,0.8181818181818182,1187.9371232777853,11781.252136868345,21.0,10.0,11.0,0.4761904761904761,2302.0214695664836,47411.30215202391,16.0,3.0,13.0,0.1875,142.51166886305057,1262.9531177466567,95.0,48.0,47.0,0.5052631578947369,115.05824119663156,10312.256091753929,0.0,0.0,0.0,0.0,67861.0,67878.0,67984.0,67994.0,68005.0,68026.0,68089.0,68105.0,68232.0,68315.0,0.07002797351086743,-0.22197524463632368,0.05272581469983039,-0.11957897236405554,0.011705628853512048
73,73,68719.54796540085,3675.9490111260016,8.331776156184961,68843.69864360057,-6431.085583249877,8.145508739236798,68866.23981089532,46012.7565398661,9.645171733508567,68950.8091282968,-1606.0860345026722,25.167333819597903,69125.64121487051,9620.967237927149,33.720270457093896,0.982646061884766,124.0,99.0,138.0,194.0,332.0,25.0,848.0,853.0,27.0,10.0,17.0,0.3703703703703703,218.08349592192187,4816.8409236500265,12.0,10.0,2.0,0.8333333333333334,1433.042056988748,14322.476593221418,21.0,10.0,11.0,0.4761904761904761,2340.3467593738005,50862.63787565488,70.0,47.0,23.0,0.6714285714285714,134.9978491265961,1555.5108108030415,83.0,41.0,42.0,0.4939759036144578,146.63973464829107,9986.876887215643,0.0,0.0,0.0,0.0,68711.0,68736.0,68835.0,68846.0,68856.0,68877.0,68939.0,68973.0,69086.0,69167.0,0.05932712756946523,-0.2228305063644599,0.05086299833712616,-0.08405393374110151,0.015241683192747761
74,74,69625.972626301,3830.932257382127,10.274128499291493,69749.27398270041,-6275.952152984345,7.643896202393172,69770.84953067664,44404.42127991811,9.759067095489671,69851.972626301,-1753.5654156639418,17.835757806043024,70031.56810488469,10047.25039172617,35.123967091917045,0.982790752941616,123.0,96.0,120.0,216.0,336.0,27.0,906.0,904.0,30.0,10.0,20.0,0.3333333333333333,212.80013094510656,4954.37668922378,12.0,10.0,2.0,0.8333333333333334,1362.7792721473306,14856.048340251507,21.0,10.0,11.0,0.4761904761904761,2227.332768297937,48560.46692812325,55.0,12.0,43.0,0.2181818181818181,140.9164484618048,1773.2102293028036,87.0,43.0,44.0,0.4942528735632184,134.14004992571785,9925.190848384604,0.0,0.0,0.0,0.0,69616.0,69643.0,69739.0,69751.0,69761.0,69782.0,69842.0,69859.0,69990.0,70075.0,0.05554787102670509,-0.21714303087847808,0.05016015757208501,-0.08035996102743077,0.01335092136612631
75,75,70460.12330450071,3492.326302519386,6.074172785516702,70582.972626301,-5217.996569438354,10.916554635350204,70607.48658356993,44699.4013159955,9.194000114958746,70678.7672007033,-2261.2293834122047,22.59468151352541,70865.42584803066,9237.015485158694,33.492144358295015,0.975540578070138,120.0,102.0,157.0,177.0,334.0,18.0,835.0,836.0,22.0,7.0,15.0,0.3181818181818182,228.86969169228095,4671.367175713361,15.0,10.0,5.0,0.6666666666666666,1007.250461953884,8152.760950122552,20.0,9.0,11.0,0.45,2355.268219577795,48457.996505604424,86.0,33.0,53.0,0.3837209302325581,139.29154035185746,1712.8959817465684,85.0,42.0,43.0,0.4941176470588235,112.46725612130234,9139.34834905355,0.0,0.0,0.0,0.0,70453.0,70471.0,70573.0,70588.0,70598.0,70618.0,70646.0,70730.0,70829.0,70907.0,0.06553502504252622,-0.1930339448387757,0.052691269910475784,-0.06159991612247048,0.012175713714240907
76,76,71356.32663457416,4358.839560070317,13.008237260615733,71474.27398270041,-6225.760521509379,7.523222498197119,71497.17708099433,46163.111595546194,9.97671895225917,71535.1751743586,1430.2889637827611,149.03370367917455,71756.92261901517,9938.056176132495,40.08744389521774,0.9867143076461952,126.0,95.0,394.0,-58.0,336.0,31.0,894.0,890.0,42.0,16.0,26.0,0.3809523809523809,222.666869735147,4886.211007196343,9.0,7.0,2.0,0.7777777777777778,1334.9704316987247,14668.422645552368,22.0,11.0,11.0,0.5,2275.237183532758,53135.575532676274,74.0,59.0,15.0,0.7972972972972973,236.33179433102947,2010.5158967765324,97.0,50.0,47.0,0.5154639175257731,119.78774973078774,10821.849688231689,0.0,0.0,0.0,0.0,71341.0,71372.0,71467.0,71476.0,71486.0,71508.0,71228.0,71861.0,71708.0,71803.0,0.05108397927166535,-0.21442688440818364,0.04928691123481963,0.16523359986361794,0.012053438580722983
77,77,72239.39728720114,4334.276916151134,10.346614697894472,72359.69864360057,-5459.139946966142,8.060159878278716,72382.32751000558,43895.16444284509,9.703492027431809,72440.1502432065,-1249.7990630419113,6.839252052711387,72640.98985104825,10243.81794044773,37.721923649076516,0.9798566929073006,123.0,97.0,96.0,238.0,334.0,26.0,884.0,884.0,28.0,12.0,16.0,0.4285714285714285,264.0354682720169,4974.218542105167,11.0,9.0,2.0,0.8181818181818182,1286.151103394029,14109.944701713745,21.0,10.0,11.0,0.4761904761904761,2306.5608443706583,48643.88259303146,15.0,8.0,7.0,0.5333333333333333,139.03949238788456,1350.9909244514008,100.0,51.0,49.0,0.51,127.92962505989053,10361.96783712834,0.0,0.0,0.0,0.0,72228.0,72254.0,72351.0,72362.0,72372.0,72393.0,72432.0,72447.0,72600.0,72685.0,0.06091799702232272,-0.23559592094882886,0.052547037325124495,-0.11124947721554017,0.012488471173893106
78,78,73056.10802955578,3350.914399633166,7.105876542888593,73178.69864360057,-7625.261486172656,9.41345342456983,73200.41684175827,45312.688648152805,9.897028340281768,73264.64389620257,-1871.2666961656048,45.863377215552966,73463.38347749642,8804.4652347989,31.187560780915764,0.9758242707837852,122.0,104.0,166.0,165.0,331.0,18.0,818.0,820.0,18.0,10.0,8.0,0.5555555555555556,257.2196307239771,3949.9694203324257,32.0,30.0,2.0,0.9375,1480.422982844823,15487.183839983563,21.0,10.0,11.0,0.4761904761904761,2357.8122793726207,49980.51325562708,97.0,26.0,71.0,0.268041237113402,125.1640262416433,2793.689634125015,83.0,46.0,37.0,0.5542168674698795,116.01170484074125,8874.402018855631,0.0,0.0,0.0,0.0,73046.0,73064.0,73168.0,73181.0,73190.0,73211.0,73239.0,73334.0,73421.0,73499.0,0.07676102700568407,-0.19414717587447497,0.0520342612569457,-0.06688732637529206,0.01317646236845991
79,79,73955.39728720114,4074.854593939614,11.572778748108131,74075.27398270041,-5808.013058812877,7.413596449609031,74097.8339974492,46523.75965826974,10.045547439692209,74168.52059170186,-926.499549942238,15.195004871470177,74356.44328039857,9811.235244626923,39.212716401922414,0.9845144097336708,123.0,96.0,113.0,223.0,336.0,27.0,898.0,897.0,31.0,12.0,19.0,0.3870967741935484,223.4103452304181,4258.451910032819,11.0,9.0,2.0,0.8181818181818182,1353.128993551697,14763.4537936975,22.0,11.0,11.0,0.5,2281.8863196167836,50984.220121251645,59.0,20.0,39.0,0.3389830508474576,103.90460822394944,451.3726325357056,94.0,47.0,47.0,0.5,117.54075069290415,10434.074151787783,0.0,0.0,0.0,0.0,73944.0,73971.0,74067.0,74077.0,74087.0,74109.0,74150.0,74180.0,74311.0,74403.0,0.054826580944185924,-0.23297623126010472,0.049047762613724434,-0.11214749994258205,0.011980219387489948
80,80,74807.54796540085,3092.7583994979304,6.782666816432252,74929.69864360057,-5784.54732376013,9.51977367942798,74952.16593804074,44185.639384333575,9.442644245479975,75014.24660900142,-1585.4618281279866,15.344126315682876,75211.68483389584,9864.316911099086,35.58945623323775,0.969157987271854,120.0,106.0,132.0,202.0,334.0,14.0,853.0,854.0,16.0,10.0,6.0,0.625,272.5664972663868,3584.6572252941214,13.0,11.0,2.0,0.8461538461538461,1272.5701986461006,13332.704516401493,21.0,10.0,11.0,0.4761904761904761,2340.306227314386,48059.6502044995,51.0,14.0,37.0,0.2745098039215686,113.04753064882502,1972.4440318217312,92.0,51.0,41.0,0.5543478260869565,137.29669931321956,9786.932158630792,0.0,0.0,0.0,0.0,74799.0,74813.0,74919.0,74932.0,74943.0,74963.0,75000.0,75051.0,75163.0,75253.0,0.08813054951548575,-0.21999477701893735,0.05296531316335694,-0.07130258745005827,0.013918520719740533
81,81,75624.54796540085,3441.4613102076637,6.944748078282889,75748.27398270041,-7442.551048362977,7.64389620259217,75770.76325306653,45215.94494935337,9.745728910700535,75855.93240022473,-1917.9748657933776,26.64116443761263,76031.10949479598,9557.652325444264,34.39596619485096,0.974916331279122,122.0,105.0,141.0,192.0,333.0,17.0,817.0,819.0,20.0,9.0,11.0,0.45,224.6879399164071,4117.3795954979305,13.0,10.0,3.0,0.7692307692307693,1339.5083771163002,12474.347900769846,21.0,10.0,11.0,0.4761904761904761,2286.286835487614,48920.83665867433,75.0,37.0,38.0,0.4933333333333333,133.0970046112484,1634.4242829221723,91.0,50.0,41.0,0.5494505494505495,126.00629923366824,9805.856077814464,0.0,0.0,0.0,0.0,75616.0,75633.0,75738.0,75750.0,75761.0,75782.0,75819.0,75879.0,75988.0,76071.0,0.06528852707132396,-0.17997973657311106,0.05056373007461188,-0.0693945509844793,0.013183812817527986
82,82,76526.39728720114,4191.292443670283,12.144168987639215,76647.27398270041,-5761.353236566576,7.115699907894902,76669.02233320304,45708.75551539696,9.768384681298064,76736.09593080172,-1910.83678495264,15.17625720826394,76930.07602686774,10303.944838602669,35.321385446954594,0.9844129166142164,123.0,95.0,118.0,215.0,333.0,28.0,901.0,898.0,30.0,12.0,18.0,0.4,279.8788064568079,5374.69497320625,11.0,9.0,2.0,0.8181818181818182,1395.4471715164198,15784.485653304868,21.0,10.0,11.0,0.4761904761904761,2281.8186158446906,49883.47466388394,58.0,18.0,40.0,0.3103448275862069,141.2763642972345,1790.9321178482032,88.0,45.0,43.0,0.5113636363636364,119.35922580354811,10734.055962903236,0.0,0.0,0.0,0.0,76515.0,76543.0,76638.0,76649.0,76659.0,76680.0,76719.0,76756.0,76889.0,76971.0,0.06677625343931386,-0.24220823029209423,0.04992082129814411,-0.07393429172483511,0.011583837809028349
83,83,77358.54796540085,2674.797487980128,6.772928740126601,77480.69864360057,-6232.646481111305,9.161011905394083,77503.01915554125,44052.980478676705,9.402555413036447,77588.08390407085,-2745.1635438043595,29.36851272205026,77762.92940762592,9198.036368835805,31.69999467411902,0.974504305587966,120.0,106.0,142.0,191.0,333.0,14.0,833.0,833.0,25.0,10.0,15.0,0.4,250.50320849244545,2877.5865824784114,15.0,12.0,3.0,0.8,1336.244713524061,13403.508082161565,21.0,10.0,11.0,0.4761904761904761,2362.68974767691,47579.27363187571,91.0,47.0,44.0,0.5164835164835165,158.0058635572624,1864.9027650125413,84.0,43.0,41.0,0.5119047619047619,135.68733043897456,9184.052938141318,0.0,0.0,0.0,0.0,77350.0,77364.0,77470.0,77483.0,77493.0,77514.0,77542.0,77612.0,77723.0,77803.0,0.09365314930126273,-0.21439443382096066,0.053632914776800183,-0.057557905398339736,0.014751771464907623
84,84,78237.54796540084,4320.7828446599215,8.96331898390179,78359.12330450071,-5516.455103412116,8.273665168593666,78383.80777001822,46574.18867556566,9.655936411504149,78458.6115962264,-1310.4862956743557,17.053148586668808,78643.78777354425,10122.758117006071,38.33582369320911,0.9800290538659614,123.0,103.0,122.0,215.0,337.0,20.0,879.0,882.0,27.0,10.0,17.0,0.3703703703703703,236.1933612463258,5053.602590674779,11.0,7.0,4.0,0.6363636363636364,1103.9853281650328,9555.939009731075,22.0,11.0,11.0,0.5,2320.8485092669785,50717.428289162475,48.0,32.0,16.0,0.6666666666666666,113.28752178327252,930.0667635266724,90.0,42.0,48.0,0.4666666666666667,137.20244158501512,10668.262022006053,0.0,0.0,0.0,0.0,78229.0,78249.0,78352.0,78363.0,78373.0,78395.0,78428.0,78474.0,78604.0,78689.0,0.054664483205453945,-0.20012586116801354,0.04983121714548667,-0.08644693359801717,0.013553859531081477
85,85,79185.82194810128,4184.578623799966,10.852164977278871,79301.69864360057,-4358.992209100148,9.501104395477723,79327.20755869483,44156.311602612965,9.45724547147312,79376.96479027977,1813.6941155433951,128.29428920467197,79586.23283045078,10385.215047661588,38.50340879749988,0.9812582480183372,123.0,95.0,370.0,-32.0,338.0,28.0,947.0,942.0,32.0,14.0,18.0,0.4375,241.7149015944533,4833.662843713141,10.0,6.0,4.0,0.6,908.4435032204752,9716.372534092568,21.0,10.0,11.0,0.4761904761904761,2247.92133962162,49551.208301434,81.0,71.0,10.0,0.8765432098765432,175.46342452293473,513.2890729857802,103.0,54.0,49.0,0.5242718446601942,160.52999593605247,10962.88469623224,0.0,0.0,0.0,0.0,79173.0,79201.0,79296.0,79306.0,79317.0,79338.0,79306.0,79666.0,79537.0,79634.0,0.05776325965527082,-0.20840677377765043,0.05090826787916314,0.09674366973968193,0.01545755145168598
86,86,80144.82194810128,4408.541625178873,11.117258161401862,80262.27398270041,-5905.316301844959,6.988868473672327,80284.8621085141,46398.42511711394,10.053396733651388,80346.15067819973,-281.0456605548384,2.6330344210296976,80545.74871919925,9655.953230419838,39.446631750691814,0.9823614904451972,121.0,94.0,96.0,244.0,340.0,27.0,959.0,959.0,30.0,14.0,16.0,0.4666666666666667,255.90390645302716,4690.886751555427,11.0,9.0,2.0,0.8181818181818182,1337.1487757500013,14643.801305214009,22.0,11.0,11.0,0.5,2257.6319030440404,50323.63160253583,9.0,6.0,3.0,0.6666666666666666,114.9541386970598,655.2478865900013,94.0,46.0,48.0,0.4893617021276595,109.01666873827786,10201.511763024448,0.0,0.0,0.0,0.0,80132.0,80159.0,80253.0,80264.0,80274.0,80296.0,80345.0,80349.0,80503.0,80593.0,0.05804729278078305,-0.22643135564681688,0.04865751148547753,-0.40902299814954673,0.01129009908569512
87,87,81127.87320168313,4254.411626854524,12.8080150664176,81243.27398270041,-4692.309537288418,6.577930413179082,81266.35810007535,46064.558752311605,9.929836705852315,81344.94654420338,-770.114085456251,3.0667522069948423,81527.56152939511,10379.606528291582,40.50667809177941,0.98252879498639,122.0,96.0,113.0,227.0,340.0,26.0,983.0,981.0,29.0,15.0,14.0,0.5172413793103449,228.1641072740109,3703.6130920521673,10.0,8.0,2.0,0.8,1263.2497333751414,14063.973270433253,21.0,10.0,11.0,0.4761904761904761,2242.303800523149,50807.836038099056,7.0,3.0,4.0,0.4285714285714285,133.15612848712502,772.1211890901529,103.0,54.0,49.0,0.5242718446601942,121.28496505142702,11291.455245423867,0.0,0.0,0.0,0.0,81114.0,81140.0,81236.0,81245.0,81256.0,81277.0,81342.0,81349.0,81484.0,81576.0,0.05363000275615145,-0.2692170504389072,0.04867741841574953,-0.17290441897090766,0.01168492897306289
88,88,81998.972626301,4085.990884082278,8.718857272918312,82120.27398270041,-5989.618316683845,7.64389620259217,82142.21828287833,43236.5499939198,9.312271232935146,82207.64389620257,-2054.8486652634665,22.966574820704956,82405.95881659626,9958.176972187077,33.228069793079,0.979987775316358,121.0,95.0,139.0,194.0,333.0,26.0,872.0,876.0,26.0,10.0,16.0,0.3846153846153846,252.94087671198136,5179.743103576167,13.0,11.0,2.0,0.8461538461538461,1236.3239504975645,12549.279123023614,20.0,9.0,11.0,0.45,2385.882251690456,47170.91368517293,88.0,29.0,59.0,0.3295454545454545,130.6284189593192,1787.3173086382603,85.0,47.0,38.0,0.5529411764705883,122.39782619496546,10301.288761458232,0.0,0.0,0.0,0.0,81989.0,82015.0,82110.0,82122.0,82133.0,82153.0,82182.0,82249.0,82360.0,82443.0,0.06190441532734657,-0.20641114093260887,0.0551820682275985,-0.06357082210848379,0.01229118808962919
89,89,82852.54796540085,3849.748992980192,8.834134803199444,82973.12330450071,-4860.734124303132,7.884989847946265,82998.14048719115,46608.17850412842,9.691368608662712,83067.52059170186,-1262.978002475067,14.258611897402517,83255.15952209047,9474.384521866732,37.47614268930128,0.9811037116700684,122.0,96.0,119.0,217.0,336.0,26.0,854.0,856.0,26.0,9.0,17.0,0.3461538461538461,231.33307913789875,5434.199628965851,11.0,7.0,4.0,0.6363636363636364,1023.597463793133,9291.26254871632,22.0,11.0,11.0,0.5,2273.6628133791132,50712.919792584406,56.0,24.0,32.0,0.4285714285714285,100.26212004746442,952.0744258225824,90.0,43.0,47.0,0.4777777777777778,135.87868157197627,9888.643918031288,0.0,0.0,0.0,0.0,82844.0,82870.0,82966.0,82977.0,82987.0,83009.0,83049.0,83085.0,83213.0,83302.0,0.06009043175534874,-0.21058495231723517,0.048782485957431676,-0.07938548403137667,0.014341689558658971
90,90,83770.972626301,4315.547337753067,12.165546869477692,83892.69864360057,-5629.093612437681,7.98999798503684,83915.42507187022,45482.929875211776,9.750881083080266,83989.7227263702,-1167.6289755030298,14.865921304043006,84175.13271778668,9690.693376811709,37.433915155866195,0.9835355514907984,123.0,95.0,122.0,212.0,334.0,28.0,918.0,918.0,30.0,11.0,19.0,0.3666666666666666,211.54432729550456,5403.772534683685,12.0,10.0,2.0,0.8333333333333334,1351.0918195902902,15040.988463767391,21.0,10.0,11.0,0.4761904761904761,2317.162194181153,50787.9178971868,38.0,22.0,16.0,0.5789473684210527,109.37431074237216,1187.6536317166067,91.0,45.0,46.0,0.4945054945054945,146.62047714068666,10020.54009233123,0.0,0.0,0.0,0.0,83761.0,83789.0,83884.0,83895.0,83905.0,83926.0,83979.0,84006.0,84134.0,84218.0,0.049019118721021195,-0.24001942632558199,0.05094575482579032,-0.09367214503669907,0.015130029548920223
91,91,84629.54796540085,3428.8707853687474,7.861294806810134,84751.972626301,-5547.297302153579,9.804603193295751,84775.42106661148,43651.11383836346,9.177635969435086,84838.39728720114,-2223.7720404077754,17.33950307346177,85034.98852550662,9779.73188065248,35.52429822158307,0.9782643657091276,121.0,107.0,128.0,210.0,338.0,14.0,859.0,859.0,16.0,10.0,6.0,0.625,249.6793335733179,3785.475478945547,14.0,10.0,4.0,0.7142857142857143,1102.3092679038796,9322.968137534455,20.0,9.0,11.0,0.45,2404.4681032492713,47794.184410960865,71.0,25.0,46.0,0.352112676056338,156.89771958057042,2176.378909031335,92.0,47.0,45.0,0.5108695652173914,97.75763926498306,9644.017904490172,0.0,0.0,0.0,0.0,84621.0,84635.0,84742.0,84756.0,84766.0,84786.0,84827.0,84870.0,84992.0,85080.0,0.07281678115101876,-0.1987110493385562,0.05508377431450712,-0.07055476763337663,0.009995942675931613
92,92,85499.972626301,4121.54849991795,9.66961360205943,85624.27398270041,-6048.280041208097,7.272074531768669,85646.86930737246,46693.31837632119,9.970875824434597,85713.12330448456,-672.6627297842115,10.349826597234175,85906.39821225533,9724.48876917456,37.15116272574765,0.9845104535134408,125.0,106.0,101.0,235.0,336.0,19.0,870.0,872.0,29.0,11.0,18.0,0.3793103448275862,258.6877056726765,4736.348726183459,11.0,9.0,2.0,0.8181818181818182,1346.056879362183,14346.545566031093,22.0,11.0,11.0,0.5,2279.088606223261,50698.39270951906,19.0,16.0,3.0,0.8421052631578947,116.7404400301478,787.4071214151159,93.0,46.0,47.0,0.4946236559139785,139.62012886544733,10257.631945945775,0.0,0.0,0.0,0.0,85490.0,85509.0,85615.0,85626.0,85636.0,85658.0,85705.0,85716.0,85863.0,85951.0,0.06276468799962595,-0.22255200985920598,0.04880973735589154,-0.17354973727710146,0.014357580349933258
93,93,86628.9102986303,5298.482941063104,16.747420880630706,86747.69864360057,-4440.468248349741,8.432333589176832,86773.47643898564,45484.1067657533,9.455656568621412,86850.3979727574,-705.4264540917745,13.121233374306106,87042.2601729957,9663.851634058474,40.429500396042826,0.976053049120647,137.0,91.0,119.0,224.0,343.0,46.0,1132.0,1126.0,46.0,24.0,22.0,0.5217391304347826,131.8999678635479,5120.598110147481,10.0,6.0,4.0,0.6,930.4916640179548,7477.607759397033,21.0,10.0,11.0,0.4761904761904761,2316.6534349307476,49650.41951195155,18.0,6.0,12.0,0.3333333333333333,107.81271738887936,867.5893599447238,94.0,51.0,43.0,0.5425531914893617,132.5751845221706,10571.273003562652,0.0,0.0,0.0,0.0,86605.0,86651.0,86742.0,86752.0,86763.0,86784.0,86844.0,86861.0,86991.0,87085.0,0.02489391196135154,-0.20954809537569904,0.050933251187314586,-0.15283339143793032,0.013718669278296208
94,94,87629.71593363599,3770.080649221936,7.764483992363502,87747.69864360057,-6687.756624698722,7.90523808640407,87769.95696413226,45687.73834732336,9.914242978022198,87827.69864360057,-1174.5020768704671,10.191861603456228,88032.63788268523,9052.038544713843,34.94937599074672,0.9826587161355028,118.0,102.0,104.0,233.0,337.0,16.0,998.0,997.0,24.0,11.0,13.0,0.4583333333333333,262.6897261093111,4093.201164248966,13.0,11.0,2.0,0.8461538461538461,1433.704383882853,15503.00160790023,21.0,10.0,11.0,0.4761904761904761,2270.7690057557797,50014.13604861164,20.0,6.0,14.0,0.3,132.06441688541625,1418.9505406879705,88.0,45.0,43.0,0.5113636363636364,119.84582302775917,9268.497642630997,0.0,0.0,0.0,0.0,87620.0,87636.0,87738.0,87750.0,87760.0,87781.0,87822.0,87842.0,87992.0,88075.0,0.06967748187655472,-0.21437747578732208,0.04970193509017971,-0.11244289770632845,0.01323965010044572
95,95,88623.65881534158,3218.076750366886,7.567613371801994,88739.69864360057,-6147.635581170896,9.078638172397325,88761.75121225472,43765.16231572929,9.60483564410124,88827.67126990156,-1645.1701350034348,16.59635375125657,89022.97424321555,9996.73054910547,34.78352885700071,0.977352780248442,115.0,95.0,119.0,219.0,338.0,20.0,994.0,992.0,24.0,12.0,12.0,0.5,210.5761261168809,2723.6518062600635,14.0,12.0,2.0,0.8571428571428571,1360.2938735103066,14623.816012711395,21.0,10.0,11.0,0.4761904761904761,2232.813595911515,47397.40251414331,103.0,26.0,77.0,0.2524271844660194,105.19732249010168,1168.9811517952166,90.0,45.0,45.0,0.5,139.1631446165798,10130.916305399363,0.0,0.0,0.0,0.0,88614.0,88634.0,88729.0,88742.0,88752.0,88773.0,88812.0,88848.0,88982.0,89067.0,0.06543539587515232,-0.22127106520052076,0.051018058148707864,-0.063943126763532,0.013920865820378887
96,96,89469.67233981726,3493.6515266828387,7.921336364584458,89585.12330450071,-5157.60690576091,12.739827004320285,89611.36039320735,44543.42552262099,9.158818695118894,89673.82194810128,-2015.642512207436,16.099344968516057,89868.54873921773,9329.179405132125,33.334627214299516,0.9738416501583008,118.0,101.0,153.0,178.0,331.0,17.0,846.0,848.0,25.0,11.0,14.0,0.44,246.01721449274905,3464.3230282263876,13.0,7.0,6.0,0.5384615384615384,832.8201272622772,4725.905372551842,20.0,9.0,11.0,0.45,2341.917193046668,48115.07054932037,76.0,14.0,62.0,0.1842105263157894,136.28028769808222,2551.2321620173648,87.0,43.0,44.0,0.4942528735632184,149.76114774719855,9615.361533654886,0.0,0.0,0.0,0.0,89460.0,89477.0,89578.0,89591.0,89602.0,89622.0,89661.0,89731.0,89830.0,89909.0,0.07041836102249674,-0.16147413761448923,0.05257604608467631,-0.06761133825701786,0.016052981858705885
97,97,90334.39728720114,3767.562740359921,10.306288971457274,90455.2739827004,-5529.704017833187,7.246385343171932,90478.36926094048,46498.69788455129,9.889729525515628,90554.2739827004,-1134.1287862934971,7.64389620259217,90737.8716189556,10162.712440787933,36.58250517630794,0.9826958314442552,124.0,96.0,118.0,216.0,334.0,28.0,864.0,869.0,30.0,12.0,18.0,0.4,223.4177718928123,4361.123252792184,10.0,8.0,2.0,0.8,1299.3478921970673,13184.81252796928,21.0,10.0,11.0,0.4761904761904761,2305.1714879924766,51791.169427263085,16.0,4.0,12.0,0.25,118.73810677201078,1197.7316235781457,88.0,43.0,45.0,0.4886363636363636,125.30518167454376,10816.544453080489,0.0,0.0,0.0,0.0,90323.0,90351.0,90447.0,90457.0,90468.0,90489.0,90550.0,90565.0,90696.0,90781.0,0.05930034541945514,-0.23497602909788584,0.049574968609139174,-0.10469543512784356,0.012329895429455704
98,98,91240.972626301,3678.591922954496,7.973158549989412,91361.12330450072,-4306.199616486437,9.115732245444558,91385.72193216134,44711.46660639701,9.271120641636326,91462.66772809062,-1868.9448609154233,21.80686782669261,91645.10949479598,10058.418149854562,33.944246328008354,0.9735498265630176,123.0,99.0,120.0,211.0,331.0,24.0,907.0,906.0,25.0,10.0,15.0,0.4,267.8241259575196,4429.500860575151,11.0,7.0,4.0,0.6363636363636364,942.5257811240116,8837.430021253695,21.0,11.0,10.0,0.5238095238095238,2284.967375927638,47266.8784935183,52.0,41.0,11.0,0.7884615384615384,137.8406431462806,1746.148176076125,85.0,44.0,41.0,0.5176470588235295,119.19283068807977,10532.280719382628,0.0,0.0,0.0,0.0,91231.0,91255.0,91354.0,91365.0,91376.0,91396.0,91422.0,91474.0,91603.0,91685.0,0.07280615288863411,-0.2188764723111113,0.05110472881694113,-0.07375318877987937,0.011850057226921234
99,99,92075.972626301,3982.782748141787,9.079488169766757,92199.2739827004,-5779.553113966514,7.64389620259217,92222.06390567872,45768.397859900775,9.60557112487031,92281.54796540084,-1127.358771711853,10.334281301958688,92483.53415569612,10244.82812590911,35.126626085211385,0.979217645570855,124.0,99.0,102.0,230.0,332.0,25.0,835.0,837.0,28.0,11.0,17.0,0.3928571428571428,251.73482015796557,4834.116009104486,11.0,9.0,2.0,0.8181818181818182,1260.4478146775316,12271.674452700354,21.0,10.0,11.0,0.4761904761904761,2345.4342460174275,49554.21874880114,34.0,9.0,25.0,0.2647058823529412,119.30197537952452,1633.5404657241609,84.0,46.0,38.0,0.5476190476190477,123.58430069198906,10092.315754003745,0.0,0.0,0.0,0.0,92066.0,92091.0,92190.0,92201.0,92212.0,92233.0,92273.0,92292.0,92438.0,92522.0,0.0632057624221194,-0.21808741780253058,0.05124571441624224,-0.10582431997080116,0.012063091656896134
100,100,92997.54796540084,4050.998728215436,9.694621813696344,93123.2739827004,-5875.479409018381,7.194063146151052,93146.17620188462,46805.06478810348,10.192052879874351,93226.88282898144,-514.1408525857913,1.752596086052753,93402.15531074454,10249.808161468914,39.59470233138342,0.976915351006579,126.0,110.0,115.0,219.0,334.0,16.0,922.0,924.0,29.0,10.0,19.0,0.3448275862068966,252.35409451072888,5312.921597352573,10.0,8.0,2.0,0.8,1331.9089098530048,14460.94554254467,22.0,11.0,11.0,0.5,2283.9819462390433,52261.946375524225,6.0,3.0,3.0,0.5,108.11448973134154,496.7667512397288,94.0,45.0,49.0,0.4787234042553192,113.304431264846,10844.556805256516,0.0,0.0,0.0,0.0,92989.0,93005.0,93115.0,93125.0,93135.0,93157.0,93224.0,93230.0,93358.0,93449.0,0.06229429122084593,-0.22668940134631965,0.048797752050533785,-0.2102818501731511,0.011054297746837848
101,101,93941.43996243448,2971.8990515370283,8.07377465650011,94065.2739827004,-6591.633626695349,7.64389620259217,94086.42546208884,43572.89748484229,9.497617642265624,94154.79457440229,-2337.0212559927704,19.71408912809959,94346.65103670226,9845.410988665615,33.87813045784417,0.9764299099883104,124.0,108.0,116.0,219.0,335.0,16.0,944.0,940.0,25.0,11.0,14.0,0.44,259.31729200235435,3601.174323891957,13.0,11.0,2.0,0.8461538461538461,1366.2954392818262,14693.657122357818,20.0,9.0,11.0,0.45,2353.5176398223953,48564.14835828118,46.0,29.0,17.0,0.6304347826086957,132.1498338201162,2009.09657279766,88.0,44.0,44.0,0.5,117.04591560189832,10137.786874047732,0.0,0.0,0.0,0.0,93931.0,93947.0,94055.0,94067.0,94077.0,94097.0,94132.0,94171.0,94307.0,94390.0,0.08725642678483267,-0.20727721178987993,0.05401333800767126,-0.05654626952204538,0.01188837273899949
102,102,94807.12330450072,3282.617404091334,7.451610285794711,94934.2739827004,-6032.045798048378,7.64389620259217,94956.9350637271,46731.052919014895,9.776765279913574,95018.39728720114,-1261.3151063461155,13.27057355239939,95214.19904792975,9634.898139500736,35.63344497496653,0.9810669413669676,125.0,99.0,98.0,235.0,333.0,26.0,866.0,871.0,26.0,7.0,19.0,0.2692307692307692,196.96121175376803,4467.018461782349,11.0,9.0,2.0,0.8181818181818182,1309.1989055262422,13771.901885151452,21.0,10.0,11.0,0.4761904761904761,2306.323258021438,50945.7234069378,20.0,14.0,6.0,0.7,93.0014241973542,1586.96937236982,84.0,39.0,45.0,0.4642857142857143,119.93727607803206,10025.364963506276,0.0,0.0,0.0,0.0,94800.0,94826.0,94925.0,94936.0,94947.0,94968.0,95005.0,95023.0,95176.0,95258.0,0.0600012695686932,-0.217040610989695,0.04935311990547925,-0.07373369567163007,0.012448214225152878
103,103,95765.54796540084,3594.164625541835,7.289923602324434,95887.69864360055,-5408.839868998397,9.503161198549783,95910.4281496859,44711.91669418508,9.385056112086946,95993.18230063714,-1830.54761800059,26.23023630013743,96170.56122732488,10222.81164119208,35.608959842094094,0.978813663448396,121.0,105.0,132.0,203.0,335.0,16.0,958.0,953.0,24.0,9.0,15.0,0.375,252.2460920835442,4180.104016928221,12.0,10.0,2.0,0.8333333333333334,1287.5972807957214,13458.583246977218,21.0,10.0,11.0,0.4761904761904761,2320.5659235143344,49020.88113202396,34.0,17.0,17.0,0.5,133.43540652806178,2210.7465500341336,87.0,44.0,43.0,0.5057471264367817,125.8385753594183,10491.899358832074,0.0,0.0,0.0,0.0,95757.0,95773.0,95878.0,95890.0,95900.0,95921.0,95976.0,96010.0,96132.0,96213.0,0.07018211973123437,-0.23805424305048936,0.05190039021109849,-0.07289370962871,0.012309585638099882
104,104,96599.47157512956,3066.00821318386,4.863428519849648,96722.54796540084,-5181.418907887177,15.287792403568425,96746.92126179488,46725.47725996783,9.33024659893265,96809.54796540084,-1302.8559518022807,13.93158902858239,97004.68483389584,9619.085705166815,33.46224035018528,0.9669247682731348,121.0,110.0,120.0,212.0,332.0,11.0,835.0,837.0,11.0,6.0,5.0,0.5454545454545454,255.20036644639364,4544.054493968333,13.0,9.0,4.0,0.6923076923076923,1130.084884609885,9466.428877636004,21.0,10.0,11.0,0.4761904761904761,2352.563599890861,48821.75519985576,52.0,27.0,25.0,0.5192307692307693,135.78609501875766,1234.6305855038468,85.0,41.0,44.0,0.4823529411764706,117.86319535992024,9376.10242227139,0.0,0.0,0.0,0.0,96593.0,96604.0,96714.0,96727.0,96737.0,96758.0,96801.0,96834.0,96968.0,97046.0,0.08323538252410088,-0.2181033621677771,0.05034862644209791,-0.10422187873565038,0.012253055952772202
105,105,97518.24660900142,3876.263750792915,10.96162164901721,97639.2739827004,-5710.690857759072,7.64389620259217,97662.671303029,46555.50663519106,9.879594583914638,97703.24396653188,1512.7824410248368,169.68280066503834,97925.2595309617,10073.269208926406,36.75941939756739,0.9869464215487987,128.0,98.0,393.0,-56.0,337.0,30.0,916.0,915.0,34.0,14.0,20.0,0.4117647058823529,271.85789752772223,4459.142975317238,9.0,7.0,2.0,0.7777777777777778,1243.4372723324234,14042.98756520952,22.0,11.0,11.0,0.5,2259.075737612817,51350.289168870106,73.0,62.0,11.0,0.8493150684931506,226.535069176703,1703.3552309709803,92.0,47.0,45.0,0.5108695652173914,103.99085029242256,11232.514738211676,0.0,0.0,0.0,0.0,97504.0,97534.0,97632.0,97641.0,97652.0,97674.0,97482.0,98025.0,97879.0,97969.0,0.07013400403213324,-0.2177385019262555,0.04852435084242417,0.1497472888588239,0.010323445957373133
106,106,98415.972626301,3713.184553891244,9.35179671303935,98536.12330450072,-4325.201236407678,8.24745107709425,98561.3683101961,44493.608866511466,9.307248670123164,98638.87669549938,-1335.4229459230194,12.739827004320285,98818.5070884419,10239.62150949927,36.90054503146104,0.9785290340869208,123.0,108.0,117.0,217.0,334.0,15.0,899.0,899.0,26.0,11.0,15.0,0.4230769230769231,286.38655778601577,4417.265529978379,12.0,7.0,5.0,0.5833333333333334,895.4954842798251,7590.828539366168,21.0,10.0,11.0,0.4761904761904761,2333.092467957803,48187.841518192,62.0,30.0,32.0,0.4838709677419355,134.09114396513098,999.9249899698748,94.0,48.0,46.0,0.5106382978723404,117.00848502145703,10692.40923703681,0.0,0.0,0.0,0.0,98406.0,98421.0,98529.0,98541.0,98551.0,98572.0,98633.0,98646.0,98774.0,98863.0,0.07712693878517189,-0.2070413456700998,0.05243657521594808,-0.10041099291764055,0.011427032230918748
107,107,99249.12330450072,3323.429777787191,6.279658900630322,99376.2739827004,-6627.8322980631065,7.64389620259217,99398.6904187505,46326.412470739466,9.729953893707467,99462.972626301,-1439.7238750236809,15.348986580734811,99657.44633371754,9317.182803840784,33.65555041777306,0.978576550330852,124.0,111.0,125.0,205.0,330.0,13.0,834.0,838.0,15.0,8.0,7.0,0.5333333333333333,252.9621542179298,4653.812648447991,13.0,11.0,2.0,0.8461538461538461,1356.881752197103,13891.910656875709,22.0,11.0,11.0,0.5,2326.5886153880856,50096.85571527136,59.0,16.0,43.0,0.2711864406779661,124.2013864563714,1385.100890714069,79.0,37.0,42.0,0.4683544303797468,131.53558664955298,9802.996478410065,0.0,0.0,0.0,0.0,99242.0,99255.0,99366.0,99378.0,99388.0,99409.0,99453.0,99491.0,99621.0,99696.0,0.07611478837574756,-0.20472481667854409,0.05022164444219802,-0.08626750490911217,0.014117527735457826
108,108,100215.39728720114,3988.32848818507,11.834748667034464,100337.69864360055,-4772.355794610561,7.505634105247206,100360.94489218648,45976.64715506771,9.583456073918937,100425.54796540084,-1658.664111654639,13.488946389212703,100621.5248488092,9846.370317077592,36.279337654703255,0.9854430122153376,126.0,99.0,99.0,238.0,337.0,27.0,965.0,962.0,31.0,12.0,19.0,0.3870967741935484,227.58839420533803,4738.204049051291,10.0,8.0,2.0,0.8,1287.3956123098606,14294.32687763546,22.0,11.0,11.0,0.5,2259.021014363441,49790.47295158046,45.0,20.0,25.0,0.4444444444444444,136.77645942743837,1308.4363903566154,88.0,42.0,46.0,0.4772727272727273,105.99278973625442,9947.122936815704,0.0,0.0,0.0,0.0,100204.0,100231.0,100330.0,100340.0,100350.0,100372.0,100411.0,100429.0,100580.0,100667.0,0.057063603181016935,-0.26976102950323216,0.049134096419522044,-0.08246181880127244,0.010764656043092348
109,109,101073.39728719972,3630.0789252769255,8.68665370459616,101192.12330450072,-4598.526569981497,9.811910371730685,101217.71176650458,44199.330201296005,9.28345538450515,101291.6135301058,-1542.731675517204,15.287792405178648,101475.98951963974,9174.922986083146,34.477282724941894,0.97710109799893,123.0,98.0,115.0,219.0,334.0,25.0,858.0,856.0,26.0,11.0,15.0,0.4230769230769231,241.13162726801409,4206.100517702935,12.0,7.0,5.0,0.5833333333333334,908.1434627741716,6718.858407039697,20.0,10.0,10.0,0.5,2299.092411840577,46483.15445065383,34.0,22.0,12.0,0.6470588235294118,131.6098515490159,1235.1949582049544,88.0,44.0,44.0,0.5,125.056761136632,9427.390782463031,0.0,0.0,0.0,0.0,101062.0,101087.0,101185.0,101197.0,101208.0,101228.0,101271.0,101300.0,101435.0,101519.0,0.06642600126101088,-0.19748574874012864,0.052016453674068645,-0.08530961905925308,0.013630279112568314
110,110,101938.972626301,4319.751179568735,12.51081576551263,102064.84932180028,-5154.042857113084,5.095930801728113,102087.76424205248,47400.07014627911,10.178703998653308,102165.58750898032,-329.9079301547338,0.6511489557682247,102348.2601729957,10138.103162864996,39.81213386527413,0.9767456701645986,127.0,97.0,111.0,224.0,335.0,30.0,866.0,871.0,30.0,10.0,20.0,0.3333333333333333,257.81990359161483,6451.682026738702,10.0,9.0,1.0,0.9,1394.7718560184255,16870.298212058286,22.0,11.0,11.0,0.5,2273.1089872372877,51394.604116424896,3.0,2.0,1.0,0.6666666666666666,90.99966627831272,159.29453820039907,93.0,47.0,46.0,0.5053763440860215,133.47191604640722,11143.808780042862,0.0,0.0,0.0,0.0,101929.0,101959.0,102056.0,102066.0,102077.0,102099.0,102164.0,102167.0,102306.0,102391.0,0.059683970875691605,-0.2706170465954709,0.047955814837875844,-0.2758335219030108,0.013165373630769849
111,111,102881.12330450072,3377.507470931922,6.556193305645687,103005.69864360055,-5585.8445330959985,9.108055373097931,103028.10563234548,44436.00681478391,9.3319974010872,103096.24660900142,-1833.0484982980768,17.06820265416861,103288.68483389584,9726.752327509112,34.52672499976283,0.9780668971198624,122.0,105.0,125.0,209.0,334.0,17.0,943.0,940.0,18.0,8.0,10.0,0.4444444444444444,228.0415736383924,4854.194400963099,13.0,11.0,2.0,0.8461538461538461,1331.844508246093,13801.973101833752,21.0,10.0,11.0,0.4761904761904761,2350.4564061266897,48064.18009220222,66.0,21.0,45.0,0.3181818181818182,107.29027570068902,1859.3765984702388,91.0,49.0,42.0,0.5384615384615384,109.31559656705934,9549.504797303856,0.0,0.0,0.0,0.0,102874.0,102891.0,102996.0,103008.0,103018.0,103039.0,103082.0,103121.0,103245.0,103330.0,0.06751771109346241,-0.2384320760012108,0.05289531113638884,-0.05853106221701412,0.011238653240701316
112,112,103727.39728720114,3735.3776119685294,8.99231591428061,103848.12330450072,-4924.909847303175,8.462280106620817,103873.465531638,45793.44583185972,9.464748965044611,103933.12330450072,-1316.3328007653288,11.069291916702827,104131.7406257073,9439.89456440873,34.49524200266407,0.978108096759551,125.0,99.0,96.0,234.0,330.0,26.0,845.0,845.0,27.0,11.0,16.0,0.4074074074074074,211.13038137925017,4118.275632546976,12.0,7.0,5.0,0.5833333333333334,970.2686251601812,7548.5686803677745,21.0,10.0,11.0,0.4761904761904761,2320.147108844429,50364.535881995034,14.0,7.0,7.0,0.5,165.49585035768823,1638.1701920610017,82.0,41.0,41.0,0.5,133.15355936824145,9826.697869606094,0.0,0.0,0.0,0.0,103716.0,103742.0,103841.0,103853.0,103863.0,103884.0,103926.0,103937.0,104095.0,104171.0,0.05652183080574424,-0.19701246423657667,0.0506654842564881,-0.1257249308544673,0.014105407476718098
113,113,104682.82194810128,3729.3843939237345,12.150982087145936,104803.2739827004,-4886.471908963777,7.413817217182526,104827.78328580038,46112.72392574173,9.624658485759578,104861.2325535862,2206.7938561115584,178.35390760525976,105089.85399925848,9816.236213853668,39.07296454143785,0.9868693558921352,129.0,97.0,409.0,-72.0,337.0,32.0,955.0,955.0,49.0,15.0,34.0,0.3061224489795918,255.91551853294192,5431.348076183249,6.0,4.0,2.0,0.6666666666666666,1086.9940235842596,12022.4467648041,22.0,11.0,11.0,0.5,2299.7413542144163,52072.17078491586,74.0,54.0,20.0,0.7297297297297297,412.2270166642187,2336.887339728769,103.0,56.0,47.0,0.5436893203883495,114.40410989841229,11079.177300213512,0.0,0.0,0.0,0.0,104670.0,104702.0,104799.0,104805.0,104817.0,104839.0,104806.0,105208.0,105036.0,105136.0,0.06862138398763712,-0.22244966180819956,0.04987216452269957,0.18679905942396266,0.011654579963851481
114,114,105566.54796540084,3476.485472047348,7.240659060185308,105689.972626301,-5238.685484330136,13.840723346400862,105714.0055270549,44450.83025737271,9.231655031925916,105792.46584430388,-2417.309734509292,24.32027677663937,105972.44544748167,9420.57904012266,34.06759633078515,0.9753703950756546,121.0,106.0,138.0,198.0,336.0,15.0,885.0,885.0,18.0,9.0,9.0,0.5,250.89584987376796,4433.638563097971,15.0,11.0,4.0,0.7333333333333333,1011.2259155109492,8247.711226097166,21.0,10.0,11.0,0.4761904761904761,2344.2763759327177,46788.37270485668,62.0,37.0,25.0,0.5967741935483871,144.25143778604058,2382.8293243549756,88.0,44.0,44.0,0.5,135.98659936677373,9411.27649913816,0.0,0.0,0.0,0.0,105558.0,105573.0,105679.0,105694.0,105704.0,105725.0,105754.0,105817.0,105933.0,106015.0,0.07216939403057884,-0.19303046890975042,0.05273864092884724,-0.05967437094498909,0.01443505741925213
115,115,106426.972626301,4137.301005096353,9.613323858481374,106551.2739827004,-6291.913474587818,7.110952378236463,106573.47189609644,46636.45773978456,10.116300292122787,106634.12330450072,-682.5485759846432,6.4773401083705,106830.83551209555,9534.76805638348,38.852789926261,0.9806966343649474,125.0,101.0,99.0,234.0,333.0,24.0,860.0,861.0,28.0,11.0,17.0,0.3928571428571428,255.9685019123119,4931.8572721346445,11.0,9.0,2.0,0.8181818181818182,1411.589176936994,15362.191867525638,22.0,10.0,12.0,0.4545454545454545,2303.8833566098747,52186.445512487575,15.0,7.0,8.0,0.4666666666666667,82.47902141383254,914.6177744768574,95.0,48.0,47.0,0.5052631578947369,125.9456396967,10003.473399743469,0.0,0.0,0.0,0.0,106417.0,106441.0,106542.0,106553.0,106563.0,106585.0,106627.0,106641.0,106786.0,106875.0,0.061868474543430196,-0.22434974394327106,0.04940090796485346,-0.12083978242112434,0.013209093178976705
116,116,107335.39728720114,2972.6467571775265,8.399598784762487,107453.12330450072,-5271.457900855105,10.022478261943796,107478.22446247624,44217.08826953801,9.28388615791059,107560.34253980315,-2146.7896598508887,30.171252253128205,107740.12809085456,8749.919479696084,31.199023853711903,0.9772682096626516,122.0,99.0,154.0,182.0,336.0,23.0,908.0,904.0,27.0,12.0,15.0,0.4444444444444444,209.55327978473736,3155.790941030802,12.0,7.0,5.0,0.5833333333333334,959.810774438784,6646.082347786345,21.0,10.0,11.0,0.4761904761904761,2290.780246198309,47805.25059567226,72.0,31.0,41.0,0.4305555555555556,119.31399939010866,1900.4395228612095,82.0,40.0,42.0,0.4878048780487805,115.7340286261274,9099.093518272268,0.0,0.0,0.0,0.0,107324.0,107347.0,107446.0,107458.0,107468.0,107489.0,107529.0,107600.0,107701.0,107782.0,0.07049383828696294,-0.1820769116420505,0.05180757792630301,-0.05557787128450952,0.013226867846576717
117,117,108149.972626301,3923.918196144746,8.383222752548704,108271.12330450072,-4870.466276404668,8.123438237473957,108295.81185111451,45326.769099935394,9.35575597617371,108355.54796540084,-1379.0387895751387,12.185005193248704,108554.68483389584,9767.299992893615,34.89739522611768,0.974337809030666,124.0,107.0,97.0,235.0,332.0,17.0,815.0,817.0,17.0,10.0,7.0,0.5882352941176471,265.95349438079006,4804.516010585101,11.0,7.0,4.0,0.6363636363636364,982.8111141408068,8436.204800339397,22.0,11.0,11.0,0.5,2284.0280772573083,48030.717930498395,40.0,9.0,31.0,0.225,127.57632781527094,1820.3036742167976,85.0,43.0,42.0,0.5058823529411764,144.86071991939792,10659.955332906491,0.0,0.0,0.0,0.0,108140.0,108157.0,108264.0,108275.0,108286.0,108306.0,108347.0,108361.0,108513.0,108596.0,0.06777753283493261,-0.20178994337813352,0.050390268766378137,-0.09251105101588572,0.014831193884163903
118,118,109033.94577031342,4735.511128166641,11.611343979490949,109157.27397942464,-3345.150428527442,6.735449499834234,109180.7845128572,48043.13453662612,10.001602822288778,109237.3141788227,-197.2669261401904,0.0121536127957508,109440.05311437749,9571.97381390653,40.29091998427446,0.9787486251882064,127.0,100.0,367.0,-31.0,336.0,27.0,884.0,886.0,28.0,11.0,17.0,0.3928571428571428,227.07959837652405,5609.852769606885,8.0,6.0,2.0,0.75,1263.6064879914252,14518.826150422052,22.0,11.0,11.0,0.5,2228.0099438828593,51101.34470583454,3.0,1.0,2.0,0.3333333333333333,153.57990915180198,677.9115432212241,99.0,51.0,48.0,0.5151515151515151,117.17703587796822,10176.479208080067,0.0,0.0,0.0,0.0,109024.0,109051.0,109151.0,109159.0,109170.0,109192.0,109236.0,109518.0,109398.0,109487.0,0.047952500211827856,-0.3777427996108604,0.04637519939887177,-0.7785385627322968,0.012241679527761446
119,119,109907.54796540084,3288.6240583295403,7.152964450818386,110029.972626301,-5259.192559226339,16.40037033738633,110053.73038940792,45323.59591828792,9.252764640708522,110125.7672007033,-2442.5319049491327,23.972202955577085,110313.01531255382,8941.193441887199,32.3898192718325,0.9747555365218318,121.0,97.0,121.0,213.0,334.0,24.0,874.0,873.0,24.0,9.0,15.0,0.375,240.3777193262853,3933.9560859775993,14.0,10.0,4.0,0.7142857142857143,1089.133357390807,8709.06320343489,21.0,10.0,11.0,0.4761904761904761,2320.4548285640926,46531.26301248613,89.0,35.0,54.0,0.3932584269662921,130.55002294539315,1317.047799573354,87.0,45.0,42.0,0.5172413793103449,114.18214456794652,9077.521809464011,0.0,0.0,0.0,0.0,109899.0,109923.0,110020.0,110034.0,110044.0,110064.0,110093.0,110141.0,110276.0,110354.0,0.07309370577565664,-0.20709136338431117,0.051197500585512826,-0.05344864592387461,0.012770347192471249
120,120,110739.39728717804,3768.517513394526,9.07745345039478,110862.84932180028,-6460.405491294731,5.095930801728113,110885.57936614584,46461.9617719044,9.768267000053845,110946.55516572142,-657.4520694105196,5.58354144144397,111145.10949479598,9303.659854518077,35.79222449785028,0.9803580413253052,126.0,108.0,96.0,235.0,331.0,18.0,831.0,831.0,27.0,12.0,15.0,0.4444444444444444,263.7022243307427,4245.84131599444,12.0,10.0,2.0,0.8333333333333334,1424.34991615529,15167.495897750949,22.0,11.0,11.0,0.5,2279.357501954825,49422.62744380396,6.0,3.0,3.0,0.5,102.4331605723741,1200.273790187173,87.0,46.0,41.0,0.5287356321839081,126.31724850103905,9917.419489648988,0.0,0.0,0.0,0.0,110728.0,110746.0,110854.0,110864.0,110875.0,110896.0,110944.0,110950.0,111102.0,111185.0,0.06997505607800945,-0.22047376408099667,0.049058572109909375,-0.15580323697850257,0.013577156783058488
121,121,111625.54796540084,4304.906489618807,12.493560836214742,111746.2739827004,-2991.248716762824,7.64389620259217,111773.5111023026,45845.19087755525,9.465564881413725,111833.34001857309,-837.351579201045,2.5874310480674545,112029.56111721513,9972.315919416556,40.255462468592555,0.9780152750658092,125.0,97.0,94.0,242.0,336.0,28.0,887.0,888.0,30.0,10.0,20.0,0.3333333333333333,245.7646422755984,6016.05498828933,10.0,4.0,6.0,0.4,744.1564489340744,5607.862323857774,21.0,11.0,10.0,0.5238095238095238,2211.3540658746892,47465.91001052825,9.0,5.0,4.0,0.5555555555555556,152.33732920050718,939.6120680532028,97.0,48.0,49.0,0.4948453608247423,125.41501508548924,10399.053861974462,0.0,0.0,0.0,0.0,111617.0,111645.0,111742.0,111752.0,111763.0,111784.0,111830.0,111836.0,111986.0,112078.0,0.05708942641803132,-0.24877785814461195,0.04823524613041402,-0.18192755944385886,0.012576317888335293
122,122,112448.9658618057,3101.5288294369157,4.463947307089559,112575.69864360055,-7028.18380822085,10.191861603456228,112597.33032276698,44156.206021148806,9.382031894480914,112677.79634809669,-2479.442940363477,27.889669498084952,112858.95881659626,9035.564125033186,31.384928198543683,0.9612164939926524,121.0,110.0,143.0,190.0,333.0,11.0,826.0,824.0,11.0,7.0,4.0,0.6363636363636364,264.1750800143515,4398.078515233423,34.0,32.0,2.0,0.9411764705882352,1397.082269316846,14112.8842537568,20.0,9.0,11.0,0.45,2373.5484682866695,48386.82242235118,77.0,45.0,32.0,0.5844155844155844,128.92747653135694,2120.51752120444,86.0,47.0,39.0,0.5465116279069767,143.94712190135158,9084.921851120596,0.0,0.0,0.0,0.0,112442.0,112453.0,112563.0,112578.0,112588.0,112608.0,112635.0,112706.0,112813.0,112896.0,0.08517576154928493,-0.1987828303071246,0.053753451262317425,-0.051998565658646155,0.015931171525034458
123,123,113320.39728720114,4432.796912169277,13.127080863907322,113444.2739827004,-5710.542213980528,7.07716224657199,113466.8957407118,46380.341504369375,10.199726326818672,113523.84932180028,-473.0567550438788,2.2971873975600063,113734.80813839656,9527.830951682625,38.92360229616211,0.974748681704928,127.0,98.0,93.0,240.0,333.0,29.0,868.0,870.0,31.0,12.0,19.0,0.3870967741935484,271.88696340720065,5853.038938472047,11.0,9.0,2.0,0.8181818181818182,1347.718402807147,15281.844599603211,22.0,11.0,11.0,0.5,2284.381339546534,51287.0927892568,8.0,3.0,5.0,0.375,103.42750670618574,966.6534938087168,90.0,55.0,35.0,0.6111111111111112,147.67355856999288,9897.28642453151,0.0,0.0,0.0,0.0,113309.0,113338.0,113436.0,113446.0,113456.0,113478.0,113521.0,113529.0,113680.0,113769.0,0.061335307886719176,-0.2360053305459625,0.049253223789465374,-0.21863657077805015,0.015499179122601202
124,124,114227.3521175398,3177.375211031811,6.625075047150742,114349.69864360055,-6142.383809759554,8.19379693401724,114371.49915679352,44491.24409595236,9.607296258077913,114445.21923530244,-1550.4404165720046,18.890292363456425,114628.67339342448,9623.459856101692,36.541856362072494,0.9721526212019228,121.0,109.0,116.0,217.0,333.0,12.0,908.0,903.0,21.0,9.0,12.0,0.4285714285714285,264.63571337761715,4194.669941517605,13.0,11.0,2.0,0.8461538461538461,1403.8831617876508,15366.711217639584,20.0,9.0,11.0,0.45,2346.9147547371936,49062.42066838039,62.0,32.0,30.0,0.5161290322580645,144.44542313943123,465.9070228353826,93.0,47.0,46.0,0.5053763440860215,121.02482178742947,10119.744022742794,0.0,0.0,0.0,0.0,114219.0,114231.0,114340.0,114352.0,114362.0,114382.0,114421.0,114456.0,114583.0,114673.0,0.08328752375822815,-0.22855673062257018,0.05275003660665688,-0.09316412394537381,0.012576019809621222
125,125,115052.92849235205,3342.9923263279675,7.535495893153233,115173.12330450072,-5090.875804877308,12.739827004320285,115198.6111110318,45502.237706428496,9.36006593406574,115263.972626301,-1553.772056913762,17.179656452535742,115455.50652766024,8665.133081747783,32.41910420660065,0.9727713542158892,123.0,105.0,102.0,228.0,330.0,18.0,826.0,827.0,19.0,10.0,9.0,0.5263157894736842,231.14348394096177,4004.942495790625,14.0,8.0,6.0,0.5714285714285714,905.9061055726726,6512.005765001408,21.0,11.0,10.0,0.5238095238095238,2274.4877860220104,47516.74856402661,60.0,18.0,42.0,0.3,128.6309751412925,1254.883131022278,83.0,42.0,41.0,0.5060240963855421,129.69884609208245,8893.057671441109,0.0,0.0,0.0,0.0,115043.0,115061.0,115166.0,115179.0,115189.0,115209.0,115248.0,115268.0,115418.0,115496.0,0.06914269055318352,-0.17794700564189175,0.049986284206428686,-0.08278625849198923,0.014967900073604157
126,126,115957.54796540084,4372.8962866976535,11.201661918850808,116081.2739827004,-4938.113909416535,6.958931200978219,116104.8261501613,47146.67281458639,10.00722463631013,116179.15067819972,-518.1759574454854,5.095930801728113,116362.67025658728,9452.411016119328,41.366245204285455,0.982456649822064,125.0,99.0,108.0,226.0,334.0,26.0,904.0,908.0,26.0,9.0,17.0,0.3461538461538461,234.8606358969586,5952.85742902029,9.0,7.0,2.0,0.7777777777777778,1228.3288189673517,13263.60173373132,22.0,11.0,11.0,0.5,2279.4947917078016,51193.54342468703,15.0,12.0,3.0,0.8,88.59691605273876,254.2638125332985,93.0,47.0,46.0,0.5053763440860215,119.49923789224134,10370.064267967467,0.0,0.0,0.0,0.0,115949.0,115975.0,116074.0,116083.0,116094.0,116116.0,116172.0,116182.0,116318.0,116408.0,0.053708256610476776,-0.24874452908529313,0.04834900652846417,-0.17097843846230473,0.012642196545247305
127,127,116866.54796540084,3463.80836982542,7.876604454359888,116989.69864360055,-5553.798135012508,8.955314784890856,117012.4101403429,44202.634870432026,9.315473730895055,117083.7672007033,-1811.7327001388203,20.80877497916791,117272.81714206848,9862.678782260937,33.903791291891054,0.9771055256329256,122.0,105.0,117.0,218.0,335.0,17.0,909.0,907.0,27.0,9.0,18.0,0.3333333333333333,234.9466464231208,4533.206397748768,13.0,11.0,2.0,0.8461538461538461,1261.1032834170578,12749.1189448939,20.0,9.0,11.0,0.45,2382.004089272412,48492.40951207437,47.0,34.0,13.0,0.723404255319149,123.2608915777177,1306.084394353602,88.0,43.0,45.0,0.4886363636363636,147.13472069856627,9846.189070249451,0.0,0.0,0.0,0.0,116858.0,116875.0,116980.0,116992.0,117003.0,117023.0,117051.0,117097.0,117232.0,117315.0,0.06782899668175418,-0.22707042149529216,0.053888282819669175,-0.06803481085718278,0.014918332427413484
128,128,117693.48473447232,3007.2953489940965,6.23457826331987,117817.69864360055,-7666.408653693178,10.191861603456228,117839.72805512304,45916.56507030778,9.816952276026742,117906.49321800288,-2231.1917697167037,50.95930801727059,118100.95881659626,9097.65288644076,31.51695984890695,0.9696233678200624,121.0,108.0,158.0,174.0,332.0,13.0,827.0,828.0,14.0,8.0,6.0,0.5714285714285714,259.072557467701,4283.2863119135545,15.0,13.0,2.0,0.8666666666666667,1446.1961574130323,13693.794394655004,21.0,10.0,11.0,0.4761904761904761,2293.8342665549485,48083.67775503757,86.0,28.0,58.0,0.3255813953488372,133.18273533689276,3235.0194215926113,81.0,43.0,38.0,0.5308641975308642,138.9965063647923,9301.744700314825,0.0,0.0,0.0,0.0,117685.0,117698.0,117806.0,117820.0,117830.0,117851.0,117878.0,117964.0,118059.0,118138.0,0.08614802585132106,-0.1886406298882005,0.049956573690619344,-0.05969129912746276,0.015278282003037753
129,129,118586.972626301,4742.3484603466395,13.93913907062603,118711.2739827004,-5246.255573695265,6.3726808180502195,118734.03712552183,46969.32654453173,10.1317491423686,118793.57533909989,-446.1083191026521,0.659182826689557,118990.40522855292,9865.916903356008,40.362002509263746,0.981634093339808,127.0,98.0,91.0,243.0,334.0,29.0,893.0,894.0,29.0,10.0,19.0,0.3448275862068966,233.83676598902417,6491.666653838997,9.0,7.0,2.0,0.7777777777777778,1343.894610363248,15025.87159539463,22.0,11.0,11.0,0.5,2267.536864997365,51732.21953163956,3.0,2.0,1.0,0.6666666666666666,128.99905934548894,864.2647531866851,94.0,45.0,49.0,0.4787234042553192,150.9780451759821,10136.439002586252,0.0,0.0,0.0,0.0,118577.0,118606.0,118704.0,118713.0,118723.0,118745.0,118792.0,118795.0,118946.0,119038.0,0.0493082210099618,-0.25616262713191823,0.048276972054251355,-0.28916533008165113,0.015302991770042693
130,130,119436.69864360055,3351.256637173444,5.367931575331409,119560.972626301,-4780.158921363191,16.028818443907255,119584.60725519068,45420.04766412061,9.045949756609676,119664.79535651524,-2314.4843445572355,23.323242358468892,119841.81323292152,9024.625427373534,32.77182776687394,0.9722419718652326,120.0,106.0,137.0,196.0,333.0,14.0,851.0,850.0,14.0,6.0,8.0,0.4285714285714285,264.8890007013401,4938.058669560908,14.0,10.0,4.0,0.7142857142857143,1048.3750648544728,9087.937551009316,20.0,10.0,10.0,0.5,2369.6524330188327,46270.756550105376,52.0,30.0,22.0,0.5769230769230769,108.31783312151629,2684.9022820043247,88.0,45.0,43.0,0.5113636363636364,133.47710284383447,8926.932846339565,0.0,0.0,0.0,0.0,119431.0,119445.0,119551.0,119565.0,119575.0,119595.0,119635.0,119688.0,119805.0,119884.0,0.07904169372261381,-0.21931803567641647,0.05217194949997224,-0.0467999852218649,0.014790320542165787
131,131,120275.972626301,4188.148617650636,9.749875401029216,120399.69864360055,-5939.4861936819825,7.799399274247904,120422.57433517564,45901.152767107465,9.757583643171236,120495.4581654096,-1041.4820291089404,15.805510457281375,120679.32928929894,9438.343918649553,36.3570488644828,0.983328430262356,125.0,107.0,114.0,218.0,332.0,18.0,838.0,839.0,28.0,11.0,17.0,0.3928571428571428,267.4841131349912,5058.412459116417,11.0,9.0,2.0,0.8181818181818182,1355.874341870531,14417.964714479678,22.0,11.0,11.0,0.5,2273.070254432029,49380.59543009506,35.0,24.0,11.0,0.6857142857142857,86.95960005081814,835.428010798769,92.0,47.0,45.0,0.5108695652173914,116.29501757724168,9989.805718974378,0.0,0.0,0.0,0.0,120266.0,120284.0,120391.0,120402.0,120412.0,120434.0,120474.0,120505.0,120636.0,120723.0,0.06386691055033235,-0.22828141991689735,0.04952098405818033,-0.08349601588922093,0.012321549053478577
132,132,121200.82194810107,3940.15071225463,10.82562718104568,121323.84932180028,-6273.320730708164,5.095930801728103,121345.4857804742,44161.87169587,9.676684779348191,121405.97262630097,-1073.882859107985,11.640234524930996,121604.54089532558,9867.92575337881,35.31120910862664,0.981141603188022,126.0,98.0,114.0,219.0,333.0,28.0,924.0,922.0,30.0,13.0,17.0,0.4333333333333333,228.81604594741216,4246.86133096468,11.0,10.0,1.0,0.9090909090909092,1451.8797349043086,16747.80821728356,21.0,10.0,11.0,0.4761904761904761,2240.590765102451,49395.578471477646,44.0,13.0,31.0,0.2954545454545454,111.9917699870139,1140.671439168557,86.0,42.0,44.0,0.4883720930232558,141.07836422742628,10307.27060723945,0.0,0.0,0.0,0.0,121188.0,121216.0,121314.0,121325.0,121335.0,121356.0,121396.0,121428.0,121567.0,121647.0,0.058072917169323,-0.23143719207552985,0.05073586510401437,-0.10428676557891915,0.014296658462303548
133,133,122055.12683633756,4383.766876496504,9.69769727284909,122178.2739827004,-5826.51609852919,7.64389620259217,122200.36397372656,44698.12344425031,9.651346977749665,122253.84932180028,-895.4157531178568,5.095930801728113,122459.10949479598,9941.30062139414,35.47185597542494,0.9789878549835316,124.0,100.0,97.0,234.0,331.0,24.0,855.0,855.0,27.0,12.0,15.0,0.4444444444444444,254.58103200800525,4065.310995869628,12.0,10.0,2.0,0.8333333333333334,1273.6861722141562,13826.40922793998,21.0,10.0,11.0,0.4761904761904761,2353.9754372757902,49467.7714851108,14.0,3.0,11.0,0.2142857142857142,116.20503620547234,1146.3231391329027,91.0,49.0,42.0,0.5384615384615384,97.60976316091153,9927.062353110863,0.0,0.0,0.0,0.0,122044.0,122068.0,122168.0,122180.0,122190.0,122211.0,122251.0,122265.0,122414.0,122499.0,0.05807357899730878,-0.2186016739120789,0.05266385377927071,-0.129777743803193,0.009818610952258177
134,134,122973.82194809632,3722.619249093246,10.49724394298646,123095.2739827004,-5647.1983013878,7.280904531161395,123118.35688722377,45861.143346852674,9.754001073191926,123148.45582280667,1711.3294547812498,159.53297203139743,123378.29692459136,9559.84737342176,39.56442521895466,0.9870089490538936,128.0,100.0,371.0,-35.0,336.0,28.0,918.0,919.0,38.0,15.0,23.0,0.3947368421052631,254.22118799118368,4377.948699868205,9.0,7.0,2.0,0.7777777777777778,1269.8017875676237,14137.99569751239,22.0,10.0,12.0,0.4545454545454545,2290.4064495980056,52695.89055647062,56.0,50.0,6.0,0.8928571428571429,589.2632821973742,4158.099743628702,98.0,50.0,48.0,0.5102040816326531,157.3900456030357,10924.02054003623,0.0,0.0,0.0,0.0,122961.0,122989.0,123089.0,123097.0,123108.0,123130.0,123097.0,123460.0,123329.0,123425.0,0.06829094542857339,-0.22485517947113168,0.049942201228508835,0.34433070765599405,0.016463656735839813
135,135,123868.12330450072,4285.316136487953,6.832524891533637,123993.69864360055,-5705.095762731466,8.634489697891064,124016.0446361239,43532.71640081199,9.570461938109656,124087.21923530244,-2107.73522624608,20.66091275290675,124274.30130687938,9429.87963147029,34.53577437472601,0.9796101750878056,123.0,108.0,139.0,193.0,332.0,15.0,896.0,896.0,16.0,8.0,8.0,0.5,293.08566033047913,5699.506949099754,13.0,11.0,2.0,0.8461538461538461,1307.325932251974,13953.8981423046,21.0,10.0,11.0,0.4761904761904761,2311.4301526857857,47318.00247583131,82.0,32.0,50.0,0.3902439024390244,133.04017467350678,1542.0547403527023,87.0,42.0,45.0,0.4827586206896552,120.9870906558644,9655.267026793175,0.0,0.0,0.0,0.0,123861.0,123876.0,123984.0,123996.0,124006.0,124027.0,124063.0,124123.0,124233.0,124316.0,0.06839300788918658,-0.2291505676017009,0.05309639149103666,-0.06311996545716707,0.012830183987937109
