Unnamed: 0,cycle,p_center,p_height,p_width,q_center,q_height,q_width,r_center,r_height,r_width,s_center,s_height,s_width,t_center,t_height,t_width,r_squared,pr_interval,pr_segment,qrs_duration,st_segment,qt_interval,p_duration,pp_interval,rr_interval,fwhm_p,rise_time_p,decay_time_p,rise_decay_symmetry_p,sharpness_deriv_p,sharpness_diff_p,fwhm_q,rise_time_q,decay_time_q,rise_decay_symmetry_q,sharpness_deriv_q,sharpness_diff_q,fwhm_r,rise_time_r,decay_time_r,rise_decay_symmetry_r,sharpness_deriv_r,sharpness_diff_r,fwhm_s,rise_time_s,decay_time_s,rise_decay_symmetry_s,sharpness_deriv_s,sharpness_diff_s,fwhm_t,rise_time_t,decay_time_t,rise_decay_symmetry_t,sharpness_deriv_t,sharpness_diff_t,Average_Heart_Rate,SDNN,RMSSD,NN50,p_on,p_off,q_on,q_off,r_on,r_off,s_on,s_off,t_on,t_off,sharpness_deriv_p_norm,sharpness_deriv_q_norm,sharpness_deriv_r_norm,sharpness_deriv_s_norm,sharpness_deriv_t_norm
0,0,0.0,0.0,0.0,0.0,0.0,0.0,0.0,0.0,0.0,0.0,0.0,0.0,0.0,0.0,0.0,0.0,0.0,0.0,0.0,0.0,0.0,0.0,0.0,0.0,0.0,0.0,0.0,0.0,0.0,0.0,0.0,0.0,0.0,0.0,0.0,0.0,0.0,0.0,0.0,0.0,0.0,0.0,0.0,0.0,0.0,0.0,0.0,0.0,0.0,0.0,0.0,0.0,0.0,0.0,61.137736853137646,370.00613109073663,560.0758184986746,549.0,,,,,,,,,,,,,,,
1,1,2077.2739827004316,1236.6183030374875,7.643896202571714,2147.7533909985605,-3514.1321589721106,14.604717938514376,2195.8896603997187,29825.51005150241,7.296335162167323,2224.552602875518,-23316.583695575548,7.544280311294267,2449.450601534138,18175.013978774947,38.51521595146403,0.8854541522427397,42.0,23.0,119.0,263.0,382.0,19.0,,,19.0,4.0,15.0,0.2105263157894736,135.38419018791555,1184.3665570431428,51.0,34.0,17.0,0.6666666666666666,161.69810558129035,2285.983549840247,17.0,9.0,8.0,0.5294117647058824,1890.3772015644329,28409.108506819503,19.0,9.0,10.0,0.4736842105263157,1560.8112857389583,25303.92036851336,96.0,48.0,48.0,0.5,170.23940769872425,18554.080024735944,0.0,0.0,0.0,0.0,2073.0,2092.0,2115.0,2162.0,2187.0,2204.0,2216.0,2234.0,2402.0,2497.0,0.10947936793056785,-0.04601366660853965,0.06338121957680345,-0.06693996453842126,0.009366672724297895
2,2,3079.6098474894147,2576.0566389955434,8.271406290647647,3141.2862984279973,-2934.2383484643233,14.591139604676036,3200.861481233748,29468.26645290561,8.089147253515174,3229.6126451860305,-22999.27402472953,7.343922209423162,3453.4108511953923,19276.765232277623,40.17861749907445,0.8882574122053128,52.0,31.0,119.0,259.0,378.0,21.0,1005.0,1006.0,21.0,11.0,10.0,0.5238095238095238,179.70829847034983,2611.8483717284644,47.0,21.0,26.0,0.4468085106382978,135.37745716405212,2432.805390310884,18.0,9.0,9.0,0.5,1783.1231797714254,27835.147660402617,19.0,9.0,10.0,0.4736842105263157,1588.3495885507389,25005.502235524295,104.0,55.0,49.0,0.5288461538461539,211.494342973999,20984.320706493847,0.0,0.0,0.0,0.0,3069.0,3090.0,3121.0,3167.0,3192.0,3210.0,3221.0,3240.0,3411.0,3499.0,0.06976100437776932,-0.04613717124749048,0.06050994491383144,-0.06906085760980527,0.01097146437307159
3,3,4099.150678199713,1568.137199775158,5.095930801728113,4170.876695499281,-3415.719856263782,12.7398269801307,4231.007002130729,26984.322609648138,8.438679207384764,4259.321139288927,-23493.61736949769,7.8228529714569826,4487.684833895824,18581.783961213787,35.601160300049365,0.8663420416827063,68.0,56.0,112.0,259.0,371.0,12.0,1019.0,1031.0,13.0,9.0,4.0,0.6923076923076923,181.8702667546046,1846.4262368308223,16.0,11.0,5.0,0.6875,249.9929148792916,4973.6121070230765,17.0,9.0,8.0,0.5294117647058824,1602.891530117242,25401.85380955016,20.0,9.0,11.0,0.45,1600.3702628731412,26617.10526875751,91.0,49.0,42.0,0.5384615384615384,244.137319374437,18686.67922869747,0.0,0.0,0.0,0.0,4090.0,4102.0,4158.0,4178.0,4222.0,4239.0,4250.0,4270.0,4443.0,4529.0,0.11597854242644166,-0.07318893978405519,0.05940084371597805,-0.06811936355748005,0.013138529641934855
4,4,5008.203565031433,1195.11245393764,1.82948658675246,5085.178051898705,-3120.890945251642,22.931688607774987,5127.2201785698,26504.2207734051,8.34202534655762,5154.87756423274,-22917.718255398995,8.252797777770931,5386.958816596257,17175.266982445013,32.49649347582356,0.8371452211482125,37.0,31.0,124.0,258.0,382.0,6.0,908.0,895.0,6.0,3.0,3.0,0.5,198.19694773723316,641.6068483313919,57.0,44.0,13.0,0.7719298245614035,198.96873524537335,2137.2503075046325,17.0,9.0,8.0,0.5294117647058824,1651.4246176470017,25349.271227791476,20.0,9.0,11.0,0.45,1540.7741118959575,26699.05200966097,91.0,53.0,38.0,0.5824175824175825,179.06639377781727,16502.829277696612,0.0,0.0,0.0,0.0,5005.0,5011.0,5042.0,5098.0,5119.0,5135.0,5146.0,5166.0,5338.0,5424.0,0.16583958027064027,-0.06375382502490173,0.06230798602855272,-0.06723069437913957,0.010425828836363508
5,5,5847.972626301007,1709.8191910780113,7.330532705929434,5909.533059528824,-2362.4003177301497,14.003614132217448,5972.082770740091,27916.327082521584,7.793864905343129,5999.796160676081,-20708.70698931579,7.291311801913667,6225.2601729956805,18980.8854374297,37.50175469670596,0.9048365341126186,59.0,42.0,113.0,258.0,371.0,17.0,837.0,845.0,27.0,11.0,16.0,0.4074074074074074,221.5743548370444,1939.923795273125,23.0,14.0,9.0,0.6086956521739131,226.2684688628423,2251.3850236675885,18.0,9.0,9.0,0.5,1738.437233829479,26293.77432838591,18.0,8.0,10.0,0.4444444444444444,1511.5118459198973,24109.201566975236,96.0,53.0,43.0,0.5520833333333334,192.3553535301111,19915.060653883396,0.0,0.0,0.0,0.0,5838.0,5855.0,5897.0,5919.0,5963.0,5980.0,5992.0,6010.0,6176.0,6268.0,0.12958934839030883,-0.09577905453392692,0.06227313602862587,-0.07298919467544397,0.01013416124154
6,6,6760.795462790928,2338.1761791001786,7.000656474063273,6842.178051898705,-2497.47687368391,13.090594633195591,6887.088753405223,28890.17667793208,8.01883608512404,6915.4623352505705,-21201.74980450346,7.0225049997470235,7138.016557551635,19001.557731396544,38.615938008090616,0.9037966943775658,87.0,66.0,88.0,258.0,346.0,21.0,915.0,915.0,21.0,11.0,10.0,0.5238095238095238,159.71095950325082,2307.9283717159033,41.0,24.0,17.0,0.5853658536585366,123.60940833445116,2335.306257386234,18.0,9.0,9.0,0.5,1713.0064307647087,27098.883975298704,17.0,7.0,10.0,0.4117647058823529,1528.7049841093058,24068.57797967051,94.0,46.0,48.0,0.4893617021276595,240.55819570933588,20212.870200808415,0.0,0.0,0.0,0.0,6750.0,6771.0,6837.0,6859.0,6878.0,6896.0,6908.0,6925.0,7095.0,7183.0,0.06830578505196894,-0.049493714891590074,0.05929373329423763,-0.07210277445046512,0.012659919734467777
7,7,7820.821948101295,2335.7370065990613,22.93168860777651,7902.398843204128,-2633.360068064273,4.674709526735264,7947.619714448255,31619.047679579788,7.623138326315834,7976.103202765832,-21076.44234419578,6.479743329381468,8200.370876938094,19985.414768444665,42.048965455820024,0.8927945104363879,97.0,71.0,88.0,265.0,353.0,26.0,1057.0,1061.0,62.0,29.0,33.0,0.4677419354838709,163.66022053930175,2155.359181145426,12.0,5.0,7.0,0.4166666666666667,250.8521228010028,811.6977392807648,18.0,9.0,9.0,0.5,1916.3326425512385,29492.665129680972,16.0,7.0,9.0,0.4375,1551.0805119511688,23085.545546021007,97.0,46.0,51.0,0.4742268041237113,321.05398380199006,23428.206912198737,0.0,0.0,0.0,0.0,7800.0,7826.0,7897.0,7909.0,7939.0,7957.0,7969.0,7985.0,8158.0,8250.0,0.07006791435718975,-0.09525933268419265,0.06060690574779216,-0.07359308969800206,0.016064414350254467
8,8,8933.60271279885,1692.9772845950183,12.495438793721275,9002.60271279885,-2606.1764404290143,8.883722455941735,9046.901909530365,27750.895174178055,7.862723440462321,9075.198950487971,-21483.55506027815,7.774922830990434,9303.260172995682,17864.124505371903,38.41221294420326,0.9034244891699296,69.0,51.0,90.0,260.0,350.0,18.0,1120.0,1099.0,20.0,8.0,12.0,0.4,165.71520945479384,1331.2327256455842,19.0,7.0,12.0,0.3684210526315789,193.4258824401282,1605.8683043860826,16.0,8.0,8.0,0.5,1710.599094828688,26516.8461329941,20.0,9.0,11.0,0.45,1473.860022120007,24678.710262768374,94.0,49.0,45.0,0.5212765957446809,168.46497900561215,18157.801346279324,0.0,0.0,0.0,0.0,8927.0,8945.0,8996.0,9014.0,9039.0,9055.0,9066.0,9086.0,9260.0,9346.0,0.09788389422746155,-0.07421826068241469,0.06164122216930805,-0.06860410290497446,0.009430351817966406
9,9,10790.821948101297,1315.5394046112576,13.795254585140704,10860.75339099856,-2451.697550483163,14.01783385487174,10903.636088669142,28737.883971316864,7.849321551004701,10932.023910849686,-20404.953921977267,6.887951772584539,11154.89771458296,19316.50388168062,39.531717606080136,0.906015021723921,78.0,59.0,86.0,263.0,349.0,19.0,1850.0,1857.0,24.0,18.0,6.0,0.75,182.0275611396878,886.6256790638324,42.0,26.0,16.0,0.6190476190476191,164.2024949414072,1780.412054964808,19.0,10.0,9.0,0.5263157894736842,1732.51059857468,26673.535943489827,17.0,8.0,9.0,0.4705882352941176,1477.840798514113,22360.054521131555,102.0,51.0,51.0,0.5,158.46252450053635,20250.785192515337,0.0,0.0,0.0,0.0,10777.0,10796.0,10855.0,10876.0,10894.0,10913.0,10924.0,10941.0,11109.0,11204.0,0.1383672435060788,-0.06697502100495525,0.06028664463618442,-0.07242558861759528,0.008203478510975219
10,10,11854.876075492692,1001.3097768391548,6.220690766790969,11920.39728720115,-3126.327129913554,19.32666805234436,11983.193663054808,28204.49609526615,7.437945906071994,12012.15267401923,-22320.80168748481,7.068284207001358,12238.021041862648,18737.90932227904,37.33681641347042,0.8710490569393441,63.0,52.0,112.0,264.0,376.0,11.0,1067.0,1080.0,18.0,9.0,9.0,0.5,133.41534335793347,927.1396702262782,45.0,11.0,34.0,0.2444444444444444,181.54091634605564,3999.27512138604,18.0,9.0,9.0,0.5,1721.529099754203,26066.62139585875,17.0,8.0,9.0,0.4705882352941176,1531.2348118146365,23835.09234644955,97.0,47.0,50.0,0.4845360824742268,183.82055042190703,19669.22041781355,0.0,0.0,0.0,0.0,11846.0,11857.0,11909.0,11953.0,11975.0,11992.0,12004.0,12021.0,12198.0,12285.0,0.13324082760790282,-0.05806843263746216,0.06103739963796569,-0.06860124619418101,0.009810088588877292
11,11,12911.328730098418,2645.4037602061903,14.522104837132032,12970.203166178842,-1760.8402550639491,4.899554244116574,13012.71539762424,27488.38141787952,8.384050698574729,13041.493153410696,-20987.56082569336,7.871580336623988,13270.835512095537,19556.08021608875,40.90027509625562,0.8994361326054533,63.0,38.0,87.0,263.0,350.0,25.0,1062.0,1029.0,38.0,21.0,17.0,0.5526315789473685,176.0425019148334,2181.4097444547183,13.0,5.0,8.0,0.3846153846153846,228.8115331133569,101.77114156914786,18.0,10.0,8.0,0.5555555555555556,1631.897855979698,26270.971882998936,19.0,8.0,11.0,0.4210526315789473,1428.6464106961769,25349.532763853465,100.0,54.0,46.0,0.54,199.2357044873342,21310.68725295658,0.0,0.0,0.0,0.0,12902.0,12927.0,12965.0,12978.0,13004.0,13021.0,13033.0,13052.0,13229.0,13315.0,0.06654655314359731,-0.1299445151002906,0.059366822337463925,-0.06807110280996549,0.010187916100048688
12,12,14755.876695499284,1825.7187879733465,12.739827004320285,14826.06545375522,-3155.526567914802,5.8409135508232355,14865.699312515631,28413.981997975505,7.618031518313297,14894.663527138093,-21216.969093470467,7.065059761686763,15119.675272666524,18642.265710580472,39.61885828602819,0.891153073439185,69.0,56.0,85.0,264.0,349.0,13.0,1842.0,1853.0,14.0,7.0,7.0,0.5,156.73262122080965,2082.36212698819,16.0,7.0,9.0,0.4375,276.78762466961257,814.5865758300234,18.0,9.0,9.0,0.5,1773.9542701830208,26003.408015812543,17.0,8.0,9.0,0.4705882352941176,1420.3904434098731,22888.381741782396,99.0,50.0,49.0,0.5050505050505051,222.02300502110955,20736.37703582246,0.0,0.0,0.0,0.0,14750.0,14763.0,14819.0,14835.0,14857.0,14875.0,14887.0,14904.0,15082.0,15168.0,0.08584707691746543,-0.08771519387096022,0.06243244154618719,-0.06694596373084216,0.011909657788811569
13,13,15732.015931227828,1802.0642555293737,18.75450523347932,15783.821948101297,-2812.3122664326806,14.772966980271631,15839.179569039765,27316.683786508333,7.829841994856939,15868.044413207825,-21399.853984927537,6.857404565596404,16093.986190295249,19217.343102605457,39.83440655515902,0.905964148342622,69.0,15.0,106.0,264.0,370.0,54.0,968.0,973.0,56.0,32.0,24.0,0.5714285714285714,90.97845849456144,1474.754716915887,42.0,18.0,24.0,0.4285714285714285,149.88092454226484,3143.148579076614,18.0,9.0,9.0,0.5,1628.4607338348756,25802.765208421864,17.0,8.0,9.0,0.4705882352941176,1528.1073440478488,23109.23464127616,94.0,46.0,48.0,0.4893617021276595,170.33410354599897,20532.905037996497,0.0,0.0,0.0,0.0,15702.0,15756.0,15771.0,15808.0,15830.0,15848.0,15860.0,15877.0,16049.0,16141.0,0.05048569062696138,-0.05329455278889905,0.059614144475295706,-0.07140737245796788,0.008863561556691223
14,14,16696.5427260092,1596.7786624625687,15.287792405184137,16762.178051898707,-1927.7286676543024,14.370341272216354,16807.14330903757,27883.100724466392,8.294648433464548,16835.7526145674,-22016.79407106212,7.593970879707125,17059.565037149856,18650.944884946908,41.09102899979957,0.8984942783485935,69.0,57.0,89.0,261.0,350.0,12.0,968.0,969.0,13.0,10.0,3.0,0.7692307692307693,161.97587503356448,1803.549578691898,51.0,36.0,15.0,0.7058823529411765,177.21243706895933,663.0529692058516,18.0,9.0,9.0,0.5,1640.4808101881993,26453.353674211394,19.0,9.0,10.0,0.4736842105263157,1513.4494855871687,24410.28261626993,104.0,53.0,51.0,0.5096153846153846,203.03190171545305,19134.11825814648,0.0,0.0,0.0,0.0,16688.0,16700.0,16757.0,16775.0,16799.0,16816.0,16827.0,16846.0,17016.0,17107.0,0.10143915299053632,-0.09192810173051733,0.058834231759193764,-0.06874068407517961,0.010885877523519957
15,15,18490.123304500717,1912.10105613312,11.183316293967271,18568.30135639943,-2618.977161158481,9.625616796875972,18608.918374253157,28405.87143801512,7.386239058788774,18637.462936497235,-21739.63854288986,7.094171153964153,18860.250108122666,18312.873569308467,40.40002326614211,0.9036434786340292,45.0,33.0,121.0,262.0,383.0,12.0,1794.0,1801.0,17.0,12.0,5.0,0.7058823529411765,206.95458279937336,2565.325322125681,50.0,43.0,7.0,0.86,197.9428010026378,1344.2720044506975,18.0,9.0,9.0,0.5,1762.337865523073,27158.92928134458,18.0,8.0,10.0,0.4444444444444444,1531.510985483916,24478.99061178769,103.0,53.0,50.0,0.5145631067961165,198.61187345854893,18674.693289340976,0.0,0.0,0.0,0.0,18481.0,18493.0,18526.0,18574.0,18600.0,18618.0,18629.0,18647.0,18821.0,18909.0,0.1082341239944199,-0.07558019364898912,0.062041323723114675,-0.0704478587563642,0.010845478330141113
16,16,19427.54796540086,2028.3365808856088,10.857304068333285,19501.24660900003,-2264.498204217474,14.312356593828476,19559.665554284988,29259.771124673876,7.82769849514662,19588.219227983827,-21023.61383067658,7.288477893842689,19812.56152941401,18632.926742346193,39.65506817683059,0.8990201448918029,62.0,45.0,117.0,263.0,380.0,17.0,937.0,951.0,26.0,9.0,17.0,0.3461538461538461,193.89532609812616,3013.3340833275893,51.0,21.0,30.0,0.4117647058823529,182.9528141074316,1131.762806095004,18.0,9.0,9.0,0.5,1818.3279649803449,27051.973055146645,17.0,7.0,10.0,0.4117647058823529,1460.7214684418468,23550.57138842505,97.0,48.0,49.0,0.4948453608247423,214.98768033340303,20931.374130336255,0.0,0.0,0.0,0.0,19419.0,19436.0,19481.0,19507.0,19551.0,19569.0,19581.0,19598.0,19766.0,19861.0,0.09559326983762623,-0.08079176824547463,0.062144298984177775,-0.06948003707671023,0.011538052143188565
17,17,20422.54796540086,1784.9596964313423,15.28779240518434,20515.30135639943,-2527.423320226938,4.5551817351144575,20553.241109521485,29913.24108034185,7.8984932664556435,20582.391460872033,-21944.078315647876,6.976603168233909,20805.56152939511,19199.878790451698,40.64977746668165,0.8971591931492092,92.0,52.0,86.0,262.0,348.0,40.0,995.0,993.0,42.0,10.0,32.0,0.238095238095238,187.84941543719327,2157.4116159612727,21.0,15.0,6.0,0.7142857142857143,269.11352725938457,638.7586963903011,18.0,9.0,9.0,0.5,1772.9854366274092,28940.21868406634,18.0,8.0,10.0,0.4444444444444444,1541.5780427567224,24757.06536277001,100.0,50.0,50.0,0.5,202.12337447296423,19946.594926381506,0.0,0.0,0.0,0.0,20414.0,20454.0,20506.0,20521.0,20544.0,20562.0,20574.0,20592.0,20760.0,20854.0,0.1052401439723033,-0.10647742509364075,0.05927092393182917,-0.07025029807961697,0.01052732554611138
18,18,21381.69864360057,1830.963630227538,10.191860089718435,21465.753390998565,-2572.653499812189,11.98632674518653,21513.79413649406,27324.85286883513,8.216181992535432,21542.63020939635,-22291.960081523004,7.653829362302741,21773.109494795972,19156.89119097614,37.40317432493123,0.885416814760934,69.0,50.0,108.0,260.0,368.0,19.0,960.0,961.0,20.0,7.0,13.0,0.35,173.63652038121958,2499.82739205708,57.0,40.0,17.0,0.7017543859649122,185.07267440551504,1517.6490916596272,17.0,9.0,8.0,0.5294117647058824,1602.4055191411692,26060.08407772171,19.0,9.0,10.0,0.4736842105263157,1532.2739285924845,24144.418607026382,98.0,55.0,43.0,0.5612244897959183,216.73915629705067,19158.30307814981,0.0,0.0,0.0,0.0,21376.0,21395.0,21445.0,21480.0,21505.0,21522.0,21534.0,21553.0,21722.0,21813.0,0.09483340767377306,-0.07193843804423172,0.058642786727271426,-0.06873661728214428,0.011313900263689221
19,19,22309.54796540086,1472.3053395768666,14.86283902222184,22393.30135639943,-2507.960453537664,7.726743575654672,22433.156581431147,27761.029680703257,8.213912609907075,22461.5815237452,-21474.60545109015,7.5853970264943245,22685.56152939515,18063.84423176461,39.58860160068592,0.8859014323156912,95.0,78.0,80.0,263.0,343.0,17.0,927.0,920.0,24.0,20.0,4.0,0.8333333333333334,176.0306971870612,1670.9126957301228,39.0,29.0,10.0,0.7435897435897436,286.54200653477506,86.80953477290859,18.0,9.0,9.0,0.5,1682.6797423613332,25710.872519358687,18.0,9.0,9.0,0.5,1477.9455270389888,23880.53496147573,101.0,51.0,50.0,0.504950495049505,196.9469836200694,18688.48468251971,0.0,0.0,0.0,0.0,22296.0,22313.0,22391.0,22403.0,22424.0,22442.0,22453.0,22471.0,22639.0,22734.0,0.11956127065167853,-0.1142530003336322,0.060613016221475635,-0.06882294207477332,0.01090282783073081
20,20,23275.72601729957,2242.16584296126,7.64389620259217,23363.45203459914,-3489.0623660027945,8.591020333243067,23404.317196504115,28431.37342713889,8.011605731484671,23433.311765047907,-22627.922667135008,7.157444453642655,23667.95881659626,19304.08900353068,36.66312597980729,0.8751796919759434,89.0,76.0,87.0,262.0,349.0,13.0,970.0,971.0,13.0,9.0,4.0,0.6923076923076923,236.73098470505025,1891.771418636676,35.0,25.0,10.0,0.7142857142857143,312.6664280333864,1749.7863893273652,18.0,9.0,9.0,0.5,1703.4711130903463,27167.061716960685,18.0,8.0,10.0,0.4444444444444444,1600.3715621434046,25323.00016852225,93.0,55.0,38.0,0.5913978494623656,190.7531232628884,19205.45367872845,0.0,0.0,0.0,0.0,23267.0,23280.0,23356.0,23372.0,23395.0,23413.0,23425.0,23443.0,23614.0,23705.0,0.10558138928403098,-0.08961331017753897,0.059915189023697135,-0.0707255184528184,0.009881487970139385
21,21,24135.301356665972,1175.509697843195,10.191861602847952,24191.00118101595,-2784.6354103414033,18.209506577132764,24250.580599598343,29315.93637237372,7.590839085907682,24278.975724110405,-23740.250695491257,7.492561288050507,24503.410851195396,18855.18459557422,37.177473633289175,0.8903065735686861,31.0,20.0,125.0,260.0,385.0,11.0,860.0,845.0,17.0,7.0,10.0,0.4117647058823529,181.10400323961767,671.2756683851751,57.0,27.0,30.0,0.4736842105263157,176.04170294042038,2785.8125306890006,17.0,9.0,8.0,0.5294117647058824,1844.353470206284,26673.57935936571,18.0,8.0,10.0,0.4444444444444444,1577.618616970086,26664.95970834985,90.0,43.0,47.0,0.4777777777777778,167.41800813302115,20600.86008176602,0.0,0.0,0.0,0.0,24133.0,24144.0,24164.0,24217.0,24242.0,24259.0,24271.0,24289.0,24461.0,24549.0,0.1540642357710057,-0.06321894144082482,0.06291299881331221,-0.06645332592337397,0.008879149778905814
22,22,24945.994892872484,1783.2030427462007,6.871051750150035,25008.397287201147,-3608.5068561435096,16.009841991547326,25064.84705050452,29992.52267873729,7.653504748739447,25093.60121561408,-23089.83941734086,7.664638327435181,25315.68745518731,18948.41269474445,37.805063627632656,0.8960842641779544,58.0,44.0,107.0,258.0,365.0,14.0,810.0,815.0,14.0,7.0,7.0,0.5,142.3589840110529,1637.0631783484878,40.0,14.0,26.0,0.35,208.8762679904504,4072.029950773549,17.0,9.0,8.0,0.5294117647058824,1829.072990639973,27588.430768044647,19.0,9.0,10.0,0.4736842105263157,1551.6967010356016,24720.66606418272,89.0,42.0,47.0,0.4719101123595505,251.39991407952985,21482.225802975117,0.0,0.0,0.0,0.0,24939.0,24953.0,24997.0,25016.0,25056.0,25073.0,25085.0,25104.0,25274.0,25362.0,0.07983330030203102,-0.05788440380398253,0.06098429966135075,-0.06720257655279539,0.013267597562367764
23,23,25844.397287201147,1800.596797068892,12.938212012642037,25931.027373698995,-3209.5747367573504,9.538419096270092,25974.58251885375,28662.620297692443,8.48390774373909,26003.322204706503,-23220.86552070725,7.431471232646491,26233.260172995684,18678.822841894143,37.80427414975961,0.8910086807309128,83.0,65.0,99.0,263.0,362.0,18.0,894.0,910.0,21.0,14.0,7.0,0.6666666666666666,193.11305321230003,2361.2259016666544,27.0,17.0,10.0,0.6296296296296297,270.888473051202,1604.2409547016764,18.0,10.0,8.0,0.5555555555555556,1675.5094071532149,27931.546179128138,18.0,8.0,10.0,0.4444444444444444,1604.1968886637628,27439.78389576037,99.0,55.0,44.0,0.5555555555555556,183.338284456644,19552.750351526523,0.0,0.0,0.0,0.0,25831.0,25849.0,25914.0,25941.0,25965.0,25983.0,25995.0,26013.0,26179.0,26276.0,0.10724947057923229,-0.08440011380600597,0.058456253815988554,-0.06908428487444696,0.009815301853253853
24,24,27574.553790220147,2464.8555767468965,4.401524326170638,27665.45203459914,-2912.490975261883,15.28779240518434,27705.02264662514,27500.974039063527,7.563877278775215,27733.711901467635,-23296.79400397377,6.9729000888665915,27959.260172995684,17473.58154571703,36.35688665824337,0.8758208568338158,48.0,34.0,127.0,259.0,386.0,14.0,1733.0,1730.0,14.0,7.0,7.0,0.5,265.81473078000886,2852.531281338085,58.0,49.0,9.0,0.8448275862068966,227.6442260081581,1589.2932235088062,18.0,9.0,9.0,0.5,1735.1810056980785,27169.71843843307,17.0,8.0,9.0,0.4705882352941176,1606.4751180619398,25220.34253755457,95.0,50.0,45.0,0.5263157894736842,265.352607003956,18093.984392316048,0.0,0.0,0.0,0.0,27568.0,27582.0,27616.0,27674.0,27696.0,27714.0,27726.0,27743.0,27917.0,28002.0,0.1078419089895846,-0.07816134983480558,0.0630952563074077,-0.0689569181831595,0.01518593119044887
25,25,28550.72601729957,1887.1145058573131,7.64389620259217,28637.602712798853,-3112.4444190398317,11.5992436634401,28680.67015688096,29285.954187985135,7.359395682645348,28709.663085306525,-21486.644438129588,6.89260380481089,28939.260172995684,19005.202840242608,37.33697316178762,0.8837555470919463,72.0,60.0,104.0,263.0,367.0,12.0,978.0,976.0,12.0,8.0,4.0,0.6666666666666666,238.45868152688217,2474.725698660617,36.0,24.0,12.0,0.6666666666666666,265.9288992514837,1355.0265945925512,17.0,9.0,8.0,0.5294117647058824,1795.720920095872,27126.567213434715,18.0,9.0,9.0,0.5,1486.914483948896,22651.05130944002,93.0,48.0,45.0,0.5161290322580645,256.31141188882253,20306.384883009527,0.0,0.0,0.0,0.0,28543.0,28555.0,28615.0,28649.0,28672.0,28689.0,28701.0,28719.0,28895.0,28982.0,0.1263615327987481,-0.08544052951587196,0.06131679741657812,-0.06920180059899256,0.013486381284292078
26,26,29662.30135639943,1642.5531807768675,10.19186160345622,29703.224732633007,-1969.8008382244743,16.527516811584047,29759.488630189127,27151.630649361967,8.49827156230146,29787.46211271301,-22607.23655340573,6.703227508706254,30015.56152939511,18851.82938445694,39.42836356258134,0.8916749034681045,37.0,23.0,106.0,267.0,373.0,14.0,1112.0,1078.0,21.0,14.0,7.0,0.6666666666666666,223.04858552259944,627.7289470291053,42.0,16.0,26.0,0.3809523809523809,194.7282661774096,2102.1102218761016,19.0,10.0,9.0,0.5263157894736842,1525.9990904888464,26822.4641733389,18.0,8.0,10.0,0.4444444444444444,1705.384021614487,26534.256129867885,103.0,53.0,50.0,0.5145631067961165,247.3946819442751,20372.14674329378,0.0,0.0,0.0,0.0,29654.0,29668.0,29691.0,29711.0,29750.0,29768.0,29779.0,29797.0,29968.0,30064.0,0.13579382885923097,-0.09885682978637193,0.056202852425171215,-0.07543531548342093,0.01312311271755135
27,27,30613.36546596524,2546.0854427112085,13.349451373173531,30669.877486311387,-2670.4829883438306,12.5078749610454,30728.328172552716,26477.26106857724,8.556661496182649,30757.064244571626,-21534.0692618878,8.02984333836278,30981.56152939511,18731.39923507876,40.73093387334394,0.8971477779321448,62.0,29.0,112.0,262.0,374.0,33.0,948.0,970.0,33.0,19.0,14.0,0.5757575757575758,112.95224290424758,2236.5881317973244,36.0,16.0,20.0,0.4444444444444444,139.2453464536916,2640.230783516409,18.0,9.0,9.0,0.5,1535.264567449568,25964.44294713464,20.0,9.0,11.0,0.45,1460.1584677021624,25204.159788391444,103.0,54.0,49.0,0.5242718446601942,192.08934030052671,20033.69342428596,0.0,0.0,0.0,0.0,30594.0,30627.0,30656.0,30688.0,30719.0,30737.0,30748.0,30768.0,30939.0,31030.0,0.04436309992172532,-0.052142382880352375,0.057984266706181085,-0.06780689938090023,0.010254938133014441
28,28,31563.123304500717,1427.3881478904043,12.73982700432021,31635.972626301005,-2331.7323055595925,14.533950633430832,31691.031493282604,29808.46939190662,7.344379085623066,31719.39811428509,-22225.13209359463,6.879466427323843,31942.390126478185,19093.675148243372,41.67635338779386,0.9043765271252658,73.0,60.0,103.0,263.0,366.0,13.0,949.0,962.0,13.0,10.0,3.0,0.7692307692307693,190.32818651786656,2425.8527737022096,18.0,11.0,7.0,0.6111111111111112,256.4475520656714,3637.2715984764254,18.0,9.0,9.0,0.5,1860.1896571270156,27955.035829307235,18.0,8.0,10.0,0.4444444444444444,1565.5430389149797,24338.8276509431,99.0,48.0,51.0,0.4848484848484848,228.6332687788801,20498.237175603197,0.0,0.0,0.0,0.0,31553.0,31566.0,31626.0,31641.0,31682.0,31700.0,31711.0,31729.0,31898.0,31992.0,0.13334017576029367,-0.10998155811206062,0.06240473580411616,-0.070440213013005,0.011974293424590629
29,29,32599.845877224172,2222.1142700853197,7.514129010925156,32683.30135639943,-2772.166571369998,6.709740358757093,32722.332707698715,30256.24340194735,7.428180814291291,32751.37921409021,-21788.47746124271,7.171103514703779,32975.0495982358,19348.749193099833,41.826291198435,0.8977472125054995,58.0,38.0,114.0,263.0,377.0,20.0,1041.0,1031.0,22.0,12.0,10.0,0.5454545454545454,172.83362796158926,2568.201105489998,43.0,36.0,7.0,0.8372093023255814,235.85709951865184,806.7210365358528,18.0,9.0,9.0,0.5,1854.1166984371116,28244.30277968863,18.0,8.0,10.0,0.4444444444444444,1480.8938377621785,23417.27515582798,97.0,46.0,51.0,0.4742268041237113,175.9414375319562,20690.291318448624,0.0,0.0,0.0,0.0,32589.0,32609.0,32647.0,32689.0,32713.0,32731.0,32743.0,32761.0,32931.0,33024.0,0.07777891096255513,-0.08508042119636838,0.06128046611093091,-0.06796683432315952,0.009093168544181688
30,30,33556.12330450071,2656.5204580735845,9.573839475810209,33641.87669549929,-2050.39500160685,10.863435862088314,33688.785745411915,29481.90074488517,8.23875630396989,33717.280033634794,-21732.057605503735,7.456752079232123,33940.58599178217,19161.13933274839,41.81584802367004,0.9031036951328518,90.0,61.0,89.0,265.0,354.0,29.0,952.0,966.0,30.0,8.0,22.0,0.2666666666666666,172.65495195859822,4009.8657387695225,47.0,33.0,14.0,0.7021276595744681,195.36120817600963,871.2215515287545,17.0,9.0,8.0,0.5294117647058824,1707.080056280328,28464.040620745745,20.0,9.0,11.0,0.45,1574.9720915126657,25496.029170267026,108.0,55.0,53.0,0.5092592592592593,211.749539029248,19820.14129365796,0.0,0.0,0.0,0.0,33549.0,33578.0,33639.0,33654.0,33680.0,33697.0,33708.0,33728.0,33890.0,33993.0,0.06499289378098806,-0.09527979146599035,0.057902645797913495,-0.07247229508142834,0.011050988949667826
31,31,34449.726017299574,772.9344738005794,7.643896202197269,34509.36991350215,-3276.2742698414895,19.558384471215327,34568.19203418757,26802.749678654705,7.606977323296955,34597.038873045676,-23462.91140994197,7.716087902611382,34820.212186747565,18551.36590496451,36.517174653577214,0.8787478799946364,43.0,34.0,120.0,257.0,377.0,9.0,897.0,880.0,9.0,5.0,4.0,0.5555555555555556,169.22012655593275,143.4356344193862,53.0,22.0,31.0,0.4150943396226415,192.54945270302952,3060.319249742656,17.0,9.0,8.0,0.5294117647058824,1639.871907783193,24883.868990440937,20.0,9.0,11.0,0.45,1560.2850486168948,25136.18080663719,87.0,42.0,45.0,0.4827586206896552,159.5838104736288,19290.667112378775,0.0,0.0,0.0,0.0,34445.0,34454.0,34488.0,34540.0,34560.0,34576.0,34588.0,34608.0,34779.0,34865.0,0.21893204701281355,-0.05877085886107616,0.06118297292046724,-0.06650006136730982,0.008602267417458611
32,32,35370.726017299574,1244.2240138335824,6.540436084754129,35426.39728720114,-3296.3515318226996,16.18493569099667,35482.84682349984,28342.123933553463,7.944285163830245,35511.70965520769,-21682.304319463932,7.34006253806564,35745.53415569612,18468.069528306787,35.62015306026808,0.8608138999784269,48.0,40.0,106.0,263.0,369.0,8.0,921.0,915.0,9.0,5.0,4.0,0.5555555555555556,183.93091086676125,995.0714874340686,29.0,12.0,17.0,0.4137931034482758,191.41792853313157,3960.43898269427,18.0,9.0,9.0,0.5,1731.9043976984992,26680.09707198721,17.0,8.0,9.0,0.4705882352941176,1485.4325526535608,24034.404384680463,97.0,58.0,39.0,0.5979381443298969,206.1141710576684,18512.10338748627,0.0,0.0,0.0,0.0,35367.0,35375.0,35415.0,35443.0,35474.0,35492.0,35504.0,35521.0,35690.0,35784.0,0.14782780980094667,-0.058069634468653916,0.061107078698789584,-0.06850897998512578,0.011160569367672594
33,33,36367.69864360057,1247.533523387448,10.19186160345606,36420.85076944975,-3304.022668173909,15.075118691157966,36477.43984333478,29822.478105427377,7.657983552838232,36506.12535144066,-21728.465271870213,7.364901099844167,36739.95881659626,19316.395470706306,35.79159483225145,0.8587379866669872,41.0,30.0,113.0,261.0,374.0,11.0,994.0,994.0,13.0,6.0,7.0,0.4615384615384615,167.5067540914,1370.453149062717,24.0,18.0,6.0,0.75,207.44356711350292,4203.76640143461,17.0,8.0,9.0,0.4705882352941176,1817.2917757934977,28672.972400668514,18.0,8.0,10.0,0.4444444444444444,1507.4552237203782,25502.494147569356,98.0,59.0,39.0,0.6020408163265306,169.0553895284612,18998.432929534076,0.0,0.0,0.0,0.0,36362.0,36373.0,36403.0,36427.0,36469.0,36486.0,36498.0,36516.0,36684.0,36777.0,0.1342703430017385,-0.06278515250870065,0.06093698080250312,-0.06937697646192885,0.008751911803878578
34,34,37346.60271279886,1471.1832798994851,14.618613599071928,37401.42840647737,-2596.6909108748036,13.181833279664705,37460.71417052159,28132.069374315655,8.212725276632673,37489.285854935915,-22797.695097672826,7.2040207814472215,37711.52381022228,18150.223063371235,41.4381022429183,0.9009459277533154,50.0,31.0,110.0,262.0,372.0,19.0,984.0,984.0,21.0,9.0,12.0,0.4285714285714285,177.62723815471378,1711.952760369379,26.0,13.0,13.0,0.5,173.4956342405199,2616.6652186154497,18.0,10.0,8.0,0.5555555555555556,1632.2849000126405,26650.49561614274,19.0,9.0,10.0,0.4736842105263157,1612.8833931197262,25862.759019188536,102.0,51.0,51.0,0.5,217.4170482664557,18595.746327423476,0.0,0.0,0.0,0.0,37339.0,37358.0,37389.0,37408.0,37451.0,37469.0,37480.0,37499.0,37666.0,37761.0,0.12073766782263166,-0.06681412620729306,0.05802221224091332,-0.07074765173451102,0.011978753512138517
35,35,39265.87669549929,2462.500582494308,12.739827004277208,39315.30135639943,-2879.104442020757,5.975740568850521,39359.61392853552,28857.708740394035,7.992063366861007,39388.67578598079,-20258.042008319026,6.663118310809879,39613.986190295254,19267.071463468455,41.9668134146302,0.8973746030809316,46.0,33.0,89.0,263.0,352.0,13.0,1918.0,1899.0,14.0,3.0,11.0,0.2142857142857142,265.953838187271,2353.362759707392,16.0,6.0,10.0,0.375,261.533642520673,1556.8209726973157,18.0,9.0,9.0,0.5,1729.4051367074765,27688.367357246316,17.0,8.0,9.0,0.4705882352941176,1480.7236321993687,21833.43759809123,103.0,55.0,48.0,0.5339805825242718,182.19839664673975,21131.402512930843,0.0,0.0,0.0,0.0,39263.0,39276.0,39309.0,39321.0,39351.0,39369.0,39381.0,39398.0,39565.0,39661.0,0.1080015331074082,-0.09083853947900217,0.0599287057841399,-0.07309312674893778,0.009456465503447115
36,36,40320.94525260201,1810.8890380521657,19.083424627259244,40371.273982700426,-1892.940948082998,7.64389620259217,40445.7220246395,29209.981561361983,7.435660423495368,40475.08178126197,-22736.755728021544,6.806248752426556,40700.21989779341,18685.44652664405,39.67828317663971,0.8827581617543141,68.0,38.0,117.0,265.0,382.0,30.0,1047.0,1086.0,46.0,23.0,23.0,0.5,166.1880295412774,1831.84631279591,12.0,4.0,8.0,0.3333333333333333,236.12294671156045,3191.4784860466575,18.0,9.0,9.0,0.5,1800.8405336471428,26829.86298875059,17.0,8.0,9.0,0.4705882352941176,1551.4570188595997,23835.837425477835,100.0,49.0,51.0,0.49,158.82896809736042,19524.424161730265,0.0,0.0,0.0,0.0,40299.0,40329.0,40367.0,40379.0,40437.0,40455.0,40467.0,40484.0,40664.0,40749.0,0.09177151446012015,-0.12473867552534311,0.061651546402522774,-0.06823563737140967,0.008500143032219337
37,37,41367.45057922682,1413.6111377634722,9.078256384534235,41426.58145204912,-2703.894792252299,15.828254517252052,41486.8132143487,27145.515034023687,8.009484286182062,41515.84091357793,-22207.799693044097,7.634691204788942,41740.576307234594,17840.722300625417,38.38898340286267,0.8771063787295634,50.0,33.0,119.0,261.0,380.0,17.0,1051.0,1041.0,17.0,10.0,7.0,0.5882352941176471,158.78511618955812,1306.7498023788517,34.0,23.0,11.0,0.6764705882352942,225.96403044786345,2701.11671596825,17.0,9.0,8.0,0.5294117647058824,1625.7617302063193,26100.73284772165,19.0,9.0,10.0,0.4736842105263157,1498.5282050298306,24304.121683499667,100.0,51.0,49.0,0.51,211.56241007797925,18761.483747934857,0.0,0.0,0.0,0.0,41357.0,41374.0,41407.0,41436.0,41478.0,41495.0,41507.0,41526.0,41696.0,41787.0,0.11232588082234417,-0.08356983085855911,0.05989062016943202,-0.06747756309686087,0.011858399369321655
38,38,42280.21777567166,2594.454141891525,3.669544177735168,42334.13523868036,-3235.000104670691,12.739827004320285,42389.26684892312,28112.906612963616,7.826738778901603,42418.38829502061,-22221.819365119365,7.801504425889971,42642.61760627585,18411.194569901276,38.43927321877809,0.8997054874877438,38.0,30.0,115.0,260.0,375.0,8.0,913.0,903.0,11.0,5.0,6.0,0.4545454545454545,286.6852566632248,2543.432132665236,25.0,20.0,5.0,0.8,211.46111364891144,3784.8140887216305,18.0,9.0,9.0,0.5,1678.8295515746197,26476.576058248836,20.0,9.0,11.0,0.45,1460.6101735804923,24908.36636156775,98.0,50.0,48.0,0.5102040816326531,223.35198108497215,19329.24854521133,0.0,0.0,0.0,0.0,42276.0,42284.0,42314.0,42339.0,42381.0,42398.0,42409.0,42429.0,42595.0,42689.0,0.11049925764122878,-0.06536664816288693,0.05971739509853692,-0.06572864937751899,0.012131313926262516
39,39,43208.821948101286,2894.4470770520425,14.448252233664274,43279.33615223393,-2138.6839806414428,10.61653514953589,43332.41428420153,29330.756439655142,7.92734452570133,43360.66187724614,-20971.635719181024,6.828004518631593,43584.35452059029,19030.442775859872,41.7721640705759,0.8969275357042293,70.0,39.0,104.0,264.0,368.0,31.0,926.0,943.0,33.0,14.0,19.0,0.4242424242424242,151.42116454605858,3332.3901560975746,32.0,13.0,19.0,0.40625,152.6957894279898,2270.4065239873194,19.0,9.0,10.0,0.4736842105263157,1764.990333618356,27286.07215456826,17.0,8.0,9.0,0.4705882352941176,1504.666987419143,22863.275969938502,100.0,49.0,51.0,0.49,206.3235851152725,20294.984896075388,0.0,0.0,0.0,0.0,43196.0,43227.0,43266.0,43293.0,43323.0,43341.0,43353.0,43370.0,43539.0,43634.0,0.052314366272773284,-0.07139707914312458,0.06017541133825283,-0.07174771713409786,0.010841764826249555
40,40,44188.027373699,1902.656245982383,17.8357578060484,44241.59659110958,-1961.724955101694,14.484201439495717,44298.41570728869,28959.44773522848,8.180429104310313,44327.54429581197,-21515.328254363183,7.321111111091525,44559.10949479597,19319.732362068477,36.93293075454951,0.8722379921710722,47.0,32.0,108.0,261.0,369.0,15.0,986.0,966.0,17.0,6.0,11.0,0.3529411764705882,175.93533910897898,1670.5109890178437,20.0,14.0,6.0,0.7,182.25504681185348,2151.2509641834217,20.0,10.0,10.0,0.5,1681.8797278511763,27073.863616487837,19.0,9.0,10.0,0.4736842105263157,1513.7321564252609,22523.899177733387,94.0,53.0,41.0,0.5638297872340425,196.3999424497962,20049.37576055211,0.0,0.0,0.0,0.0,44183.0,44198.0,44230.0,44246.0,44289.0,44307.0,44319.0,44338.0,44507.0,44599.0,0.09246827401454208,-0.09290550458558322,0.058077064978183594,-0.07035598706788426,0.010165769316525282
41,41,45065.821948101264,3363.3800613169533,22.93168860707118,45124.08207611108,-1277.513018066617,2.962513441057959,45185.792265112745,28218.70131110896,8.463011407606167,45214.55424892996,-20925.334686600458,7.139155640062343,45444.10949479597,18807.652477870597,37.17637855833113,0.8505606284762243,67.0,27.0,105.0,259.0,364.0,40.0,871.0,887.0,46.0,18.0,28.0,0.391304347826087,217.28115772125372,3812.512306289896,8.0,4.0,4.0,0.5,159.60854740618743,1636.2671644208897,19.0,10.0,9.0,0.5263157894736842,1626.107157746479,27497.477434905108,19.0,9.0,10.0,0.4736842105263157,1542.201957071185,22448.551474322485,97.0,56.0,41.0,0.5773195876288659,160.7288110772001,18750.386280257597,0.0,0.0,0.0,0.0,45053.0,45093.0,45120.0,45128.0,45176.0,45195.0,45206.0,45225.0,45390.0,45484.0,0.06460202348829287,-0.12493692443755944,0.05762515928067616,-0.07370022894108041,0.008545926253492634
42,42,46598.40003172106,667.1609626345968,2.149297968258742,46953.53128849007,-3754.121244238326,18.965339828600392,47009.41322173357,28373.11625408529,7.196216343281246,47037.97798373811,-21637.842710290977,7.614602696872176,47265.10011463352,17081.382683202046,32.847987344021156,0.8476526334468681,332.0,323.0,122.0,258.0,380.0,9.0,1536.0,1823.0,9.0,4.0,5.0,0.4444444444444444,172.51749277610853,3952.101886727039,57.0,30.0,27.0,0.5263157894736842,150.28808308699698,3334.114882281301,17.0,8.0,9.0,0.4705882352941176,1796.336667437096,26207.5502467718,18.0,8.0,10.0,0.4444444444444444,1427.6071818510425,23434.042061522283,83.0,40.0,43.0,0.4819277108433735,202.44770470782183,17681.175155284658,0.0,0.0,0.0,0.0,46594.0,46603.0,46926.0,46980.0,47001.0,47018.0,47030.0,47048.0,47227.0,47306.0,0.25858451324076664,-0.040032826142110636,0.06331122219183279,-0.06597733429183637,0.011851950656600555
43,43,48063.87669549929,2095.5264537365374,10.640995199964548,48128.30135639943,-2157.235331008145,4.565507674568796,48166.42804535647,29308.826538489455,8.37886273911516,48195.56765195615,-21129.898837321583,7.303898606892031,48433.68483389583,19601.4966575034,38.799092340239,0.8751171494739021,64.0,50.0,84.0,270.0,354.0,14.0,1468.0,1158.0,20.0,8.0,12.0,0.4,190.96913864108305,2806.6093796471996,13.0,7.0,6.0,0.5384615384615384,237.38728162724817,690.5559510015521,19.0,9.0,10.0,0.4736842105263157,1706.1932041448504,28585.573535135267,18.0,9.0,9.0,0.5,1492.271110590084,23407.37369548045,106.0,64.0,42.0,0.6037735849056604,278.6554141114865,19195.986219386097,0.0,0.0,0.0,0.0,48057.0,48071.0,48121.0,48134.0,48157.0,48175.0,48187.0,48205.0,48385.0,48475.0,0.0911318195485271,-0.11004236682713217,0.05821431308088071,-0.0706236751098068,0.014216027427926934
44,44,49954.10027977121,1958.9580319065776,7.10427344880598,50005.39728720114,-2369.2023129826143,20.383723206912453,50078.14630026442,27785.20689994096,7.728378751427881,50106.93877383536,-21957.818074687988,7.102155160765073,50332.18046559777,18917.911408588043,37.50371637696457,0.8903857236632198,51.0,34.0,122.0,263.0,385.0,17.0,1886.0,1911.0,18.0,11.0,7.0,0.6111111111111112,206.0322698209551,2007.8505628552916,50.0,11.0,39.0,0.22,195.92204289151695,3927.945485494127,18.0,9.0,9.0,0.5,1678.7354488394549,26862.45195458573,17.0,8.0,9.0,0.4705882352941176,1517.923381368135,24454.506550773094,89.0,42.0,47.0,0.4719101123595505,249.53525780086832,21520.38778999904,0.0,0.0,0.0,0.0,49943.0,49960.0,49994.0,50010.0,50069.0,50087.0,50099.0,50116.0,50291.0,50379.0,0.10517441745315591,-0.08269536198657032,0.060418317376035875,-0.06912906265117165,0.01319042321382203
45,45,50977.1812990682,1847.5034038266372,17.186355045403975,51053.45203459914,-2241.571452988076,6.476305050357119,51093.51548177973,31152.440649971795,7.687139552699695,51122.33976633544,-21488.74663905526,6.9460544251571,51348.13686849497,19811.50128825553,42.2917682928766,0.8979913871752256,75.0,44.0,101.0,266.0,367.0,31.0,1025.0,1016.0,31.0,21.0,10.0,0.6774193548387096,146.32004751170936,1373.116440579086,31.0,22.0,9.0,0.7096774193548387,208.18032415573873,326.80387345940505,19.0,10.0,9.0,0.5263157894736842,1902.795003711608,28700.819496880024,18.0,8.0,10.0,0.4444444444444444,1535.2864101921152,23392.33181955853,106.0,53.0,53.0,0.5,183.9988614162013,21015.083334560557,0.0,0.0,0.0,0.0,50956.0,50987.0,51031.0,51062.0,51084.0,51102.0,51114.0,51132.0,51301.0,51398.0,0.07919879725723065,-0.09287249080471142,0.06108012611568303,-0.0714460659795658,0.009287476942763433
46,46,51996.84932180029,1228.2133981794775,5.095930801728113,52085.87669549929,-3587.870881008069,8.93043029353625,52126.267190007035,28022.724387720496,8.060153129613983,52155.53947521406,-23217.43823661513,7.546636107343428,52382.03660413537,18741.95418444428,37.32752109897874,0.8754447886307953,58.0,50.0,114.0,263.0,377.0,8.0,1019.0,1033.0,9.0,4.0,5.0,0.4444444444444444,166.79953583453772,1684.1907017434817,41.0,34.0,7.0,0.8292682926829268,271.1586494894082,2133.4756791525388,18.0,9.0,9.0,0.5,1659.2114882929382,26214.805287862095,19.0,9.0,10.0,0.4736842105263157,1568.8585976033933,24344.759468479613,94.0,47.0,47.0,0.5,231.79490281216215,20836.41713872827,0.0,0.0,0.0,0.0,51994.0,52002.0,52052.0,52093.0,52118.0,52135.0,52147.0,52166.0,52337.0,52429.0,0.13580664083438332,-0.0755764793333984,0.05920949959526424,-0.0675724247272561,0.012367701923236515
47,47,52923.273982700426,1650.0024396390404,6.2558147738852,53014.27397408918,-2193.6799809452614,5.322111187722886,53053.53361342646,26501.44456146952,8.350777366842893,53081.6528528879,-21331.312604663883,7.715445879047284,53308.4108511954,18971.803903336327,39.88811283127168,0.8950130526075516,91.0,80.0,82.0,262.0,344.0,11.0,926.0,927.0,13.0,5.0,8.0,0.3846153846153846,215.89074321014996,2652.660169734055,12.0,4.0,8.0,0.3333333333333333,305.5147724290479,572.189835208508,18.0,10.0,8.0,0.5555555555555556,1613.608379823876,24933.737337284587,19.0,9.0,10.0,0.4736842105263157,1477.746211659167,24024.000967254025,102.0,54.0,48.0,0.5294117647058824,184.27141774123783,20765.423470229805,0.0,0.0,0.0,0.0,52919.0,52930.0,53010.0,53022.0,53044.0,53062.0,53073.0,53092.0,53260.0,53354.0,0.13084268121287074,-0.13927043829674782,0.06088756316966597,-0.06927591560099645,0.009712909677968597
48,48,54699.726017299574,1775.2229538656918,7.64389620259217,54747.94525260201,-1904.7380294968916,14.948615896028103,54812.770655071625,29240.961459517916,7.6322353692587805,54841.576836931024,-21574.845820430084,6.906774535302188,55070.835512095546,19231.472815408553,37.37655831232071,0.879346428447355,56.0,24.0,123.0,264.0,387.0,32.0,1779.0,1759.0,33.0,29.0,4.0,0.8787878787878788,110.4098193376894,1200.0026748503992,31.0,20.0,11.0,0.6451612903225806,155.6508445596859,1053.9273078529134,18.0,9.0,9.0,0.5,1788.7047870855383,28207.54289715919,17.0,8.0,9.0,0.4705882352941176,1504.8304252785713,23653.83465924405,92.0,48.0,44.0,0.5217391304347826,189.52680270906257,21420.917919935942,0.0,0.0,0.0,0.0,54672.0,54704.0,54728.0,54758.0,54804.0,54822.0,54834.0,54851.0,55026.0,55115.0,0.0621949029541687,-0.08171771768572227,0.061171202922375725,-0.06974930146910191,0.009855033180673024
49,49,55683.086731462754,2357.636427162496,20.383723206912453,55727.123304500696,-1833.666335911577,12.739826937709587,55797.22452878283,30494.031699487397,8.180173710986496,55826.035995358114,-20803.55303555043,6.6559384140782285,56050.92301465083,19789.058935820285,42.36681521530173,0.9027691306523782,64.0,21.0,120.0,266.0,386.0,43.0,985.0,984.0,44.0,32.0,12.0,0.7272727272727273,151.48761314634257,2097.4650540837392,16.0,12.0,4.0,0.75,200.7127723339637,2534.5611281462207,18.0,9.0,9.0,0.5,1771.7797640660017,30365.005584633247,16.0,7.0,9.0,0.4375,1558.942520082585,23328.66217185404,100.0,49.0,51.0,0.49,236.1992435848062,22521.99503936311,0.0,0.0,0.0,0.0,55651.0,55694.0,55715.0,55730.0,55788.0,55806.0,55819.0,55835.0,56003.0,56101.0,0.06425401788038353,-0.10945981196419939,0.058102509419762464,-0.07493635906417356,0.01193585022667554
50,50,56609.738643048986,2002.4223928444512,14.845977409373422,56674.002998389646,-2693.5590435476875,12.704778135628986,56732.27257424445,28341.67282958958,8.327360244969766,56760.38279377291,-22187.58339670535,7.602930580758554,56987.4108511954,18847.30098834175,38.79968555151663,0.8939321382606,75.0,34.0,109.0,262.0,371.0,41.0,920.0,935.0,42.0,23.0,19.0,0.5476190476190477,167.6151840024691,1894.3074263348176,19.0,13.0,6.0,0.6842105263157895,191.7602876300883,3351.9314351811468,18.0,9.0,9.0,0.5,1665.0992742840515,27101.45884918778,19.0,8.0,11.0,0.4210526315789473,1541.1921752120063,25620.376568816147,92.0,45.0,47.0,0.4891304347826087,202.39604762669435,20974.89763031298,0.0,0.0,0.0,0.0,56587.0,56628.0,56662.0,56679.0,56723.0,56741.0,56752.0,56771.0,56944.0,57033.0,0.08370620734238339,-0.07119216045753382,0.05875091721987689,-0.06946192145652325,0.010738728465783463
51,51,58413.821948101286,1269.5940945019663,10.286870621963557,58480.87390821371,-3613.364517086319,15.207635814398737,58540.1388216999,28331.090981626417,7.7186616599849165,58569.10729096714,-22529.30797228451,7.191049600835404,58797.68483389583,18466.99588559584,37.68795947360042,0.8861909337410736,64.0,45.0,113.0,261.0,374.0,19.0,1804.0,1809.0,20.0,13.0,7.0,0.65,168.54541485842967,1293.881550436939,46.0,23.0,23.0,0.5,173.12503015554026,4343.486037463694,18.0,9.0,9.0,0.5,1725.6045801501782,26753.014096149607,17.0,8.0,9.0,0.4705882352941176,1544.6700745565051,25102.06231535784,93.0,51.0,42.0,0.5483870967741935,184.57269828460812,19783.11755425704,0.0,0.0,0.0,0.0,58401.0,58420.0,58465.0,58504.0,58531.0,58549.0,58561.0,58578.0,58750.0,58839.0,0.1327553551078436,-0.04791241773059247,0.060908511474877046,-0.06856269515498452,0.00999473327595063
52,52,59368.69864360057,1951.4519206500097,6.055867088675305,59455.178051898714,-3053.8593361660455,10.78236932738512,59499.86594498312,28138.811610488516,8.289119820587107,59528.42496732926,-21893.769241280937,7.4343848923731155,59753.30977180096,18552.46939424891,39.214320294265235,0.870909609124465,79.0,58.0,96.0,264.0,360.0,21.0,957.0,959.0,21.0,6.0,15.0,0.2857142857142857,174.61930588338402,2825.588397757405,51.0,38.0,13.0,0.7450980392156863,213.7084834397532,2174.5225617271904,19.0,10.0,9.0,0.5263157894736842,1689.5072454631809,26138.83013530796,18.0,8.0,10.0,0.4444444444444444,1523.0529752356756,25343.33132944468,106.0,54.0,52.0,0.5094339622641509,235.5912476861351,19516.981039380567,0.0,0.0,0.0,0.0,59363.0,59384.0,59442.0,59468.0,59491.0,59509.0,59520.0,59538.0,59707.0,59802.0,0.08948173615531353,-0.06997980585053816,0.06004188339046382,-0.06956559002932866,0.012698646346192931
53,53,59986.726017299574,1519.6463452930493,4.566349536453443,60272.13358042232,-4511.379692178847,17.7354560126386,60335.07163799327,28074.67666749591,7.985812340921555,60363.307995712334,-23183.272491970005,8.061773290643552,60586.98619029528,18747.04965017724,37.255243924306626,0.887196656640342,273.0,261.0,122.0,260.0,382.0,12.0,621.0,835.0,12.0,8.0,4.0,0.6666666666666666,167.53124060892864,1479.4999374201416,51.0,22.0,29.0,0.4313725490196078,238.1358953857591,4070.583809619854,18.0,9.0,9.0,0.5,1778.3464723902982,26164.27984390837,19.0,8.0,11.0,0.4210526315789473,1520.265374753846,27530.189634388313,97.0,49.0,48.0,0.5051546391752577,201.319201663166,20289.07290470538,0.0,0.0,0.0,0.0,59979.0,59991.0,60252.0,60285.0,60326.0,60344.0,60355.0,60374.0,60540.0,60634.0,0.1102435715571848,-0.052785602550502096,0.06334343556124437,-0.06557596108489086,0.010738713846701883
54,54,61780.92391723216,2690.179032448995,15.608104248648216,61862.726017299574,-1574.0776615355978,6.241630374501378,61899.064985782454,27892.23351894726,8.326941192735493,61927.93832876997,-21265.604710395153,7.0393591088118,62148.12897687599,18393.899375956033,42.15007978867642,0.9142256358310948,101.0,62.0,77.0,260.0,337.0,39.0,1792.0,1564.0,39.0,21.0,18.0,0.5384615384615384,115.12786220200437,2840.3188204896196,10.0,3.0,7.0,0.3,225.04423624669383,110.74562015825995,18.0,9.0,9.0,0.5,1599.8021832796246,27827.57587105412,18.0,8.0,10.0,0.4444444444444444,1576.1177860032872,24311.97839153836,101.0,50.0,51.0,0.495049504950495,174.50300945606506,19769.276580662772,0.0,0.0,0.0,0.0,61760.0,61799.0,61861.0,61870.0,61890.0,61908.0,61920.0,61938.0,62110.0,62198.0,0.04279561353104374,-0.14296895365832904,0.05735654630142384,-0.07411582259087332,0.00948700467961515
55,55,62600.273982700426,1083.0973467539563,5.524867537037104,62671.90406919828,-3482.5638444576703,30.5400056578826,62717.73110078918,28806.071339388123,7.96179667191104,62746.53575999359,-22804.195731185388,7.448815226308021,62970.15113777624,16710.14453023699,32.89394450802906,0.8750506569525068,57.0,51.0,103.0,255.0,358.0,6.0,819.0,819.0,7.0,5.0,2.0,0.7142857142857143,172.75206462650783,1095.511934724732,57.0,39.0,18.0,0.6842105263157895,190.64645625105817,3199.7845159225963,18.0,9.0,9.0,0.5,1785.3154193663906,27007.723745278046,18.0,9.0,9.0,0.5,1551.3706403097738,25182.393450812815,79.0,38.0,41.0,0.4810126582278481,164.52232119630426,18036.418906194856,0.0,0.0,0.0,0.0,62596.0,62602.0,62653.0,62689.0,62709.0,62727.0,62738.0,62756.0,62932.0,63011.0,0.1594981883615964,-0.05474313315302537,0.061977053320882075,-0.06803005282875337,0.009845655188595244
56,56,63550.557410694266,2118.231749758991,17.71630161815025,63610.538182288416,-2211.0902960699295,12.348652781981666,63666.13903969446,30122.197604554825,7.737897004568723,63694.52863483904,-20961.26671268428,7.023384497510867,63919.62377464059,19330.00810813104,39.770949081392835,0.9034564126852654,64.0,34.0,103.0,263.0,366.0,30.0,950.0,948.0,38.0,15.0,23.0,0.3947368421052631,179.61620462756417,2578.5887417755316,29.0,11.0,18.0,0.3793103448275862,137.78657874917164,2253.702697197644,18.0,9.0,9.0,0.5,1834.25723075887,28217.660102730228,17.0,8.0,9.0,0.4705882352941176,1484.680184400575,22327.717136189774,100.0,51.0,49.0,0.51,190.2015750453275,20863.46529204661,0.0,0.0,0.0,0.0,63537.0,63567.0,63601.0,63629.0,63657.0,63675.0,63687.0,63704.0,63876.0,63967.0,0.08479535095628729,-0.06231612476165193,0.06089387151757842,-0.07082969768721807,0.009839704876549971
57,57,64468.027373699,1470.0903864556014,16.675565936050212,64544.45203459914,-2587.243147794352,10.984824538940492,64587.091761036885,28945.59478985807,7.954931041731492,64615.69120932844,-21525.84716968316,7.38697405140714,64839.16727703382,18113.36118976628,38.602367099629014,0.8823492393709971,71.0,41.0,107.0,258.0,365.0,30.0,922.0,921.0,31.0,20.0,11.0,0.6451612903225806,105.81540085012088,1039.2536671614705,39.0,26.0,13.0,0.6666666666666666,191.97939707646043,759.5292077159481,18.0,9.0,9.0,0.5,1734.3884268124073,27342.40237179473,19.0,9.0,10.0,0.4736842105263157,1514.0076311681282,23204.968001896068,91.0,45.0,46.0,0.4945054945054945,243.34692433216551,19991.94080265893,0.0,0.0,0.0,0.0,64448.0,64478.0,64519.0,64553.0,64578.0,64596.0,64607.0,64626.0,64796.0,64884.0,0.07197884009380034,-0.07420230187492219,0.05991890784777035,-0.07033440399504672,0.013434664156625557
58,58,65370.12279385916,1399.8297252774348,4.495653904335419,65456.178051898714,-2224.0520613343847,22.931688607061,65500.7177720898,26558.084127197533,8.367850201489457,65528.93328320961,-21998.845710502897,7.775717830142249,65759.95881659626,17892.278468492754,35.76243988978421,0.8629763565679406,57.0,46.0,117.0,257.0,374.0,11.0,899.0,914.0,11.0,4.0,7.0,0.3636363636363636,180.83964010638203,1528.0821442725792,52.0,38.0,14.0,0.7307692307692307,205.27181286119335,1342.8111037401177,17.0,9.0,8.0,0.5294117647058824,1622.5632103357398,25743.097349900137,20.0,9.0,11.0,0.45,1492.5456720947072,24358.86264837737,103.0,65.0,38.0,0.6310679611650486,226.13713699221844,18636.671270132952,0.0,0.0,0.0,0.0,65366.0,65377.0,65423.0,65469.0,65493.0,65509.0,65520.0,65540.0,65716.0,65797.0,0.1291868838337042,-0.09229631645314748,0.06109488932125603,-0.06784654484767452,0.01263881161867856
59,59,67042.84932180027,1001.2261808182836,5.095930801727998,67101.054747398,-3484.968186398239,15.470601053836727,67152.83865650554,26894.977820969907,7.420294127487187,67181.14555604177,-22259.240537535123,7.2574059581747346,67403.38724091956,17258.277061970974,37.83843011687897,0.880120368113573,49.0,44.0,103.0,259.0,362.0,5.0,1672.0,1652.0,14.0,5.0,9.0,0.3571428571428571,172.80576683013635,1056.7001578730144,39.0,19.0,20.0,0.4871794871794871,173.20322243200565,3539.7458994178587,18.0,9.0,9.0,0.5,1726.3513584884256,25298.180756674483,18.0,8.0,10.0,0.4444444444444444,1474.2206735304624,24069.369008110934,98.0,50.0,48.0,0.5102040816326531,225.83996792025755,17682.43269250648,0.0,0.0,0.0,0.0,67039.0,67044.0,67088.0,67121.0,67145.0,67161.0,67173.0,67191.0,67356.0,67450.0,0.1725941352121909,-0.04970008710782909,0.06418861431974844,-0.06622960343343817,0.013085893053478747
60,60,67928.00249872294,2280.5255643490023,11.308047468772148,68001.30135639943,-2389.3951004893815,10.191861603456228,68057.50254177478,28493.2961618556,7.748875834631356,68086.250055072,-21152.01091302418,7.29315292929155,68310.4172408617,18626.907804623817,38.05657390510971,0.887660351012068,66.0,44.0,114.0,260.0,374.0,22.0,886.0,905.0,22.0,12.0,10.0,0.5454545454545454,153.14861511263874,2487.768847006362,25.0,19.0,6.0,0.76,187.44061165930023,2310.8201137700494,17.0,9.0,8.0,0.5294117647058824,1758.0544041968112,26550.16379375129,18.0,8.0,10.0,0.4444444444444444,1465.6107710416154,23958.086426076683,95.0,46.0,49.0,0.4842105263157895,235.86548161430704,19948.200983520783,0.0,0.0,0.0,0.0,67916.0,67938.0,67982.0,68007.0,68049.0,68066.0,68078.0,68096.0,68271.0,68356.0,0.06715496528816876,-0.07844688876314754,0.061700632815881264,-0.06928942959930005,0.012662621412436336
61,61,68816.87669549929,2534.489101707011,12.739827004320285,68858.24660900142,-2444.528051552906,16.78446176021428,68922.63176159243,28199.78415984474,8.074078852696438,68951.51880943577,-23469.892914347736,7.182141856469653,69180.95881659626,18957.465652850893,37.78330870376474,0.885674401255615,33.0,20.0,117.0,257.0,374.0,13.0,891.0,865.0,40.0,32.0,8.0,0.8,206.1357135694279,2014.8568019409363,24.0,16.0,8.0,0.6666666666666666,171.4572207650528,2365.922364674542,19.0,10.0,9.0,0.5263157894736842,1714.8795261387634,25905.633225635487,18.0,9.0,9.0,0.5,1621.381604621284,24267.749878004593,89.0,50.0,39.0,0.5617977528089888,187.6650327989989,19842.511796969047,0.0,0.0,0.0,0.0,68811.0,68824.0,68844.0,68864.0,68913.0,68932.0,68943.0,68961.0,69131.0,69218.0,0.08133225486374862,-0.07013919134866675,0.06081179616192513,-0.06908346836257155,0.009899267984208489
62,62,69620.27398270041,945.4185877727232,6.311603913133851,69685.054747398,-3252.657094327264,18.87119716427783,69736.46584302571,29044.795232232547,7.558145657995323,69764.88811895046,-23123.015038663412,7.686241195786354,69985.92884468484,18012.24927297964,36.82228034742131,0.8790257808821811,50.0,44.0,109.0,257.0,366.0,6.0,800.0,814.0,18.0,9.0,9.0,0.5,219.05270333812032,782.8626585260704,52.0,31.0,21.0,0.5961538461538461,127.39090534779572,2866.586642118305,17.0,8.0,9.0,0.4705882352941176,1811.8924325956848,27213.196701891466,19.0,9.0,10.0,0.4736842105263157,1533.6432028407742,25495.00736133032,95.0,47.0,48.0,0.4947368421052631,197.57693826345252,18868.772514146065,0.0,0.0,0.0,0.0,69616.0,69622.0,69666.0,69705.0,69728.0,69745.0,69756.0,69775.0,69944.0,70032.0,0.23169917132069354,-0.03916518146655221,0.062382689156814296,-0.06632539918675864,0.01096903197757982
63,63,70431.44978233543,1691.4241996726696,12.739827004320285,70494.75999504668,-3469.0352951125215,14.360231841523213,70553.08663240504,28891.156781854883,7.703444675219407,70582.61458730973,-22856.71135227172,7.029110578860599,70802.13686849497,18713.59596838863,39.94736373954083,0.8922989521649003,59.0,45.0,107.0,260.0,367.0,14.0,812.0,816.0,14.0,5.0,9.0,0.3571428571428571,142.63702489162145,1540.8087858332717,22.0,10.0,12.0,0.4545454545454545,205.42762244513463,3200.3272150280272,18.0,9.0,9.0,0.5,1721.4116336410416,28130.80381241106,18.0,9.0,9.0,0.5,1581.098073325806,23491.139500487683,98.0,47.0,51.0,0.4795918367346938,151.47741814365443,19631.390067332133,0.0,0.0,0.0,0.0,70426.0,70440.0,70485.0,70506.0,70544.0,70562.0,70574.0,70592.0,70756.0,70852.0,0.08432954011136004,-0.05921750716533756,0.05958264830441735,-0.0691743466047079,0.008094511519834726
64,64,71252.88982695762,2033.5124527173132,13.253311211947665,71325.30135639943,-2365.076060805481,10.191861603456228,71380.08266280631,27239.283604103948,8.136194198321366,71408.91826450278,-23299.660211259463,7.391460928086232,71628.43765037674,17799.51957020136,39.993609406582536,0.9015192515128748,63.0,27.0,126.0,259.0,385.0,36.0,825.0,828.0,37.0,23.0,14.0,0.6216216216216216,168.53719785415893,1497.3530415516393,38.0,32.0,6.0,0.8421052631578947,212.9537839281279,2144.109452394324,19.0,10.0,9.0,0.5263157894736842,1612.011331145149,26211.57304772763,19.0,9.0,10.0,0.4736842105263157,1591.1449056903125,25129.69490954312,102.0,50.0,52.0,0.4901960784313725,235.1754865030663,18189.88613204103,0.0,0.0,0.0,0.0,71230.0,71266.0,71293.0,71331.0,71371.0,71389.0,71400.0,71419.0,71581.0,71678.0,0.08287984547571786,-0.09004098745796851,0.05917965224688503,-0.06829047682512547,0.013212462593472451
65,65,72856.69864360057,1432.6789325838092,5.042484436858124,72932.6996529839,-4128.874464431698,14.218998835965351,72987.39726229038,27665.75535780616,7.476795729895846,73015.71487549103,-22188.105930216378,7.515683965829683,73243.10949479598,18556.32366828945,35.07667227869404,0.8891893409532147,71.0,61.0,103.0,258.0,361.0,10.0,1599.0,1606.0,12.0,7.0,5.0,0.5833333333333334,212.86743395199557,2193.411015379561,32.0,11.0,21.0,0.34375,174.49892960106322,4892.233074506554,17.0,8.0,9.0,0.4705882352941176,1730.8512089798414,26490.005844101222,18.0,9.0,9.0,0.5,1510.5895205308216,24911.035271247172,85.0,45.0,40.0,0.5294117647058824,183.86657370513663,19300.443162267467,0.0,0.0,0.0,0.0,72851.0,72861.0,72922.0,72954.0,72979.0,72996.0,73007.0,73025.0,73198.0,73283.0,0.14857999870780064,-0.04226307462343286,0.06256294782464579,-0.06808104870608442,0.00990856685795704
66,66,73741.61563231859,2819.446212782404,17.125814406746816,73815.16124915132,-3392.7130433289426,5.750209939564174,73858.16267415414,29513.762254522175,8.356397810472238,73887.05086034969,-21564.095321599892,6.824847488566111,74114.41085119541,18982.29409039068,41.2047499414611,0.9027933940119052,90.0,53.0,87.0,264.0,351.0,37.0,885.0,872.0,37.0,23.0,14.0,0.6216216216216216,148.51266945899104,2138.0758164687686,16.0,7.0,9.0,0.4375,283.80181857638604,1436.162743576608,19.0,10.0,9.0,0.5263157894736842,1710.9117440366635,28654.53651425053,17.0,8.0,9.0,0.4705882352941176,1578.3597756102067,23880.44816147048,113.0,66.0,47.0,0.584070796460177,210.7998198566169,20203.041436558386,0.0,0.0,0.0,0.0,73719.0,73756.0,73809.0,73823.0,73848.0,73867.0,73879.0,73896.0,74050.0,74160.0,0.052674411303072724,-0.08365040454406325,0.05796996429265853,-0.073193878624216,0.011105076069985089
67,67,74604.54796540085,1372.8968780276302,8.792240790505446,74679.8219481004,-3171.544829249071,15.951894353660844,74735.6100731891,29153.358807647674,7.841565495161686,74764.31946168827,-22938.970859919817,7.321957924406132,74995.38347749642,18887.003080866973,35.790973214308984,0.8793502570011361,71.0,51.0,107.0,257.0,364.0,20.0,862.0,877.0,26.0,13.0,13.0,0.5,125.62788014012064,1023.9285014650358,51.0,26.0,25.0,0.5098039215686274,183.68000132797957,2761.4095812622686,18.0,10.0,8.0,0.5555555555555556,1725.8969011147722,26816.39459400828,18.0,8.0,10.0,0.4444444444444444,1611.477818605268,26706.146873865575,94.0,55.0,39.0,0.5851063829787234,178.28789397487344,18711.80345346329,0.0,0.0,0.0,0.0,74596.0,74616.0,74667.0,74702.0,74726.0,74744.0,74756.0,74774.0,74945.0,75031.0,0.09150569292618954,-0.0579149944954332,0.05920061947243023,-0.07025065895266154,0.009439713289160403
68,68,77153.69864360057,2652.4416824675054,10.191861603456228,77229.27398270041,-1609.8968829937637,7.64389620259217,77284.68004447747,28586.28790358122,7.871602052828453,77313.81699305389,-21183.682017508636,6.554801810239661,77543.2601729957,19332.96311470147,39.70166911297021,0.8880091226052925,72.0,58.0,103.0,263.0,366.0,14.0,2550.0,2549.0,35.0,7.0,28.0,0.2,211.77008717665487,3121.9458982792044,11.0,9.0,2.0,0.8181818181818182,199.91506581389655,2191.983784531763,18.0,9.0,9.0,0.5,1707.728846554792,28129.330574997737,17.0,8.0,9.0,0.4705882352941176,1561.9096250185055,23213.913952357856,108.0,64.0,44.0,0.5925925925925926,122.13073070176216,20051.53773542665,0.0,0.0,0.0,0.0,77148.0,77162.0,77220.0,77231.0,77276.0,77294.0,77306.0,77323.0,77488.0,77586.0,0.07983967699514133,-0.12417880171438965,0.059739440542780374,-0.07373173481963917,0.006317227730543262
69,69,78070.43006558626,2020.9117765571443,7.121730196360389,78133.32182489877,-3591.2786128067028,15.439334029161184,78189.97157828459,28769.63091482855,7.877777698537067,78218.73938376702,-24948.59004746405,7.104254095986015,78442.30651955838,18367.47215828811,37.986921252389344,0.8895322141304456,45.0,27.0,121.0,260.0,381.0,18.0,918.0,905.0,18.0,8.0,10.0,0.4444444444444444,177.8338681713011,2068.505252766862,50.0,26.0,24.0,0.52,160.34636164142046,4051.305002733445,18.0,9.0,9.0,0.5,1781.4559953541925,27207.2861830218,17.0,8.0,9.0,0.4705882352941176,1725.6284534381675,27101.696492166444,96.0,48.0,48.0,0.5,231.67394643088144,19849.04495264034,0.0,0.0,0.0,0.0,78062.0,78080.0,78107.0,78157.0,78181.0,78199.0,78211.0,78228.0,78408.0,78488.0,0.08799684886505117,-0.044648822586366946,0.061921405965482436,-0.06916737379367748,0.012613273314604767
70,70,78957.20559052419,1410.6717137351857,12.320109596988212,79037.45203459915,-2293.998444201374,15.287792393486036,79083.71911650973,28652.454409659826,8.135891182765885,79112.1727562751,-24964.12035555751,7.063387677626908,79337.68483389584,17892.82977498121,37.73202066851974,0.8772644024952808,87.0,71.0,88.0,257.0,345.0,16.0,888.0,894.0,17.0,10.0,7.0,0.5882352941176471,135.34835321049346,1742.337611064131,29.0,13.0,16.0,0.4482758620689655,172.9416429566805,2359.2527212822083,18.0,10.0,8.0,0.5555555555555556,1685.2362019788268,27039.177990284938,18.0,8.0,10.0,0.4444444444444444,1757.1614072137331,28022.130876068455,98.0,55.0,43.0,0.5612244897959183,239.9233898728345,19011.30941035435,0.0,0.0,0.0,0.0,78947.0,78963.0,79034.0,79052.0,79075.0,79092.0,79104.0,79122.0,79306.0,79379.0,0.09594603187450126,-0.07538873594000536,0.05881646918913411,-0.07038747539216034,0.013408912558275674
71,71,79821.72601729959,1104.77324767418,3.415187060643001,79867.17805189872,-2668.215750019891,12.394489376523788,79913.70464359752,28795.197109669258,7.688067710103737,79941.95671573014,-22394.976124004952,7.354261200571371,80168.68483389584,18152.722391416475,37.11277271994076,0.8805603491068503,33.0,24.0,102.0,258.0,360.0,9.0,865.0,830.0,12.0,8.0,4.0,0.6666666666666666,210.37099293045105,506.2145419617731,32.0,18.0,14.0,0.5625,194.38311668544847,2001.7653188682448,17.0,9.0,8.0,0.5294117647058824,1760.11315693045,27798.729026386824,19.0,9.0,10.0,0.4736842105263157,1564.344222570341,25232.93999360721,91.0,49.0,42.0,0.5384615384615384,162.04096437346374,18819.589247697975,0.0,0.0,0.0,0.0,79817.0,79826.0,79850.0,79880.0,79905.0,79922.0,79933.0,79952.0,80120.0,80210.0,0.19042006436464118,-0.0728513489525723,0.06112523384461968,-0.06985246217313605,0.008926537897703151
72,72,81186.95958932824,1610.6205131784889,5.171624267823161,81491.027373699,-3557.563813156068,17.8357578060484,81552.28399857851,28548.589639412927,7.5001101599738895,81580.29940258335,-23839.93645033821,7.142258512450004,81802.9366115091,17787.30867051331,34.72699983400766,0.8693469895997605,289.0,278.0,122.0,256.0,378.0,11.0,1363.0,1639.0,11.0,8.0,3.0,0.7272727272727273,163.5195725052861,1978.8855695574307,34.0,23.0,11.0,0.6764705882352942,170.2377942742731,2686.86451109504,18.0,9.0,9.0,0.5,1774.2107139417756,26025.25061360493,18.0,8.0,10.0,0.4444444444444444,1603.033364593353,25495.051055490287,88.0,43.0,45.0,0.4886363636363636,184.25669755484705,18187.482867563085,0.0,0.0,0.0,0.0,81179.0,81190.0,81468.0,81501.0,81543.0,81561.0,81572.0,81590.0,81771.0,81846.0,0.10152582260521903,-0.047852351557187624,0.06214705301912282,-0.06724151165137067,0.010358885707105105
73,73,82269.75339099858,2016.0528899761769,11.823996599537612,82346.027373699,-2750.693840580581,12.160174618688748,82391.14298066079,29684.318798669836,7.820467529149632,82420.02691494576,-22572.74555141187,6.952158990689107,82639.79210011403,18504.44598644151,38.56213828052971,0.8995066678918939,68.0,37.0,109.0,255.0,364.0,31.0,1088.0,839.0,32.0,18.0,14.0,0.5625,143.2666138778389,1110.0459330600552,42.0,30.0,12.0,0.7142857142857143,215.84472336508912,664.4271208735163,18.0,9.0,9.0,0.5,1763.1062746985488,28531.77942828857,18.0,8.0,10.0,0.4444444444444444,1626.7579467511443,24495.897004477367,101.0,56.0,45.0,0.5544554455445545,160.59946349474168,19609.678404267936,0.0,0.0,0.0,0.0,82253.0,82284.0,82321.0,82356.0,82382.0,82400.0,82412.0,82430.0,82590.0,82685.0,0.07106292428644163,-0.07846919209283262,0.05939520750523519,-0.07206734967379254,0.008678966320440793
74,74,82906.36467644642,2120.0269161795823,3.7864375262806407,83194.30135639943,-2547.2208371611905,5.587345960663107,83233.32671536288,28039.54998187398,8.367909909899293,83261.35645690758,-21893.341901187818,7.275438187244032,83486.68483389584,19327.284413213572,38.36829985460164,0.8882880449037005,285.0,277.0,85.0,257.0,342.0,8.0,632.0,841.0,8.0,5.0,3.0,0.625,229.02026834097632,3107.8631498250115,17.0,11.0,6.0,0.6470588235294118,206.11634814117696,1270.8844793963185,18.0,9.0,9.0,0.5,1630.1258345119209,27675.4204499817,18.0,8.0,10.0,0.4444444444444444,1584.6639764090803,25908.081873860618,99.0,55.0,44.0,0.5555555555555556,223.43340709540885,19045.17672963829,0.0,0.0,0.0,0.0,82901.0,82909.0,83186.0,83200.0,83224.0,83242.0,83253.0,83271.0,83440.0,83528.0,0.10802705691760027,-0.08091813051077586,0.05813666180683025,-0.07238109118110948,0.011560517365939578
75,75,84747.82194810128,2409.2245782630566,20.26345224956892,84808.31718606685,-2007.8644017136053,14.124675216763878,84873.0366304326,28157.993629365377,8.152134988383171,84901.36247308688,-21057.15106911323,7.244226277831824,85122.83551209555,18320.12287760664,39.42450861604817,0.8991367729089734,64.0,33.0,112.0,256.0,368.0,31.0,1838.0,1640.0,33.0,14.0,19.0,0.4242424242424242,160.88892767862453,2773.6746145251427,18.0,9.0,9.0,0.5,188.8555194774412,2084.7992143948973,19.0,10.0,9.0,0.5263157894736842,1696.7691979583872,26307.726812684232,18.0,8.0,10.0,0.4444444444444444,1460.9539994794604,23579.94884786366,98.0,49.0,49.0,0.5,248.6682354287387,18980.42133403929,0.0,0.0,0.0,0.0,84735.0,84766.0,84799.0,84817.0,84864.0,84882.0,84893.0,84911.0,85080.0,85167.0,0.06678037785693614,-0.09405790516344782,0.06025888137814132,-0.06938042067914864,0.013573502595481773
76,76,85627.15067819973,911.202955017868,5.09593067550256,85723.87669549929,-2755.5305480855845,12.739827004302176,85763.66957690404,28745.797091948607,7.630756872794551,85792.44436760766,-23853.43216534759,6.880164415049225,86012.23729307945,17956.314517310784,37.49321741911435,0.8842561074131052,91.0,85.0,84.0,257.0,341.0,6.0,884.0,891.0,11.0,6.0,5.0,0.5454545454545454,189.64466054358363,1129.6362168344792,56.0,49.0,7.0,0.875,299.33495482578587,1240.7001666798883,18.0,9.0,9.0,0.5,1774.0200364836817,27117.794515308433,16.0,7.0,9.0,0.4375,1661.6379499654386,26481.42593213431,89.0,43.0,46.0,0.4831460674157303,266.166951629369,19357.921251084357,0.0,0.0,0.0,0.0,85626.0,85632.0,85717.0,85731.0,85755.0,85773.0,85785.0,85801.0,85969.0,86058.0,0.20812559869262587,-0.10863060655732885,0.061714066609778094,-0.06966032973566533,0.014823027931080777
77,77,86589.12330450071,1629.7935865262891,10.35675957420477,86663.72601729959,-3650.62849936607,7.64389620259217,86720.54895069757,28495.57607176029,7.884263095396773,86749.39414756738,-21879.587039138492,7.177114569487107,86977.53415569612,18844.932786592508,36.67570751838759,0.8716999047609817,68.0,52.0,109.0,257.0,366.0,16.0,959.0,957.0,16.0,7.0,9.0,0.4375,175.85441668252497,2743.3538106155133,18.0,14.0,4.0,0.7777777777777778,235.96593918355893,4027.42468073444,17.0,9.0,8.0,0.5294117647058824,1762.5004479995894,26513.48028739156,18.0,8.0,10.0,0.4444444444444444,1522.527115908805,24449.30128515203,98.0,58.0,40.0,0.5918367346938775,211.85985581900167,19620.413277111453,0.0,0.0,0.0,0.0,86582.0,86598.0,86650.0,86668.0,86712.0,86729.0,86741.0,86759.0,86924.0,87016.0,0.1078998089919704,-0.06463707255463937,0.061851721950140326,-0.06958664773632557,0.011242271767067926
78,78,87543.972626301,2554.795738124006,11.17738883486884,87605.87669549929,-2427.7036150932413,6.204280881032508,87676.68762528076,28755.137120133728,7.964951698028797,87705.51550953714,-23367.24615372245,7.21277180657153,87937.95881659626,19113.42061492676,37.0542477725364,0.8773643674567985,64.0,41.0,118.0,259.0,377.0,23.0,954.0,956.0,26.0,12.0,14.0,0.4615384615384615,174.12143171860575,2464.97860314199,15.0,8.0,7.0,0.5333333333333333,198.99345805896377,2743.278316238598,18.0,10.0,8.0,0.5555555555555556,1708.729172955185,27354.908637329576,19.0,9.0,10.0,0.4736842105263157,1628.9992227305263,24616.38959671354,100.0,60.0,40.0,0.6,242.00320864401584,18848.72913481341,0.0,0.0,0.0,0.0,87534.0,87557.0,87598.0,87613.0,87667.0,87685.0,87697.0,87716.0,87880.0,87975.0,0.06815473703837616,-0.08196777268106552,0.05942344026447955,-0.06971293116929926,0.012661428507204081
79,79,90159.21626457044,2857.3514029359394,12.035948984431489,90238.87669549928,-2783.958515361657,7.137668493706372,90282.93135792158,28308.62359164073,7.561574732771911,90311.56783636694,-21004.512846229696,7.050780485511049,90540.10949479598,18883.188429299207,37.80098300315009,0.8889827916372092,83.0,66.0,88.0,259.0,347.0,17.0,2617.0,2607.0,18.0,10.0,8.0,0.5555555555555556,194.9238951563891,3838.506354280494,16.0,6.0,10.0,0.375,261.5098011988599,985.3642220477296,18.0,9.0,9.0,0.5,1765.9389369742248,25971.091918842365,17.0,8.0,9.0,0.4705882352941176,1424.5817164976106,21707.63668397942,94.0,54.0,40.0,0.574468085106383,181.5740211369439,19194.951871415826,0.0,0.0,0.0,0.0,90150.0,90167.0,90233.0,90246.0,90274.0,90292.0,90304.0,90321.0,90488.0,90580.0,0.0682183839747901,-0.09393451797355098,0.06238166017706667,-0.06782264968136704,0.009615644191486918
80,80,91124.6728720675,2901.2517332515017,6.286495949374622,91160.54653305418,-1828.8933185495575,18.31960641640625,91217.28510124586,28267.235372410814,8.265554321673127,91246.4950175584,-21644.21252352481,7.3444378166747555,91469.98619029528,18416.228120375676,40.03483944460027,0.8978655972671045,21.0,6.0,118.0,261.0,379.0,15.0,967.0,934.0,15.0,8.0,7.0,0.5333333333333333,277.92467025423065,1273.1283143481917,31.0,23.0,8.0,0.7419354838709677,139.7402565386672,2350.1725925547557,20.0,10.0,10.0,0.5,1663.190654446502,25793.2460732296,17.0,7.0,10.0,0.4117647058823529,1462.5631234593534,24519.621028500987,104.0,55.0,49.0,0.5288461538461539,189.430920371402,20091.277713517637,0.0,0.0,0.0,0.0,91117.0,91132.0,91138.0,91169.0,91208.0,91227.0,91239.0,91256.0,91421.0,91517.0,0.09579474509878323,-0.07640700259624283,0.0588381082385509,-0.06757294227589536,0.01028608676723634
81,81,92027.39728720114,2252.416099184614,16.33363511016274,92094.25135685469,-2521.7051898356503,11.587452523290226,92153.62538178568,29211.63829135908,8.040818927953591,92182.73708650524,-22579.94064714985,7.1695540999748815,92409.68483389584,18975.760874151645,39.2490697101731,0.8915618243924788,66.0,49.0,111.0,258.0,369.0,17.0,899.0,936.0,36.0,11.0,25.0,0.3055555555555556,173.4621743083903,2830.2774714539387,21.0,12.0,9.0,0.5714285714285714,173.18227049050256,2607.3796630333227,19.0,10.0,9.0,0.5263157894736842,1745.42855654194,27333.66331389219,19.0,9.0,10.0,0.4736842105263157,1563.272336184809,23846.491447479697,99.0,54.0,45.0,0.5454545454545454,248.86143832265273,19044.09641077771,0.0,0.0,0.0,0.0,92016.0,92033.0,92082.0,92101.0,92145.0,92163.0,92174.0,92193.0,92361.0,92451.0,0.07701160294990987,-0.06867665228614196,0.05975113545953514,-0.06923279208805772,0.013114701432691755
82,82,92923.39728720114,2194.106512026513,9.368778490626935,93002.17805189872,-2982.762879474544,10.496461725691152,93054.61451241124,27566.159998394793,8.501506117458085,93082.7470639268,-21687.06046305832,8.058130339806237,93304.95619227368,18147.042257220728,40.08173020922428,0.8956558234504763,77.0,56.0,105.0,258.0,363.0,21.0,896.0,901.0,23.0,12.0,11.0,0.5217391304347826,140.55709316075894,2631.5600760198427,28.0,14.0,14.0,0.5,180.14266643906987,2760.781001500822,18.0,10.0,8.0,0.5555555555555556,1664.6681566516197,25622.716952319886,20.0,9.0,11.0,0.45,1443.4124480885184,24339.190916486423,100.0,50.0,50.0,0.5,195.72455090157092,18430.500672433427,0.0,0.0,0.0,0.0,92912.0,92933.0,92989.0,93015.0,93045.0,93063.0,93074.0,93094.0,93263.0,93352.0,0.06406119866575578,-0.060394564944701384,0.060388104717833575,-0.06655638972129134,0.010785479425645351
83,83,94641.1631333388,2259.449990741893,4.7427110749910435,94712.027373699,-2457.0203771779857,9.499293345967631,94752.75396968862,28036.52828434323,7.500635444018334,94781.33956735376,-21856.499036042536,6.981857874014541,95001.84533600244,17445.669947875307,39.17913998624967,0.9049519646458268,71.0,57.0,85.0,259.0,344.0,14.0,1721.0,1698.0,14.0,6.0,8.0,0.4285714285714285,220.76380423708525,1508.1408524546164,37.0,26.0,11.0,0.7027027027027027,210.15147824632507,1291.107684599948,18.0,9.0,9.0,0.5,1722.7670386981356,25994.762665148883,18.0,8.0,10.0,0.4444444444444444,1484.8610687962705,24094.033280440897,89.0,39.0,50.0,0.4382022471910112,207.4230572842748,18667.178994507827,0.0,0.0,0.0,0.0,94635.0,94649.0,94706.0,94722.0,94744.0,94762.0,94773.0,94791.0,94965.0,95050.0,0.09770687784269003,-0.08553102782472437,0.0614472313128798,-0.0679368212790006,0.011889658459894035
84,84,95568.69864360055,1581.616299342122,10.191861603456228,95631.63782869864,-3001.042994033704,16.42208531701211,95688.28742443596,28724.0081629615,7.739741300310104,95716.58798461348,-22710.435276572207,7.113625189887018,95938.4325889784,17835.24343921008,39.787796878174056,0.8863537232010648,56.0,37.0,107.0,261.0,368.0,19.0,926.0,936.0,28.0,14.0,14.0,0.5,168.64904195149637,1326.1659393561763,52.0,26.0,26.0,0.5,178.35406566780364,3021.370763074911,18.0,9.0,9.0,0.5,1745.8561672080332,26791.025120843697,18.0,9.0,9.0,0.5,1572.0097133251911,23563.464405532424,95.0,46.0,49.0,0.4842105263157895,213.32957433947163,19403.922763021055,0.0,0.0,0.0,0.0,95563.0,95582.0,95619.0,95657.0,95679.0,95697.0,95708.0,95726.0,95894.0,95987.0,0.10663081938498387,-0.059430693269768124,0.060780381251222704,-0.06921970865731737,0.011961124896701716
85,85,96542.945252602,2214.3861722734837,19.096724620388205,96599.54796540084,-2569.5943611478606,13.331786824159234,96660.200431039,29153.08303132271,7.944490678287188,96689.19470792387,-22104.398434305705,7.044390145993833,96910.56152939513,18646.267067932466,41.961047522870864,0.8870218494893963,68.0,37.0,108.0,260.0,368.0,31.0,970.0,972.0,46.0,20.0,26.0,0.4347826086956521,134.5775806680494,1734.4963192931036,17.0,9.0,8.0,0.5294117647058824,205.26375792114564,3378.2906530965747,18.0,9.0,9.0,0.5,1694.871299216645,27501.598741324633,18.0,8.0,10.0,0.4444444444444444,1563.478109032215,24089.09174962258,99.0,50.0,49.0,0.5050505050505051,175.87274681175083,20349.038777578444,0.0,0.0,0.0,0.0,96523.0,96554.0,96591.0,96608.0,96651.0,96669.0,96681.0,96699.0,96863.0,96959.0,0.06077421470252418,-0.07988177473640333,0.05813694892562952,-0.07073153850709275,0.009432061987045859
86,86,97533.39525604804,2617.8242401197203,12.88011142586867,97595.972626301,-2564.94475278388,15.220040694708388,97661.32766574022,29098.808391879,8.24536668033272,97690.40353021532,-22465.70724425218,7.487467272069771,97915.4108511954,18522.63240232098,39.653631174774944,0.8909295164067601,68.0,31.0,119.0,260.0,379.0,37.0,992.0,1000.0,40.0,20.0,20.0,0.5,130.37511920438055,2311.184124414745,20.0,15.0,5.0,0.75,234.2768748455896,2886.7007091283417,18.0,9.0,9.0,0.5,1671.81574302861,27958.625828379252,19.0,8.0,11.0,0.4210526315789473,1552.4085946132043,25744.41327360426,97.0,51.0,46.0,0.5257731958762887,250.28322628146603,20938.46433831634,0.0,0.0,0.0,0.0,97514.0,97551.0,97582.0,97600.0,97652.0,97670.0,97682.0,97701.0,97864.0,97961.0,0.04980285429644358,-0.09133798090244072,0.057453065449071326,-0.06910125631635237,0.013512292467138972
87,87,98473.6199404398,1709.6754591454528,5.816042033346647,98542.17805189872,-3017.518333503836,13.298020436751976,98593.19592343604,27512.871815838014,7.532634155875937,98621.5643918406,-22745.880167445957,7.639305563634236,98847.2601729957,18107.459182215534,36.76667368374049,0.8756231946939088,56.0,37.0,111.0,258.0,369.0,19.0,944.0,932.0,19.0,9.0,10.0,0.4736842105263157,195.65857167645373,1482.066961951405,48.0,33.0,15.0,0.6875,198.35858377131,2034.5216376009616,17.0,9.0,8.0,0.5294117647058824,1672.8796631274531,26498.31919091982,21.0,10.0,11.0,0.4761904761904761,1544.6806998700276,24419.152883609757,97.0,53.0,44.0,0.5463917525773195,154.814978638885,18370.95059258172,0.0,0.0,0.0,0.0,98465.0,98484.0,98521.0,98555.0,98584.0,98601.0,98612.0,98632.0,98797.0,98890.0,0.11444193728688705,-0.06573566813792413,0.060803527684247266,-0.06791035073159245,0.008549790287029251
88,88,99330.02800229072,1137.4137198080753,14.465793814733091,99383.82913113356,-3421.079434568831,12.739827004320285,99445.3929438468,26936.559463121583,8.261901581476183,99474.1049420724,-23176.026797901624,7.121912544138673,99693.53281340076,17606.04505462454,39.6749809552302,0.8910446865990107,49.0,24.0,114.0,258.0,372.0,25.0,855.0,853.0,42.0,25.0,17.0,0.5952380952380952,101.39622292710712,702.9504199648982,19.0,15.0,4.0,0.7894736842105263,232.40493242269545,4238.988415322092,18.0,9.0,9.0,0.5,1605.435553511273,26210.1186724406,17.0,8.0,9.0,0.4705882352941176,1608.648179446232,27121.899595893206,96.0,48.0,48.0,0.5,233.40373248076395,19843.634215910803,0.0,0.0,0.0,0.0,99320.0,99345.0,99369.0,99388.0,99436.0,99454.0,99466.0,99483.0,99650.0,99741.0,0.08914629844997518,-0.06793321723965938,0.0596006166158395,-0.0694100068779641,0.01325702233276157
89,89,100267.2739827004,2499.015788574338,4.298646709138269,100297.69864360055,-2120.822561662668,10.191861603456228,100359.32246114749,28873.889027372443,8.083600867610171,100388.12614292144,-21707.025901998222,6.525994014183842,100607.3237469776,18793.12884215532,43.016447751314274,0.8995062617146707,29.0,18.0,105.0,262.0,367.0,11.0,938.0,913.0,11.0,4.0,7.0,0.3636363636363636,251.27111840118852,1747.680804474383,27.0,6.0,21.0,0.2222222222222222,169.94907644225896,2036.470718086316,18.0,9.0,9.0,0.5,1678.2710300952472,28730.06449543446,17.0,8.0,9.0,0.4705882352941176,1608.0792191295593,24913.950275837753,110.0,56.0,54.0,0.509090909090909,169.87507412881206,19464.618756675372,0.0,0.0,0.0,0.0,100263.0,100274.0,100292.0,100319.0,100350.0,100368.0,100380.0,100397.0,100563.0,100659.0,0.10054803156907466,-0.0801335668124086,0.058124176777996424,-0.074081047601345,0.009039211913865091
90,90,101234.22236748577,2358.746802809809,5.611284141957468,101302.90406919828,-2963.6308714460515,17.306237260282344,101351.15097956368,29555.626294199395,7.84164765143276,101379.48946389878,-22730.14163213628,7.393585312389209,101602.77910114542,18653.102049828776,38.4326195475037,0.8936327795758277,53.0,40.0,107.0,261.0,368.0,13.0,967.0,992.0,13.0,5.0,8.0,0.3846153846153846,234.8628013123635,1764.1147055023912,56.0,37.0,19.0,0.6607142857142857,132.22341010227748,2049.3466419328815,18.0,9.0,9.0,0.5,1827.259999516352,28178.44933223075,18.0,8.0,10.0,0.4444444444444444,1557.5813367836454,25928.39742565611,94.0,46.0,48.0,0.4893617021276595,192.01047239196888,20532.00247285318,0.0,0.0,0.0,0.0,101229.0,101242.0,101282.0,101320.0,101342.0,101360.0,101371.0,101389.0,101557.0,101650.0,0.09957100992467184,-0.04461534375830058,0.06182443847840136,-0.06852492879241495,0.010293755530798235
91,91,102219.39728720114,1653.2870417805243,12.677614376421191,102280.52560181916,-2810.5524063696935,13.60760378094875,102342.88751171588,28358.39838440529,8.204622552860366,102371.29960122898,-23012.60618612368,7.691665087033765,102601.2601729957,18589.779512160032,37.67518424701888,0.879069775644443,64.0,40.0,110.0,262.0,372.0,24.0,983.0,992.0,30.0,13.0,17.0,0.4333333333333333,178.5460343412099,1544.2788894665327,16.0,9.0,7.0,0.5625,192.54791765496108,2993.99119332334,17.0,9.0,8.0,0.5294117647058824,1741.106189466675,27508.399854993484,20.0,9.0,11.0,0.45,1572.7668807914636,26695.63700693677,103.0,59.0,44.0,0.5728155339805825,152.82468776957236,18686.1932543372,0.0,0.0,0.0,0.0,102208.0,102232.0,102272.0,102288.0,102334.0,102351.0,102363.0,102382.0,102547.0,102644.0,0.10799457676080429,-0.06850892273653401,0.06139649235000999,-0.0683437098810574,0.00822089835275378
92,92,103156.65594121291,2270.077658706563,3.1924926686813677,103208.17805189872,-2225.8732511947396,10.659083516383737,103253.47384418888,28098.846833025545,8.124459089022743,103281.57116663072,-21213.181339982853,7.581427446783301,103510.10949479598,18786.06094776156,38.54557715971062,0.8938652909353386,50.0,43.0,89.0,258.0,347.0,7.0,940.0,911.0,7.0,4.0,3.0,0.5714285714285714,276.0871436335378,1339.5441521130672,36.0,21.0,15.0,0.5833333333333334,190.48491709946592,1340.05038753013,18.0,9.0,9.0,0.5,1635.4628516714524,26950.642099461136,21.0,10.0,11.0,0.4761904761904761,1519.1824873522737,23409.129882422836,94.0,53.0,41.0,0.5638297872340425,128.4553135451714,18786.83615228257,0.0,0.0,0.0,0.0,103153.0,103160.0,103203.0,103222.0,103245.0,103262.0,103273.0,103292.0,103458.0,103550.0,0.12162013161736755,-0.08557761184165494,0.058203913541008255,-0.07161502383845184,0.006837799254583883
93,93,103997.69862862935,1171.1154528208324,10.191861603456228,104059.43375620752,-3142.9208479042277,13.28449203731694,104116.92542928836,26557.530519322525,8.059767559625344,104145.65748956271,-22081.17100165625,7.464246419993079,104373.53415569612,18517.121890261107,36.0771970549189,0.8782608925849035,57.0,47.0,107.0,256.0,363.0,10.0,840.0,863.0,18.0,14.0,4.0,0.7777777777777778,154.85567896574938,1480.2139415628956,24.0,10.0,14.0,0.4166666666666667,193.3141888634644,2888.520545908503,19.0,10.0,9.0,0.5263157894736842,1562.8524882547024,25078.13116544934,19.0,9.0,10.0,0.4736842105263157,1540.581392066994,24608.93500185191,94.0,54.0,40.0,0.574468085106383,145.80604720748633,18844.854074672923,0.0,0.0,0.0,0.0,103992.0,104002.0,104049.0,104073.0,104107.0,104126.0,104137.0,104156.0,104325.0,104412.0,0.13222921667778606,-0.06150781334260161,0.058847809178553485,-0.06976900780993178,0.007874120399033046
94,94,104936.31067938956,1433.627954774491,4.486715298414869,104999.90406919828,-3053.2127968168484,15.286103899245717,105048.21174131702,29633.1906649986,7.138444471471927,105077.28132910782,-23040.18270487317,7.041564589191637,105306.53415569612,18393.623029809816,34.42417542538205,0.8791659756570519,62.0,51.0,93.0,259.0,352.0,11.0,942.0,931.0,13.0,6.0,7.0,0.4615384615384615,193.9960613996629,730.8269861021428,49.0,31.0,18.0,0.6326530612244898,164.3747389212874,2481.166229542344,18.0,9.0,9.0,0.5,1865.1541815819935,28298.45742099048,17.0,8.0,9.0,0.4705882352941176,1566.1216653492995,24933.536815881045,88.0,50.0,38.0,0.5681818181818182,251.2681339837436,19817.4064047597,0.0,0.0,0.0,0.0,104931.0,104942.0,104993.0,105017.0,105039.0,105057.0,105069.0,105086.0,105258.0,105345.0,0.1353182746985276,-0.053836646791424955,0.06294138902109621,-0.0679734915911953,0.013660611266009056
95,95,105970.30135639945,1210.61067129174,9.690461404591572,106058.87669549928,-3426.8837425186316,6.466001619968695,106094.66838677888,28852.809355110603,7.710676850672402,106124.10524985642,-23285.07349383975,7.512343316022441,106345.61519072346,18313.695770917184,39.53767901842259,0.8876834235077418,84.0,71.0,87.0,262.0,349.0,13.0,1034.0,1047.0,18.0,8.0,10.0,0.4444444444444444,162.57043470987313,1301.6641836255849,54.0,46.0,8.0,0.8518518518518519,293.9376478711255,821.7096849530228,18.0,9.0,9.0,0.5,1782.1896605465713,26505.26531484313,18.0,8.0,10.0,0.4444444444444444,1543.9852851743065,25390.00708193025,100.0,49.0,51.0,0.49,178.55317811549338,19260.755392780167,0.0,0.0,0.0,0.0,105963.0,105976.0,106047.0,106066.0,106086.0,106103.0,106116.0,106134.0,106298.0,106396.0,0.13428795777622546,-0.08577403552508388,0.061768323445110136,-0.06630794124754555,0.009749707560340843
96,96,107019.7260172996,1197.199980814722,3.074613232769459,107079.13231152207,-2786.128018211899,19.389643490085508,107134.60977132324,26997.162828293844,8.115950937871217,107163.21682704055,-22950.22604880098,7.65885809250302,107387.8327686439,17963.874227967484,35.88973697635224,0.8702461887675385,37.0,28.0,122.0,259.0,381.0,9.0,1049.0,1040.0,9.0,5.0,4.0,0.5555555555555556,149.65091685250763,1199.806942863201,53.0,27.0,26.0,0.5094339622641509,118.6041472396953,3513.75866724514,18.0,10.0,8.0,0.5555555555555556,1632.6431036181166,25558.5324154279,20.0,9.0,11.0,0.45,1554.818571394667,26400.4985609433,89.0,41.0,48.0,0.4606741573033708,221.37411161909048,17899.455964445595,0.0,0.0,0.0,0.0,107015.0,107024.0,107052.0,107105.0,107125.0,107143.0,107154.0,107174.0,107351.0,107433.0,0.1250007678338474,-0.042569525328492945,0.06047461779602474,-0.06774741861315556,0.012323294452509523
97,97,107953.82194810128,1387.884287958846,10.03985539794773,108025.14475983538,-2710.777981032338,13.42427318915016,108080.40797998168,26115.566983078366,8.419185040549657,108108.62731925282,-22633.654062009504,7.30598592779934,108329.078484895,18316.786717031537,40.585311392814475,0.8947702089114724,62.0,44.0,116.0,259.0,375.0,18.0,929.0,945.0,37.0,14.0,23.0,0.3783783783783784,169.58184681806404,1825.705472266468,44.0,22.0,22.0,0.5,137.7322352426032,3044.12610892309,18.0,9.0,9.0,0.5,1539.2014761627554,26098.080623650018,19.0,9.0,10.0,0.4736842105263157,1624.986613242606,25868.899755233375,102.0,51.0,51.0,0.5,203.13490072199403,19413.08391958745,0.0,0.0,0.0,0.0,107941.0,107959.0,108003.0,108047.0,108072.0,108089.0,108100.0,108119.0,108285.0,108378.0,0.12218730933791833,-0.05080911686841687,0.058938083831765326,-0.07179515109626683,0.011090094778092965
98,98,108933.79457440229,4103.540484807731,40.76744617674451,108995.86462239952,-2763.250628108045,0.1193053150543605,109054.08927578876,30707.12877203601,8.501798670842772,109082.92470545328,-20008.982228935212,6.4482458238675555,109303.71220759484,18810.525717305707,43.241710508290225,0.8684191928391088,84.0,20.0,97.0,263.0,360.0,64.0,977.0,975.0,94.0,52.0,42.0,0.5531914893617021,159.32498914694128,2928.7453724204197,2.0,1.0,1.0,0.5,161.68902868500982,654.9646263143948,20.0,10.0,10.0,0.5,1738.6302168328525,29830.076970836304,16.0,7.0,9.0,0.4375,1539.9400931819584,22380.60866821198,97.0,45.0,52.0,0.4639175257731959,191.97271933454564,21349.676844003323,0.0,0.0,0.0,0.0,108911.0,108975.0,108995.0,108997.0,109044.0,109064.0,109076.0,109092.0,109259.0,109355.0,0.038826225727953634,-0.05851406565886345,0.05661975854988328,-0.0769624399463474,0.01020560096084558
99,99,109991.7260172996,2169.7097689880056,7.64389620259217,110044.28968900414,-3230.8172789154487,14.828556102663264,110103.19401121892,29007.465031860494,7.849355165400962,110131.62284669056,-22284.92213180093,7.13962149572745,110356.1870570321,18988.358605995065,37.97488730159876,0.888869351261665,38.0,26.0,119.0,264.0,383.0,12.0,1066.0,1049.0,12.0,8.0,4.0,0.6666666666666666,182.01498082260824,2254.025205457431,30.0,22.0,8.0,0.7333333333333333,220.2621266568757,3445.3874049317797,18.0,9.0,9.0,0.5,1779.3492522733236,26694.95700343949,17.0,8.0,9.0,0.4705882352941176,1545.8834013589517,24447.969781633015,96.0,45.0,51.0,0.46875,144.25876162535084,19334.970451468333,0.0,0.0,0.0,0.0,109984.0,109996.0,110022.0,110052.0,110094.0,110112.0,110124.0,110141.0,110314.0,110405.0,0.08388909126196335,-0.06817535862963299,0.06134108066040816,-0.0693690286291354,0.0075972212563862685
100,100,110987.82255839928,1866.564184213928,10.84648741879842,111050.31581328373,-3558.6651038597724,14.693564318393465,111103.44091411994,28466.059305963365,7.95699935745997,111132.41699801268,-22854.53703093772,7.555482268042776,111358.2601729957,18972.63798038748,38.25146592825824,0.8904440247428167,57.0,39.0,104.0,258.0,362.0,18.0,998.0,1000.0,20.0,7.0,13.0,0.35,237.70605907493484,1380.028249639032,36.0,12.0,24.0,0.3333333333333333,194.9210057734134,3950.252483264968,18.0,9.0,9.0,0.5,1694.8234940035663,26753.363723476465,20.0,9.0,11.0,0.45,1545.575217060063,25251.00273393074,101.0,53.0,48.0,0.5247524752475248,188.25906712260365,20139.222307080956,0.0,0.0,0.0,0.0,110982.0,111000.0,111039.0,111073.0,111095.0,111112.0,111123.0,111143.0,111308.0,111401.0,0.12734952330344898,-0.0547736300226733,0.059538395384728125,-0.06762662551281828,0.00992266164131799
101,101,111882.36068862231,2188.295588366552,3.1478263500046544,111972.60271279886,-2550.8062527004804,20.38372320665387,112014.88344786626,26590.15491804861,8.30529882737296,112043.72959368576,-22414.792337698906,8.022962685743924,112265.98424467022,17883.7677419882,37.11592939812502,0.8790485110536549,88.0,78.0,90.0,258.0,348.0,10.0,892.0,911.0,10.0,5.0,5.0,0.5,221.3103286666242,2271.7089051356456,20.0,8.0,12.0,0.4,185.14060321384497,3243.3695957616255,18.0,9.0,9.0,0.5,1612.7216013974826,25452.4972558486,21.0,10.0,11.0,0.4761904761904761,1499.9746035323064,25165.560124895375,95.0,46.0,49.0,0.4842105263157895,187.4543963770651,18577.0900435347,0.0,0.0,0.0,0.0,111877.0,111887.0,111965.0,111984.0,112006.0,112024.0,112034.0,112055.0,112224.0,112313.0,0.10113365390085202,-0.07258120957553747,0.060651079558126784,-0.06691896052097412,0.010481817874258816
102,102,112844.972626301,1390.2672035547855,10.63768842892867,112934.60271279886,-2557.2978317784914,9.845294965741749,112975.45328653794,28496.73968226592,7.616963845822504,113004.17061223793,-21360.353404966176,7.278965663259928,113235.68483389584,18657.32777605566,36.56427657698056,0.8686513877608556,62.0,45.0,117.0,263.0,380.0,17.0,959.0,961.0,21.0,11.0,10.0,0.5238095238095238,158.2766438264474,1409.0006092969047,49.0,38.0,11.0,0.7755102040816326,204.70615602281796,598.308942384515,18.0,9.0,9.0,0.5,1782.7758754122467,26399.178664432617,18.0,8.0,10.0,0.4444444444444444,1450.711242750082,23719.806139778902,97.0,56.0,41.0,0.5773195876288659,140.15949525022856,18993.723432801475,0.0,0.0,0.0,0.0,112835.0,112852.0,112897.0,112946.0,112966.0,112984.0,112996.0,113014.0,113181.0,113277.0,0.11384620411223725,-0.08004783544529641,0.06256069625121723,-0.06791606932930233,0.007512302776290702
103,103,113929.39728720114,2571.4072794603107,17.962010785686836,114010.84932180028,-1011.6484060434036,4.369981221791177,114051.00204810892,30724.165419211553,8.368319711093374,114079.97787522238,-19858.302155911573,7.280058510182398,114316.38347749642,20136.790003314043,39.74543424972319,0.8642524416271204,90.0,70.0,82.0,262.0,344.0,20.0,1084.0,1076.0,44.0,23.0,21.0,0.5227272727272727,216.21892873974383,2705.712312887871,12.0,3.0,9.0,0.25,215.7215541707604,6.552491518461466,20.0,10.0,10.0,0.5,1804.8294593777937,28247.21999372664,17.0,7.0,10.0,0.4117647058823529,1414.068235603245,21989.68606111041,100.0,63.0,37.0,0.63,186.0885122620003,19805.06306884622,0.0,0.0,0.0,0.0,113918.0,113938.0,114008.0,114020.0,114041.0,114061.0,114073.0,114090.0,114254.0,114352.0,0.08408583520270817,-0.21323767514689795,0.058742993821054273,-0.07120791216193144,0.00924122028542655
104,104,114967.87669549928,1894.9802701473104,6.297314175215255,115024.7145240521,-2944.223345405071,15.756586383158297,115080.13585685533,27765.08500322617,8.033349600833436,115109.55075356468,-21984.806726658804,7.605501072519003,115338.2601729957,18361.766961514997,36.44328528011873,0.8762539320715638,55.0,37.0,108.0,261.0,369.0,18.0,1044.0,1029.0,19.0,11.0,8.0,0.5789473684210527,214.22696039940053,1630.707946154567,44.0,19.0,25.0,0.4318181818181818,151.72963290656406,3061.4270112959334,18.0,9.0,9.0,0.5,1599.1760434714806,26287.209174691525,20.0,10.0,10.0,0.5,1509.769606719778,23645.121109663552,95.0,50.0,45.0,0.5263157894736842,206.2167593561721,17686.72084971272,0.0,0.0,0.0,0.0,114957.0,114975.0,115012.0,115046.0,115071.0,115089.0,115100.0,115120.0,115292.0,115381.0,0.1130497049358446,-0.051534688475098976,0.057596655774173354,-0.06867331723635439,0.011230768791935344
105,105,116799.12330450072,1393.3913205855372,10.780934297830756,116873.50977143104,-3273.187129225507,13.389833865875609,116931.67686725008,27769.98869935373,7.597760718824175,116960.1646040883,-22664.07763490814,6.515409751994601,117182.89891723946,18480.821266985466,38.66895143880872,0.8938035329264962,60.0,50.0,117.0,263.0,380.0,10.0,1827.0,1851.0,11.0,8.0,3.0,0.7272727272727273,158.4970032920681,2288.8842639791947,35.0,22.0,13.0,0.6285714285714286,137.3330939310717,3140.1690092410436,19.0,10.0,9.0,0.5263157894736842,1673.9101643925655,25540.769493991655,17.0,8.0,9.0,0.4705882352941176,1625.5611905084202,24652.479111471686,97.0,47.0,50.0,0.4845360824742268,216.55276656121657,20047.999513009458,0.0,0.0,0.0,0.0,116792.0,116802.0,116852.0,116887.0,116922.0,116940.0,116952.0,116969.0,117141.0,117232.0,0.11374909614440813,-0.041956994363340015,0.060277668187582706,-0.07172412734788132,0.011717702554056462
106,106,117858.39728720114,2466.4495172326797,11.76594150194008,117935.17805189872,-2116.8958362942963,10.353303458446362,117982.66228600252,29976.786110264675,7.757248757190733,118011.67791677448,-22656.11300677956,6.5252893383050194,118239.83551209555,19444.490751865425,40.608668788308805,0.8824934130617261,83.0,51.0,90.0,264.0,354.0,32.0,1058.0,1051.0,32.0,11.0,21.0,0.34375,169.15775903398978,3283.4581071155153,40.0,26.0,14.0,0.65,232.84197380697236,293.44785514302714,18.0,9.0,9.0,0.5,1789.9382826178344,27654.02936340362,16.0,8.0,8.0,0.5,1649.6275281989524,23992.52389247789,98.0,53.0,45.0,0.5408163265306123,209.4781570957124,21674.83942606084,0.0,0.0,0.0,0.0,117847.0,117879.0,117930.0,117948.0,117974.0,117992.0,118004.0,118020.0,118188.0,118284.0,0.06858350752857992,-0.10999217335821812,0.05971081342855905,-0.07281158633457213,0.010773136708433257
107,107,118925.30135639945,2816.7184825960107,10.191861603456228,118952.60271279886,-2319.227447145348,16.72523288932999,119017.96123361368,28912.91179166022,8.152240146434302,119046.1342443196,-22656.581391333464,7.281278752972917,119272.13686849496,19105.802109117085,40.204751868389074,0.8992769454305602,56.0,17.0,108.0,266.0,374.0,39.0,1072.0,1035.0,40.0,33.0,7.0,0.825,212.89635732534933,542.1718754825584,24.0,12.0,12.0,0.5,216.0274030847615,1990.8756866045655,18.0,9.0,9.0,0.5,1715.1209413701083,27405.82124375725,18.0,8.0,10.0,0.4444444444444444,1608.371437890029,25071.26289115832,100.0,49.0,51.0,0.49,258.51597380500374,20908.62787468135,0.0,0.0,0.0,0.0,118892.0,118931.0,118948.0,118965.0,119009.0,119027.0,119038.0,119056.0,119226.0,119322.0,0.07558311511810537,-0.0931462773738133,0.05932024258673338,-0.07098914925025974,0.013530757427956541
108,108,119845.30135639945,2139.197229994773,9.254871318072668,119907.027373699,-3020.4441446492515,7.88488826561904,119948.19075796472,26352.44703230387,8.504235708401,119976.43706285674,-21074.066063082988,7.818556945150258,120215.2327992967,18903.755985347605,36.061075556508015,0.8361857304366453,58.0,49.0,87.0,261.0,348.0,9.0,920.0,930.0,25.0,14.0,11.0,0.56,209.49773586189167,2285.7470670345547,18.0,7.0,11.0,0.3888888888888889,267.8706566056557,1315.512834551852,18.0,9.0,9.0,0.5,1536.0518005476144,25024.471504739067,19.0,8.0,11.0,0.4210526315789473,1465.9159351742385,25164.2179976918,100.0,66.0,34.0,0.66,223.5757090614869,17344.26238578304,0.0,0.0,0.0,0.0,119842.0,119851.0,119900.0,119917.0,119939.0,119957.0,119968.0,119987.0,120156.0,120248.0,0.09793287543776577,-0.08868585008605155,0.05828877290464379,-0.069560185053334,0.011827052213051286
109,109,120777.87143160176,2041.5452761544775,16.046370856881083,120851.60271279886,-2639.6579196850744,11.328575502570558,120893.91503934062,28947.254207139435,8.185672321239496,120923.23364475768,-21993.33587368171,7.041731021312391,121153.10949479598,19033.02959976314,37.30383731041605,0.8915333428587838,89.0,45.0,87.0,260.0,347.0,44.0,931.0,947.0,44.0,21.0,23.0,0.4772727272727273,143.5369465879363,2237.322299819062,40.0,29.0,11.0,0.725,233.34394386065196,1601.037266748066,19.0,10.0,9.0,0.5263157894736842,1683.403665984857,27239.053865931597,18.0,8.0,10.0,0.4444444444444444,1564.979104648044,24147.344879114866,92.0,51.0,41.0,0.5543478260869565,230.32819648962547,20260.61524829036,0.0,0.0,0.0,0.0,120757.0,120801.0,120846.0,120863.0,120884.0,120903.0,120915.0,120933.0,121103.0,121193.0,0.0703079908461826,-0.08839931194133335,0.05815417427638678,-0.07115696834879759,0.01210149941092362
110,110,121826.17805189872,2923.5698962184792,22.93168859674863,121903.30135639945,-1634.534431414805,4.393226780058802,121942.7121418702,29606.482934830572,8.543483468857806,121971.87433147318,-21840.213142030865,6.706623893580735,122195.0449098722,20195.509439304373,42.81091414858014,0.8967060227449748,98.0,59.0,83.0,265.0,348.0,39.0,1052.0,1048.0,54.0,32.0,22.0,0.5925925925925926,207.8614174646708,1928.957632432426,11.0,5.0,6.0,0.4545454545454545,218.19975128255768,266.367257150717,19.0,10.0,9.0,0.5263157894736842,1721.064811490532,28738.56868557344,17.0,8.0,9.0,0.4705882352941176,1596.48355729091,24290.39926683646,98.0,47.0,51.0,0.4795918367346938,265.67809207355435,22805.53035943893,0.0,0.0,0.0,0.0,121800.0,121839.0,121898.0,121909.0,121933.0,121952.0,121964.0,121981.0,122148.0,122246.0,0.07109849425304701,-0.13349351784146288,0.05813134965334852,-0.07309835059340714,0.013155305285663818
111,111,122841.30135639945,2321.7046130031385,10.191861603456228,122910.87669549928,-2585.981921607741,9.51658617093967,122948.65734233672,29466.3776021182,8.261142503438418,122978.00166084502,-22602.89947063533,7.207134092699481,123201.56153635986,19489.063645529073,40.67960152610773,0.8953382920993317,47.0,37.0,102.0,262.0,364.0,10.0,1013.0,1006.0,15.0,6.0,9.0,0.4,257.9287790485968,2421.3842002002966,34.0,26.0,8.0,0.7647058823529411,219.00200360550983,1132.0712166911871,19.0,10.0,9.0,0.5263157894736842,1744.9928368738867,28303.29841924412,18.0,8.0,10.0,0.4444444444444444,1588.413950994941,25611.243395210084,100.0,49.0,51.0,0.49,312.392134311133,21986.910638717585,0.0,0.0,0.0,0.0,122839.0,122849.0,122886.0,122918.0,122939.0,122958.0,122970.0,122988.0,123160.0,123250.0,0.11109457146443984,-0.08468814177531189,0.05921979486031047,-0.07027478722623781,0.016029099190858147
112,112,123824.2739827004,1987.1316192176787,7.643896202592164,123894.45203459916,-1995.7980733586965,15.287792364878772,123934.26459857044,26963.49677735147,8.539014472735587,123963.5466724895,-22290.457157994144,7.330972083538249,124187.7509086926,19053.24551662529,39.76850952833241,0.9010445787850428,56.0,50.0,98.0,262.0,360.0,6.0,980.0,986.0,13.0,5.0,8.0,0.3846153846153846,262.326179491048,2880.8170461525024,27.0,18.0,9.0,0.6666666666666666,207.0571548209082,1519.1730195818045,19.0,10.0,9.0,0.5263157894736842,1534.32267598662,27789.090176370995,19.0,9.0,10.0,0.4736842105263157,1568.027561949078,24962.39544601588,97.0,48.0,49.0,0.4948453608247423,190.93541876340257,20459.967083357,0.0,0.0,0.0,0.0,123820.0,123826.0,123876.0,123903.0,123925.0,123943.0,123955.0,123974.0,124145.0,124236.0,0.13201248319641964,-0.10374654509634587,0.056903697938592485,-0.07034524015523513,0.010021149341554332
113,113,124745.30135639945,2128.6993560630426,10.19186160345614,124791.41833374852,-3438.8024639747755,11.392585910616114,124853.44776275684,27728.40727653663,7.990104832875043,124881.9041717948,-21510.82568719633,7.6267537844433235,125105.3939657055,19098.114318000957,39.22797628899232,0.8929147360565964,49.0,35.0,106.0,262.0,368.0,14.0,924.0,918.0,29.0,21.0,8.0,0.7241379310344828,195.93232880283105,1772.0380009484898,13.0,5.0,8.0,0.3846153846153846,295.3374174776244,3749.8859801516046,18.0,9.0,9.0,0.5,1696.9360234119854,26983.596011888232,18.0,8.0,10.0,0.4444444444444444,1489.8069313280455,25166.976093034147,97.0,47.0,50.0,0.4845360824742268,184.9240158112519,20713.16516969099,0.0,0.0,0.0,0.0,124737.0,124751.0,124786.0,124799.0,124845.0,124862.0,124874.0,124892.0,125060.0,125154.0,0.09204321326295756,-0.08588379837795497,0.061198467206874434,-0.06925847259386272,0.009682841600594646
114,114,125721.972626301,1640.7186044599027,8.492438408144642,125806.60271279886,-2519.7872667248625,10.192776047214377,125851.50136937792,27939.451294503517,8.009393353422416,125880.60138929376,-21385.83933809748,6.755008519436365,126115.53415569612,20262.019705073377,37.70409119413399,0.8703991969332916,90.0,67.0,88.0,264.0,352.0,23.0,972.0,999.0,36.0,10.0,26.0,0.2777777777777778,149.12630836908392,1799.951591113032,19.0,6.0,13.0,0.3157894736842105,266.42203711974344,1038.7502558839062,18.0,9.0,9.0,0.5,1677.5923639719542,26227.088607729085,17.0,8.0,9.0,0.4705882352941176,1511.6704176065969,23064.143745380217,101.0,61.0,40.0,0.6039603960396039,202.85347320574255,20043.909524412673,0.0,0.0,0.0,0.0,125712.0,125735.0,125802.0,125819.0,125843.0,125861.0,125873.0,125890.0,126058.0,126154.0,0.09089084987743759,-0.10573195627979744,0.06004385505960113,-0.07068557813925284,0.010011512976416184
115,115,126729.82194810123,2462.6152588381724,14.24715383614336,126797.44826086312,-2293.4605543941307,14.885003593851163,126855.89280385103,29743.47544407989,8.228837970485705,126884.78624671097,-21728.93956232287,7.495075532911592,127110.56152939636,20016.115930211698,39.67018124007133,0.898514289259493,58.0,34.0,120.0,264.0,384.0,24.0,1007.0,1004.0,25.0,14.0,11.0,0.56,195.97596225603735,3139.2107650618923,48.0,22.0,26.0,0.4583333333333333,176.37275179731267,2637.2947721970095,19.0,10.0,9.0,0.5263157894736842,1795.0311783979855,27784.6795463124,18.0,8.0,10.0,0.4444444444444444,1507.7769089819458,23888.270649167585,97.0,47.0,50.0,0.4845360824742268,208.0856357875182,21445.36468401206,0.0,0.0,0.0,0.0,126717.0,126741.0,126775.0,126823.0,126847.0,126865.0,126877.0,126895.0,127065.0,127159.0,0.07958042229808,-0.07690245705747728,0.06035041808657457,-0.06939026659158148,0.01039590480555922
116,116,127728.27665798696,2236.678634395171,6.741855841583248,127790.60271279886,-2392.132905847967,20.383723206912453,127833.00056496957,29243.91924210299,8.340274777288501,127861.9923456836,-22631.544194478734,7.996233312151462,128086.2305487106,19086.743838954462,40.02231079695284,0.8977090853349686,42.0,31.0,109.0,261.0,370.0,11.0,1003.0,978.0,11.0,6.0,5.0,0.5454545454545454,178.55334698695236,2487.9276687603024,39.0,27.0,12.0,0.6923076923076923,177.98936973003026,1880.782584497609,18.0,9.0,9.0,0.5,1716.5858816480752,27365.0905186422,20.0,9.0,11.0,0.45,1566.8666143396438,25857.14741262803,102.0,50.0,52.0,0.4901960784313725,198.47728449559625,19746.88545446484,0.0,0.0,0.0,0.0,127722.0,127733.0,127764.0,127802.0,127824.0,127842.0,127853.0,127873.0,128041.0,128134.0,0.07982968328180758,-0.07440613742443225,0.05869889967336102,-0.0692337474135725,0.010398697974377409
117,117,129565.89807056585,2205.7803637195193,14.004885056387977,129621.54796540084,-1827.4637797044793,15.28779240518186,129682.40895161717,28617.94471867829,7.745376503486682,129711.11809331916,-21534.62198146304,7.046623491033854,129940.83551209555,19058.882313662325,38.61139391128902,0.8813516356888403,60.0,35.0,108.0,264.0,372.0,25.0,1840.0,1849.0,26.0,14.0,12.0,0.5384615384615384,163.2608503655887,2426.545397569992,24.0,13.0,11.0,0.5416666666666666,204.36223482087263,2068.4583467389293,18.0,9.0,9.0,0.5,1710.2355909639166,27289.57869940919,18.0,8.0,10.0,0.4444444444444444,1512.709753757658,23640.428322406253,100.0,55.0,45.0,0.55,135.30455364573208,19586.27732078423,0.0,0.0,0.0,0.0,129553.0,129578.0,129613.0,129627.0,129674.0,129691.0,129703.0,129721.0,129888.0,129985.0,0.0740150075913671,-0.11182833667648408,0.059760950961921605,-0.07024547517294688,0.007099291103169217
118,118,130514.2739827004,1293.1275109011012,5.157904311343602,130607.45203459916,-3593.4799098635,7.497147304913948,130647.93958646522,28576.84440362724,7.470737412252996,130677.03068292476,-22894.459694574303,6.94575772302291,130917.2327992967,18507.247344618267,33.55593747423628,0.8297519571139834,88.0,73.0,88.0,264.0,352.0,15.0,944.0,965.0,15.0,4.0,11.0,0.2666666666666666,158.2647090684766,2182.596642565828,19.0,10.0,9.0,0.5263157894736842,245.58830092893243,2065.488809250048,18.0,9.0,9.0,0.5,1749.0386294802554,26870.476434646436,17.0,8.0,9.0,0.4705882352941176,1592.031132912726,25172.324586541697,93.0,60.0,33.0,0.6451612903225806,161.70289397992892,17085.06387484425,0.0,0.0,0.0,0.0,130510.0,130525.0,130598.0,130616.0,130639.0,130657.0,130669.0,130686.0,130858.0,130950.0,0.1223890975439782,-0.06834275050622482,0.0612047504187779,-0.0695378337882338,0.008737274159085068
119,119,131521.13737303088,2523.460151891948,12.036484020926911,131579.2292817257,-2414.926903419813,17.14468209658768,131640.9286391609,30208.75931948066,7.6037114946928845,131669.87754437493,-22167.28614618124,7.555849687838721,131895.23196650943,19100.95267033382,39.76593362237016,0.9064463798826782,47.0,20.0,124.0,263.0,387.0,27.0,1007.0,993.0,30.0,15.0,15.0,0.5,200.1741933074116,2389.439101231257,31.0,23.0,8.0,0.7419354838709677,179.98507782376038,2174.736327386679,18.0,9.0,9.0,0.5,1858.4625223687576,27783.361413756316,18.0,8.0,10.0,0.4444444444444444,1511.9730652174262,24511.36923510709,98.0,46.0,52.0,0.4693877551020408,202.3268168310707,20363.279492233116,0.0,0.0,0.0,0.0,131509.0,131536.0,131556.0,131587.0,131632.0,131650.0,131662.0,131680.0,131853.0,131943.0,0.07932528403800325,-0.07453023839722889,0.06152065044161859,-0.0682074050583722,0.010592498726270846
120,120,132488.94350001228,1531.1800218807791,3.5900808000489803,132551.05475116466,-4203.605684987231,15.142435232484203,132603.23542725545,28991.38214433928,7.978045297933135,132631.8539328257,-23255.276005739863,8.048309224153375,132869.65746019688,19033.85995547944,32.69659174003417,0.8428573081616476,54.0,44.0,105.0,258.0,363.0,10.0,970.0,963.0,10.0,5.0,5.0,0.5,153.07067325075502,754.9131737494488,45.0,25.0,20.0,0.5555555555555556,156.34557014374337,3993.679681114728,18.0,9.0,9.0,0.5,1760.7067462028394,26812.3016242424,20.0,9.0,11.0,0.45,1488.3120378388344,25075.131656258483,85.0,53.0,32.0,0.6235294117647059,189.37911192770855,18427.956143155126,0.0,0.0,0.0,0.0,132484.0,132494.0,132538.0,132571.0,132594.0,132612.0,132623.0,132643.0,132817.0,132901.0,0.09996908989364636,-0.037193205514522064,0.06073207332568056,-0.06399889803378336,0.009949590486147838
121,121,133411.85261516043,2505.8473637980783,17.91795473659152,133465.68184440548,-1377.5187424232072,12.558301670739942,133528.13642644757,28506.00185808616,8.439663031212142,133556.4853132634,-21598.1550362299,7.58366272365563,133787.109494796,19247.44994930813,40.76591341988034,0.8887427665606878,57.0,27.0,114.0,260.0,374.0,30.0,923.0,925.0,30.0,16.0,14.0,0.5333333333333333,173.67126887587605,2581.6144110257837,25.0,14.0,11.0,0.56,133.00706907853632,1264.8280166741677,18.0,9.0,9.0,0.5,1647.2358707854592,27458.5316098704,19.0,8.0,11.0,0.4210526315789473,1503.0926323784602,24923.528964308432,97.0,57.0,40.0,0.5876288659793815,191.90103182952575,20734.14663200457,0.0,0.0,0.0,0.0,133396.0,133426.0,133453.0,133476.0,133519.0,133537.0,133548.0,133567.0,133736.0,133827.0,0.0693064036480837,-0.09655554220958347,0.057785580699321944,-0.06959356620308968,0.009970205525144063
122,122,134340.2739827004,2116.707101491606,7.643896150671842,134400.63008649787,-2648.2180325572576,15.980535530201808,134453.11134660232,28961.774483263333,7.713615761194569,134482.0655764813,-22042.0493035108,7.452396254402447,134709.83551209557,18733.165894767462,38.20380542376584,0.8943634403596892,48.0,33.0,108.0,262.0,370.0,15.0,926.0,924.0,16.0,5.0,11.0,0.3125,185.37924237572523,2154.5191585448824,52.0,30.0,22.0,0.5769230769230769,171.04883689203683,2549.7260089162783,18.0,9.0,9.0,0.5,1705.194987169766,27495.23514436095,19.0,9.0,10.0,0.4736842105263157,1525.1585492137644,24690.430271578785,93.0,48.0,45.0,0.5161290322580645,225.5157172296931,20562.17224028833,0.0,0.0,0.0,0.0,134336.0,134351.0,134384.0,134422.0,134444.0,134462.0,134473.0,134492.0,134662.0,134754.0,0.08757907140061644,-0.06459016394766527,0.05887743474265287,-0.06919313754419563,0.012038313144532822
123,123,135313.30135639946,2426.370963501469,10.191861603456228,135356.12330450068,-2518.3426403083436,12.739827004320285,135422.18780739978,30447.54078616101,7.349781851678721,135450.47674088454,-21309.33824732117,7.124052861193967,135674.98619029528,19571.11376516836,39.861113356526296,0.9013385499129872,43.0,30.0,111.0,262.0,373.0,13.0,976.0,969.0,14.0,7.0,7.0,0.5,213.4892829703641,2378.02841400548,23.0,8.0,15.0,0.3478260869565217,183.4617621673027,2547.9168790427484,18.0,9.0,9.0,0.5,1886.7880561932477,28397.307136084928,17.0,7.0,10.0,0.4117647058823529,1487.1642049362983,24213.114170546985,97.0,48.0,49.0,0.4948453608247423,205.8474722719116,21757.758148446806,0.0,0.0,0.0,0.0,135306.0,135319.0,135349.0,135370.0,135414.0,135431.0,135443.0,135460.0,135629.0,135722.0,0.08798707459896409,-0.07285019886922131,0.06196848768327552,-0.06978931901478695,0.010517923238393725
124,124,136288.0259662764,3215.2347551896737,12.472569362174209,136355.17805189872,-2488.71493407071,9.783039497735617,136402.16291693767,30124.78925853942,8.154147109493989,136431.18383724682,-22260.76976553598,7.0167132934768786,136655.30333262848,20041.48340568491,42.487494655634805,0.9005659551188451,70.0,47.0,93.0,264.0,357.0,23.0,973.0,980.0,23.0,10.0,13.0,0.4347826086956521,212.8750163236609,3504.5543431910464,42.0,28.0,14.0,0.6666666666666666,183.3845029193793,1592.4227858147356,18.0,9.0,9.0,0.5,1769.4465217333054,28775.99268637459,18.0,8.0,10.0,0.4444444444444444,1592.4786996167031,25171.554036274774,100.0,50.0,50.0,0.5,228.1650802082636,23025.869286833906,0.0,0.0,0.0,0.0,136278.0,136301.0,136348.0,136368.0,136393.0,136411.0,136423.0,136441.0,136606.0,136705.0,0.06620823440032234,-0.07368642362724252,0.05873722489964718,-0.07153744980023877,0.01138464032774854
125,125,137275.85622689995,1816.7802889651232,6.090624089520053,137347.17805189872,-2249.5370659880327,22.93168860774147,137390.7440487127,28300.75425255077,8.533931070202932,137419.84302904445,-21957.71005207305,7.767698127420387,137645.56152939514,18661.026027182663,38.32127051594835,0.8877412218876314,40.0,29.0,118.0,264.0,382.0,11.0,987.0,989.0,12.0,5.0,7.0,0.4166666666666667,228.8875049436318,570.4692218422616,52.0,38.0,14.0,0.7307692307692307,194.9777257004904,1333.0549575428786,18.0,9.0,9.0,0.5,1679.7598377529505,26248.061122187886,19.0,9.0,10.0,0.4736842105263157,1504.351844686989,23966.139940160258,88.0,40.0,48.0,0.4545454545454545,164.47274208140425,19863.504945645633,0.0,0.0,0.0,0.0,137272.0,137283.0,137312.0,137360.0,137382.0,137400.0,137411.0,137430.0,137607.0,137694.0,0.125985242317887,-0.08667460014260892,0.059353889396836564,-0.06851132659641626,0.008813703053724073
126,126,138222.4497486298,2472.452349037102,10.300136281331884,138301.30135639946,-2887.5756471470368,5.2558713620619715,138340.53419882795,27837.471876532065,7.800491709281322,138369.4715862129,-20943.068811447676,7.650839254036151,138599.68483389585,18929.99295684385,37.3271156813033,0.8889723555309387,89.0,58.0,87.0,261.0,348.0,31.0,949.0,950.0,34.0,19.0,15.0,0.5588235294117647,140.20801774428668,1638.404760773942,22.0,16.0,6.0,0.7272727272727273,244.24259185742304,759.0832726937807,18.0,10.0,8.0,0.5555555555555556,1696.2435505688322,26440.06800092876,20.0,9.0,11.0,0.45,1429.861581469958,24110.946385469477,94.0,50.0,44.0,0.5319148936170213,151.3103176200948,19045.844672736832,0.0,0.0,0.0,0.0,138204.0,138235.0,138293.0,138307.0,138332.0,138349.0,138360.0,138380.0,138552.0,138641.0,0.056708076820526296,-0.08458396305521484,0.0609338217957509,-0.06827373745190497,0.007993152346387476
127,127,139156.7260172996,3142.5259148236432,7.64389620259217,139209.69864357467,-2052.871823072885,10.191861603456228,139264.61149245032,28680.570318046855,8.099030958770037,139293.44597808554,-21692.69837032516,6.923877755483191,139527.109494796,19324.312962074026,39.331376912115715,0.8842110460527305,49.0,38.0,104.0,264.0,368.0,11.0,934.0,924.0,12.0,7.0,5.0,0.5833333333333334,201.89190824538375,3835.974628660765,19.0,11.0,8.0,0.5789473684210527,174.75046900058865,1954.2877258979352,18.0,9.0,9.0,0.5,1723.124852766144,26877.781380943212,17.0,7.0,10.0,0.4117647058823529,1555.2883142138417,23930.454898376374,100.0,59.0,41.0,0.59,182.556064615501,19587.61881809619,0.0,0.0,0.0,0.0,139150.0,139161.0,139199.0,139212.0,139256.0,139274.0,139286.0,139303.0,139470.0,139567.0,0.06424510528076705,-0.08512488068495659,0.06007986708973814,-0.07169639699325837,0.009446962744485988
128,128,140130.7185602038,2241.2128690644827,15.36522180748139,140191.02779348797,-2068.647332328193,13.116500986747736,140246.0814246301,29439.5547079778,7.744876320624212,140275.07454605744,-20667.925233952104,6.862498156427931,140498.72048179715,19409.019214176955,41.21314892488516,0.9021555529414588,53.0,32.0,107.0,264.0,371.0,21.0,973.0,982.0,21.0,7.0,14.0,0.3333333333333333,183.3575616837283,3179.0928556153076,44.0,21.0,23.0,0.4772727272727273,156.18760326879695,2305.460532383494,18.0,9.0,9.0,0.5,1779.8248523150194,26923.29184696828,17.0,8.0,9.0,0.4705882352941176,1461.1171253015088,22263.455018493267,101.0,50.0,51.0,0.495049504950495,199.25745601872555,20644.204024921204,0.0,0.0,0.0,0.0,140124.0,140145.0,140177.0,140214.0,140237.0,140255.0,140267.0,140284.0,140454.0,140548.0,0.08181175657815343,-0.0755022863626605,0.06045692164741562,-0.07069491053225158,0.01026623003563115
129,129,141135.30135639946,1813.181085857062,10.191861601325416,141187.14022162094,-3050.508435547258,13.27523368748748,141244.8000138508,28160.22522072937,7.928769170111357,141273.9659937395,-22138.700894797403,7.485788397905856,141499.19006095367,18694.052820030716,39.29419206405396,0.8858793592168508,46.0,32.0,111.0,263.0,374.0,14.0,1006.0,998.0,14.0,8.0,6.0,0.5714285714285714,185.94549270509913,1956.761301281089,29.0,14.0,15.0,0.4827586206896552,143.20046135374525,3486.673823691704,19.0,10.0,9.0,0.5263157894736842,1700.531740145936,26409.97019183646,19.0,9.0,10.0,0.4736842105263157,1523.21917498237,24688.251080002618,104.0,52.0,52.0,0.5,154.16504044727657,19071.412257171123,0.0,0.0,0.0,0.0,141127.0,141141.0,141173.0,141202.0,141236.0,141253.0,141265.0,141284.0,141458.0,141547.0,0.10255208051500583,-0.046943145504875564,0.06038771802485928,-0.06880345790029291,0.008246742529907073
130,130,142085.54796540082,1968.0781965512735,9.113695709707978,142151.09340058043,-3133.663311909678,14.6663494424739,142210.46006874682,27196.31284088853,8.100631948777767,142238.4334101636,-21938.472116289468,7.987710974706499,142471.109494796,18848.71544848492,36.89351464318958,0.8853631835450388,65.0,44.0,107.0,262.0,369.0,21.0,946.0,965.0,23.0,10.0,13.0,0.4347826086956521,172.06427888666042,2191.4928138541336,20.0,10.0,10.0,0.5,214.06119487099252,4055.719070868532,18.0,9.0,9.0,0.5,1619.4147070220365,25957.60019969705,20.0,9.0,11.0,0.45,1491.5512261634071,25888.713683526657,93.0,52.0,41.0,0.5591397849462365,230.21448251278537,18823.032502674418,0.0,0.0,0.0,0.0,142077.0,142098.0,142142.0,142161.0,142201.0,142219.0,142229.0,142249.0,142420.0,142511.0,0.0874275621711445,-0.06831020871241653,0.059545377216992205,-0.06798792633585089,0.012213802215964286
131,131,143036.45203459918,2044.698479070536,11.699011114858932,143092.11939069143,-3235.9982478400484,15.642002831125607,143150.78951888435,27495.2842021389,8.10365233345266,143179.9440091384,-21749.781713618784,7.277427861055558,143403.92364612783,18825.573842483125,39.67787784106191,0.897932340910791,50.0,26.0,119.0,262.0,381.0,24.0,956.0,941.0,24.0,15.0,9.0,0.625,194.5194633886634,1745.0993913440843,44.0,21.0,23.0,0.4772727272727273,145.9747003898339,3461.8057283975427,19.0,10.0,9.0,0.5263157894736842,1623.5174450970603,26717.66699262664,19.0,9.0,10.0,0.4736842105263157,1534.20390236298,24169.295864401058,99.0,47.0,52.0,0.4747474747474747,193.99462408706356,19762.834371940888,0.0,0.0,0.0,0.0,143021.0,143045.0,143071.0,143109.0,143141.0,143160.0,143171.0,143190.0,143360.0,143452.0,0.09513356877787019,-0.04510963517587457,0.0590471236144111,-0.07053881839201756,0.010304845191453423
132,132,144016.53910434322,2661.4966603006765,10.332834590738708,144092.17805189872,-2081.1062722122215,10.221554277522138,144135.22692924197,29029.15808633458,7.772677436898402,144164.54974517474,-22264.11304630273,7.058391471952194,144390.31222067968,19049.1745792132,39.535857574266046,0.899921273214304,75.0,52.0,93.0,265.0,358.0,23.0,975.0,985.0,25.0,12.0,13.0,0.48,219.77337654001343,2744.5444380962927,53.0,39.0,14.0,0.7358490566037735,184.73431305719495,759.7078046126575,18.0,9.0,9.0,0.5,1736.2380269204336,26913.671469206263,18.0,9.0,9.0,0.5,1539.6786637416312,22677.64490641633,101.0,51.0,50.0,0.504950495049505,287.09992784164973,21474.868408078382,0.0,0.0,0.0,0.0,144006.0,144029.0,144081.0,144105.0,144126.0,144144.0,144156.0,144174.0,144344.0,144439.0,0.08257510889199653,-0.08876736163061096,0.05981014060954679,-0.06915517633869168,0.015071515390222646
133,133,145039.12330067722,2561.5213339859015,12.739827004320285,145081.82194810128,-3008.7022791832533,18.462816692722967,145144.6427591211,30204.09912690241,7.626928340190173,145173.32992504773,-22889.037548341763,7.266333295581069,145398.28497297803,19391.389790553298,40.76904891194523,0.8974835586385481,40.0,27.0,114.0,264.0,378.0,13.0,1023.0,1009.0,14.0,11.0,3.0,0.7857142857142857,193.6240313966121,2486.137551091846,44.0,14.0,30.0,0.3181818181818182,133.02277738123396,3483.347601217092,18.0,9.0,9.0,0.5,1858.778346587418,27832.69271137668,18.0,8.0,10.0,0.4444444444444444,1558.392168522336,25555.28109959999,102.0,52.0,50.0,0.5098039215686274,189.7435777095199,21194.625994326987,0.0,0.0,0.0,0.0,145029.0,145042.0,145069.0,145112.0,145136.0,145153.0,145165.0,145183.0,145357.0,145447.0,0.07558946662970788,-0.04421267544535663,0.06154059880341962,-0.06808465254299155,0.009784939592207843
134,134,145983.4596535593,1868.1353136344085,14.796036716629226,146048.32873009844,-2794.400227326095,14.51986630215545,146104.49825536797,27793.895064984223,8.727327825770097,146132.77511240754,-22299.989357438448,8.19328282602925,146356.32251833298,18946.01959740507,41.10649764177468,0.8887046157083155,70.0,31.0,112.0,263.0,375.0,39.0,941.0,960.0,40.0,22.0,18.0,0.55,108.08050048980084,1446.283649328269,53.0,28.0,25.0,0.5283018867924528,152.56827044375694,2632.456922266782,18.0,9.0,9.0,0.5,1626.9300296739386,26592.50566744299,20.0,9.0,11.0,0.45,1502.6007002635574,25847.89044920573,107.0,54.0,53.0,0.5046728971962616,268.6982275278603,20278.79774010673,0.0,0.0,0.0,0.0,145962.0,146001.0,146032.0,146064.0,146095.0,146113.0,146124.0,146144.0,146303.0,146407.0,0.057854749439714324,-0.05459785930154552,0.05853551745338512,-0.06738122947858474,0.014182304950463706
135,135,146902.45203459918,1590.1687450344837,7.7594489070590145,146969.17805189872,-2755.54895821886,9.938729243155295,147013.0914733209,25372.750903880868,8.619057730379975,147042.12470793453,-21751.281444542463,7.630112231932047,147266.62348926152,18411.963891495085,37.328634801570395,0.8747040143543611,53.0,35.0,106.0,260.0,366.0,18.0,927.0,908.0,24.0,15.0,9.0,0.625,124.4687635106772,1020.7631329416135,37.0,24.0,13.0,0.6486486486486487,159.23761476500437,1576.822065363238,18.0,9.0,9.0,0.5,1429.69581559252,24989.164929383624,20.0,9.0,11.0,0.45,1526.909663931796,25161.942752761785,93.0,47.0,46.0,0.5053763440860215,193.53866846168265,19827.778878718163,0.0,0.0,0.0,0.0,146893.0,146911.0,146946.0,146982.0,147004.0,147022.0,147033.0,147052.0,147233.0,147312.0,0.07827393407105233,-0.057787982423630334,0.05634768657953608,-0.07019860727860278,0.010511571150271628
