Unnamed: 0,cycle,p_center,p_height,p_width,q_center,q_height,q_width,r_center,r_height,r_width,s_center,s_height,s_width,t_center,t_height,t_width,r_squared,pr_interval,pr_segment,qrs_duration,st_segment,qt_interval,p_duration,pp_interval,rr_interval,fwhm_p,rise_time_p,decay_time_p,rise_decay_symmetry_p,sharpness_deriv_p,sharpness_diff_p,fwhm_q,rise_time_q,decay_time_q,rise_decay_symmetry_q,sharpness_deriv_q,sharpness_diff_q,fwhm_r,rise_time_r,decay_time_r,rise_decay_symmetry_r,sharpness_deriv_r,sharpness_diff_r,fwhm_s,rise_time_s,decay_time_s,rise_decay_symmetry_s,sharpness_deriv_s,sharpness_diff_s,fwhm_t,rise_time_t,decay_time_t,rise_decay_symmetry_t,sharpness_deriv_t,sharpness_diff_t,Average_Heart_Rate,SDNN,RMSSD,NN50,p_on,p_off,q_on,q_off,r_on,r_off,s_on,s_off,t_on,t_off,sharpness_deriv_p_norm,sharpness_deriv_q_norm,sharpness_deriv_r_norm,sharpness_deriv_s_norm,sharpness_deriv_t_norm
0,0,,,,,,,,,,,,,,,,,,,,,,,,,,,,,,,,,,,,,,,,,,,,,,,,,,,,,,,52.56680649937186,252.5508083615329,318.5894026124833,556.0,,,,,,,,,,,,,,,
1,1,1831.1275531656825,6552.650513215111,16.973498071568994,1924.027373698992,-2734.980004820543,17.835757805151324,1959.452034599136,50245.081409964885,8.970959713706941,1980.301356399424,-6439.261288279898,10.191861603456228,2265.4283176986996,16369.4124447366,36.53031342557085,0.9715284095272264,105.0,62.0,91.0,303.0,394.0,43.0,,,44.0,20.0,24.0,0.4545454545454545,132.50409815995425,6678.889134878922,18.0,7.0,11.0,0.3888888888888889,301.61259582279087,1345.9829042113024,21.0,11.0,10.0,0.5238095238095238,2825.6455765306837,46316.618979958344,89.0,2.0,87.0,0.0224719101123595,1492.7657976730509,23666.003266731168,94.0,47.0,47.0,0.5,122.10390879573625,16557.50298563763,,,,,1812.0,1855.0,1917.0,1934.0,1949.0,1968.0,1978.0,2008.0,2223.0,2311.0,0.020221450524902183,-0.11027963469245959,0.05623725740387169,-0.23182252293287656,0.007459272543102021
2,2,2946.5889028063016,5933.963808645275,14.869116734025493,3041.87669549928,-5121.261011838957,6.509794645315617,3075.3013563994245,46672.05636375956,9.172098989580878,3095.602712798848,-10027.04465505144,12.481654041942871,3380.6463285558634,15353.963485355014,35.27984533268071,0.9520147574792324,103.0,64.0,88.0,306.0,394.0,39.0,1115.0,1115.0,39.0,19.0,20.0,0.4871794871794871,144.32191572368637,5866.69338785317,20.0,13.0,7.0,0.65,543.7036450459204,488.5299917416364,19.0,12.0,7.0,0.631578947368421,2777.1565222236873,40758.991164341554,30.0,5.0,25.0,0.1666666666666666,1125.9498166322896,19627.17132825266,89.0,44.0,45.0,0.4943820224719101,147.1826554476717,16071.298013135876,,,,,2928.0,2967.0,3031.0,3049.0,3064.0,3081.0,3091.0,3119.0,3338.0,3425.0,0.024321333998266345,-0.10616597041022242,0.0595036246223795,-0.1122912937328006,0.009585971439104835
3,3,4055.244407176888,6696.588688173323,18.18641245606951,4150.294584811496,-3658.884668502512,5.981236776751525,4183.452034599137,50605.59613756976,8.736172294775438,4205.301356399425,-4437.310896018492,10.191861603456228,4489.708374461992,16864.408311498653,37.88538445857909,0.978750989337026,106.0,62.0,79.0,316.0,395.0,44.0,1106.0,1109.0,44.0,19.0,25.0,0.4318181818181818,143.07542079495954,7016.780417261054,16.0,8.0,8.0,0.5,427.860599289192,442.6203109679864,21.0,11.0,10.0,0.5238095238095238,2819.8341893675743,48142.51591755661,24.0,3.0,21.0,0.125,1290.1284362043104,20445.52809723204,94.0,46.0,48.0,0.4893617021276595,117.88719403012128,17949.922002391766,,,,,4036.0,4080.0,4142.0,4158.0,4173.0,4192.0,4203.0,4221.0,4445.0,4537.0,0.021365418641829004,-0.11693743805931561,0.05572178582190676,-0.29074555883878145,0.006990295292467646
4,4,5216.520119363313,6450.934647760128,17.083146864457667,5313.301356399425,-4164.062495243667,5.687682430075989,5345.876695499281,47718.78687920288,8.933175262190847,5366.452034599137,-7692.317951540752,11.83630153383766,5651.578799986244,16117.510881885437,36.46307127113408,0.9636709041218066,105.0,65.0,76.0,316.0,392.0,40.0,1166.0,1162.0,40.0,18.0,22.0,0.45,190.91638709850332,7049.935997346663,16.0,9.0,7.0,0.5625,527.5214186862881,1508.9224267785492,19.0,12.0,7.0,0.631578947368421,2778.682172894003,42725.312168961354,20.0,3.0,17.0,0.15,1325.5615193847416,21458.63140553541,91.0,46.0,45.0,0.5054945054945055,135.4205062416825,16451.644029069234,,,,,5199.0,5239.0,5304.0,5319.0,5335.0,5353.0,5363.0,5380.0,5608.0,5696.0,0.029595151326605465,-0.12668431832827698,0.05823036071575044,-0.17232276769308982,0.008402073200638094
5,5,6396.233858712425,6754.334632571617,19.588872930353137,6492.301356399425,-3354.7141492775204,5.454819766407983,6524.452034599137,50250.36240703658,8.925501530174405,6545.726017299569,-5193.392485267604,7.64389620259217,6831.243469364561,16942.478995763042,38.60453715003947,0.97935293971077,107.0,62.0,71.0,323.0,394.0,45.0,1181.0,1179.0,45.0,20.0,25.0,0.4444444444444444,132.24343446334876,7588.94671674772,15.0,9.0,6.0,0.6,483.8503450512954,1873.6774346583509,21.0,11.0,10.0,0.5238095238095238,2829.9271404957058,47870.04287770687,12.0,2.0,10.0,0.1666666666666666,1278.1002241967076,19835.31093662017,94.0,47.0,47.0,0.5,126.06076864663834,17449.54654270634,,,,,6376.0,6421.0,6483.0,6498.0,6513.0,6533.0,6544.0,6554.0,6787.0,6877.0,0.019579046887257784,-0.1442299771369488,0.05631655186031912,-0.24610121954432834,0.007440514972936575
6,6,7553.199508962561,6390.852845647185,15.582341578871386,7647.452034599882,-4569.87847495634,6.742100910053854,7681.876695499281,48017.945994027905,8.801897379472742,7702.452034599137,-7090.418448241887,13.10349135842124,7988.91947818968,15938.800081282556,37.095811469809895,0.9669292547428768,103.0,61.0,89.0,308.0,397.0,42.0,1156.0,1157.0,42.0,19.0,23.0,0.4523809523809524,161.9975217890833,6641.738537742758,19.0,10.0,9.0,0.5263157894736842,424.3178284474643,1277.939698814865,19.0,12.0,7.0,0.631578947368421,2808.17464292047,42517.964318049824,30.0,3.0,27.0,0.1,1397.2163293254405,22375.11899267895,91.0,45.0,46.0,0.4945054945054945,133.84792243481257,16550.693833952122,,,,,7534.0,7576.0,7637.0,7656.0,7671.0,7689.0,7699.0,7726.0,7945.0,8034.0,0.025348341716148252,-0.09285100922766183,0.05848177352837476,-0.1970569634958412,0.008397615990678902
7,7,8664.201606700039,6698.226709031102,18.082688607285352,8758.248378724771,-3732.1918359288698,7.834534260588429,8793.452034599139,49798.24716930999,8.950411940093318,8814.301356399426,-5895.6651708813115,10.191861603456228,9099.187483689271,16232.536747712897,36.578432923612375,0.9772521445755648,103.0,63.0,80.0,313.0,393.0,40.0,1110.0,1112.0,40.0,17.0,23.0,0.425,169.83227810617765,7599.533464571661,18.0,8.0,10.0,0.4444444444444444,340.6272237071103,1142.8802164232577,21.0,11.0,10.0,0.5238095238095238,2789.7637395473807,46533.50550831583,33.0,2.0,31.0,0.0606060606060606,1416.138040702764,22296.59048359481,92.0,46.0,46.0,0.5,138.74034402763294,16597.188694847937,,,,,8647.0,8687.0,8750.0,8768.0,8782.0,8802.0,8812.0,8830.0,9056.0,9143.0,0.025354811875387222,-0.09126734066238984,0.05602132400488738,-0.24019987561319958,0.008547052514585
8,8,9778.894179327064,6172.677360481229,16.150556548788085,9870.60271279885,-3414.7917372737875,9.990703976245468,9908.876695499284,47525.39313027943,8.944066298857932,9930.45203459914,-7371.282809007174,13.430299411919904,10214.730023247925,15629.37905666962,35.928384389852546,0.9601448119139924,105.0,64.0,74.0,319.0,393.0,41.0,1122.0,1115.0,42.0,19.0,23.0,0.4523809523809524,186.16951195887376,6027.165239080119,50.0,38.0,12.0,0.76,272.1502686345781,1084.1604228477113,19.0,12.0,7.0,0.631578947368421,2768.897120311114,42382.29380283564,25.0,4.0,21.0,0.16,1132.4110627610105,18879.522875894665,90.0,46.0,44.0,0.5111111111111111,140.05782127577223,15865.838046363086,,,,,9760.0,9801.0,9865.0,9882.0,9897.0,9916.0,9926.0,9939.0,10171.0,10258.0,0.030160253174865398,-0.07969747193187551,0.058261424849676655,-0.15362469357128533,0.008961189102135475
9,9,10864.29999976476,6704.891610692031,18.44884739783364,10958.732332798989,-3567.2351975533265,6.079093474762815,10992.45203459914,49272.439459675275,9.00621645205579,11012.72601729957,-6632.7231137894705,7.64389620259217,11297.462621389424,16689.625801116716,38.53015172985852,0.9761005970049704,107.0,63.0,78.0,315.0,393.0,44.0,1077.0,1084.0,45.0,21.0,24.0,0.4666666666666667,122.64010156635987,6870.191250108798,15.0,8.0,7.0,0.5333333333333333,440.7730330608818,691.3623498935842,20.0,11.0,9.0,0.55,2804.5017477767415,46482.326053164186,18.0,2.0,16.0,0.1111111111111111,1364.731628769296,21692.892631215345,97.0,49.0,48.0,0.5051546391752577,113.3485864566736,17073.106469641876,,,,,10844.0,10888.0,10951.0,10966.0,10981.0,11001.0,11011.0,11029.0,11252.0,11344.0,0.018291138572738515,-0.12356152836886015,0.05691826462280104,-0.20575736471374947,0.006791559487756122
10,10,11982.308329440602,6118.184393739359,15.873260696582664,12076.664895094696,-4507.0857159679645,6.81099946985677,12110.876695499284,48184.20008959377,8.77298691844449,12131.45203459914,-7271.161199383898,13.01683446740133,12417.27745229111,15563.329226006035,35.78567820450806,0.9634042427117518,107.0,65.0,75.0,316.0,391.0,42.0,1118.0,1118.0,42.0,19.0,23.0,0.4523809523809524,128.27580063045332,6569.907673364529,16.0,8.0,8.0,0.5,465.406552108013,692.1627286171579,19.0,12.0,7.0,0.631578947368421,2811.449144559674,42526.04918695701,19.0,3.0,16.0,0.1578947368421052,1411.4272931240223,22692.321807349563,91.0,46.0,45.0,0.5054945054945055,115.40802355074806,15758.40072271476,,,,,11963.0,12005.0,12070.0,12085.0,12100.0,12118.0,12128.0,12145.0,12372.0,12461.0,0.020966318171403254,-0.10326108297855167,0.058347946823482835,-0.19411305215508298,0.00741538149549027
11,11,13042.534751346975,6559.660888202322,16.653633766254572,13137.452034599495,-4028.1609724241025,6.888298246118111,13171.45203459914,50947.916930518855,8.766619034660632,13193.45203459914,-5257.703844895478,15.28779240518434,13476.521521857509,16210.890432724114,35.93136082072125,0.9733253925459756,108.0,65.0,83.0,306.0,389.0,43.0,1062.0,1061.0,43.0,20.0,23.0,0.4651162790697674,154.03502702586596,6703.095121827037,16.0,7.0,9.0,0.4375,413.20882872162485,621.0806318618647,20.0,11.0,9.0,0.55,2810.8944310627003,46388.615400780865,24.0,3.0,21.0,0.125,1225.450854548514,20234.79148526303,89.0,45.0,44.0,0.5056179775280899,122.2974378746018,16890.02899799698,,,,,13023.0,13066.0,13131.0,13146.0,13160.0,13180.0,13190.0,13214.0,13433.0,13520.0,0.023482163125673305,-0.10258001890946289,0.05517192066745552,-0.23307719314359282,0.00754415301134391
12,12,14155.499981572038,6679.091641113068,17.17473276757927,14251.876695499284,-4009.5556959034225,6.523469282160115,14284.876695499284,48295.71873255202,8.945305379097713,14304.876695499284,-7398.257243440182,11.140882463191538,14589.906024522148,15888.211344308296,36.69695442565111,0.9675348200146012,104.0,63.0,76.0,319.0,395.0,41.0,1116.0,1113.0,42.0,19.0,23.0,0.4523809523809524,132.61541166828997,7069.587550112657,18.0,11.0,7.0,0.6111111111111112,495.78980702505226,1138.27133554861,20.0,12.0,8.0,0.6,2795.459732783705,43840.0883385598,18.0,3.0,15.0,0.1666666666666666,1425.614932879379,22628.91578785958,93.0,46.0,47.0,0.4946236559139785,140.5953173221054,16795.04475968265,,,,,14137.0,14178.0,14241.0,14259.0,14274.0,14292.0,14302.0,14317.0,14546.0,14636.0,0.01985530649886242,-0.12365205639407939,0.05788214372094072,-0.19269604799744292,0.008849033681344595
13,13,15249.627886943594,6701.963763952499,17.68420118421704,15343.632774455682,-3620.669808316891,6.351843524014961,15377.45203459914,50036.49546198299,8.788233532772294,15398.876695499284,-4947.642125969912,11.877925909881627,15683.02467387204,16724.965063427273,38.47190666839692,0.9798413116303568,106.0,64.0,79.0,314.0,393.0,42.0,1093.0,1093.0,42.0,20.0,22.0,0.4761904761904761,144.38706265578438,6868.8986569211065,16.0,8.0,8.0,0.5,432.272586717822,536.9092501271186,21.0,11.0,10.0,0.5238095238095238,2804.271802738018,45930.513386725055,19.0,3.0,16.0,0.1578947368421052,1279.6874645854464,20512.838836796895,93.0,46.0,47.0,0.4946236559139785,119.39206766939448,17569.218636483325,,,,,15230.0,15272.0,15336.0,15352.0,15367.0,15386.0,15396.0,15415.0,15638.0,15729.0,0.021543993334071948,-0.11939022600869775,0.056044528635476945,-0.2586459230485638,0.007138554084664181
14,14,16375.507691205212,6491.4017227030345,17.070514546975947,16469.45203459914,-3717.340112079355,7.165687727553349,16503.876695499283,48205.31179316632,8.858658934377637,16525.027373698995,-6947.458532469581,12.04846982112101,16809.41747091176,16181.124574709223,38.333961383686265,0.9723055592947226,106.0,63.0,77.0,319.0,396.0,43.0,1127.0,1126.0,45.0,22.0,23.0,0.4888888888888889,135.55738591615716,6569.452328856049,20.0,11.0,9.0,0.55,352.40275924441465,614.827994727332,20.0,12.0,8.0,0.6,2774.0222369803355,42563.914887468614,17.0,4.0,13.0,0.2352941176470588,1237.5705691227306,20114.703770878594,95.0,46.0,49.0,0.4842105263157895,143.98772924781989,16599.272891836255,,,,,16355.0,16398.0,16461.0,16478.0,16492.0,16511.0,16521.0,16538.0,16765.0,16857.0,0.02088260620846475,-0.0947997085602405,0.057545986817444175,-0.178132847189923,0.008898499519178652
15,15,17448.933746400708,6543.230583466801,16.13001156722579,17543.876695499283,-3942.8679492156766,5.855445590011152,17577.876695499283,49052.72731425795,8.816035677137142,17599.45203459914,-6757.254715194408,12.705870169948918,17882.790885394592,16417.943722800774,37.00489467509521,0.9689510445649534,104.0,63.0,76.0,318.0,394.0,41.0,1073.0,1074.0,42.0,19.0,23.0,0.4523809523809524,158.59474601267473,6949.330348253974,18.0,11.0,7.0,0.6111111111111112,453.6198359814397,623.4916242448539,20.0,12.0,8.0,0.6,2835.747533481778,43243.748621423074,16.0,4.0,12.0,0.25,1236.2382521577963,19963.77103366757,92.0,46.0,46.0,0.5,130.38492963796276,17024.48178624116,,,,,17430.0,17471.0,17534.0,17551.0,17567.0,17585.0,17596.0,17610.0,17838.0,17928.0,0.02423798825207325,-0.11504819380818337,0.057810190966844026,-0.1829497783142587,0.00794161143681397
16,16,18614.771994348437,6457.5063035061385,17.841107505250942,18711.876695499283,-3882.8037994112265,6.388806391402584,18744.45203459914,49996.9598666597,8.752054769144149,18765.30135639943,-5855.416378481541,9.822725362921425,19051.215730399377,16148.09960565116,37.64115560211354,0.9719332228627288,105.0,62.0,72.0,325.0,397.0,43.0,1163.0,1167.0,45.0,20.0,25.0,0.4444444444444444,140.47941443052787,6768.647376720273,20.0,13.0,7.0,0.65,491.2419339038433,1494.4205674012628,20.0,11.0,9.0,0.55,2862.051191807156,46107.66029401054,11.0,2.0,9.0,0.1818181818181818,1463.601693403518,22663.88469131471,95.0,47.0,48.0,0.4947368421052631,127.83476706493262,16811.93308125059,,,,,18596.0,18639.0,18701.0,18719.0,18734.0,18753.0,18763.0,18773.0,19005.0,19098.0,0.021754437057886232,-0.1265173208026461,0.05724450445467395,-0.24995689440330926,0.007916396987060682
17,17,19777.216920903946,5074.591839996334,12.476949168716192,19868.027373698995,-5366.275749222536,9.004202071433594,19904.30135639943,46286.20601361318,9.333946923102856,19924.027373698995,-11187.849420984294,11.857340222742314,20210.74297009915,15338.88915614647,35.048689836147595,0.9465740088363288,98.0,60.0,87.0,312.0,399.0,38.0,1164.0,1159.0,38.0,18.0,20.0,0.4736842105263157,143.20600022289702,5338.919491487677,22.0,12.0,10.0,0.5454545454545454,400.4111007638658,2291.0090089251116,19.0,12.0,7.0,0.631578947368421,2759.242385235543,40209.101416876125,31.0,4.0,27.0,0.1290322580645161,1313.6874142859565,22225.883225772115,92.0,46.0,46.0,0.5,99.45011036864308,15593.890668212174,,,,,19759.0,19797.0,19857.0,19878.0,19892.0,19910.0,19920.0,19944.0,20165.0,20256.0,0.028220200705442445,-0.07461619929275479,0.05961262809969834,-0.11742090591798292,0.006483527545982186
18,18,20935.62483800413,6767.336299402809,18.207108506747616,21030.767802988397,-3676.032955060471,6.2900852382113985,21064.45203459914,50625.14005486897,8.820042875263908,21085.30135639943,-5985.882895143389,10.191861603456228,21371.4189283178,17305.634830593674,38.21579680857902,0.9756607825670798,105.0,62.0,76.0,320.0,396.0,43.0,1156.0,1161.0,44.0,20.0,24.0,0.4545454545454545,128.0916966402566,6814.881606071621,16.0,9.0,7.0,0.5625,448.7148809369983,285.17674244333216,21.0,11.0,10.0,0.5238095238095238,2850.604486829166,46673.14735069714,16.0,2.0,14.0,0.125,1477.5289258803568,23432.727499861445,94.0,47.0,47.0,0.5,129.88913107577338,18252.430321900934,,,,,20917.0,20960.0,21022.0,21038.0,21053.0,21073.0,21083.0,21098.0,21324.0,21418.0,0.01892793426736605,-0.12206497776884509,0.05630808099966932,-0.2468355882937739,0.007505597589875731
19,19,22086.58540956788,5711.601415689323,14.347830462933391,22178.367445284995,-5134.92099487076,7.572830309433517,22213.876695499283,48699.46844510606,8.65215225978968,22234.45203459914,-7892.166868198512,14.4134558848324,22521.00564412719,15764.847667491762,35.97527326880603,0.9538011768035056,102.0,63.0,77.0,317.0,394.0,39.0,1150.0,1149.0,40.0,18.0,22.0,0.45,140.3570971137102,5485.122259514079,17.0,7.0,10.0,0.4117647058823529,387.1166068358607,3207.779636577019,19.0,12.0,7.0,0.631578947368421,2819.633510326498,41911.8772741493,18.0,3.0,15.0,0.1666666666666666,1407.084669185955,23635.298094730097,93.0,47.0,46.0,0.5053763440860215,105.9253615828793,16424.351811050907,,,,,22069.0,22108.0,22171.0,22188.0,22203.0,22221.0,22231.0,22248.0,22474.0,22565.0,0.024574035703569967,-0.07538900933871212,0.05789865064964277,-0.17828876310963507,0.006719085640218709
20,20,23232.73529264677,6492.824161894767,18.311198189376967,23327.042095072156,-3718.6908432258674,6.831615055720377,23361.45203459914,50861.083511376106,8.821330783473268,23382.876695499283,-5591.05250393889,12.739827004320285,23667.95200280922,16746.81572625936,37.50531651572881,0.9729486293539724,105.0,61.0,84.0,312.0,396.0,44.0,1150.0,1148.0,44.0,20.0,24.0,0.4545454545454545,130.35962623815584,6970.526934523437,18.0,9.0,9.0,0.5,418.3549409802775,430.4953977362675,20.0,11.0,9.0,0.55,2833.0015204248457,45968.0842121851,72.0,3.0,69.0,0.0416666666666666,1219.57496875014,19766.12415409436,93.0,46.0,47.0,0.4946236559139785,131.91825971685392,17284.24296219288,,,,,23213.0,23257.0,23318.0,23336.0,23350.0,23370.0,23380.0,23402.0,23624.0,23714.0,0.02007749216484459,-0.11250059728475989,0.05570077011417163,-0.21812976499343384,0.00787721450293403
21,21,24378.548363470945,5834.573452176026,15.667190690264825,24472.45203459914,-4863.810264268353,7.680636857638746,24507.876695499283,48313.86898273429,8.934600845956293,24527.45203459914,-9058.81164430298,11.548589580039664,24814.910930325954,15939.33646333155,35.98659337358477,0.9625161606565594,104.0,62.0,79.0,317.0,396.0,42.0,1150.0,1146.0,42.0,20.0,22.0,0.4761904761904761,147.46197743688035,5719.423939469578,20.0,10.0,10.0,0.5,379.5569272101496,1839.2990661844933,19.0,12.0,7.0,0.631578947368421,2844.736236179099,42576.6803787073,20.0,3.0,17.0,0.15,1589.579615695658,25624.46573488335,91.0,46.0,45.0,0.5054945054945055,162.86797524175253,16615.99516375575,,,,,24359.0,24401.0,24463.0,24481.0,24496.0,24515.0,24524.0,24542.0,24771.0,24859.0,0.025273823124445174,-0.0780369518109163,0.058880323519437235,-0.17547330467957495,0.010217989664527779
22,22,25520.36059681638,6586.112151455221,19.242042031624734,25616.876695499283,-3795.2828643829553,5.595517712544296,25649.45203459914,50947.70777102519,8.851063920561655,25671.45203459914,-5399.615461312056,12.57376036778934,25955.472544079035,16869.466454949634,38.28566926742082,0.97397601948151,108.0,63.0,85.0,309.0,394.0,45.0,1141.0,1142.0,46.0,20.0,26.0,0.4347826086956521,145.47236591708432,6816.192833548845,17.0,10.0,7.0,0.5882352941176471,534.6977257543014,1754.4151834335391,21.0,12.0,9.0,0.5714285714285714,2804.03572787587,46673.17532364976,26.0,3.0,23.0,0.1153846153846153,1192.3733168678316,19238.472930890024,95.0,47.0,48.0,0.4947368421052631,111.30390237493152,17638.318130517957,,,,,25500.0,25545.0,25608.0,25624.0,25638.0,25658.0,25668.0,25693.0,25911.0,26002.0,0.022087745026470856,-0.14088481540393263,0.055037524759270366,-0.22082559867663168,0.006597950366253231
23,23,26737.620887921177,6051.017256423529,15.860733627474476,26830.45203459914,-4342.977607873651,7.818045152350759,26864.452034599148,48663.11008533121,8.348312071837281,26892.97262630099,-4445.654433470412,17.8357578060484,27173.447483088567,15433.409767175695,35.552185764299566,0.9639770224042844,102.0,60.0,81.0,319.0,400.0,42.0,1214.0,1215.0,43.0,21.0,22.0,0.4883720930232558,139.3263079659954,6204.397133963986,20.0,10.0,10.0,0.5,361.1397296513489,1807.7459112728952,20.0,11.0,9.0,0.55,2790.2404874600384,45293.18757676691,140.0,11.0,129.0,0.0785714285714285,630.9258220953241,9939.282190357884,94.0,46.0,48.0,0.4893617021276595,126.33043268456473,15925.8483233583,,,,,26718.0,26760.0,26820.0,26839.0,26854.0,26873.0,26883.0,26901.0,27129.0,27220.0,0.02302527030774733,-0.08315486798656674,0.05733789892522952,-0.1419196726909798,0.008185516654475708
24,24,27835.21005970401,6418.657226316526,16.137995101406197,27928.45203459914,-4161.891247306227,7.446942605033941,27962.45203459914,50308.374472804906,8.765439668591435,27984.45203459914,-5631.618959857389,15.28779240324948,28268.662739420222,16481.829472142213,36.76516583325239,0.9712672867620769,100.0,58.0,85.0,314.0,399.0,42.0,1095.0,1098.0,42.0,20.0,22.0,0.4761904761904761,139.97190621554466,6700.538181772099,23.0,14.0,9.0,0.6086956521739131,372.8170923257633,579.8939591895338,20.0,11.0,9.0,0.55,2819.8303299260483,45098.225743978604,20.0,3.0,17.0,0.15,1223.597585255117,20056.7133364094,91.0,46.0,45.0,0.5054945054945055,132.59481805450014,17145.877425415267,,,,,27815.0,27857.0,27915.0,27937.0,27951.0,27971.0,27981.0,28000.0,28224.0,28314.0,0.021807038650024674,-0.08957876844260844,0.056050913182463455,-0.21727279384081458,0.008044908987719689
25,25,28940.82614405006,6687.707923194096,19.462652964166335,29038.907649663983,-4081.3475259680654,5.875096486911921,29071.45203459914,48104.670931773704,8.908932538193007,29091.72601729957,-7033.437668542168,7.64389620259217,29376.95452298046,16247.8935734145,38.524618561884,0.9759345930827548,110.0,67.0,69.0,322.0,391.0,43.0,1113.0,1109.0,44.0,19.0,25.0,0.4318181818181818,167.4818240976029,7301.496274990558,14.0,7.0,7.0,0.5,515.8257736250245,684.335360251963,20.0,11.0,9.0,0.55,2773.125896066531,45197.43164104438,13.0,2.0,11.0,0.1538461538461538,1462.6070796818638,22986.96016469803,96.0,47.0,49.0,0.4895833333333333,184.02543486310284,16707.648084405602,,,,,28922.0,28965.0,29032.0,29046.0,29061.0,29080.0,29090.0,29101.0,29333.0,29423.0,0.02504323245289283,-0.1263861433859824,0.057647746930846344,-0.20795052840569508,0.01132611030664388
26,26,30024.22379925926,5699.848241417798,15.323262317497193,30113.027373698995,-2987.909623838309,17.8357578060484,30150.45203459914,48409.19171947214,8.897940512594058,30172.45203459914,-5996.412157261932,14.185231537536492,30456.027869993268,15835.473655179543,35.5673471294015,0.9651538110909248,105.0,64.0,77.0,314.0,391.0,41.0,1080.0,1079.0,42.0,20.0,22.0,0.4761904761904761,118.64040318480836,6107.475832617609,24.0,11.0,13.0,0.4583333333333333,318.23324022493335,1424.0330215047975,20.0,11.0,9.0,0.55,2777.0852220615516,43542.51288563476,22.0,4.0,18.0,0.1818181818181818,1272.342794255342,20371.752026515973,91.0,45.0,46.0,0.4945054945054945,125.00572644481116,16341.439409064667,,,,,30004.0,30045.0,30109.0,30125.0,30140.0,30159.0,30169.0,30186.0,30412.0,30500.0,0.020814659997912047,-0.1065069832387121,0.05736689920696394,-0.2121840128541658,0.007894031411174347
27,27,31180.906869156657,6346.58727028871,18.39248318281884,31275.027373698995,-2764.955122074205,17.8357578060484,31310.516812664133,49705.35905238297,8.974514564482517,31331.30135639943,-5656.0071738046745,10.062459998389562,31616.526214186342,16411.460418127193,36.92554206241037,0.973301920001706,109.0,64.0,82.0,311.0,393.0,45.0,1153.0,1160.0,45.0,21.0,24.0,0.4666666666666667,133.8700531143744,6847.859349246919,19.0,8.0,11.0,0.4210526315789473,327.10917611297504,1002.4395594162852,20.0,11.0,9.0,0.55,2801.2143569904483,45188.47171658806,33.0,2.0,31.0,0.0606060606060606,1524.514280747528,23943.570931035116,95.0,48.0,47.0,0.5052631578947369,127.56804137702257,17008.77490763288,,,,,31160.0,31205.0,31269.0,31285.0,31300.0,31320.0,31329.0,31351.0,31573.0,31662.0,0.021093234428695498,-0.11830541967986277,0.05635638511409471,-0.26953895812017153,0.007773107214524184
28,28,32336.08306990588,6711.062033482189,16.153075031090744,32427.296396192614,-4058.5449467107974,6.516554166455906,32462.876695499283,47823.852632720394,8.762832841398565,32485.027373698995,-6012.191485194991,12.875256350344882,32768.631704543666,16635.985633775133,38.01004142344885,0.9713221137517,103.0,60.0,78.0,318.0,396.0,43.0,1156.0,1152.0,43.0,20.0,23.0,0.4651162790697674,161.81769553607222,7071.708337277015,17.0,8.0,9.0,0.4705882352941176,381.82541394669994,1430.0937836709768,20.0,12.0,8.0,0.6,2789.1843225263515,42936.58710915818,16.0,4.0,12.0,0.25,1106.91460956235,17485.737672981562,92.0,45.0,47.0,0.4891304347826087,138.42149190554215,17616.45435504162,,,,,32316.0,32359.0,32419.0,32436.0,32452.0,32470.0,32481.0,32497.0,32725.0,32815.0,0.02411208460430657,-0.09407938533639897,0.05832203323196993,-0.1841116691456227,0.008320606602623685
29,29,33521.46372442784,6449.302756827145,17.769975618831534,33615.027373699,-3399.068441963679,9.776473362223223,33650.515503137605,49875.97988415286,8.754872901814103,33672.30135639943,-4988.875057962694,10.191861603456228,33958.75267304102,16972.667045430597,37.0420906234093,0.974183645680886,105.0,62.0,77.0,320.0,397.0,43.0,1184.0,1188.0,43.0,18.0,25.0,0.4186046511627907,150.38465707037497,6997.983322560781,17.0,7.0,10.0,0.4117647058823529,310.20801755111825,1431.9091535005791,20.0,11.0,9.0,0.55,2809.5960642327923,45335.23610351909,23.0,3.0,20.0,0.1304347826086956,1356.7793981821017,20980.73333138949,92.0,46.0,46.0,0.5,116.1063378813622,17643.748641712264,,,,,33503.0,33546.0,33608.0,33625.0,33640.0,33660.0,33670.0,33685.0,33914.0,34005.0,0.023317971374685397,-0.09126265706256496,0.05633164643098045,-0.27196098968575283,0.006840783335381607
30,30,34730.84732552104,6277.783015374361,16.02301814463368,34825.007838128164,-4496.450377233883,6.619400140703983,34859.87669549929,48429.55778104562,8.813231437418297,34881.027373699,-6655.711752619545,13.883826735173791,35170.26017299569,16255.20093088777,36.50395002356408,0.9676048515929676,106.0,64.0,76.0,320.0,396.0,42.0,1209.0,1209.0,43.0,20.0,23.0,0.4651162790697674,182.5319756230379,6331.833448961811,17.0,8.0,9.0,0.4705882352941176,416.54700422400697,1521.7283456248415,20.0,12.0,8.0,0.6,2799.360039470714,42916.04205296231,17.0,4.0,13.0,0.2352941176470588,1203.6830338376735,19743.64451867614,93.0,49.0,44.0,0.5268817204301075,124.24996986414985,16667.82401994111,,,,,34711.0,34753.0,34817.0,34834.0,34849.0,34867.0,34877.0,34893.0,35122.0,35213.0,0.02907586566404335,-0.0926390751097886,0.057802717343133136,-0.18084963390488323,0.007643705567985495
31,31,35893.81485181534,6860.441351084699,19.03030862988692,35989.52595250277,-3356.43518902777,6.606831865003043,36022.53660511613,50161.68223688062,8.85381822818197,36044.30135639943,-4980.588542982332,8.853189531021549,36329.427000457246,17063.147162902493,37.04175685273366,0.9786559804790592,107.0,64.0,75.0,317.0,392.0,43.0,1168.0,1163.0,44.0,19.0,25.0,0.4318181818181818,148.7412025495087,7139.692650401152,15.0,8.0,7.0,0.5333333333333333,497.0021249364085,1248.0196919109503,21.0,12.0,9.0,0.5714285714285714,2803.4509499017117,45885.821537147065,18.0,3.0,15.0,0.1666666666666666,1356.32899540142,21424.481546034753,93.0,46.0,47.0,0.4946236559139785,133.40473332682075,17646.08033296815,,,,,35875.0,35918.0,35982.0,35997.0,36012.0,36032.0,36042.0,36057.0,36286.0,36374.0,0.021680996154276773,-0.1480743994584239,0.05588829610344521,-0.2723230364637313,0.00781829588956837
32,32,37062.75859738651,5541.8038486119285,14.151973820693147,37154.027373699,-4913.579762990527,8.802691431165373,37189.87669549929,48430.15648676298,8.81514072158002,37210.45203459914,-8344.791304338396,14.855942454053798,37497.68321692078,15431.41130066268,34.25855884293566,0.9514849714581832,97.0,56.0,86.0,314.0,400.0,41.0,1162.0,1167.0,43.0,21.0,22.0,0.4883720930232558,143.30188770229032,5429.563204427637,26.0,15.0,11.0,0.5769230769230769,360.48690680179544,2115.197796727437,19.0,12.0,7.0,0.631578947368421,2765.736595270497,41626.157916249846,29.0,3.0,26.0,0.1034482758620689,1359.1909309373334,23067.94261401607,89.0,46.0,43.0,0.5168539325842697,143.93316562738116,15980.83347363063,,,,,37043.0,37084.0,37140.0,37164.0,37179.0,37197.0,37207.0,37226.0,37453.0,37540.0,0.025858347140558492,-0.07336543298167487,0.05710773608642858,-0.16287896022405018,0.00932728464189145
33,33,38187.459931500234,6316.457585559887,16.507148343765902,38280.547111647815,-3918.299291277921,7.014628007783841,38315.45203459914,50826.74686096657,8.836850601214854,38336.87669549929,-5569.8614948817285,12.739827004320285,38621.18612349042,16942.71096149656,36.945796313913675,0.9724079717454192,103.0,61.0,79.0,316.0,395.0,42.0,1126.0,1126.0,43.0,20.0,23.0,0.4651162790697674,138.9422042348357,6390.693662418744,18.0,10.0,8.0,0.5555555555555556,400.3810567576714,440.84821185711326,21.0,12.0,9.0,0.5714285714285714,2835.0243106969524,46019.24706856985,17.0,3.0,14.0,0.1764705882352941,1248.368072990742,19508.392619831237,91.0,45.0,46.0,0.4945054945054945,142.85252964029303,17530.940048725308,,,,,38168.0,38210.0,38271.0,38289.0,38304.0,38324.0,38334.0,38350.0,38577.0,38666.0,0.02199685541346352,-0.1021823569345287,0.05577819722462243,-0.22412910520986842,0.008431503669332194
34,34,39399.55124308926,6453.984223194319,18.070599262473245,39490.178051898714,-2914.765567211122,9.652472877776068,39528.87669549929,48651.27176698108,8.75971973990007,39550.45203459914,-6344.0926256648145,12.833021141859431,39836.34999707142,16079.398338143654,36.48263915410128,0.9663202181417117,101.0,58.0,80.0,319.0,399.0,43.0,1214.0,1213.0,43.0,19.0,24.0,0.4418604651162791,154.99942720492493,7105.430162567589,39.0,26.0,13.0,0.6666666666666666,223.33620486862975,1256.0129792930084,20.0,12.0,8.0,0.6,2822.439884671231,43283.11979521378,16.0,3.0,13.0,0.1875,1207.5977888428026,19667.640536876577,88.0,43.0,45.0,0.4886363636363636,151.40555540081004,16843.974996179182,,,,,39381.0,39424.0,39482.0,39503.0,39518.0,39536.0,39547.0,39562.0,39793.0,39881.0,0.024016083994734323,-0.07662235597297802,0.05801369177335217,-0.19034996178295163,0.009416120691633393
35,35,40510.85767709488,6234.454909626536,15.331228704599155,40604.452034599446,-4400.267030102009,7.225524766683109,40637.627597588544,50237.718315438055,8.604813260166697,40659.45203460398,-5447.466810520245,15.287792405183824,40944.71086486755,16744.68090210847,36.03634808315081,0.970037563583722,104.0,62.0,92.0,302.0,394.0,42.0,1115.0,1109.0,42.0,20.0,22.0,0.4761904761904761,140.33321692146458,6203.802058624813,19.0,10.0,9.0,0.5263157894736842,431.6657955109616,677.9144302733921,19.0,11.0,8.0,0.5789473684210527,2816.67113383143,44355.31181905167,31.0,3.0,28.0,0.0967741935483871,1338.1348194824898,22096.098116603534,90.0,46.0,44.0,0.5111111111111111,116.7111122604984,17492.080821103984,,,,,40491.0,40533.0,40595.0,40613.0,40627.0,40646.0,40656.0,40687.0,40899.0,40989.0,0.022509300164281883,-0.0980999090641448,0.05606686028505133,-0.24564350110371666,0.006970040990497602
36,36,41698.911939667654,6690.544301391063,20.498625075268176,41795.73560012563,-3353.3696536095863,5.354625661642616,41829.87669549929,49008.08959607262,9.111316230392076,41850.45203459914,-7443.685335681487,10.78077491328819,42137.746999618495,16655.371244383947,37.99173205555318,0.9697564309546748,109.0,63.0,75.0,321.0,396.0,46.0,1189.0,1192.0,47.0,21.0,26.0,0.4468085106382978,152.38694989858237,7384.105090570864,15.0,8.0,7.0,0.5333333333333333,476.9215452997313,1153.587414442702,20.0,12.0,8.0,0.6,2804.1594882483846,44095.82848721661,16.0,3.0,13.0,0.1875,1407.9285978633998,22037.402140344653,94.0,47.0,47.0,0.5,126.48380894812526,16932.625083326202,,,,,41679.0,41725.0,41788.0,41803.0,41818.0,41837.0,41847.0,41863.0,42092.0,42184.0,0.022776465267093274,-0.14222158442519756,0.05721829827198779,-0.1891440240111252,0.007594175301902956
37,37,42836.50345948936,6556.616461183664,16.477466020072296,42930.87669549929,-4260.48950765485,5.906822756000077,42963.87669549929,49815.941542049986,8.868395139446859,42985.45203459914,-6510.527652984742,14.045064993205289,43270.61765850671,16375.44121215763,36.34839816028411,0.9679432136321798,107.0,63.0,115.0,279.0,394.0,44.0,1135.0,1134.0,44.0,22.0,22.0,0.5,122.03405766732293,6865.562624913678,18.0,11.0,7.0,0.6111111111111112,531.9243682629178,1563.610907992144,20.0,12.0,8.0,0.6,2813.6716882783644,43318.58101451768,55.0,3.0,52.0,0.0545454545454545,1208.45114672093,19841.76526241436,90.0,45.0,45.0,0.5,124.28950962134186,17056.250734062796,,,,,42815.0,42859.0,42922.0,42938.0,42952.0,42971.0,42982.0,43037.0,43226.0,43316.0,0.018612352634897324,-0.12485052886697778,0.056481351173566084,-0.18561493186607037,0.007589994554104931
38,38,44021.47883137144,6679.696252321022,18.26367818662964,44119.87669549929,-4460.723675448113,6.613076344587042,44152.51187769234,50122.31288552953,8.748830432619268,44174.45203459914,-4897.725660715735,15.28779240518434,44461.319827659325,16538.704679838553,36.85284407741654,0.9694848577221148,110.0,65.0,92.0,303.0,395.0,45.0,1190.0,1189.0,46.0,21.0,25.0,0.4565217391304347,155.33629307641496,7043.0258332028725,17.0,9.0,8.0,0.5294117647058824,530.9113499657046,529.7508416506159,21.0,12.0,9.0,0.5714285714285714,2748.881243392476,44362.750151049935,33.0,3.0,30.0,0.0909090909090909,1301.3321360987386,21309.4624675484,97.0,49.0,48.0,0.5051546391752577,151.22087044526222,16554.40912010148,,,,,44001.0,44046.0,44111.0,44127.0,44142.0,44161.0,44171.0,44203.0,44420.0,44506.0,0.023254993521964355,-0.11901910734526067,0.05484346362208849,-0.2657013124554157,0.009143453092164314
39,39,45170.60485661108,5959.473477987486,15.32852409615625,45262.027373702054,-3911.4935299200706,8.114395411236353,45297.87669549929,48265.693767408746,8.796036268110031,45319.45203459914,-6778.157815717374,13.692238538470535,45606.188192162495,16158.625040027846,35.99721721770612,0.96339254966104,105.0,63.0,78.0,317.0,395.0,42.0,1146.0,1145.0,43.0,21.0,22.0,0.4883720930232558,118.22172989350778,5949.607809884536,18.0,8.0,10.0,0.4444444444444444,340.4714963091414,1382.2527506505262,20.0,12.0,8.0,0.6,2762.0672165780315,42238.81786987661,19.0,4.0,15.0,0.2105263157894736,1278.9333955256668,20857.56172886579,90.0,45.0,45.0,0.5,122.28810900162644,16850.197324366338,,,,,45150.0,45192.0,45255.0,45272.0,45287.0,45305.0,45316.0,45333.0,45563.0,45650.0,0.0198376132271053,-0.08704386028119003,0.057226303011169155,-0.18868451138154996,0.0075679773927977536
40,40,46333.48567047113,6179.442388199878,16.668811979863293,46428.45203459914,-4278.92671010986,8.750960454337342,46462.45203459914,48755.709398794395,8.955319122162047,46482.726017299574,-7418.77814437176,7.64389620259217,46770.835512095546,16528.274515346508,36.8802245415038,0.9687142489715296,104.0,62.0,89.0,307.0,396.0,42.0,1163.0,1165.0,42.0,18.0,24.0,0.4285714285714285,175.81457423643485,6652.13118704299,19.0,10.0,9.0,0.5263157894736842,381.5218769478224,1147.2630386050887,21.0,11.0,10.0,0.5238095238095238,2831.6716508023064,45753.07931452427,28.0,2.0,26.0,0.0714285714285714,1463.409039875654,23939.68587241105,95.0,48.0,47.0,0.5052631578947369,134.70236865045274,17170.873500568337,,,,,46315.0,46357.0,46419.0,46437.0,46452.0,46471.0,46481.0,46508.0,46725.0,46815.0,0.02845152736955139,-0.0891629847378309,0.05807877037827136,-0.197257420480469,0.008149814339384403
41,41,47473.93052869258,5925.489359939103,14.532478882923703,47565.60271279888,-4689.641786594661,8.937155354604451,47602.87669549929,47379.304510006485,8.86912426633147,47623.45203459914,-8086.606403288095,12.604207550290685,47910.85182261843,16323.579679208106,36.950001900519126,0.9608725938947692,103.0,64.0,75.0,324.0,399.0,39.0,1136.0,1140.0,39.0,19.0,20.0,0.4871794871794871,170.73534878481735,5856.015696860226,20.0,9.0,11.0,0.45,354.88564260569973,2717.5466216686964,19.0,12.0,7.0,0.631578947368421,2803.532940289956,41592.74645452379,14.0,3.0,11.0,0.2142857142857142,1375.2075531415387,22506.00153926222,93.0,46.0,47.0,0.4946236559139785,131.28219318569924,17126.75892983464,,,,,47455.0,47494.0,47558.0,47577.0,47592.0,47610.0,47620.0,47633.0,47866.0,47957.0,0.028813712828364948,-0.07567436037868397,0.05917209991332505,-0.17005990950448208,0.00804248796928518
42,42,48597.94878353061,6277.924203932873,17.701764356158225,48693.45203459914,-3877.702711692029,7.945517690244218,48726.71713420541,49725.09619353416,8.746244947750586,48748.30135639943,-5124.632293817964,10.191861603456228,49035.51280211932,17032.26395069425,36.90826591532326,0.9733851597106292,105.0,62.0,77.0,320.0,397.0,43.0,1129.0,1124.0,43.0,19.0,24.0,0.4418604651162791,138.62848602637325,6358.790743243012,19.0,10.0,9.0,0.5263157894736842,393.3500005459369,364.1196058254618,20.0,11.0,9.0,0.55,2800.7236965064662,45734.023929237206,31.0,2.0,29.0,0.064516129032258,1363.506031206619,21539.849415023094,91.0,45.0,46.0,0.4945054945054945,121.7754744172254,16982.900481452423,,,,,48579.0,48622.0,48684.0,48702.0,48716.0,48736.0,48746.0,48761.0,48992.0,49081.0,0.022081898653623113,-0.10143892654790426,0.056324148385873796,-0.2660690471102614,0.007149693943784949
43,43,49701.75576403463,6150.605766078276,15.795526192347298,49791.178051898714,-3686.912223228682,10.457505549156318,49829.87669549929,48384.42688478337,8.776691248330936,49851.60271279886,-6626.313628736545,16.112453984511294,50138.35029139238,15918.475512871042,35.94861422683874,0.96758131115776,102.0,60.0,89.0,309.0,398.0,42.0,1098.0,1103.0,42.0,20.0,22.0,0.4761904761904761,185.9826803657611,6352.448672175404,35.0,22.0,13.0,0.6285714285714286,256.0561637217784,2059.540029554698,20.0,12.0,8.0,0.6,2759.907542672013,41798.550855256864,28.0,5.0,23.0,0.1785714285714285,1096.5203846002744,18423.743031459508,89.0,44.0,45.0,0.4943820224719101,131.8691946519702,16497.842025311962,,,,,49682.0,49724.0,49784.0,49804.0,49819.0,49837.0,49847.0,49873.0,50094.0,50182.0,0.030238107828580045,-0.06945002978604853,0.05704123662028925,-0.1654796989754544,0.008284034142926942
44,44,50792.69671644397,6122.9414155688355,15.378998167196558,50886.027373699,-3880.697753050053,10.504335862977316,50921.45203459914,49639.5385287812,8.801657988550915,50942.87669549929,-5839.931416604429,12.739827004320285,51228.64324558198,16336.231971865596,35.80376378293687,0.969874338332818,101.0,61.0,158.0,240.0,398.0,40.0,1098.0,1092.0,42.0,20.0,22.0,0.4761904761904761,126.84024466378314,5654.0304884632515,22.0,12.0,10.0,0.5454545454545454,330.63145665782207,1748.077112868644,21.0,11.0,10.0,0.5238095238095238,2797.8811249288647,45586.86677495329,111.0,3.0,108.0,0.027027027027027,1253.978625332616,20815.379982076443,90.0,45.0,45.0,0.5,112.42354110222132,16781.636916239215,,,,,50774.0,50814.0,50875.0,50896.0,50911.0,50930.0,50940.0,51033.0,51185.0,51273.0,0.020715573783094802,-0.08519897134425393,0.05636396324084766,-0.21472488902305117,0.006881852638713636
45,45,51945.00970255453,6462.92098851829,17.002317541876987,52039.39328741892,-3630.5386363966136,6.69924768955393,52073.45203459914,47700.983035223486,8.6570226922789,52095.87669549929,-5152.227304492433,12.739827004320285,52381.881237590685,16046.809394144577,37.41495028451643,0.9746635456113998,105.0,62.0,73.0,325.0,398.0,43.0,1151.0,1152.0,45.0,21.0,24.0,0.4666666666666667,155.42501374259896,6520.272722411317,18.0,9.0,9.0,0.5,378.7896776420446,1105.2215373501497,20.0,11.0,9.0,0.55,2732.78519825122,44264.49214500586,12.0,4.0,8.0,0.3333333333333333,1116.7922428356246,17861.004592839236,93.0,46.0,47.0,0.4946236559139785,150.43646787323377,16773.17167593889,,,,,51925.0,51968.0,52030.0,52048.0,52063.0,52082.0,52092.0,52103.0,52338.0,52428.0,0.024048725648776994,-0.10433429184436427,0.057289913632037094,-0.21675911733588477,0.009374852294819897
46,46,53039.923152158466,7077.094772950011,16.369053106550115,53134.87669549929,-4081.0902091170246,5.711281552450707,53167.45203459914,48679.58723488595,8.920350254848817,53189.45203459914,-5263.7952357603535,12.157931861265444,53473.82844790065,16836.39536606475,38.06474031145191,0.9765691002533052,104.0,65.0,76.0,318.0,394.0,39.0,1094.0,1094.0,40.0,19.0,21.0,0.475,173.29367033753348,7558.688927339437,17.0,10.0,7.0,0.5882352941176471,530.1717693438426,1468.136237985978,21.0,12.0,9.0,0.5714285714285714,2730.3728359785905,45205.32063402113,20.0,3.0,17.0,0.15,1195.3174428784616,18845.74879085322,94.0,47.0,47.0,0.5,118.9490553729403,17684.870533305428,,,,,53022.0,53061.0,53126.0,53142.0,53156.0,53176.0,53186.0,53202.0,53428.0,53520.0,0.024486554991448542,-0.12990934828136264,0.05608866038251623,-0.2270828156000256,0.007064995373813368
47,47,54204.21410620895,6974.849071499124,18.94849352449168,54300.8766954995,-3395.8412363026664,5.2823186513119245,54333.45203459914,48714.59959010388,8.900284978367253,54354.30135639943,-5266.662179271422,10.19186155914834,54640.06172739327,17134.778756197993,40.43909095839386,0.9773360063865656,107.0,63.0,71.0,326.0,397.0,44.0,1161.0,1166.0,44.0,19.0,25.0,0.4318181818181818,143.8158735530437,7550.491714439627,16.0,9.0,7.0,0.5625,496.0708183867641,1919.0634025876675,20.0,11.0,9.0,0.55,2735.705045924822,45605.73237601658,12.0,2.0,10.0,0.1666666666666666,1417.973220699666,21647.125867560582,99.0,50.0,49.0,0.5050505050505051,123.39406576877458,17914.7464880988,,,,,54185.0,54229.0,54292.0,54308.0,54322.0,54342.0,54352.0,54363.0,54592.0,54689.0,0.020619209402065665,-0.14608186421779762,0.05615780626226407,-0.26923565105059105,0.007201380742902237
48,48,55309.74615847916,6518.758111475281,15.93354113780705,55402.7059694025,-4176.054394367021,6.356419263318833,55437.87669549929,47263.2569624928,9.12165742938072,55458.45203459914,-8366.317790055065,11.416864618250884,55744.517490929466,16017.95171974767,36.64487329894211,0.960270398710449,105.0,64.0,74.0,320.0,394.0,41.0,1108.0,1104.0,41.0,19.0,22.0,0.4634146341463415,152.12886282945553,6838.5564946610575,15.0,7.0,8.0,0.4666666666666667,421.47018801353914,342.52004574419607,19.0,12.0,7.0,0.631578947368421,2776.9585227804255,41988.86880962743,16.0,3.0,13.0,0.1875,1329.599018028007,21311.082052765687,92.0,46.0,46.0,0.5,131.16989815983064,16392.19113064251,,,,,55291.0,55332.0,55396.0,55411.0,55426.0,55445.0,55455.0,55470.0,55701.0,55790.0,0.023337092775640167,-0.10092545455874571,0.05875512398530143,-0.15892284412247457,0.008188930798069415
49,49,56439.667367166985,6255.826862953505,16.59868618371039,56531.60271279886,-3652.400578593086,11.65249505141422,56568.45203459914,50455.953379991915,8.813096707358225,56589.45203459914,-6031.4492985646775,15.28779240518434,56876.978591921245,16789.15566456748,35.56398884434518,0.9694179488982412,105.0,62.0,176.0,219.0,395.0,43.0,1131.0,1131.0,44.0,20.0,24.0,0.4545454545454545,140.69083037223444,6033.785603854627,21.0,9.0,12.0,0.4285714285714285,321.0222693985623,1935.9368263267047,20.0,11.0,9.0,0.55,2799.399542508475,44970.326917827566,115.0,3.0,112.0,0.0260869565217391,1368.40632129608,22821.89013096,88.0,45.0,43.0,0.5113636363636364,123.50497502466472,17519.77631373333,,,,,56420.0,56463.0,56525.0,56543.0,56558.0,56577.0,56586.0,56701.0,56835.0,56920.0,0.022489565880634266,-0.0878934997656311,0.055482046319207286,-0.22687852513685622,0.007356235030050657
50,50,57591.072126668194,6382.3859005045115,15.74260242961889,57684.655063974205,-4271.261717300787,6.952555417401633,57718.87669549929,48423.71260254667,8.68712717083402,57739.45203459914,-6285.8055222378125,15.28779240518434,58027.90064899326,15233.273077924106,35.752243413257965,0.96471016394411,105.0,63.0,75.0,320.0,395.0,42.0,1148.0,1150.0,42.0,19.0,23.0,0.4523809523809524,143.27543329195038,6747.073996683483,18.0,9.0,9.0,0.5,429.70859482873817,422.05149109685,20.0,12.0,8.0,0.6,2773.0611726555207,42204.23315813996,17.0,3.0,14.0,0.1764705882352941,1493.9009371158909,24150.86494214751,90.0,45.0,45.0,0.5,100.24916134266496,15701.787729728409,,,,,57572.0,57614.0,57677.0,57694.0,57708.0,57726.0,57736.0,57752.0,57985.0,58072.0,0.02244856947315342,-0.10060460427610872,0.05726659571553961,-0.23766260852818216,0.006580933777649201
51,51,58704.3272229742,6165.584287791355,15.704779482478642,58798.56894695005,-4218.912019783259,7.575977570712637,58833.45203459914,50976.86029907528,8.813910734163752,58854.45203459914,-6278.411762638115,15.28779240518434,59140.75178719697,16061.439807067343,35.70683326000539,0.969199817424912,105.0,65.0,94.0,301.0,395.0,40.0,1116.0,1115.0,41.0,19.0,22.0,0.4634146341463415,146.5795633877585,6276.017536377027,18.0,9.0,9.0,0.5,412.84566661622824,953.2489830630132,21.0,12.0,9.0,0.5714285714285714,2807.8319314533387,44907.76972948669,53.0,3.0,50.0,0.0566037735849056,1374.7966463978958,22623.9570194092,93.0,47.0,46.0,0.5053763440860215,119.69509253822343,16544.687032966933,,,,,58686.0,58726.0,58791.0,58808.0,58822.0,58842.0,58851.0,58885.0,59095.0,59186.0,0.023773831732055755,-0.09785595544071991,0.055080519180273506,-0.2189720423529887,0.007452326439971794
52,52,59879.104359960416,6438.455810137596,17.014563679289655,59970.60271279928,-3571.742163050367,8.72454928972639,60007.87669549929,49413.90018166271,8.674843123452236,60030.027373699,-5897.06287451914,17.349566109266796,60317.01103917015,15767.22635805165,36.62225234316434,0.9669607545230664,102.0,60.0,91.0,309.0,400.0,42.0,1171.0,1174.0,42.0,19.0,23.0,0.4523809523809524,176.8049477651239,7014.757016007196,23.0,12.0,11.0,0.5217391304347826,276.3164424506678,1595.6020799820478,20.0,12.0,8.0,0.6,2776.6214928366535,43049.27280807107,37.0,4.0,33.0,0.1081081081081081,1069.9671953165969,18057.794280492537,94.0,47.0,47.0,0.5,142.13585078869062,15850.55394634209,,,,,59860.0,59902.0,59962.0,59982.0,59997.0,60015.0,60026.0,60053.0,60273.0,60362.0,0.02746076900717991,-0.07736181108176238,0.05619110174725787,-0.1814406965100986,0.009014638818583835
53,53,60971.48706954172,6276.4670177372755,16.257770846837886,61066.45203460003,-4452.7404464002475,7.549452724630579,61099.655386316685,50194.705573514235,8.642523498503126,61121.4520346157,-5385.737232725242,15.287792405148972,61405.92551817552,16488.166900023396,37.30803183086859,0.9707935638101411,103.0,60.0,83.0,314.0,397.0,43.0,1097.0,1092.0,43.0,19.0,24.0,0.4418604651162791,135.73149057274284,6389.802376467158,20.0,11.0,9.0,0.55,424.94710215779173,827.8889822740157,20.0,11.0,9.0,0.55,2801.078035411143,44537.77119283631,25.0,3.0,22.0,0.12,1352.7656433124691,22243.567666620023,92.0,46.0,46.0,0.5,135.20719999771262,17183.233865091024,,,,,60952.0,60995.0,61055.0,61075.0,61089.0,61108.0,61118.0,61138.0,61361.0,61452.0,0.021625460659502566,-0.09543495904894568,0.055804252727585706,-0.25117557445853234,0.00820025663359344
54,54,62127.740308872475,6103.217215185145,16.769502267115012,62218.178051898714,-2953.326363850005,22.931688607749752,62255.45203459914,49831.98632105774,8.788881261357085,62277.45203459914,-5867.315832064668,15.28779240518434,62563.99063318915,16090.833993162682,36.680342745142475,0.9641051351078228,103.0,60.0,94.0,306.0,400.0,43.0,1158.0,1156.0,43.0,21.0,22.0,0.4883720930232558,141.19913881019588,6102.840705707686,54.0,41.0,13.0,0.7592592592592593,255.4619521166107,1653.293878732714,20.0,11.0,9.0,0.55,2792.640021525736,44261.56323698579,30.0,3.0,27.0,0.1,1273.678642377993,21440.75933204415,94.0,46.0,48.0,0.4893617021276595,113.22801722306107,16277.665462461386,,,,,62107.0,62150.0,62210.0,62231.0,62245.0,62264.0,62274.0,62304.0,62520.0,62610.0,0.023135198016364968,-0.08649973644754462,0.0560411139048984,-0.21708029341413418,0.007036802273342322
55,55,63206.73898730899,6425.128725010106,17.07161911860372,63300.773140374935,-4103.164746629834,6.041635831705884,63334.87669549929,48431.55578997761,8.979435522492258,63355.30135639943,-7296.034164934645,10.191861603456228,63640.215440723594,16492.770655409273,36.95727782393778,0.969658543831637,106.0,62.0,74.0,319.0,393.0,44.0,1071.0,1079.0,44.0,21.0,23.0,0.4772727272727273,117.18881671216576,6347.22733817934,17.0,9.0,8.0,0.5294117647058824,472.89000208429826,252.04064473619312,20.0,12.0,8.0,0.6,2816.504245666843,43633.12322043238,17.0,3.0,14.0,0.1764705882352941,1456.8428823781608,22940.035761683357,94.0,47.0,47.0,0.5,134.2060654021335,17230.600490041106,,,,,63186.0,63230.0,63292.0,63309.0,63324.0,63342.0,63353.0,63366.0,63595.0,63685.0,0.018239139125104678,-0.11525006459287557,0.05815432107695554,-0.19967599512895245,0.00813726621233994
56,56,64332.15952822742,7309.518347780931,17.860528568483645,64427.8552838642,-3736.9699471025488,6.1479172604375885,64460.519755261994,49155.505051411346,8.862549391942643,64481.30135639943,-5921.280567152176,8.231938356524557,64767.456220225264,16683.972782564368,37.97678906363822,0.9760528703589718,108.0,65.0,72.0,321.0,393.0,43.0,1133.0,1126.0,44.0,20.0,24.0,0.4545454545454545,166.47577190644046,7576.406504346121,15.0,8.0,7.0,0.5333333333333333,484.03754803556814,704.1618385140387,21.0,12.0,9.0,0.5714285714285714,2792.2139853378985,44754.40429164746,18.0,2.0,16.0,0.1111111111111111,1557.4060748329655,24299.754159948556,95.0,47.0,48.0,0.4947368421052631,130.13139152144942,17449.46380566,,,,,64312.0,64355.0,64420.0,64435.0,64450.0,64469.0,64479.0,64492.0,64723.0,64813.0,0.022775204053900513,-0.12952674356154925,0.05680368826273974,-0.2630184564252114,0.007799784452863864
57,57,65449.65671640474,6605.678334599998,15.7853491219934,65540.0273736995,-3276.903308879925,8.90563987803957,65576.45203459915,47939.24096579009,8.636358017318395,65599.87669549929,-5034.128120928209,12.739827004320285,65884.33084636304,16291.663681610073,37.74921128070504,0.9734979620300956,106.0,63.0,71.0,324.0,395.0,43.0,1110.0,1116.0,43.0,20.0,23.0,0.4651162790697674,136.30078716547672,6494.0440537197355,35.0,24.0,11.0,0.6857142857142857,296.65070261824843,1000.1306065430986,20.0,11.0,9.0,0.55,2765.7417311382424,43742.36993770909,14.0,5.0,9.0,0.3571428571428571,1020.4953161406768,16124.37235440538,96.0,48.0,48.0,0.5,121.32617901081056,16992.563492926565,,,,,65430.0,65473.0,65536.0,65551.0,65566.0,65585.0,65595.0,65607.0,65837.0,65931.0,0.020633881981740532,-0.09052775582800039,0.05769264751421289,-0.20271540406335836,0.007447132556987583
58,58,66575.95153018202,6279.20725420004,16.46387660767954,66669.027373699,-3641.508218891813,9.124757276583518,66704.45203459915,50555.2186988529,8.665750311412244,66725.87669549929,-5500.857472064515,12.739827004320285,67012.2024613888,16549.59618939209,37.4283845838723,0.9741500013876142,104.0,64.0,77.0,319.0,396.0,40.0,1132.0,1128.0,42.0,19.0,23.0,0.4523809523809524,149.7658476240823,6467.500712350486,18.0,8.0,10.0,0.4444444444444444,312.5440988533812,1358.3261492189908,20.0,11.0,9.0,0.55,2838.726761231286,46089.97318554211,16.0,3.0,13.0,0.1875,1277.662058886886,20533.17667852165,94.0,47.0,47.0,0.5,154.02308040419382,17177.980555407543,,,,,66558.0,66598.0,66662.0,66679.0,66694.0,66713.0,66723.0,66739.0,66967.0,67058.0,0.02385107571085615,-0.0858282008624698,0.056151013372941795,-0.23226598132661114,0.009306757617622058
59,59,67660.71688703459,5329.909810967864,14.379134946338686,67758.30135639943,-5085.316626612564,6.001012881309243,67789.87669549929,47594.434164047394,8.780644586320912,67811.027373699,-8135.2051425511645,14.205101393511333,68096.69174475134,15480.741504054442,35.255713140140706,0.954302516009902,103.0,63.0,79.0,317.0,396.0,40.0,1081.0,1085.0,40.0,19.0,21.0,0.475,127.260800905806,5290.254953990948,19.0,13.0,6.0,0.6842105263157895,585.2841521767248,1389.529519932226,19.0,12.0,7.0,0.631578947368421,2804.3974702004152,40740.25000614399,18.0,5.0,13.0,0.2777777777777778,1185.0977314156078,20245.97018968289,90.0,45.0,45.0,0.5,97.21782421552852,15933.692154538305,,,,,67642.0,67682.0,67745.0,67764.0,67779.0,67797.0,67807.0,67824.0,68053.0,68141.0,0.02387672689018664,-0.11509296178605792,0.05892280304319373,-0.1456752117063352,0.006279920389476625
60,60,68747.47796462991,6038.6707671572785,16.168116688313535,68838.17805189872,-3319.580579583138,22.931688607775193,68876.45203459915,49856.71854206555,9.327034155747972,68896.30135639943,-8804.741064086484,10.191861603456228,69181.68143031308,16648.61699279776,36.76889903801533,0.9652956581193936,102.0,62.0,158.0,238.0,396.0,40.0,1087.0,1087.0,40.0,18.0,22.0,0.45,164.5571008199496,6413.628704678251,60.0,46.0,14.0,0.7666666666666667,260.49657640074486,2149.3100534174127,20.0,11.0,9.0,0.55,2804.481990759896,44921.412917929185,129.0,2.0,127.0,0.0155038759689922,1596.7794887931502,25980.93253680872,91.0,46.0,45.0,0.5054945054945055,149.6298358426943,17495.767970392473,,,,,68729.0,68769.0,68831.0,68851.0,68865.0,68885.0,68894.0,68989.0,69137.0,69227.0,0.02725055018977551,-0.07847273779191019,0.056250833844864324,-0.18135450857336718,0.008987523462605007
61,61,69827.02130779637,6309.304173255124,16.55030761809868,69920.25342963358,-4328.606600342133,6.115756468285339,69954.87669549929,48173.43152393654,8.786865991604255,69976.027373699,-7215.089690444054,13.55165775843713,70261.84750043968,15922.410554521612,36.539386664658984,0.9632785107335862,106.0,64.0,75.0,318.0,393.0,42.0,1082.0,1078.0,44.0,21.0,23.0,0.4772727272727273,169.8222049418417,6453.003583373869,15.0,7.0,8.0,0.4666666666666667,414.4837813368651,1329.747105911626,19.0,12.0,7.0,0.631578947368421,2808.868068165239,42683.148725269704,17.0,4.0,13.0,0.2352941176470588,1228.024235038263,19980.888250967044,92.0,47.0,45.0,0.5108695652173914,118.93545410909664,16738.33718759605,,,,,69807.0,69849.0,69913.0,69928.0,69944.0,69962.0,69972.0,69988.0,70216.0,70306.0,0.026916154345785218,-0.09575455096892019,0.0583074109381135,-0.17020221337854,0.007469688945768428
62,62,70888.14353638538,6197.686884526403,16.075865349696013,70983.45203459922,-4256.686654117348,7.314258229090189,71016.51987809989,50473.70809315667,8.693128147256553,71038.45203460254,-5083.278639312731,15.287792405184184,71323.13464986748,15799.437148068886,34.961765937750194,0.9724103665480128,104.0,62.0,93.0,300.0,393.0,42.0,1059.0,1062.0,42.0,19.0,23.0,0.4523809523809524,132.6466579833437,6563.944766095057,19.0,10.0,9.0,0.5263157894736842,418.4617149425364,234.7726026019284,21.0,12.0,9.0,0.5714285714285714,2803.0212776871167,44508.609928646285,31.0,3.0,28.0,0.0967741935483871,1318.096985537242,21818.90246554012,87.0,44.0,43.0,0.5057471264367817,130.04883580797238,17010.86846797286,,,,,70869.0,70911.0,70973.0,70992.0,71006.0,71025.0,71035.0,71066.0,71279.0,71366.0,0.02140260720729842,-0.09830691073719806,0.055534284751057476,-0.2593005575856946,0.008231232200817219
63,63,71979.14060789594,6334.3167955442295,16.608631432441314,72068.60271279886,-2688.155346868427,20.38372320477063,72106.49151361,47924.658471063456,8.727086280987862,72127.87669549929,-5943.310366104127,12.739827004320285,72414.39070657443,15516.295994891843,35.71373446832005,0.9664235737140964,103.0,63.0,72.0,323.0,395.0,40.0,1095.0,1090.0,41.0,19.0,22.0,0.4634146341463415,147.6859261716087,7031.384304770846,21.0,8.0,13.0,0.3809523809523809,272.72966983614026,2121.522803820517,20.0,11.0,9.0,0.55,2749.732686769908,43601.94033891403,12.0,3.0,9.0,0.25,1300.4419582035976,21048.099700347106,90.0,44.0,46.0,0.4888888888888889,95.88119490429878,15851.866509354446,,,,,71961.0,72001.0,72064.0,72081.0,72097.0,72115.0,72125.0,72136.0,72371.0,72459.0,0.0233152099805769,-0.10145606731912177,0.057376156127021245,-0.21880768092143985,0.006179386816020012
64,64,73041.58253401755,5708.1221063987605,15.133527086138487,73131.17805189872,-3386.765447987255,22.93168860761934,73169.45203459915,49565.43535343879,9.179573670331502,73189.30135639943,-7745.004720799839,10.191861603456228,73475.56391412122,15906.713823530688,35.19057244135713,0.9663894142595564,104.0,63.0,91.0,303.0,394.0,41.0,1057.0,1063.0,42.0,21.0,21.0,0.5,98.52421914110046,5414.8062202460815,61.0,47.0,14.0,0.7704918032786885,257.25873799843293,2341.6637163297237,20.0,11.0,9.0,0.55,2808.0326402891565,45609.90911627598,136.0,2.0,134.0,0.0147058823529411,1654.5138898745397,26415.09720004416,90.0,45.0,45.0,0.5,109.22106167442745,16132.286703769256,,,,,73022.0,73063.0,73126.0,73144.0,73159.0,73178.0,73187.0,73217.0,73432.0,73520.0,0.017260355911212128,-0.07596001020717896,0.05665304098038833,-0.21362335460315582,0.006866349824742399
65,65,74167.78076469757,6646.764165072918,18.948989426927977,74265.43776941182,-3136.4983072178006,5.329160382732323,74298.87669549929,46848.81677642006,9.138033755750252,74318.72601729959,-7826.743946539458,7.64389620259217,74604.5829704393,16302.692253510226,39.12347100442875,0.9687756813540632,112.0,68.0,67.0,325.0,392.0,44.0,1135.0,1129.0,45.0,21.0,24.0,0.4666666666666667,164.1461430555923,6885.459173069016,12.0,5.0,7.0,0.4166666666666667,429.6588931718379,1028.4187842546849,20.0,12.0,8.0,0.6,2746.5431746018166,43396.207814397174,10.0,2.0,8.0,0.2,1332.3082849036848,20858.889478196474,98.0,50.0,48.0,0.5102040816326531,121.68886390058614,16856.973079290445,,,,,74148.0,74192.0,74260.0,74272.0,74288.0,74306.0,74317.0,74327.0,74558.0,74652.0,0.024695647232098165,-0.13698680856389894,0.05862566791621099,-0.1702251017797453,0.00746434159513651
66,66,75252.3125699989,6122.543433645612,15.253603788816037,75344.027373699,-4078.6843820456143,10.033654537832115,75380.87669549929,45691.81260484952,9.238938177251647,75400.72601729959,-9423.395231225768,7.64389620259217,75687.32185961487,15390.01999455424,35.55132844246262,0.963992355730685,102.0,60.0,83.0,314.0,397.0,42.0,1080.0,1082.0,43.0,20.0,23.0,0.4651162790697674,120.03091430905395,5924.501850927409,44.0,33.0,11.0,0.75,303.5372825370471,1707.879248607491,20.0,12.0,8.0,0.6,2774.32642115068,42096.47469872648,19.0,3.0,16.0,0.1578947368421052,1397.637278110508,23071.97988527438,93.0,47.0,46.0,0.5053763440860215,125.92027571944044,15567.495854508652,,,,,75232.0,75274.0,75334.0,75354.0,75370.0,75388.0,75399.0,75417.0,75643.0,75731.0,0.019604746885002113,-0.07442039003390884,0.06071823950482161,-0.14831568068791565,0.008181943607870381
67,67,76370.71572146015,6941.09334092097,18.539385558342993,76463.027373699,-2468.7388179203517,9.529989378811642,76499.46986788123,48945.96028361409,8.940101646320873,76520.30135639943,-5370.718152201242,7.235713350774881,76807.14018113689,16297.411905862094,38.490415658415735,0.9795029786411996,109.0,65.0,70.0,324.0,394.0,44.0,1121.0,1119.0,46.0,22.0,24.0,0.4782608695652174,159.0271735001732,7080.238985809819,19.0,8.0,11.0,0.4210526315789473,292.40601037177146,416.6114369668974,21.0,11.0,10.0,0.5238095238095238,2745.6180020319093,46876.189988788654,14.0,2.0,12.0,0.1428571428571428,1528.142790950489,23252.215666417105,92.0,45.0,47.0,0.4891304347826087,131.39923043433726,17118.283658279677,,,,,76350.0,76394.0,76459.0,76473.0,76489.0,76509.0,76518.0,76529.0,76763.0,76853.0,0.022910968876132833,-0.11844347739389144,0.056094884769296784,-0.2845323004567209,0.00806258264768246
68,68,77421.52059170186,5644.926957566569,13.576912870726968,77513.60271279886,-4422.513555985244,9.252226955476774,77550.87669549929,47140.51383566678,9.048301116604376,77572.027373699,-8163.390493254727,13.346190456765768,77856.67603318492,15453.492689904057,35.57726422779738,0.9636214920100687,102.0,62.0,87.0,309.0,396.0,40.0,1040.0,1051.0,40.0,19.0,21.0,0.475,135.0119627927572,5653.500368052133,21.0,10.0,11.0,0.4761904761904761,331.8098501541361,2049.0084724912676,19.0,12.0,7.0,0.631578947368421,2740.0868095387636,41037.17653919886,28.0,4.0,24.0,0.1428571428571428,1155.6970445412185,19361.831894408388,92.0,47.0,45.0,0.5108695652173914,115.71602297419444,15736.322390987529,,,,,77403.0,77443.0,77505.0,77525.0,77539.0,77558.0,77568.0,77592.0,77813.0,77901.0,0.023917397657694146,-0.07502743540606643,0.058125942773784495,-0.14157071690937137,0.007488017453154331
69,69,78512.39539321481,6287.319510853579,17.78674485648892,78606.37885571542,-3969.573015027204,8.132323903707675,78641.45203459915,49661.788041429776,8.959196730891197,78661.30135639943,-7181.4724540553425,10.191861603456228,78948.33870214596,16682.06888465075,35.6403631334738,0.971951769508133,107.0,63.0,79.0,315.0,394.0,44.0,1100.0,1091.0,45.0,21.0,24.0,0.4666666666666667,120.134867896384,6817.691848172465,18.0,8.0,10.0,0.4444444444444444,369.0506124989017,1193.55759688074,20.0,11.0,9.0,0.55,2795.3815799351837,45164.432541511305,72.0,2.0,70.0,0.0277777777777777,1577.7705266887654,25013.46616158189,89.0,44.0,45.0,0.4943820224719101,126.28830602893426,17457.305787161018,,,,,78492.0,78536.0,78599.0,78616.0,78630.0,78650.0,78659.0,78678.0,78905.0,78993.0,0.019107485739988144,-0.09296985119100337,0.05628837966130355,-0.2197001432203233,0.007570302394874578
70,70,79616.17478246412,5619.8998813464505,13.86455741131729,79710.45203459915,-4318.478883528633,8.369287578184725,79743.87669549929,48192.23576965072,8.67877665682538,79764.45203459915,-7379.123733866637,15.28779240518434,80050.88201401386,15250.371735974722,35.20067803119292,0.954814746660078,97.0,61.0,98.0,301.0,399.0,36.0,1102.0,1102.0,37.0,17.0,20.0,0.4594594594594595,221.59388441039937,6159.876434776288,57.0,48.0,9.0,0.8421052631578947,398.51318259575623,447.35778239189665,18.0,11.0,7.0,0.6111111111111112,2797.3104397098623,42025.136714596854,111.0,3.0,108.0,0.027027027027027,1440.0718669579303,24605.04853315169,90.0,45.0,45.0,0.5,92.8077148389846,15482.969669840377,,,,,79599.0,79635.0,79696.0,79719.0,79733.0,79751.0,79761.0,79794.0,80006.0,80095.0,0.03943021923680757,-0.09228091495728949,0.05804483637323756,-0.1951548610506003,0.006085603449262597
71,71,80707.8953513183,6411.99633101052,17.244433106143127,80803.45203459915,-4460.674124728263,7.374537410783164,80837.45203459915,49950.039173821475,8.737479820908447,80858.87669549929,-5870.796631005617,12.739827004320285,81144.35470317195,16059.865234822146,36.1937592804482,0.9730975721059256,106.0,63.0,84.0,310.0,394.0,43.0,1087.0,1094.0,43.0,20.0,23.0,0.4651162790697674,143.5350943715371,6588.736111294047,18.0,9.0,9.0,0.5,403.7359473419388,1277.0403183125577,20.0,11.0,9.0,0.55,2805.894884762905,45266.49838582009,26.0,3.0,23.0,0.1153846153846153,1247.1958560979374,20461.920103720357,89.0,44.0,45.0,0.4943820224719101,130.1597926599928,16548.94749888409,,,,,80688.0,80731.0,80794.0,80812.0,80827.0,80846.0,80856.0,80878.0,81101.0,81188.0,0.02238539870607134,-0.0905100744983324,0.05617402771194338,-0.212440650645448,0.00810466281982062
72,72,81796.29094559542,6662.114577522543,17.259287022914787,81891.58651958364,-4211.863843496466,6.2340709520572615,81924.87669549929,47702.94502635699,8.830799720388109,81945.45203459915,-7108.584669244309,11.641016639150758,82230.8072516786,15596.247974622074,36.98932712748637,0.9657613657388576,104.0,63.0,73.0,321.0,394.0,41.0,1096.0,1087.0,41.0,18.0,23.0,0.4390243902439024,149.34386751080075,7283.201690850376,17.0,10.0,7.0,0.5882352941176471,525.0893608333287,776.8778235357927,20.0,12.0,8.0,0.6,2796.3962832855314,42765.00239915466,17.0,3.0,14.0,0.1764705882352941,1475.406407076579,23310.400170861045,94.0,47.0,47.0,0.5,116.21560751317242,15768.060405466866,,,,,81778.0,81819.0,81882.0,81899.0,81914.0,81932.0,81942.0,81955.0,82187.0,82276.0,0.02241688667659295,-0.12466912045224789,0.058621040729046336,-0.20755276552588697,0.0074515106262914195
73,73,82831.9752508688,6589.41207841271,17.675557178733154,82927.45203459915,-4328.548105310402,6.481896873233591,82961.87669549929,49566.001276391464,8.907557449917093,82983.45203459915,-6697.893139430042,13.94317626519893,83266.63417830967,15817.451631350888,36.402780723846945,0.9679576166168868,107.0,64.0,91.0,301.0,392.0,43.0,1032.0,1037.0,43.0,20.0,23.0,0.4651162790697674,127.22789936103112,7008.884978614059,17.0,8.0,9.0,0.4705882352941176,410.8701532487571,768.7560393020876,20.0,12.0,8.0,0.6,2800.2814625200485,43334.7936021824,32.0,4.0,28.0,0.125,1175.6560196234493,19461.459001402345,90.0,44.0,46.0,0.4888888888888889,125.40701479697016,16602.93477489373,,,,,82812.0,82855.0,82919.0,82936.0,82950.0,82969.0,82980.0,83010.0,83223.0,83311.0,0.019307928817782847,-0.09492100890473837,0.056496013202780526,-0.17552624312598275,0.00792839565561926
74,74,83912.39916661514,6373.9132607676875,19.077901243581945,84006.17805189872,-2960.852594322826,22.931688607717003,84043.45203459915,49688.3818475881,8.75546735957201,84063.87669549929,-6390.019261843659,12.739827004320285,84350.0111307699,15677.520691567162,35.9850477574324,0.966465355691942,105.0,62.0,80.0,316.0,396.0,43.0,1085.0,1082.0,44.0,18.0,26.0,0.4090909090909091,170.05295411238097,7101.87093002792,58.0,44.0,14.0,0.7586206896551724,228.25449086843284,1763.657850532678,21.0,11.0,10.0,0.5238095238095238,2780.5701932491347,44657.08891820478,21.0,3.0,18.0,0.1428571428571428,1529.2825563412296,24562.7834732329,90.0,45.0,45.0,0.5,148.77288274526174,16404.154288457128,,,,,83894.0,83937.0,83999.0,84019.0,84033.0,84052.0,84061.0,84079.0,84306.0,84395.0,0.02667952122271263,-0.07709079854434182,0.05596016794787422,-0.2393236223047,0.009489566983973793
75,75,84938.03808990384,5814.222676195137,14.067433561939792,85032.45203459915,-4571.917441092431,7.222540656816302,85066.87669549929,48071.52628358439,8.676424338835531,85088.60271279886,-6841.802183560101,14.605428836834657,85370.82468018333,15628.859878115887,36.067333000863435,0.9617508670378891,104.0,63.0,79.0,315.0,394.0,41.0,1019.0,1023.0,42.0,20.0,22.0,0.4761904761904761,147.36486096750608,5630.072006587203,23.0,14.0,9.0,0.6086956521739131,377.5018391307432,1378.6969270642353,19.0,12.0,7.0,0.631578947368421,2809.3524721750337,41956.06277720303,17.0,5.0,12.0,0.2941176470588235,1077.4444045132725,17956.762188424666,91.0,45.0,46.0,0.4945054945054945,142.77305713529205,15977.257766573768,,,,,84918.0,84959.0,85022.0,85041.0,85056.0,85074.0,85084.0,85101.0,85328.0,85416.0,0.02534558257819299,-0.08256969728669061,0.05844109162671583,-0.15747961949297826,0.009135218963426003
76,76,86007.11340416153,6452.995969048927,16.999446825793765,86098.17805189872,-3333.259197505571,11.50200282872098,86136.45203459915,49581.02318756799,8.743973402720231,86157.45203459915,-6093.57298379924,10.96916525680649,86442.40330793377,15774.589133583206,36.61058764979058,0.973476683288954,106.0,63.0,75.0,320.0,395.0,43.0,1074.0,1070.0,43.0,20.0,23.0,0.4651162790697674,129.84375995592467,6471.520417068019,24.0,10.0,14.0,0.4166666666666667,242.7753943425803,2224.1496256271985,20.0,11.0,9.0,0.55,2842.7849702191143,45638.60230335598,17.0,3.0,14.0,0.1764705882352941,1440.5391383900796,22993.57164561595,91.0,45.0,46.0,0.4945054945054945,155.10203386103615,16778.14053430141,,,,,85987.0,86030.0,86093.0,86111.0,86126.0,86145.0,86154.0,86168.0,86398.0,86488.0,0.02012146924912176,-0.07283423819073541,0.05733614974956624,-0.2364030335272899,0.009832397696548097
77,77,88081.1129836692,6806.037158064091,19.514355493509953,88176.05712285108,-3429.259997702708,6.989916083058621,88210.45203459915,51168.22119270853,8.72108004750622,88232.45203459915,-4407.6197431363,15.28779240518434,88514.88429121654,16251.740652388597,37.56767283868688,0.9790078655332304,107.0,63.0,76.0,315.0,391.0,44.0,2070.0,2074.0,44.0,20.0,24.0,0.4545454545454545,135.48342038520724,7630.054774266419,18.0,9.0,9.0,0.5,352.28514302281826,202.50961573192785,21.0,11.0,10.0,0.5238095238095238,2830.2196149925644,46847.12305196815,15.0,3.0,12.0,0.2,1317.3766964646206,20493.607555598523,91.0,45.0,46.0,0.4945054945054945,125.23506879793368,17258.60012441018,,,,,88061.0,88105.0,88168.0,88185.0,88200.0,88219.0,88229.0,88244.0,88471.0,88559.0,0.019906359198271575,-0.10272920200241954,0.05531205793403408,-0.29888619555171153,0.007705948025913598
78,78,89082.69383002997,7305.446435628787,19.22201969526632,89180.38743964928,-3352.56091886088,5.318146263261936,89213.87669549929,48307.320333638374,8.90243422586556,89234.87669549929,-6567.561368829449,10.813098716997589,89515.68630866542,15963.26805581712,38.907291051934465,0.9742900957927312,107.0,64.0,72.0,318.0,390.0,43.0,1003.0,1003.0,45.0,20.0,25.0,0.4444444444444444,173.29833833730058,7713.092235108904,17.0,9.0,8.0,0.5294117647058824,458.3704248705755,588.9468183508543,20.0,12.0,8.0,0.6,2781.3779002543283,43850.44696883488,11.0,3.0,8.0,0.2727272727272727,1221.9481361354617,19063.211502928654,99.0,50.0,49.0,0.5050505050505051,135.9046169919639,16337.200587681917,,,,,89064.0,89107.0,89171.0,89188.0,89202.0,89221.0,89232.0,89243.0,89469.0,89561.0,0.02372179987414891,-0.1367224745393497,0.05757673746017206,-0.1860581222636146,0.008513583591828452
79,79,90095.86089485337,7072.954780589568,17.920251770354945,90190.4723983896,-3866.525473677293,6.377343669268007,90225.87669549928,47781.86020706349,9.288937415705254,90245.87669549928,-8813.449288711314,10.936764495357686,90528.09034332042,15582.984677519162,37.430224464708715,0.9717953710797071,105.0,64.0,79.0,311.0,390.0,41.0,1013.0,1012.0,41.0,19.0,22.0,0.4634146341463415,178.044569069951,7760.82979486289,18.0,9.0,9.0,0.5,362.3826319916424,863.5557746738684,19.0,12.0,7.0,0.631578947368421,2780.7031723049636,42857.31533807761,19.0,3.0,16.0,0.1578947368421052,1307.706287996374,21306.05879121254,91.0,46.0,45.0,0.5054945054945055,125.69105785121884,16370.556627451804,,,,,90077.0,90118.0,90182.0,90199.0,90214.0,90233.0,90243.0,90261.0,90484.0,90572.0,0.025172586930509125,-0.09372306854272325,0.058195791462591455,-0.14837621970223921,0.008065916796577963
80,80,91195.94542558047,6344.739683465022,17.65686675900659,91292.87669549928,-3506.660224236212,6.236137959370815,91325.45203459916,50868.03531769617,8.555431357092697,91346.45203459916,-5419.789402343389,15.091914958966193,91629.8690291573,15767.862977281828,36.827260217584055,0.9736961558072912,106.0,61.0,77.0,315.0,392.0,45.0,1095.0,1100.0,45.0,20.0,25.0,0.4444444444444444,116.54002851849394,6397.975145418499,19.0,12.0,7.0,0.631578947368421,461.57099529589385,1509.2661971941825,20.0,11.0,9.0,0.55,2856.9894161643147,45479.795223221925,17.0,3.0,14.0,0.1764705882352941,1440.041674749829,23006.67038823229,93.0,46.0,47.0,0.4946236559139785,162.69016641532411,16102.534409447771,,,,,91176.0,91221.0,91282.0,91300.0,91315.0,91334.0,91343.0,91359.0,91587.0,91674.0,0.01836797636035534,-0.13162695150951756,0.05616472895642608,-0.2657006698686833,0.010317832330844478
81,81,92270.47669214846,6348.622340449512,15.996932721548232,92365.87669549928,-4465.52015565855,5.539425206371947,92398.87669549928,47488.2461843765,8.952960469825548,92419.45203459916,-8123.113224816063,11.275858766502209,92702.58755301828,15101.154506955349,36.07068688541003,0.9685927498988708,105.0,64.0,76.0,315.0,391.0,41.0,1080.0,1073.0,43.0,20.0,23.0,0.4651162790697674,139.97619066848432,6491.916532936526,17.0,10.0,7.0,0.5882352941176471,541.8358544174839,947.8938303803792,19.0,12.0,7.0,0.631578947368421,2813.838359856319,42561.25143412357,18.0,3.0,15.0,0.1666666666666666,1399.5249112892543,22020.28415822354,91.0,46.0,45.0,0.5054945054945055,127.72884220159423,15269.290240187722,,,,,92251.0,92292.0,92356.0,92373.0,92388.0,92406.0,92416.0,92432.0,92659.0,92747.0,0.022048278061311384,-0.12133767971708483,0.05925336448373754,-0.17228922859448936,0.008458217028556618
82,82,93375.96168393613,6329.082162506652,17.067500907335194,93467.17805189872,-2912.3278395650864,22.93168860777645,93504.45203459916,49662.61520578876,9.012436770414029,93525.30135639945,-6436.16785546122,10.191861603456228,93809.8824477428,15808.563148889629,35.66745595887162,0.9691576664484356,106.0,63.0,175.0,216.0,391.0,43.0,1105.0,1106.0,43.0,20.0,23.0,0.4651162790697674,146.93080044711402,6832.578900206276,54.0,41.0,13.0,0.7592592592592593,257.02880391471126,1731.4522595421058,21.0,11.0,10.0,0.5238095238095238,2795.60572285379,46027.111125760624,130.0,2.0,128.0,0.0153846153846153,1463.3849400427985,23715.89586616597,89.0,45.0,44.0,0.5056179775280899,131.01434319655715,16757.46499320221,,,,,93356.0,93399.0,93462.0,93480.0,93494.0,93513.0,93523.0,93637.0,93769.0,93853.0,0.023215182971952703,-0.08825544996098199,0.05629195545320234,-0.2273689830511624,0.008287555419339891
83,83,94457.9876770363,6519.469547466136,17.41032864939787,94552.8456594008,-4052.813762996031,6.2680335303613175,94587.87669549928,47225.85271926717,9.05008456778278,94609.027373699,-7767.674794460029,11.805042246252086,94891.19941522632,15743.628307543147,38.16599861493198,0.967571949024158,108.0,67.0,72.0,319.0,391.0,41.0,1082.0,1083.0,41.0,19.0,22.0,0.4634146341463415,181.11513837016548,7248.249948973412,13.0,6.0,7.0,0.4615384615384615,417.7427104566501,925.7771142015832,19.0,12.0,7.0,0.631578947368421,2768.4594956397564,42566.42418996439,15.0,4.0,11.0,0.2666666666666666,1125.7119427061775,18400.32579163749,98.0,49.0,49.0,0.5,130.6331585642584,16364.070629060298,,,,,94439.0,94480.0,94547.0,94560.0,94576.0,94595.0,94605.0,94619.0,94844.0,94938.0,0.027780655627198673,-0.10307473643887229,0.05862169418298894,-0.14492264062201016,0.008297525577485143
84,84,95487.3371905314,6248.042083522783,15.869825577294316,95581.45203459916,-4295.624543224485,9.242994836243795,95615.45203459916,48104.78807516027,8.950537293697208,95635.7260172996,-7100.8829996462455,7.64389620259217,95918.45816338636,15703.983467875843,35.589693165735774,0.9742408596977876,103.0,62.0,95.0,296.0,391.0,41.0,1031.0,1028.0,41.0,19.0,22.0,0.4634146341463415,143.32996376552958,6585.3765409926555,19.0,10.0,9.0,0.5263157894736842,375.8312674729119,1457.7047352457048,20.0,11.0,9.0,0.55,2805.576715453558,46134.64352131589,91.0,2.0,89.0,0.0219780219780219,1450.7362855061865,23314.191433397653,88.0,44.0,44.0,0.5,151.39908478810685,16843.308553934017,,,,,95468.0,95509.0,95571.0,95590.0,95605.0,95624.0,95634.0,95666.0,95876.0,95962.0,0.022939980533024356,-0.08749164730090596,0.058322192607314804,-0.20430364583932165,0.009640807703205348
85,85,96529.12856392028,6018.069118974681,17.525351878161164,96623.23026998868,-4008.70614544722,7.578856867962616,96658.87669549928,46621.60878528507,8.84891716693261,96679.30135639945,-7077.11838549599,10.191861603456228,96961.59711983158,14642.56228594774,36.33640537923023,0.9674129425636534,106.0,62.0,77.0,315.0,392.0,44.0,1043.0,1043.0,44.0,20.0,24.0,0.4545454545454545,134.89885326701776,6589.277026919559,19.0,9.0,10.0,0.4736842105263157,328.20570313160925,1663.8141680213362,20.0,12.0,8.0,0.6,2757.6758981374014,42715.742215803635,17.0,3.0,14.0,0.1764705882352941,1458.2582426217311,23204.17278113928,96.0,51.0,45.0,0.53125,133.07605662475635,15361.494595698588,,,,,96509.0,96553.0,96615.0,96633.0,96648.0,96666.0,96677.0,96692.0,96918.0,97007.0,0.02241563707563414,-0.0818732257300426,0.05915016598500119,-0.2060525433077846,0.009088303947490635
86,86,97456.99991917782,6795.962723591955,17.881988805002393,97550.1516676784,-3660.143814715108,7.224779916626437,97585.87669549928,47849.791602434554,8.94377046108618,97606.87669549928,-6677.7318993017225,11.225043256022728,97886.20264742094,15505.577658838649,35.472648571164264,0.9752293936002848,105.0,62.0,77.0,309.0,386.0,43.0,926.0,927.0,45.0,21.0,24.0,0.4666666666666667,142.82631655721792,7218.790080330911,19.0,9.0,10.0,0.4736842105263157,336.51563242360925,956.1563234921002,20.0,12.0,8.0,0.6,2762.3755665031763,43334.23881531862,15.0,3.0,12.0,0.2,1209.6028936664434,19200.22574832184,87.0,44.0,43.0,0.5057471264367817,125.97120194509728,15986.546166685352,,,,,97437.0,97480.0,97542.0,97560.0,97575.0,97593.0,97604.0,97619.0,97844.0,97928.0,0.021016347847436122,-0.09194054918571619,0.057730148324462695,-0.18113978097756953,0.008124250815853344
87,87,98314.08373760188,6638.933300087583,17.57933125757236,98408.60271279886,-3414.7268563227503,10.097755676272666,98445.45203459916,46946.871454447115,8.938020843405459,98465.7260172996,-7085.5654265328485,7.64389620259217,98741.5913570671,15759.828196355877,35.99131446979298,0.9756868765468708,107.0,64.0,84.0,298.0,382.0,43.0,859.0,860.0,45.0,20.0,25.0,0.4444444444444444,150.22073529785894,6720.4084306389195,22.0,10.0,12.0,0.4545454545454545,292.89265716148446,1152.6420938791755,20.0,11.0,9.0,0.55,2749.6331595520683,44808.48162070247,31.0,3.0,28.0,0.0967741935483871,1328.8161112470443,21755.719903408688,88.0,46.0,42.0,0.5227272727272727,118.43821663308924,16642.451886552153,,,,,98295.0,98338.0,98402.0,98420.0,98435.0,98454.0,98464.0,98486.0,98696.0,98784.0,0.02262723972477283,-0.08577337792601503,0.05856903930691222,-0.1875384717034881,0.007515197193613795
88,88,100310.10574268876,6643.970678207471,16.857060198280188,100406.55343556822,-3868.175775617984,7.09325644165667,100441.87669549928,48596.323019134914,9.22272205738532,100462.30135639945,-8106.783978349984,10.191861603456228,100743.10980117763,16069.436429247957,36.32714718892897,0.971228370303701,108.0,65.0,77.0,312.0,389.0,43.0,1995.0,1996.0,43.0,20.0,23.0,0.4651162790697674,129.5676589256754,6773.675224002514,17.0,9.0,8.0,0.5294117647058824,420.88561123453474,438.3098090349565,20.0,12.0,8.0,0.6,2757.7593161726977,43590.4946050424,28.0,2.0,26.0,0.0714285714285714,1334.0981205685732,21480.428227571578,91.0,46.0,45.0,0.5054945054945055,91.40253114763884,16643.68282418133,,,,,100290.0,100333.0,100398.0,100415.0,100430.0,100449.0,100460.0,100475.0,100698.0,100787.0,0.019501539847348103,-0.1088072610059437,0.05674831231751472,-0.16456564330953213,0.005687973660437601
89,89,101609.4304160512,6858.831736971249,19.1387824924045,101707.30135639945,-3497.6290358943374,5.5794194843663805,101739.87669549928,47986.42044822822,8.986246937410352,101760.30135639945,-7166.436251403126,10.191861603456202,102045.82475322748,15860.654236255965,38.27048006401705,0.9707488600035326,109.0,65.0,77.0,317.0,394.0,44.0,1301.0,1298.0,45.0,20.0,25.0,0.4444444444444444,126.30413174764767,7363.03411709378,15.0,9.0,6.0,0.6,479.1202376474636,1763.7285021299026,20.0,12.0,8.0,0.6,2777.529171345307,43330.33075944158,17.0,2.0,15.0,0.1176470588235294,1320.9467614973792,21151.67876088687,96.0,49.0,47.0,0.5104166666666666,176.63121135998142,16684.072721831806,,,,,101589.0,101633.0,101698.0,101713.0,101728.0,101747.0,101758.0,101775.0,102000.0,102092.0,0.018414817069622644,-0.13698429213919006,0.057881566188958365,-0.1843240789644573,0.011136439186488227
90,90,102769.83890664052,6504.969476337191,17.634151334373477,102864.78327881108,-4485.798403777775,6.673679542306949,102898.45203459916,49387.9237693017,8.744056712071973,102919.87669549928,-5937.54767616224,12.739827004320285,103203.5184917296,15976.38027292964,36.09995423939444,0.9731178601134488,106.0,63.0,82.0,310.0,392.0,43.0,1157.0,1159.0,43.0,20.0,23.0,0.4651162790697674,143.593268473311,7168.860083109703,17.0,9.0,8.0,0.5294117647058824,475.29562484621835,78.29097258242473,20.0,11.0,9.0,0.55,2782.7583572640083,44529.79322561832,23.0,4.0,19.0,0.1739130434782608,1241.6989370574504,20540.114814107856,91.0,46.0,45.0,0.5054945054945055,126.099137604577,16605.596408606474,,,,,102750.0,102793.0,102856.0,102873.0,102888.0,102907.0,102917.0,102938.0,103160.0,103248.0,0.02207439542885685,-0.1059556364472246,0.056344914806758926,-0.20912656281356007,0.00789284778218751
91,91,103955.6244854575,6676.567252082983,20.38914538764704,104053.1923964976,-3764.643316163035,6.347818588722363,104086.87669549928,46281.415250878825,9.619248157308274,104105.7260172996,-10264.173990226349,7.64389620259217,104392.6050595918,15945.626625847188,37.93158855736064,0.9696763588957596,107.0,63.0,77.0,318.0,395.0,44.0,1183.0,1188.0,46.0,20.0,26.0,0.4347826086956521,150.1781522124473,7194.916437359069,16.0,9.0,7.0,0.5625,470.59107068274545,789.7765259146345,20.0,12.0,8.0,0.6,2687.024738317624,41913.32460137309,29.0,2.0,27.0,0.0689655172413793,1532.0963983020326,23804.22468863872,92.0,46.0,46.0,0.5,152.80349612695616,16718.534846301674,,,,,103937.0,103981.0,104044.0,104060.0,104075.0,104094.0,104104.0,104121.0,104348.0,104439.0,0.022493318279029405,-0.12500283059017048,0.05805839609164935,-0.14926640952899964,0.009582784026766822
92,92,105078.21611819102,6498.92531364589,14.821232127959696,105171.87669549928,-4604.862365368009,6.224202807587003,105204.87669549928,47044.89336638083,9.124180114530605,105224.30135639945,-8565.609251780885,10.147808027743052,105508.79741447709,15895.641062169208,37.58695938995058,0.964444868393591,102.0,63.0,73.0,320.0,393.0,39.0,1126.0,1118.0,41.0,20.0,21.0,0.4878048780487805,156.6771902747005,6752.024915414568,19.0,12.0,7.0,0.631578947368421,535.5672693293271,1012.9474149697024,19.0,12.0,7.0,0.631578947368421,2772.3063607949266,41833.823143851296,15.0,2.0,13.0,0.1333333333333333,1633.2375594591315,25510.430364648473,92.0,46.0,46.0,0.5,128.28670011992915,16676.012930069584,,,,,105059.0,105098.0,105161.0,105179.0,105193.0,105212.0,105222.0,105234.0,105465.0,105554.0,0.024108169076158342,-0.1163047289658843,0.05892895407806513,-0.1906738343357845,0.008070558439146237
93,93,106260.84040358872,6459.594790804981,16.475836849849028,106350.45203459916,-3059.837597351121,15.287792404089302,106387.45203459916,48243.001482055544,8.848740565986603,106407.7260172996,-7375.739531196952,7.64389620259217,106694.02911597952,15957.877516584804,36.92718668608549,0.971086429809812,106.0,63.0,74.0,317.0,391.0,43.0,1179.0,1183.0,44.0,21.0,23.0,0.4772727272727273,137.12711183988333,6540.416015599835,20.0,7.0,13.0,0.35,297.2523021711769,1833.156116128991,21.0,11.0,10.0,0.5238095238095238,2806.831004514997,45467.63272958041,15.0,2.0,13.0,0.1333333333333333,1504.367191607608,24151.760030042427,91.0,46.0,45.0,0.5054945054945055,109.5508911693414,16642.95556266271,,,,,106241.0,106284.0,106347.0,106362.0,106377.0,106396.0,106406.0,106421.0,106650.0,106738.0,0.021228438668487257,-0.09714643104866286,0.058181102300590176,-0.2039615397540314,0.006865003886355604
94,94,107380.6545412036,6424.033281914711,15.925839930159068,107473.87669549928,-4356.497690066704,6.478898083445181,107507.87669549928,47131.74477984487,8.941951542904127,107527.87669549928,-8796.724356597433,10.473252005403062,107812.80381891504,15946.499323018215,37.60903304649889,0.9645960019221002,105.0,61.0,75.0,320.0,395.0,44.0,1125.0,1120.0,44.0,22.0,22.0,0.5,120.91357762432185,6518.7041003138675,17.0,10.0,7.0,0.5882352941176471,462.8666103755677,100.07645082096268,19.0,12.0,7.0,0.631578947368421,2834.39295034646,41468.3186084142,15.0,3.0,12.0,0.2,1440.2098736668192,23139.68078527053,95.0,47.0,48.0,0.4947368421052631,130.16155408723014,16496.739224208442,,,,,107359.0,107403.0,107464.0,107481.0,107497.0,107515.0,107525.0,107539.0,107767.0,107859.0,0.018822065876390202,-0.10624741324457825,0.06013766228231259,-0.1637211552032638,0.00816239046894427
95,95,108489.84790242078,6403.649830920743,16.200003151610613,108583.45203459918,-4012.247306918999,8.103290605889539,108617.51224764084,49784.55104339191,8.746346606865954,108638.30135639945,-5977.265703421839,10.191861603456228,108923.67991682292,16123.043975434291,36.306988508856456,0.9731275212667776,104.0,63.0,79.0,316.0,395.0,41.0,1103.0,1110.0,42.0,20.0,22.0,0.4761904761904761,133.67989162619625,6511.508974820303,20.0,10.0,10.0,0.5,370.5309094366021,1017.0395416335064,20.0,12.0,8.0,0.6,2840.0056168683395,44953.745556689784,109.0,2.0,107.0,0.018348623853211,1528.816292654405,24477.64769504719,92.0,46.0,46.0,0.5,114.45770317654532,16791.155344873187,,,,,108471.0,108512.0,108575.0,108592.0,108607.0,108626.0,108636.0,108654.0,108879.0,108970.0,0.02087557801501073,-0.09234996775937335,0.05704592202494722,-0.2557718476157409,0.007099013272613882
96,96,109658.9197768437,6486.742056754332,16.32539213533953,109753.98464328932,-4699.736601371447,5.940938845395809,109787.87669549928,48135.71522009959,8.750561958246966,109809.027373699,-7121.602802166649,13.603472178002349,110093.48398517352,15576.906217932774,36.95748325314021,0.964046768178137,108.0,66.0,86.0,305.0,391.0,42.0,1171.0,1170.0,42.0,20.0,22.0,0.4761904761904761,156.740625804684,6753.456018675882,16.0,8.0,8.0,0.5,511.2607129119272,104.5156732860014,19.0,12.0,7.0,0.631578947368421,2817.714872653071,42116.69127880449,33.0,4.0,29.0,0.1212121212121212,1134.8414827287295,19025.856690749417,92.0,46.0,46.0,0.5,129.81895313517296,16444.543451649668,,,,,109639.0,109681.0,109747.0,109762.0,109777.0,109795.0,109805.0,109833.0,110049.0,110138.0,0.02416322777032232,-0.1087849716434607,0.058536885964384784,-0.15935197654992353,0.008334065270658178
97,97,110761.79499551206,6899.11015899714,17.93947286648971,110856.03941365534,-3800.1239213063486,5.8332268254244575,110889.45203459916,50783.86258451243,8.750231230058715,110911.45203459916,-4767.145641383356,12.995248150808637,111194.5899981228,17091.313631878034,38.42391916638404,0.9805591182046896,108.0,64.0,75.0,317.0,392.0,44.0,1102.0,1102.0,44.0,21.0,23.0,0.4772727272727273,140.93579956664792,7239.055196992924,14.0,7.0,7.0,0.5,459.1525958882385,304.71488704608714,21.0,11.0,10.0,0.5238095238095238,2834.982239708878,46505.52236862013,19.0,3.0,16.0,0.1578947368421052,1282.251008787303,20359.16248023324,94.0,47.0,47.0,0.5,116.61298110498888,17624.072523577757,,,,,110741.0,110785.0,110849.0,110863.0,110879.0,110898.0,110908.0,110924.0,111150.0,111241.0,0.020428112657811866,-0.12082569026601586,0.05582447051937052,-0.2689766802289708,0.006822938459656314
98,98,111873.26413868504,6536.359953026047,17.783762135312752,111968.45203459916,-4397.29981466818,7.008475989339169,112002.87669549928,47622.17768665959,9.217233784331489,112022.30135639945,-9557.853759643194,10.191861603198628,112307.6059688446,15320.779677254295,36.645037094716976,0.9632247767500856,104.0,63.0,76.0,318.0,394.0,41.0,1110.0,1113.0,44.0,20.0,24.0,0.4545454545454545,181.92543367459837,7178.42593285549,19.0,10.0,9.0,0.5263157894736842,395.03422503659687,648.800800237573,19.0,12.0,7.0,0.631578947368421,2799.7813784246114,42676.35622247133,17.0,2.0,15.0,0.1176470588235294,1602.2808268858416,25264.5935981189,92.0,46.0,46.0,0.5,145.87855157153183,16055.131619383232,,,,,111855.0,111896.0,111959.0,111977.0,111991.0,112010.0,112020.0,112035.0,112263.0,112353.0,0.027832835856962695,-0.0898356358870213,0.05879154449522191,-0.1676402325437606,0.009521614085222285
99,99,112944.9748632288,6481.387212454949,17.868423042928498,113037.93531678844,-3945.0379899730774,6.887713408663817,113072.45203459916,50106.72682384986,8.693512289411766,113095.027373699,-4651.434078992875,17.8357578060484,113376.90781881116,15710.336079246104,36.441004511008224,0.9716323009380484,105.0,61.0,91.0,300.0,391.0,44.0,1078.0,1070.0,45.0,21.0,24.0,0.4666666666666667,108.51203027608942,6992.559629232668,18.0,9.0,9.0,0.5,393.7293238528957,799.3052739849197,20.0,11.0,9.0,0.55,2788.304643298003,45168.94981714824,32.0,4.0,28.0,0.125,1105.2475482492753,18008.90593060898,91.0,46.0,45.0,0.5054945054945055,123.3815161154078,16236.659825932124,,,,,112925.0,112969.0,113030.0,113047.0,113062.0,113081.0,113091.0,113121.0,113334.0,113421.0,0.016742099602931826,-0.09980368372969271,0.055647311649397596,-0.23761436354453994,0.007853524933715392
100,100,114064.48010447263,6649.146299572733,19.067683409114863,114160.58291361124,-3285.660550102315,5.802584098186135,114194.45203459916,50186.37572511751,8.767973617975036,114215.87669549928,-5911.669159266859,10.945574853665237,114499.27814743874,16087.180862987168,37.737809672544145,0.974894145906322,108.0,64.0,73.0,320.0,393.0,44.0,1116.0,1122.0,44.0,19.0,25.0,0.4318181818181818,134.1847111172872,7147.365704886259,15.0,8.0,7.0,0.5333333333333333,419.99534278541216,701.9507969236076,20.0,11.0,9.0,0.55,2835.0139940627,46050.148411894115,13.0,3.0,10.0,0.2307692307692307,1255.236806819766,19953.10300467667,96.0,48.0,48.0,0.5,116.86821726377876,16499.774910531178,,,,,114045.0,114089.0,114153.0,114168.0,114183.0,114203.0,114213.0,114226.0,114453.0,114546.0,0.020180742770829055,-0.1278267600627014,0.05648971365437371,-0.21233204582365958,0.007264679763293091
101,101,115142.34654943194,6646.813681634112,14.309858241724228,115234.87669549928,-4088.646143374168,6.356512969721826,115268.87669549928,46966.31718980427,8.876201185340035,115290.45203459916,-7128.235622069217,11.73913848989011,115573.51774419103,15871.87592538236,37.66032910998496,0.9726321279481492,102.0,62.0,76.0,318.0,394.0,40.0,1076.0,1074.0,40.0,19.0,21.0,0.475,168.52254762007394,6695.2661848296,17.0,10.0,7.0,0.5882352941176471,440.5506227455407,127.98724507677662,20.0,12.0,8.0,0.6,2741.041172605701,41683.00140813216,16.0,4.0,12.0,0.25,1308.132107740762,20757.394954892563,92.0,46.0,46.0,0.5,135.3313550521129,16420.98452385702,,,,,115123.0,115163.0,115225.0,115242.0,115258.0,115276.0,115287.0,115301.0,115530.0,115619.0,0.025353884686992286,-0.10774975561518634,0.05836185029216518,-0.18351415091986414,0.008526487712500986
102,102,116230.46433440992,6882.719855082922,19.59870961229765,116325.79161623112,-3393.031766415261,5.950230844671859,116359.45203459916,50683.091537788925,8.827245852629968,116380.87669549928,-5037.925671680602,11.424399618047524,116663.94335160332,16242.095014039993,38.01564389876557,0.9799298298770864,107.0,63.0,78.0,314.0,392.0,44.0,1095.0,1091.0,45.0,20.0,25.0,0.4444444444444444,158.79412868348894,7651.766725806076,16.0,9.0,7.0,0.5625,452.62899567694615,405.0764768602853,21.0,11.0,10.0,0.5238095238095238,2808.669303808481,47146.52190417909,17.0,3.0,14.0,0.1764705882352941,1253.0252441816208,19861.061368567243,93.0,47.0,46.0,0.5053763440860215,124.69643493758704,16905.304546197098,,,,,116210.0,116254.0,116317.0,116333.0,116349.0,116368.0,116378.0,116395.0,116618.0,116709.0,0.02307142118623624,-0.13339957502229602,0.05541629799189259,-0.2487184857103348,0.007677361499843274
103,103,117390.59287105533,6141.775300324518,15.982081170981411,117484.87669549928,-4452.70571420661,6.231602461341052,117517.87669549928,48193.76932501737,8.831742483913843,117537.87669549928,-7092.574784790528,12.53511660143125,117823.47780750685,15428.740319204477,36.61223316140764,0.9659710709777316,103.0,63.0,73.0,322.0,395.0,40.0,1159.0,1158.0,41.0,20.0,21.0,0.4878048780487805,142.3620359542494,6154.959477837161,19.0,12.0,7.0,0.631578947368421,505.4512368918638,663.2313027549571,19.0,12.0,7.0,0.631578947368421,2805.6402559315884,42985.05656109366,13.0,3.0,10.0,0.2307692307692307,1403.9640384120871,22592.67697423044,91.0,45.0,46.0,0.4945054945054945,137.4021961989504,16733.31222604389,,,,,117371.0,117411.0,117474.0,117492.0,117507.0,117525.0,117535.0,117547.0,117779.0,117869.0,0.023179297351814107,-0.11351552726226506,0.058215829457339864,-0.19794842930987183,0.008905600415603794
104,104,118515.88517871645,6379.48544972538,17.75104222963595,118610.14273924522,-3897.493332002295,6.182180928430662,118644.45203459916,50215.4851011256,8.782124563836863,118666.45203459916,-5207.867483625775,14.288735253911666,118949.4426629976,15994.392237568109,36.675230070929786,0.972426438940344,106.0,63.0,77.0,316.0,393.0,43.0,1121.0,1127.0,43.0,20.0,23.0,0.4651162790697674,108.33179924646215,6596.806496469399,16.0,8.0,8.0,0.5,411.6624102162378,461.43278531486976,20.0,11.0,9.0,0.55,2805.8008781316753,45473.135126636334,16.0,3.0,13.0,0.1875,1186.5710887655157,19142.418805747577,93.0,46.0,47.0,0.4946236559139785,105.00932726072242,16512.14304821873,,,,,118496.0,118539.0,118602.0,118618.0,118633.0,118653.0,118663.0,118679.0,118906.0,118995.0,0.016981275386579266,-0.10562235138058611,0.055875212048260826,-0.22784202795026032,0.00656538402341249
105,105,119700.22892622992,6670.330192659306,19.79292551099697,119796.66528264944,-3618.523345907637,5.6829384242121455,119829.50273553748,47710.39012990219,8.761119776607565,119850.87669549928,-5033.355658754406,8.290150375991464,120136.57935128662,15980.556747328448,38.717543231313066,0.9751771028552824,107.0,63.0,72.0,323.0,395.0,44.0,1191.0,1185.0,44.0,19.0,25.0,0.4318181818181818,133.01075934596778,7130.0013989803065,16.0,9.0,7.0,0.5625,494.1171183380693,655.6289326709209,21.0,12.0,9.0,0.5714285714285714,2768.2420775343603,44496.64448576829,15.0,3.0,12.0,0.2,1284.3696254307467,19912.910534410905,94.0,48.0,46.0,0.5106382978723404,143.2472244618098,16713.052709227624,,,,,119681.0,119725.0,119788.0,119803.0,119819.0,119838.0,119848.0,119860.0,120090.0,120183.0,0.01994065593519584,-0.1365521432649841,0.05802178665898986,-0.25517164144696797,0.00896384442211359
106,106,120783.17285432604,6216.888247404193,15.490127441540212,120876.88462033278,-4461.748688072731,6.036142513395362,120910.87669549928,49156.23270757356,8.787270446105516,120932.45203459916,-6144.566736588332,14.1316518594213,121215.79131050751,15445.687927986595,35.13980621759289,0.96811624616006,104.0,64.0,75.0,315.0,390.0,40.0,1075.0,1081.0,41.0,19.0,22.0,0.4634146341463415,146.665538479207,6555.712858944409,16.0,8.0,8.0,0.5,481.51052862260906,440.5112824519897,20.0,12.0,8.0,0.6,2803.5267166977474,43359.68736915614,24.0,3.0,21.0,0.125,1216.1013080012744,19771.930623498287,89.0,45.0,44.0,0.5056179775280899,105.68037234851042,15868.548716496469,,,,,120765.0,120805.0,120869.0,120885.0,120900.0,120918.0,120929.0,120944.0,121172.0,121259.0,0.02359147094858041,-0.1079196885090808,0.05703298569228648,-0.1979148994769474,0.006842063159713616
107,107,121907.03613774134,7586.206758147667,18.424007924939087,122001.39488058577,-3194.1579957255526,5.628246536816111,122034.45203459916,48915.45188604013,8.732103283433537,122056.30135639945,-4027.416152335461,8.219036752165035,122340.29124037374,16447.846558217305,38.956567110654575,0.9799536934455988,108.0,63.0,69.0,322.0,391.0,45.0,1130.0,1124.0,45.0,21.0,24.0,0.4666666666666667,173.7781690585656,7989.602136773056,15.0,7.0,8.0,0.4666666666666667,415.5833897751275,489.8457622255373,21.0,11.0,10.0,0.5238095238095238,2742.167086546804,47095.42384520563,13.0,2.0,11.0,0.1538461538461538,1283.5455837894997,19095.93410576709,94.0,47.0,47.0,0.5,145.0765912113938,17352.152970881594,,,,,121886.0,121931.0,121994.0,122009.0,122024.0,122043.0,122054.0,122063.0,122294.0,122385.0,0.022907122702914205,-0.1301073366850558,0.05605932237803542,-0.31870200029991524,0.008820400330091472
108,108,123020.17549181126,6246.327129254323,16.69335160592561,123114.92132309424,-4436.731169940041,5.739996405926092,123148.87669549928,47478.68908449928,8.952020934124365,123169.87669549928,-7006.400539010144,12.159415080636103,123454.080023309,15486.140479242307,36.14663076388008,0.9670074258250886,107.0,64.0,74.0,317.0,391.0,43.0,1108.0,1114.0,44.0,21.0,23.0,0.4772727272727273,122.79004758772888,6568.589224724688,15.0,8.0,7.0,0.5333333333333333,506.63215021388913,84.89638814868431,20.0,12.0,8.0,0.6,2762.965827830785,42083.7658189557,16.0,4.0,12.0,0.25,1195.6335019708863,19344.775319232584,88.0,43.0,45.0,0.4886363636363636,98.6325502138408,15931.541049723186,,,,,123000.0,123043.0,123107.0,123122.0,123138.0,123156.0,123167.0,123181.0,123412.0,123498.0,0.0196579597973101,-0.1141904097427512,0.05819381034117117,-0.1706487511403115,0.006369085334467185
109,109,124215.46509871865,6631.904791086285,19.07332146554797,124311.75302796114,-3260.9635518866685,5.81607634989044,124344.2492036396,49868.12581174912,8.909457494643073,124365.7260172996,-4840.252359670182,7.64389620259217,124650.91815817296,16817.428440863976,38.16204192301531,0.9779850767419888,108.0,63.0,73.0,321.0,394.0,45.0,1201.0,1196.0,45.0,20.0,25.0,0.4444444444444444,126.31877419966584,6985.945331312696,17.0,10.0,7.0,0.5882352941176471,500.5397765294438,1779.617301487717,21.0,11.0,10.0,0.5238095238095238,2755.970010688389,47805.37687634289,17.0,3.0,14.0,0.1764705882352941,1297.0258572004736,20289.78527206805,95.0,48.0,47.0,0.5052631578947369,113.94073936545938,17209.569864372803,,,,,124195.0,124240.0,124303.0,124319.0,124333.0,124354.0,124364.0,124376.0,124604.0,124697.0,0.01904713324133461,-0.15349444069678445,0.055265161179148856,-0.26796657711641586,0.0067751582690608915
110,110,125396.67597350724,5787.815910441449,14.228521000374354,125490.45203459916,-5025.5085479783165,7.038151428187619,125524.87669549928,47757.14121292606,8.925861128109906,125545.45203459916,-8600.83157417095,12.755232459480569,125831.19328090311,15641.81375761674,36.15474290293421,0.960875399265724,100.0,60.0,81.0,317.0,398.0,40.0,1175.0,1180.0,40.0,19.0,21.0,0.475,137.614278619499,5855.514762989598,21.0,12.0,9.0,0.5714285714285714,424.34445009277994,1177.8276469792786,19.0,12.0,7.0,0.631578947368421,2793.8537799443216,41389.36274027848,28.0,4.0,24.0,0.1428571428571428,1326.1305300358367,21869.035081452384,88.0,43.0,45.0,0.4886363636363636,126.41069961887752,16173.005744292186,,,,,125378.0,125418.0,125478.0,125499.0,125513.0,125532.0,125542.0,125559.0,125789.0,125876.0,0.02377654727601778,-0.08443811129591791,0.05850127769348411,-0.15418631542772246,0.008081588336091917
111,111,126554.49260789451,6201.249355592878,16.113672482631568,126644.17805189872,-2932.3152763116896,22.93168860737186,126682.45203459916,50833.29275565384,9.125381703657874,126702.87669549928,-7485.8269463919005,12.739827004320285,126988.8502573094,16421.35955656275,36.78298178842103,0.964562157612742,104.0,63.0,83.0,313.0,396.0,41.0,1163.0,1158.0,42.0,19.0,23.0,0.4523809523809524,153.59888405147942,6237.109981925854,23.0,10.0,13.0,0.4347826086956521,278.23769026466863,2262.4726591990943,20.0,11.0,9.0,0.55,2800.7168262046084,45060.84762326896,129.0,3.0,126.0,0.0232558139534883,1378.1777146411214,22622.726953398036,94.0,47.0,47.0,0.5,135.16979601251504,16955.528763033544,,,,,126535.0,126576.0,126639.0,126657.0,126671.0,126691.0,126700.0,126722.0,126944.0,127035.0,0.0247690223765876,-0.09488668988371543,0.0550961126926625,-0.1841049391751422,0.008231340136419752
112,112,127695.27009175924,6089.711686328096,15.832484628117047,127790.45203459916,-4964.474587191594,7.094498210539527,127824.87669549928,47138.335675585346,9.115610270186654,127844.87669549928,-9063.722670143849,12.227847716784249,128132.08657003148,15904.92192571549,36.97614842924549,0.9636171037365422,105.0,64.0,74.0,322.0,396.0,41.0,1135.0,1142.0,42.0,19.0,23.0,0.4523809523809524,167.2943276222807,6335.620896105586,17.0,8.0,9.0,0.4705882352941176,429.6381741001176,1439.249360444483,19.0,12.0,7.0,0.631578947368421,2735.0719362088553,40732.884811078766,14.0,3.0,11.0,0.2142857142857142,1409.7439670778028,23204.52473249334,92.0,45.0,47.0,0.4891304347826087,110.3002254042176,16296.46009378189,,,,,127677.0,127718.0,127782.0,127799.0,127813.0,127832.0,127842.0,127856.0,128088.0,128178.0,0.027471633509000143,-0.0865425266167319,0.058022242342880344,-0.15553697066675906,0.006934974338093502
113,113,128799.22867088523,6224.595877769161,16.58734748400703,128889.60271279886,-2744.759549554158,20.3837232065742,128926.4529173191,50298.329806783055,9.050484873426162,128947.30135639945,-6149.836910495281,10.191861603456228,129232.06315196824,16182.26242618117,35.5079955159484,0.972834172250142,101.0,59.0,81.0,315.0,396.0,42.0,1107.0,1102.0,43.0,20.0,23.0,0.4651162790697674,146.62725025088105,6638.568736089424,22.0,10.0,12.0,0.4545454545454545,288.72373844998873,1492.6219851305043,21.0,11.0,10.0,0.5238095238095238,2804.886343905116,46870.351129249415,113.0,2.0,111.0,0.0176991150442477,1552.0301381647537,24319.24360829423,92.0,46.0,46.0,0.5,114.45634851196496,16610.45419328326,,,,,128780.0,128822.0,128881.0,128901.0,128916.0,128935.0,128945.0,128962.0,129189.0,129277.0,0.023556107598013402,-0.1051909040618466,0.05576499964670515,-0.25236931657749606,0.0070729509568938165
114,114,129947.92986201512,6024.147269291802,15.500754765860163,130042.45203459916,-4533.945739540994,6.600754246934899,130075.87669549928,48567.86689008129,8.599072140108719,130097.027373699,-6180.0279338680275,14.750729138806284,130382.71802168692,15922.00409007668,36.86977692589182,0.9691328493711224,106.0,65.0,77.0,316.0,393.0,41.0,1150.0,1149.0,42.0,20.0,22.0,0.4761904761904761,176.53825082201104,5849.883393743516,17.0,8.0,9.0,0.4705882352941176,425.9296431699973,922.9571304826663,20.0,12.0,8.0,0.6,2783.3072445352,42459.436949684896,18.0,4.0,14.0,0.2222222222222222,1268.6401714004353,20575.44407416209,94.0,48.0,46.0,0.5106382978723404,133.34057182432244,16425.693097568466,,,,,129928.0,129969.0,130034.0,130051.0,130065.0,130083.0,130093.0,130111.0,130338.0,130427.0,0.029305102104976402,-0.09394237770766031,0.057307586739075364,-0.20528065325530076,0.008374609821098236
115,115,131074.92109357315,6366.388318330481,16.657815081405918,131165.60271279898,-3904.101896425282,10.365705306001985,131203.45203459918,51073.91116544382,8.906693098717726,131223.87669549932,-7088.083260567459,12.739827004320285,131509.12169248346,16556.29806222715,35.747120216659226,0.9702644532999856,103.0,62.0,117.0,278.0,395.0,41.0,1126.0,1128.0,41.0,19.0,22.0,0.4634146341463415,141.17287502894777,6737.40719732909,21.0,9.0,12.0,0.4285714285714285,319.4953481670401,2023.0848751153424,21.0,12.0,9.0,0.5714285714285714,2855.9636633336263,45427.92535778656,73.0,3.0,70.0,0.0410958904109589,1395.4972049217224,22918.24703717007,92.0,47.0,45.0,0.5108695652173914,123.57735836372984,17218.9191847586,,,,,131056.0,131097.0,131159.0,131177.0,131192.0,131212.0,131221.0,131276.0,131466.0,131554.0,0.0221747194751653,-0.0818358118315457,0.05591824863543929,-0.19687934715512942,0.00746406943745891
116,116,132277.2910351469,6449.955573435947,17.44274694726963,132372.83010988194,-4424.982797746792,6.20474397369228,132406.87669549932,47481.838678952205,9.18419513140997,132426.30135639946,-9574.49448342197,10.191861603456228,132714.87971304308,15911.710537980864,36.359647233912696,0.9630065079786012,107.0,64.0,72.0,322.0,394.0,43.0,1207.0,1203.0,44.0,20.0,24.0,0.4545454545454545,138.5838213154144,6829.581477499885,18.0,10.0,8.0,0.5555555555555556,499.3579638856202,303.82157068562765,19.0,12.0,7.0,0.631578947368421,2785.276974164706,42248.22038643256,15.0,3.0,12.0,0.2,1558.3736435152775,24960.7057768368,90.0,46.0,44.0,0.5111111111111111,119.40592928047656,16672.056383742995,,,,,132258.0,132301.0,132365.0,132381.0,132395.0,132414.0,132424.0,132437.0,132669.0,132759.0,0.021486011762029796,-0.11284969608015065,0.05865983819618524,-0.16276302067055007,0.007504279882131939
117,117,133407.99801439777,6421.44798167911,16.264602527654183,133500.02737369903,-3010.9313135188986,17.835757806044274,133535.45203459918,49971.57269461246,8.92899083023558,133556.87669549932,-6179.82248970534,12.739827004320285,133842.24932292226,16221.084169581512,35.43079445482092,0.9693147136942122,105.0,63.0,95.0,299.0,394.0,42.0,1128.0,1129.0,42.0,20.0,22.0,0.4761904761904761,117.04271404610782,6445.773792194449,19.0,8.0,11.0,0.4210526315789473,324.9777524119038,1762.403981460439,21.0,11.0,10.0,0.5238095238095238,2791.248055560543,45203.1247680824,94.0,3.0,91.0,0.0319148936170212,1292.6329534154386,21673.7397747127,91.0,45.0,46.0,0.4945054945054945,136.08835195210364,16595.37191896404,,,,,133388.0,133430.0,133493.0,133510.0,133525.0,133544.0,133554.0,133588.0,133799.0,133887.0,0.01822684141957387,-0.1079326356442518,0.0558567182309528,-0.20916991638008564,0.008389596560216516
118,118,134573.83903164035,6317.352524200255,18.117886308992,134667.89595386665,-3851.1691448225174,7.6499559787779,134703.87669549932,48227.73030097219,8.884056868347274,134725.45203459918,-6536.263084427398,13.423830658636176,135010.96831512955,16070.985957235402,36.92294169160816,0.965334865957044,106.0,62.0,79.0,317.0,396.0,44.0,1164.0,1168.0,44.0,20.0,24.0,0.4545454545454545,145.06217917836713,6934.397041744095,19.0,9.0,10.0,0.4736842105263157,335.80721968717484,1121.8961035074417,20.0,12.0,8.0,0.6,2745.143001884183,42995.503445178736,20.0,3.0,17.0,0.15,1217.532786069326,19820.965141694276,93.0,47.0,46.0,0.5053763440860215,132.13651945064302,16999.374334422115,,,,,134554.0,134598.0,134660.0,134678.0,134693.0,134711.0,134722.0,134739.0,134965.0,135056.0,0.02296249554266109,-0.08719617525463183,0.056920426998175476,-0.1862735282137112,0.008222054315911661
119,119,135690.49638867532,6069.281584502443,15.923155105340715,135780.17805189872,-2747.5304880229764,22.931688607755433,135818.45203459918,50034.403632820795,8.884897169645749,135840.45203459918,-5952.617829771069,15.28779240518434,136125.0783932954,16332.147788510818,36.05078716495228,0.9656194315721056,103.0,63.0,79.0,316.0,395.0,40.0,1119.0,1115.0,41.0,19.0,22.0,0.4634146341463415,127.68538446270558,6445.332144101047,42.0,28.0,14.0,0.6666666666666666,228.187089018967,2030.7208741836464,20.0,11.0,9.0,0.55,2788.5329990836863,44572.67620279663,27.0,3.0,24.0,0.1111111111111111,1228.7943433845562,20417.111223537373,91.0,45.0,46.0,0.4945054945054945,126.3521425241037,16910.67314531452,,,,,135672.0,135712.0,135775.0,135793.0,135808.0,135827.0,135837.0,135854.0,136081.0,136170.0,0.021037973388603814,-0.08305170407159418,0.05573231210163775,-0.20642923475431887,0.007736407002941076
120,120,136877.14610395508,6912.090701321781,21.692156079226063,136975.2593330311,-3441.749235073606,5.379807069327776,137008.87669549932,46921.39264111909,9.27966431584821,137028.7260172996,-8341.052764198275,7.64389620259217,137315.42130909036,16396.593928258666,38.748365091589314,0.9696082306215188,112.0,64.0,71.0,324.0,395.0,48.0,1190.0,1190.0,48.0,21.0,27.0,0.4375,114.57878416594085,7626.373541490103,14.0,7.0,7.0,0.5,457.0584946909467,1085.4673032135693,20.0,12.0,8.0,0.6,2740.170476736696,43410.11134849388,12.0,2.0,10.0,0.1666666666666666,1356.4895640963275,20887.817420174015,96.0,47.0,49.0,0.4895833333333333,133.4645554013976,16916.739298217202,,,,,136856.0,136904.0,136968.0,136982.0,136997.0,137016.0,137027.0,137039.0,137270.0,137363.0,0.016576574167933046,-0.1327983137275752,0.058399171944768215,-0.16262810012648451,0.008139773173950381
121,121,137989.81443832844,6552.806587732691,17.99876851623485,138084.6006868836,-3543.4436622788057,6.442541269663105,138118.45203459918,47848.76511675063,8.749912765706997,138140.45203459918,-5054.763968265205,11.03928286179548,138425.09103268222,16499.286298952862,36.3337537653331,0.9718367723757276,105.0,64.0,73.0,320.0,393.0,41.0,1111.0,1110.0,42.0,19.0,23.0,0.4523809523809524,145.34661187427372,7333.33859172594,17.0,9.0,8.0,0.5294117647058824,417.4340576791509,396.8722304383957,20.0,11.0,9.0,0.55,2724.6857032072808,44474.7726726508,13.0,3.0,10.0,0.2307692307692307,1244.9229647620284,19735.54217956995,90.0,45.0,45.0,0.5,131.50853655911644,17035.385642738205,,,,,137971.0,138012.0,138076.0,138093.0,138108.0,138127.0,138137.0,138149.0,138381.0,138469.0,0.02218081823845872,-0.11780462664692037,0.05694369951991589,-0.2462870615874248,0.007970559100332886
122,122,139164.5534564623,6831.3078534614615,18.758588073874023,139260.4520345993,-4079.434492359028,7.057324660496208,139293.57570439423,49087.45841969737,8.759583333747099,139314.30135639946,-5502.256109880507,10.19186160345586,139601.263100325,16200.203026504358,37.04097231676628,0.9739820032203422,107.0,63.0,91.0,304.0,395.0,44.0,1174.0,1175.0,46.0,21.0,25.0,0.4565217391304347,129.08135452481002,7090.497521912152,17.0,8.0,9.0,0.4705882352941176,430.4361012570354,440.06534922115907,21.0,12.0,9.0,0.5714285714285714,2786.8488999686715,44919.95905204085,74.0,2.0,72.0,0.027027027027027,1485.239153227438,23705.95871933594,95.0,48.0,47.0,0.5052631578947369,105.2819659419792,16246.621316091445,,,,,139145.0,139189.0,139252.0,139269.0,139283.0,139302.0,139312.0,139343.0,139555.0,139647.0,0.018895555184122434,-0.10551366912822412,0.05677313492463057,-0.2699327555037588,0.0064988053402622505
123,123,140263.34912077646,6684.588370126845,16.9330679754356,140358.34473665754,-3780.6999385959575,4.959120021747463,140391.87669549932,47410.99857536968,9.147894668399577,140413.02737369903,-7689.84315891401,11.011483838763075,140698.40408881585,16481.020496926525,37.16770623269522,0.9703692663048532,108.0,66.0,71.0,319.0,390.0,42.0,1095.0,1098.0,43.0,20.0,23.0,0.4651162790697674,167.76737991003816,7318.116186194586,14.0,7.0,7.0,0.5,501.8450450257951,1006.4339096277016,19.0,12.0,7.0,0.631578947368421,2781.805224995796,42692.10798940414,15.0,4.0,11.0,0.2666666666666666,1184.1230469330344,18663.534752748987,89.0,44.0,45.0,0.4943820224719101,128.86078766360012,17448.15738722251,,,,,140244.0,140286.0,140352.0,140364.0,140380.0,140399.0,140409.0,140423.0,140655.0,140742.0,0.02509763812230889,-0.13273866034768309,0.05867425931924922,-0.15398533136016013,0.007818738389872813
124,124,141416.64938587366,6394.987780129656,18.19206545850606,141512.92429532597,-3767.5020659087063,6.088307992559649,141546.45203459918,49943.372757745325,8.893113161407406,141567.30135639946,-5966.836049735692,10.191861603456228,141853.59029736108,16206.356599603983,37.189768809019206,0.975078017700304,107.0,64.0,86.0,310.0,396.0,43.0,1154.0,1155.0,43.0,20.0,23.0,0.4651162790697674,116.22932281647049,6799.5213274315465,17.0,9.0,8.0,0.5294117647058824,462.5819275392365,498.2650391751809,20.0,11.0,9.0,0.55,2793.7192895302073,46194.91827006269,29.0,2.0,27.0,0.0689655172413793,1387.6490104880772,21980.589479496663,92.0,46.0,46.0,0.5,130.8678420503242,17447.97888233706,,,,,141397.0,141440.0,141504.0,141521.0,141535.0,141555.0,141565.0,141590.0,141808.0,141900.0,0.01817506566277035,-0.12278212976312293,0.05593773778718121,-0.23256027129311604,0.008075093328103251
125,125,142502.84309659209,5803.738597790543,14.016534658009537,142595.7482240809,-4426.053071842539,5.906762183234119,142629.87669549932,47404.20419656713,8.954269166225087,142651.02737369903,-7355.032454061312,13.562520939534071,142936.08766736553,16085.493860477249,37.19666803181303,0.9632405118388078,105.0,66.0,75.0,318.0,393.0,39.0,1082.0,1083.0,40.0,20.0,20.0,0.5,166.19263085949544,5716.082743685346,15.0,7.0,8.0,0.4666666666666667,484.8421095305505,168.1703327356838,19.0,12.0,7.0,0.631578947368421,2773.6960061577106,41541.27462718141,31.0,4.0,27.0,0.1290322580645161,1144.6989600568816,18789.380606388386,92.0,45.0,47.0,0.4891304347826087,121.661389173551,16942.23865220088,,,,,142484.0,142523.0,142589.0,142604.0,142618.0,142637.0,142647.0,142664.0,142892.0,142982.0,0.028635443871087546,-0.10954276906777209,0.0585116036260466,-0.15563479389201065,0.00756342268560857
126,126,143610.38722574382,5963.628838839517,16.76188570236726,143701.17805189872,-2941.4275893005665,22.93168860777061,143739.45203459918,50163.59496301642,9.07540328442576,143760.87669549932,-6685.666585849442,12.739827004320285,144047.6197840409,16374.80586222828,34.64020775263474,0.9685143428518144,103.0,61.0,86.0,312.0,398.0,42.0,1115.0,1110.0,42.0,19.0,23.0,0.4523809523809524,124.29173649243688,6186.360612110867,55.0,41.0,14.0,0.7454545454545455,253.22316297568472,2209.945073949571,20.0,11.0,9.0,0.55,2782.0624661246197,45120.94753701513,132.0,3.0,129.0,0.0227272727272727,1210.8278511538074,20113.02501187025,86.0,42.0,44.0,0.4883720930232558,164.44541213620462,17495.874946574786,,,,,143591.0,143633.0,143694.0,143714.0,143728.0,143748.0,143758.0,143780.0,144006.0,144092.0,0.020841628453293085,-0.08608852514227552,0.055459790475059084,-0.1811080220058516,0.010042586979032857
127,127,144723.9545629911,6156.704857170833,17.237392282661045,144818.4520346012,-4612.047022716357,6.9273473017321185,144852.45203459918,48095.976692043376,8.707527002732977,144875.02737369903,-5044.539142540066,17.8357578060484,145159.43881900157,15516.602239768716,36.14111147963891,0.9653121596018436,105.0,63.0,76.0,317.0,393.0,42.0,1108.0,1113.0,43.0,19.0,24.0,0.4418604651162791,151.1808147124355,6852.856381668756,17.0,8.0,9.0,0.4705882352941176,434.1546820446558,1521.055776770005,20.0,11.0,9.0,0.55,2726.7948362641205,43176.6591329154,16.0,4.0,12.0,0.25,1109.0228523296578,17855.93495898015,92.0,46.0,46.0,0.5,147.8953579928076,16390.182861780166,,,,,144705.0,144747.0,144810.0,144827.0,144842.0,144861.0,144871.0,144886.0,145116.0,145203.0,0.024555475407652894,-0.09413492098112905,0.05669486355841528,-0.2198462180573415,0.009531426771626264
128,128,145811.33302685426,6909.5310746724945,17.81798249303495,145908.30135639946,-3529.5885091752475,5.634071783300198,145939.45203459918,49579.326986046544,8.932829592083419,145961.30135639946,-4561.339299219262,9.91386523818418,146244.67000518495,16558.191703281533,37.180650815930335,0.9773008434689132,106.0,64.0,77.0,315.0,392.0,42.0,1093.0,1087.0,43.0,20.0,23.0,0.4651162790697674,154.95226510214317,7150.240952107903,16.0,10.0,6.0,0.625,542.9913802845933,2497.449967924069,21.0,11.0,10.0,0.5238095238095238,2756.130001358529,46698.80815295913,18.0,3.0,15.0,0.1666666666666666,1274.3230591953711,19934.44667837264,93.0,46.0,47.0,0.4946236559139785,113.0256011765774,16928.76913775361,,,,,145792.0,145834.0,145898.0,145914.0,145928.0,145948.0,145959.0,145975.0,146200.0,146290.0,0.022425872816483103,-0.15383985381669127,0.05559030686588799,-0.2793747571932414,0.006825962834708441
129,129,146992.06591473162,5937.686399393012,16.80106719050804,147086.7194872685,-4154.289766727377,6.917670650381849,147121.87669549932,47465.70641068516,9.084567590735444,147142.45203459918,-7824.008248367048,11.948112014078829,147428.63404298408,15197.302537298812,36.098820559597165,0.9601106711646378,106.0,65.0,75.0,320.0,395.0,41.0,1179.0,1182.0,45.0,21.0,24.0,0.4666666666666667,126.980841144071,6041.344105872449,16.0,8.0,8.0,0.5,402.343602913026,736.7466882645494,19.0,12.0,7.0,0.631578947368421,2747.123804615308,42176.31606887365,16.0,3.0,13.0,0.1875,1298.4193112755097,20590.481687419964,91.0,45.0,46.0,0.4945054945054945,116.60481135355056,15532.077471768427,,,,,146973.0,147014.0,147079.0,147095.0,147110.0,147129.0,147139.0,147154.0,147385.0,147474.0,0.021385575559708204,-0.09685015381822536,0.05787597009189131,-0.16595321350108538,0.007672730806494561
130,130,148139.5023474367,6541.173556714296,17.956521086810582,148234.87669549932,-3613.658242680511,5.929732232834641,148267.47271798595,50215.139850164254,8.71116342056874,148288.87669549932,-4315.449409815112,12.73982700432028,148574.68418438348,16998.835958604006,37.03310228494864,0.9760404811829874,107.0,62.0,72.0,322.0,394.0,45.0,1148.0,1146.0,45.0,21.0,24.0,0.4666666666666667,115.87763568534308,6485.6792214561665,16.0,9.0,7.0,0.5625,460.3458899249382,1238.3315207314809,21.0,11.0,10.0,0.5238095238095238,2765.506567547932,46786.84615135798,34.0,3.0,31.0,0.088235294117647,1315.733859392636,20853.930996493444,90.0,45.0,45.0,0.5,125.63170604576388,17536.081952189572,,,,,148119.0,148164.0,148226.0,148242.0,148257.0,148276.0,148286.0,148298.0,148531.0,148620.0,0.017715114066404577,-0.1273905441549078,0.055073162711482236,-0.30488918637306106,0.007390606412798228
131,131,149334.82032003978,6755.945409142949,19.57447982624924,149430.23631786092,-3768.3046636137783,5.718221425095771,149464.87669549932,48414.413735609814,8.891191124291687,149486.45203459918,-6803.102496512573,11.806074252128983,149771.24272759672,16342.74301522683,37.15519326098671,0.9693733173777324,107.0,63.0,74.0,320.0,394.0,44.0,1197.0,1197.0,44.0,20.0,24.0,0.4545454545454545,156.31693994066296,7304.08539410881,16.0,8.0,8.0,0.5,403.54217617157207,712.1684712651479,20.0,12.0,8.0,0.6,2779.593004684116,43636.67904251281,15.0,4.0,11.0,0.2666666666666666,1230.2817554956828,19408.214696860243,91.0,45.0,46.0,0.4945054945054945,144.76467813800826,17171.23044169866,,,,,149315.0,149359.0,149422.0,149438.0,149454.0,149472.0,149483.0,149496.0,149726.0,149816.0,0.0231376854716908,-0.1070885218140982,0.05741250983360906,-0.18084127883217305,0.008858040416050622
132,132,150436.48236913417,6394.043692753301,16.63901785160785,150531.13980154914,-4076.0575370742577,6.396539919489844,150564.45203459918,48641.31137592808,8.87410823778038,150584.7260172996,-6997.984332123779,7.64389620259217,150870.08784547172,16673.279432500694,36.99464871373479,0.9765321143800172,107.0,65.0,75.0,317.0,392.0,42.0,1099.0,1100.0,43.0,20.0,23.0,0.4651162790697674,158.21190372216128,6714.696248561221,16.0,8.0,8.0,0.5,465.6678159833355,213.77881672631088,20.0,11.0,9.0,0.55,2839.2062924062993,45684.12382625161,16.0,2.0,14.0,0.125,1460.4176083813536,23301.109346668803,93.0,46.0,47.0,0.4946236559139785,110.5950775030594,17098.667864739647,,,,,150417.0,150459.0,150524.0,150539.0,150554.0,150573.0,150583.0,150599.0,150826.0,150916.0,0.024743638192756014,-0.11424466209021818,0.05837026618100974,-0.2086911800698673,0.006633072872723522
133,133,151642.90714062913,5935.686021053723,16.28768381801816,151737.45203459918,-4406.248367602221,7.465443844102296,151771.87669549932,48289.06859213234,8.845954876483592,151791.87669549932,-7822.376454377602,11.870749269708808,152079.45147008105,16098.569036442655,36.39964807679413,0.9608445234645372,106.0,63.0,81.0,314.0,395.0,43.0,1209.0,1207.0,45.0,21.0,24.0,0.4666666666666667,159.69853408205776,5801.633395349138,18.0,9.0,9.0,0.5,382.827109808508,667.4803249921988,20.0,12.0,8.0,0.6,2782.237827271959,42033.04436125237,21.0,3.0,18.0,0.1428571428571428,1394.3632965019945,23148.306307755607,94.0,48.0,46.0,0.5106382978723404,147.42269216433294,16587.62967034243,,,,,151623.0,151666.0,151729.0,151746.0,151761.0,151779.0,151789.0,151810.0,152037.0,152124.0,0.026904814964203164,-0.08688278051308163,0.057616307549267255,-0.17825315677842032,0.009157502870634602
134,134,152770.29804887171,6434.4559415961085,16.922587785940234,152863.82601237512,-4287.371580770887,6.7639505534890185,152897.553381073,49407.24967387451,8.732067592826063,152918.87669549932,-5578.77722421468,12.739827004320285,153204.2120897135,16733.57128034997,37.16944406016224,0.9692361831101356,105.0,64.0,78.0,315.0,393.0,41.0,1120.0,1126.0,43.0,20.0,23.0,0.4651162790697674,151.0856524293757,6737.846702172632,16.0,8.0,8.0,0.5,440.38965139524936,640.9799820241228,20.0,12.0,8.0,0.6,2764.8215602434834,44340.58853225433,22.0,3.0,19.0,0.1363636363636363,1303.3123436598207,21612.1684690432,93.0,46.0,47.0,0.4946236559139785,125.4981405475354,17456.468041450993,,,,,152751.0,152792.0,152856.0,152872.0,152887.0,152906.0,152916.0,152934.0,153159.0,153249.0,0.023480719084991965,-0.10271786410359736,0.05595983541875761,-0.23361971472938442,0.007499782230880167
135,135,153953.29615739756,6751.120974731059,19.545923706045446,154048.80935764092,-3306.1982462435867,6.439111482303556,154082.45203459918,48372.1988498049,8.709232725955026,154103.30135639946,-5440.671274583066,7.801817843956342,154390.41247106527,16930.49527188338,38.991897112069466,0.9747946203706604,107.0,63.0,70.0,326.0,396.0,44.0,1190.0,1185.0,45.0,20.0,25.0,0.4444444444444444,141.63598888206687,7361.362954726863,16.0,8.0,8.0,0.5,395.347593607211,275.66373057410465,21.0,11.0,10.0,0.5238095238095238,2759.724671450364,46002.95342559719,12.0,2.0,10.0,0.1666666666666666,1564.980354721328,23715.589062546696,95.0,47.0,48.0,0.4947368421052631,138.08393372699115,17745.41580529452,,,,,153934.0,153978.0,154041.0,154057.0,154072.0,154091.0,154101.0,154111.0,154343.0,154437.0,0.020979625370690258,-0.1195777035017166,0.05705187560357295,-0.2876447180391829,0.008155929965989142
136,136,155094.69011689626,6805.346768548257,17.3543114412147,155189.40930796717,-3753.978714338008,5.733200972571828,155223.87669549932,48122.46266186131,9.143311830955335,155244.45203459918,-8136.583525030805,11.1081317951463,155530.47110947815,16629.521118023396,37.74747249887619,0.9686272901240888,105.0,63.0,73.0,323.0,396.0,42.0,1135.0,1141.0,43.0,20.0,23.0,0.4651162790697674,147.8267222480105,6985.0625676343525,16.0,8.0,8.0,0.5,412.81816686036535,33.54133902044896,19.0,12.0,7.0,0.631578947368421,2785.770553976674,42497.17940903962,16.0,3.0,13.0,0.1875,1389.9611484582688,21963.568198016597,96.0,48.0,48.0,0.5,131.79587596882388,17240.789644752647,,,,,155076.0,155118.0,155181.0,155197.0,155212.0,155231.0,155241.0,155254.0,155484.0,155577.0,0.021722143966448525,-0.10996816931423742,0.05788919352592676,-0.17082859706193534,0.007925416194094786
137,137,156283.37697138498,6453.931678894695,18.301770111634223,156378.4520345992,-3946.295871276617,6.331415575913926,156412.45203459918,49421.42381389697,8.94913457906182,156432.30135639946,-7242.781283689858,10.191861603456228,156719.70912687387,16381.418238799026,38.11224041850008,0.973414028249894,106.0,62.0,73.0,324.0,397.0,44.0,1190.0,1189.0,44.0,19.0,25.0,0.4318181818181818,155.91430096447513,7182.4988819067,17.0,8.0,9.0,0.4705882352941176,413.8698354569608,490.75360082810016,20.0,11.0,9.0,0.55,2794.765671981201,44921.44925069602,65.0,2.0,63.0,0.0307692307692307,1589.7608517947726,24714.513338251985,98.0,50.0,48.0,0.5102040816326531,113.88640584002526,16617.587681865825,,,,,156264.0,156308.0,156370.0,156387.0,156401.0,156421.0,156430.0,156443.0,156673.0,156767.0,0.024158034004967514,-0.10487552098395372,0.056549679396232455,-0.21949590765287666,0.0069521700856332354
