Unnamed: 0,cycle,p_center,p_height,p_width,q_center,q_height,q_width,r_center,r_height,r_width,s_center,s_height,s_width,t_center,t_height,t_width,r_squared,pr_interval,pr_segment,qrs_duration,st_segment,qt_interval,p_duration,pp_interval,rr_interval,fwhm_p,rise_time_p,decay_time_p,rise_decay_symmetry_p,sharpness_deriv_p,sharpness_diff_p,fwhm_q,rise_time_q,decay_time_q,rise_decay_symmetry_q,sharpness_deriv_q,sharpness_diff_q,fwhm_r,rise_time_r,decay_time_r,rise_decay_symmetry_r,sharpness_deriv_r,sharpness_diff_r,fwhm_s,rise_time_s,decay_time_s,rise_decay_symmetry_s,sharpness_deriv_s,sharpness_diff_s,fwhm_t,rise_time_t,decay_time_t,rise_decay_symmetry_t,sharpness_deriv_t,sharpness_diff_t,Average_Heart_Rate,SDNN,RMSSD,NN50,p_on,p_off,q_on,q_off,r_on,r_off,s_on,s_off,t_on,t_off,sharpness_deriv_p_norm,sharpness_deriv_q_norm,sharpness_deriv_r_norm,sharpness_deriv_s_norm,sharpness_deriv_t_norm
0,0,0.0,0.0,0.0,0.0,0.0,0.0,0.0,0.0,0.0,0.0,0.0,0.0,0.0,0.0,0.0,0.0,0.0,0.0,0.0,0.0,0.0,0.0,0.0,0.0,0.0,0.0,0.0,0.0,0.0,0.0,0.0,0.0,0.0,0.0,0.0,0.0,0.0,0.0,0.0,0.0,0.0,0.0,0.0,0.0,0.0,0.0,0.0,0.0,0.0,0.0,0.0,0.0,0.0,0.0,60.456811111300055,422.168027477209,611.5591735060366,844.0,,,,,,,,,,,,,,,
1,1,2086.1506781997123,2737.58862687556,5.095930801703939,2186.2739827004316,-3224.2391665149717,7.643896202591684,2222.503373225143,34492.813773086724,9.82232073678893,2246.4520345991364,-5956.298399911338,7.530842951180774,2482.6848338958243,10571.92096136063,37.50096434082939,0.9403921995351072,97.0,93.0,73.0,269.0,342.0,4.0,,,32.0,20.0,12.0,0.625,461.5724092289481,1418.0914995798346,14.0,4.0,10.0,0.2857142857142857,487.81356644535225,576.1723272446371,24.0,13.0,11.0,0.5416666666666666,1709.3596322523847,30322.692461045503,12.0,3.0,9.0,0.25,1200.047134234567,16051.903018433037,91.0,49.0,42.0,0.5384615384615384,474.64982868546815,11096.70933987433,0.0,0.0,0.0,0.0,2085.0,2089.0,2182.0,2196.0,2210.0,2234.0,2243.0,2255.0,2445.0,2524.0,0.16860546712445465,-0.15129571388856433,0.04955697854914131,-0.20147532135939164,0.04489721692209659
2,2,3103.0273736989925,3191.2329159492756,17.8357578060484,3184.8493218002877,-1821.211188775083,5.095930801728113,3243.0380748207185,35800.58903796246,9.54483123286784,3267.1506781997123,-5436.670323959564,5.095930801728113,3495.539001478263,10040.485339748644,40.7550976941759,0.9512127624209058,83.0,63.0,92.0,269.0,361.0,20.0,1019.0,1022.0,55.0,31.0,24.0,0.5636363636363636,434.4165842657734,2982.257301342715,11.0,3.0,8.0,0.2727272727272727,385.4554531286233,1416.9161527361484,24.0,12.0,12.0,0.5,1810.009208267253,32794.553832507285,8.0,1.0,7.0,0.125,1204.8118027893863,15491.67753485821,95.0,44.0,51.0,0.4631578947368421,446.2548697428373,9939.455671131069,0.0,0.0,0.0,0.0,3099.0,3119.0,3182.0,3186.0,3231.0,3255.0,3266.0,3274.0,3467.0,3543.0,0.13612813470763235,-0.2116478613267659,0.050558084570841655,-0.2216083983389145,0.04444554766453242
3,3,4045.7783053602247,3025.96837792708,16.757734503752584,4122.6015377424565,-3006.5876675789455,5.095930801728113,4199.166221761043,35820.4387283316,9.419702983589264,4226.301356399425,-4522.662247341938,8.410122763712364,4459.2601729956805,10567.117624418488,37.19964992580915,0.9362401885077904,84.0,59.0,118.0,270.0,388.0,25.0,939.0,953.0,28.0,17.0,11.0,0.6071428571428571,464.5323242579088,2904.225963881451,11.0,9.0,2.0,0.8181818181818182,417.3495312668434,3409.07857868958,24.0,12.0,12.0,0.5,1748.085131806169,33464.74996095218,11.0,5.0,6.0,0.4545454545454545,887.0999132473775,12522.969763225794,88.0,45.0,43.0,0.5113636363636364,418.5304740271074,10661.688181929814,0.0,0.0,0.0,0.0,4030.0,4055.0,4114.0,4125.0,4187.0,4211.0,4221.0,4232.0,4414.0,4502.0,0.1535152606505867,-0.138811695320667,0.04880133225234757,-0.19614551446302325,0.03960687189285823
4,4,4974.821948101295,3256.2064469987968,22.931688607749013,5098.027373699837,-2125.3749930777585,17.835757793459756,5134.082282238493,36463.1190347018,9.74950218341727,5159.301356399425,-5859.742404095934,7.205247452889246,5391.958816596257,10850.772395094787,36.882414990357034,0.9464511675227216,130.0,91.0,76.0,261.0,337.0,39.0,926.0,938.0,40.0,13.0,27.0,0.325,416.38738197837216,3220.355989328976,18.0,7.0,11.0,0.3888888888888889,467.16954672049536,221.77756206616775,24.0,12.0,12.0,0.5,1812.4902408548187,33991.112129495225,13.0,4.0,9.0,0.3076923076923077,1146.4558143660647,15698.420616056284,92.0,51.0,41.0,0.5543478260869565,444.7038601602948,10857.865945916206,0.0,0.0,0.0,0.0,4962.0,5001.0,5092.0,5108.0,5122.0,5146.0,5157.0,5168.0,5342.0,5429.0,0.12787499464665425,-0.21980570404848251,0.04970749318317721,-0.19564952438262426,0.04098361332888414
5,5,5948.301356399425,3685.229787964959,10.191861603456228,6065.452034599137,-2422.4743065842767,15.287792405178816,6098.11111461663,36696.5998738533,9.43547602035903,6124.301356399425,-4302.3194750230305,8.94369190259374,6345.777607541463,10818.459762055005,42.39263589740743,0.938567309070188,116.0,102.0,68.0,269.0,337.0,14.0,979.0,961.0,46.0,22.0,24.0,0.4782608695652174,470.4805159800373,2011.7267341764216,12.0,3.0,9.0,0.25,550.5249987820883,327.02153752673826,24.0,12.0,12.0,0.5,1874.0918036348708,34762.8706876221,13.0,2.0,11.0,0.1538461538461538,1018.08286387667,13337.366452618571,111.0,54.0,57.0,0.4864864864864865,452.888905306503,10711.062538532433,0.0,0.0,0.0,0.0,5946.0,5960.0,6062.0,6074.0,6086.0,6110.0,6122.0,6130.0,6300.0,6399.0,0.12766653453103774,-0.22725731178479924,0.051069903208394524,-0.23663581233032913,0.04186260477623435
6,6,6947.301356399425,1601.589332297592,8.910236958676007,7059.522987071219,-3740.3521533362846,5.095930801728113,7087.827958575917,35076.42820864723,9.611013247432286,7111.301356399425,-6217.804672758693,9.936974663342973,7349.808138396545,10358.47378080032,32.193585047407986,0.9511028823673944,107.0,96.0,74.0,261.0,335.0,11.0,999.0,991.0,15.0,8.0,7.0,0.5333333333333333,469.5120472981971,1875.8758294266847,37.0,31.0,6.0,0.8378378378378378,872.1216588089645,7022.654854340789,24.0,13.0,11.0,0.5416666666666666,1807.6843581075525,31388.480951108817,19.0,2.0,17.0,0.1052631578947368,1171.8722115786384,16704.951445003368,71.0,37.0,34.0,0.5211267605633803,373.4122257352802,10339.262124310826,0.0,0.0,0.0,0.0,6942.0,6953.0,7049.0,7061.0,7075.0,7099.0,7109.0,7123.0,7313.0,7384.0,0.29315383027973174,-0.23316565474485004,0.05153558815495109,-0.18847041250955,0.03604896181012773
7,7,7828.849321800287,1201.6067056770255,5.095930801728113,7927.342539803168,-3067.9820799232684,35.48394164305132,7993.363715443921,33018.91226449669,9.452537211294889,8018.027373698993,-6156.753310615556,16.477912759969506,8247.505913355386,9215.76715396258,32.620070525597626,0.9183509644676492,70.0,66.0,137.0,256.0,393.0,4.0,879.0,905.0,8.0,5.0,3.0,0.625,432.2931197734421,1450.767144540259,83.0,39.0,44.0,0.4698795180722891,417.053321345705,1529.059169053899,23.0,12.0,11.0,0.5217391304347826,1580.4751911271476,26992.128517441794,22.0,7.0,15.0,0.3181818181818182,1037.1731499618552,15381.366769430668,73.0,30.0,43.0,0.410958904109589,405.6471846836567,9120.374622796538,0.0,0.0,0.0,0.0,7826.0,7830.0,7896.0,7947.0,7981.0,8004.0,8014.0,8033.0,8218.0,8289.0,0.3597625726712915,-0.1359373394241389,0.047865755796763186,-0.16846105368125558,0.0440166486312794
8,8,9636.150678199714,3001.770155882929,5.095930801728113,9731.698643600574,-1775.396176015443,10.191861603456228,9773.49803242322,30825.133504413727,9.606830175702097,9799.301356399426,-4663.022845178436,8.636477676237206,10025.732298401308,8587.713788164336,40.00791236782216,0.9385374876988768,91.0,85.0,84.0,264.0,348.0,6.0,1809.0,1779.0,29.0,15.0,14.0,0.5172413793103449,482.9110912249142,2638.099093468183,11.0,6.0,5.0,0.5454545454545454,488.0438277859049,3049.6762292086887,25.0,12.0,13.0,0.48,1558.462093156107,29143.599506842504,13.0,2.0,11.0,0.1538461538461538,973.13507557336,12883.343671784043,86.0,37.0,49.0,0.4302325581395348,452.9923403277926,8396.699406169315,0.0,0.0,0.0,0.0,9635.0,9641.0,9726.0,9737.0,9761.0,9786.0,9797.0,9810.0,9990.0,10074.0,0.16087543887345784,-0.27489291369390656,0.05055816199248438,-0.2086918953398612,0.05274888654907325
9,9,10675.453549651364,2162.717081116999,5.095930801728113,10793.575339099858,-2694.927997766059,2.5479654008640567,10820.752375271406,31301.158101306424,9.68441581485901,10844.150678199714,-6161.740859339423,5.095930801728113,11084.808138396544,8862.211771170452,36.8019990934112,0.9220669831135612,118.0,113.0,60.0,267.0,327.0,5.0,1039.0,1050.0,11.0,6.0,5.0,0.5454545454545454,486.96448786382194,2824.476497990565,3.0,2.0,1.0,0.6666666666666666,812.0246382703187,6451.270105331289,25.0,13.0,12.0,0.52,1559.4350607701524,28287.937750397046,14.0,3.0,11.0,0.2142857142857142,1181.3504572612194,15252.799553144236,108.0,71.0,37.0,0.6574074074074074,459.7115452278462,8528.914212550917,0.0,0.0,0.0,0.0,10674.0,10679.0,10792.0,10795.0,10808.0,10833.0,10843.0,10852.0,11034.0,11119.0,0.22516328747554662,-0.3013158937617037,0.04982036305886925,-0.19172348922636573,0.051873229516284855
10,10,11789.698643600574,1684.1468796783777,10.191861603456228,11848.24660900144,-2486.4349146552986,25.47965400851085,11937.378525131731,31097.808907878705,9.650162110609378,11961.876695499284,-5822.687202187658,7.873524522396541,12199.383477496402,9260.067925300928,32.076295592396576,0.9230008283184924,50.0,42.0,136.0,265.0,401.0,8.0,1112.0,1116.0,8.0,6.0,2.0,0.75,459.8073739486517,1451.932063558223,40.0,14.0,26.0,0.35,460.17063139928905,1855.0645663744176,24.0,12.0,12.0,0.5,1522.8173815045152,27349.861868884054,16.0,5.0,11.0,0.3125,1068.670207543621,13895.702698867985,85.0,47.0,38.0,0.5529411764705883,452.6684612793626,9442.402756268728,0.0,0.0,0.0,0.0,11784.0,11792.0,11834.0,11854.0,11925.0,11949.0,11959.0,11970.0,12157.0,12235.0,0.27302094579569053,-0.18507246205681752,0.048968639109448826,-0.18353556879066216,0.048883924495041114
11,11,12864.999988044963,3298.123725392845,22.55157155607087,12989.365529068553,-2387.4834281403655,5.095930801728113,13020.91539930948,32738.86663133534,10.12479723623608,13043.301356399426,-6589.044803073503,6.610718899238842,13280.534155696114,10159.86001139646,39.051433633311504,0.9387736004767786,136.0,99.0,68.0,267.0,335.0,37.0,1073.0,1082.0,66.0,28.0,38.0,0.4242424242424242,447.5433240786707,3056.961356775931,11.0,8.0,3.0,0.7272727272727273,591.5534324565817,3084.798767841965,25.0,13.0,12.0,0.52,1626.3614037616323,29714.75428627581,12.0,2.0,10.0,0.1666666666666666,1215.3226824037438,16518.68597517601,97.0,56.0,41.0,0.5773195876288659,477.8349473166156,10202.874727323764,0.0,0.0,0.0,0.0,12848.0,12885.0,12984.0,12992.0,13008.0,13033.0,13041.0,13052.0,13234.0,13319.0,0.13569634172088652,-0.24777279099999808,0.04967677782116604,-0.18444595821185622,0.04703164677275291
12,12,13881.123304500716,2826.766287507602,12.739827004320285,13996.698643600546,-2307.1737985528084,10.19186160345622,14042.81440842148,34809.618196598254,9.487646509241015,14066.027373698991,-6281.692256658145,7.221717651917165,14309.657460196831,9622.833403075592,32.53758254584469,0.9262181822757928,117.0,102.0,85.0,265.0,350.0,15.0,1018.0,1021.0,42.0,8.0,34.0,0.1904761904761904,425.9827658545562,2944.224713289585,8.0,6.0,2.0,0.75,520.5081416715719,2512.3520494529475,24.0,13.0,11.0,0.5416666666666666,1780.758284215869,30577.785106704396,15.0,4.0,11.0,0.2666666666666666,1294.0218473575303,17383.25295926029,88.0,55.0,33.0,0.625,460.4808355446182,9841.97492679963,0.0,0.0,0.0,0.0,13874.0,13889.0,13991.0,13999.0,14030.0,14054.0,14062.0,14076.0,14263.0,14341.0,0.1506961391669033,-0.22560421845899276,0.05115707601727997,-0.20599892425261035,0.0478529364747645
13,13,14916.50620679564,3939.747430307165,61.151169612068585,14982.054747397986,-2103.2701563310693,-11.890505204032266,15069.261727650188,35538.911891084106,9.931748348191702,15094.301356399426,-4260.21384912522,6.782574837808997,15339.657460196831,10762.375894186893,44.78175185523246,0.9340614312296404,-126.0,-174.0,329.0,268.0,597.0,48.0,1045.0,1028.0,52.0,21.0,31.0,0.4038461538461538,459.4106862385139,5810.576212269157,11.0,6.0,5.0,0.5454545454545454,423.8506097529541,352.17636227424566,24.0,12.0,12.0,0.5,1686.6809668704348,34156.34747184178,11.0,2.0,9.0,0.1818181818181818,1117.595229695683,13508.783959292015,99.0,66.0,33.0,0.6666666666666666,408.4315257342963,10123.51807245352,0.0,0.0,0.0,0.0,14900.0,14948.0,14774.0,15002.0,15057.0,15081.0,15092.0,15103.0,15282.0,15371.0,0.11660917212723346,-0.2015198135518246,0.04746011842004606,-0.2623331291045793,0.03794994058467177
14,14,15895.301356399426,3677.428476915191,10.191861603456225,16006.849321800286,-2194.9512805026593,5.095930801728113,16037.63426575161,35741.42815511407,9.629203530863892,16063.45203459914,-5068.208591453679,10.402512648525462,16295.260172995682,11805.798863047252,40.90627275180387,0.9633594660073744,133.0,102.0,73.0,262.0,335.0,31.0,973.0,967.0,36.0,25.0,11.0,0.6944444444444444,462.361115201664,2452.330551120989,6.0,5.0,1.0,0.8333333333333334,628.0279601596611,3322.7879012067124,24.0,13.0,11.0,0.5416666666666666,1780.486276830364,31157.00443052793,17.0,4.0,13.0,0.2352941176470588,1001.0594032082896,14271.069242216594,94.0,49.0,45.0,0.5212765957446809,474.62653180479487,12748.07994953113,0.0,0.0,0.0,0.0,15870.0,15901.0,16003.0,16008.0,16025.0,16049.0,16060.0,16076.0,16252.0,16338.0,0.12572946506073598,-0.2861238724241015,0.0498157563571114,-0.19751740386067312,0.04020283060135811
15,15,16798.602712798853,2830.294499852289,20.383723206912453,16899.67603917109,-1459.3589682571633,2.5479654008640567,16940.755266783333,32411.313515253816,9.388187174123736,16966.45203459914,-5668.616590393017,8.145730617798291,17205.657460196835,10445.23873939892,32.899253758351655,0.906958464047182,106.0,88.0,77.0,262.0,339.0,18.0,905.0,905.0,29.0,8.0,21.0,0.2758620689655172,497.22266731475025,2523.8181498394492,3.0,2.0,1.0,0.6666666666666666,507.66444368832776,1253.8454298781007,23.0,12.0,11.0,0.5217391304347826,1635.4928776042298,29141.040226528537,14.0,5.0,9.0,0.3571428571428571,1026.0696689115414,13278.175824810973,78.0,47.0,31.0,0.6025641025641025,509.97926685295954,10515.095479520747,0.0,0.0,0.0,0.0,16792.0,16810.0,16898.0,16901.0,16929.0,16952.0,16961.0,16975.0,17165.0,17237.0,0.17567877383102712,-0.3478681083480133,0.05046055528834133,-0.18100883214618715,0.04882408909710634
16,16,18611.30135639943,2754.4733849963654,10.191861603456228,18703.849321800284,-1771.6586431512155,5.095930801727876,18761.015813723392,30504.66203169746,9.591168685253248,18785.876695499283,-5368.835809235722,8.052339489600785,19013.988479641233,9177.711180153645,38.781849289158174,0.9412449162646276,98.0,84.0,92.0,269.0,361.0,14.0,1811.0,1819.0,26.0,14.0,12.0,0.5384615384615384,497.4166614772023,2208.750560229174,16.0,8.0,8.0,0.5,468.6840967454165,1333.233431427295,24.0,12.0,12.0,0.5,1610.2903006176698,28018.54832964499,11.0,4.0,7.0,0.3636363636363636,1003.9105233671744,13960.248896641568,94.0,46.0,48.0,0.4893617021276595,413.98972511525335,9415.150353099052,0.0,0.0,0.0,0.0,18603.0,18617.0,18701.0,18705.0,18749.0,18773.0,18782.0,18793.0,18977.0,19062.0,0.18058503094879555,-0.2645453730927404,0.052788334417356066,-0.18698849416109925,0.045108166621159976
17,17,19735.854871443273,3842.401925604037,37.68734877055988,19813.424660900146,-1538.2712892113127,2.5479654008640567,19892.120238385764,33142.36700504375,9.982846306549748,19920.150678199716,-2215.0750235750775,5.095930801728113,20139.26623499739,10030.716156080158,49.28114768629105,0.929122946182137,96.0,36.0,111.0,272.0,383.0,60.0,1130.0,1130.0,70.0,26.0,44.0,0.3714285714285714,448.36291841719463,4302.663833104457,5.0,1.0,4.0,0.2,427.9059034187854,889.135758314903,26.0,13.0,13.0,0.5,1469.2017446112743,30764.679078801262,10.0,7.0,3.0,0.7,841.1610807021357,7235.746531915457,103.0,44.0,59.0,0.4271844660194174,442.552143436927,11281.764652901467,0.0,0.0,0.0,0.0,19716.0,19776.0,19812.0,19817.0,19879.0,19905.0,19914.0,19923.0,20096.0,20195.0,0.11668818803923295,-0.2781732366845234,0.04433001856468745,-0.37974383339148576,0.04411969559807275
18,18,20941.37829898021,2482.0403245227135,5.095930801728113,21026.69864360057,-2757.313012397051,10.191861603456228,21078.57524126977,33418.777110471725,9.375098560742751,21105.876695499283,-3778.386182921829,7.415637789109377,21336.260172995684,9604.150834481545,36.087292472964414,0.9241948582632716,81.0,75.0,92.0,266.0,358.0,6.0,1199.0,1190.0,8.0,1.0,7.0,0.125,421.51276260809266,2279.7851229692583,22.0,11.0,11.0,0.5,452.88304633782326,2313.1315606747603,25.0,13.0,12.0,0.52,1701.574514788292,28762.056505819095,11.0,4.0,7.0,0.3636363636363636,814.976573218521,8985.800945870305,94.0,51.0,43.0,0.5425531914893617,410.68630202983735,9469.870387798872,0.0,0.0,0.0,0.0,20940.0,20946.0,21021.0,21036.0,21066.0,21091.0,21102.0,21113.0,21294.0,21379.0,0.16982510656395072,-0.16424796325322258,0.05091671993751998,-0.21569435567549608,0.04276133404271
19,19,22058.534654436746,2747.6936645959017,17.157254432123842,22181.72601729957,-3626.118455253411,7.64389620259217,22213.9016791329,32888.39061245194,9.452105018941907,22241.30135639943,-4180.1508090748075,9.04391614432441,22468.010489225635,10395.90903949686,38.40876482424768,0.9392796894200958,136.0,98.0,67.0,270.0,337.0,38.0,1118.0,1133.0,39.0,15.0,24.0,0.3846153846153846,422.66601420183304,3196.556769009181,17.0,8.0,9.0,0.4705882352941176,643.9562705678095,987.9473366809726,24.0,12.0,12.0,0.5,1651.3331587443015,30657.40706259883,11.0,5.0,6.0,0.4545454545454545,865.0422160585356,10927.520619079714,85.0,36.0,49.0,0.4235294117647059,423.8049390312479,11324.839343240175,0.0,0.0,0.0,0.0,22044.0,22082.0,22180.0,22190.0,22202.0,22226.0,22236.0,22247.0,22432.0,22517.0,0.1538257410743762,-0.17758831613315476,0.05021021485068007,-0.2069404324314307,0.04076651088626292
20,20,23166.853462519528,3149.3881224459665,25.266468016891853,23272.698643599895,-2028.333495492206,10.191861603456228,23324.22336575942,34079.14761307638,9.560521268698094,23349.30135639943,-5307.425703842135,7.407575347800705,23579.13641528557,10519.225722715952,39.20934411756339,0.9574190962077463,115.0,76.0,91.0,269.0,360.0,39.0,1107.0,1112.0,39.0,15.0,24.0,0.3846153846153846,446.89902323613654,4105.3408261994355,42.0,29.0,13.0,0.6904761904761905,398.72991919466017,1446.8456711547472,24.0,12.0,12.0,0.5,1681.4212360667843,31625.42588396769,11.0,2.0,9.0,0.1818181818181818,1046.5585051760545,14804.316195624448,92.0,43.0,49.0,0.4673913043478261,418.9289854691434,11832.097324524031,0.0,0.0,0.0,0.0,23152.0,23191.0,23267.0,23275.0,23312.0,23336.0,23347.0,23358.0,23541.0,23627.0,0.141900269468551,-0.1965800594827244,0.04933871161207133,-0.19718759405683875,0.03982507805346156
21,21,24226.69864360057,1729.7657557902496,10.191861603445464,24292.397287201147,-2650.7452943273447,20.383723206912453,24388.897012192225,36163.85117540116,9.428227252243206,24412.027373698995,-6397.099334866883,11.66184137692214,24643.243324905245,10928.518413786129,38.39305214811111,0.925740387626432,56.0,47.0,148.0,264.0,412.0,9.0,1058.0,1062.0,14.0,6.0,8.0,0.4285714285714285,437.72584720197176,3162.979323794483,28.0,15.0,13.0,0.5357142857142857,378.1083142600557,3455.9805659528,24.0,13.0,11.0,0.5416666666666666,1772.539289094748,30114.53101273302,24.0,5.0,19.0,0.2083333333333333,1315.6703767509596,17866.240555241235,99.0,48.0,51.0,0.4848484848484848,467.37436490431486,11018.99124638048,0.0,0.0,0.0,0.0,24221.0,24230.0,24277.0,24297.0,24376.0,24400.0,24408.0,24425.0,24595.0,24689.0,0.25305498489418016,-0.14264226558063353,0.04901411855992921,-0.2056667104698535,0.042766489217306025
22,22,25208.780764697556,3175.862040464305,29.858276411891808,25279.747019751565,-1637.8763305883076,2.4743698614976157,25361.220545318844,33220.59259655465,9.670456952075972,25386.30135639943,-5702.027515554377,7.568892434574146,25623.95881659626,10701.575605445529,40.00130548728539,0.9098449248347406,82.0,43.0,119.0,266.0,385.0,39.0,991.0,975.0,48.0,18.0,30.0,0.375,490.530263647721,4156.568250130899,7.0,4.0,3.0,0.5714285714285714,527.8781861715244,938.3417021292356,24.0,12.0,12.0,0.5,1604.654032207843,31258.187879440135,14.0,5.0,9.0,0.3571428571428571,1080.7659633878245,14072.230775383588,94.0,56.0,38.0,0.5957446808510638,427.0203923606259,10741.867726500852,0.0,0.0,0.0,0.0,25194.0,25233.0,25276.0,25283.0,25349.0,25373.0,25384.0,25395.0,25573.0,25661.0,0.15445578472798094,-0.32229428822743666,0.04830299241483922,-0.1895406432956765,0.03990257211688859
23,23,26131.994278852213,1956.1342374260632,14.654752955658592,26188.69864359878,-2324.5130738899493,10.191861603438786,26283.025957141945,30955.246032368166,9.399991683979655,26309.027373698995,-5542.660321668325,9.437831840251093,26541.260172995684,9570.26142682936,35.677545604128916,0.9212851746239772,56.0,43.0,136.0,265.0,401.0,13.0,918.0,920.0,34.0,19.0,15.0,0.5588235294117647,424.878868231759,1326.4861623724296,19.0,14.0,5.0,0.7368421052631579,452.09786589776974,2492.8400742084204,24.0,12.0,12.0,0.5,1571.022679332667,27936.200901623262,18.0,6.0,12.0,0.3333333333333333,943.5207650897016,13918.469149862936,94.0,49.0,45.0,0.5212765957446809,466.16918358799586,9592.57214163754,0.0,0.0,0.0,0.0,26127.0,26140.0,26183.0,26194.0,26271.0,26295.0,26304.0,26319.0,26504.0,26584.0,0.21720332894475924,-0.19449142746321832,0.050751419571659566,-0.17022886309686475,0.048710182804529545
24,24,27112.150678199716,2626.498328212107,5.095930801728113,27214.424660900146,-2552.411588250174,2.5479654008640567,27249.815546225214,32990.86636765607,9.427060503548368,27274.671177533783,-6204.477625654591,5.095930801728113,27502.52012480107,9322.906716368116,36.905259939802505,0.92590992453355,102.0,96.0,73.0,259.0,332.0,6.0,979.0,970.0,28.0,21.0,7.0,0.75,417.14391848733095,1652.7421714991808,13.0,1.0,12.0,0.0769230769230769,523.7217523877725,260.0863448145617,25.0,13.0,12.0,0.52,1731.7879826574017,29706.338581282605,13.0,2.0,11.0,0.1538461538461538,1038.5309404094735,15363.71320227656,95.0,47.0,48.0,0.4947368421052631,473.0292904497116,8869.5658030574,0.0,0.0,0.0,0.0,27111.0,27117.0,27213.0,27226.0,27237.0,27262.0,27273.0,27286.0,27471.0,27545.0,0.15882131505915956,-0.2051870297089562,0.05249295254504835,-0.16738410597457917,0.050738391452444735
25,25,28135.397287201147,3936.371134562263,20.383723206912453,28234.804132364632,-1386.2649928723538,1.2533506176095102,28291.360460661657,33633.13038061574,9.739947551795588,28319.30135639943,-3479.0764974094577,6.421930614720036,28542.11696307643,9796.361692906268,43.4184441162266,0.9463977926454996,108.0,74.0,93.0,267.0,360.0,34.0,1019.0,1039.0,66.0,31.0,35.0,0.4696969696969697,460.2801951727688,2754.197122132682,5.0,3.0,2.0,0.6,450.3018531607531,1706.7080994674347,25.0,12.0,13.0,0.48,1587.685004444143,32567.779699760824,11.0,5.0,6.0,0.4545454545454545,841.8645608468418,8636.175780601061,103.0,52.0,51.0,0.5048543689320388,395.22795949125344,10329.973314015477,0.0,0.0,0.0,0.0,28124.0,28158.0,28232.0,28237.0,28279.0,28303.0,28314.0,28325.0,28509.0,28592.0,0.11693008088881676,-0.32483100668056514,0.0472059836975269,-0.24197931878580406,0.04034436170087978
26,26,29229.972626301005,3026.640095732628,17.8357578060484,29361.301356399832,-1983.169955777219,10.191861603453114,29393.9848504339,33087.106224154915,10.044108976712716,29418.30135639943,-5673.448550902231,7.06067975162005,29647.360646157213,10416.006234530583,39.32428368835601,0.9461042084305696,141.0,124.0,69.0,269.0,338.0,17.0,1095.0,1103.0,17.0,13.0,4.0,0.7647058823529411,412.50314307965175,3689.414488748797,11.0,3.0,8.0,0.2727272727272727,538.2144579046729,1057.9756148335655,25.0,13.0,12.0,0.52,1591.933117781072,29619.26844931135,16.0,4.0,12.0,0.25,1156.3663288914406,14168.799298843798,100.0,47.0,53.0,0.47,458.85619480063286,10857.997888564896,0.0,0.0,0.0,0.0,29217.0,29234.0,29358.0,29367.0,29381.0,29406.0,29416.0,29427.0,29608.0,29696.0,0.13629078120694138,-0.271390990135156,0.0481133982221418,-0.20382071301370086,0.04405298772570407
27,27,30318.69864360057,2447.509575764159,10.191861603456228,30445.30135640435,-2188.062792143264,10.191861603456228,30481.89578215552,34736.53446954999,9.643273804597888,30507.45203459914,-4816.887991218383,7.532161808673203,30735.075308314455,9476.740659411573,37.13254531503739,0.9240235682145652,130.0,116.0,73.0,265.0,338.0,14.0,1090.0,1088.0,16.0,8.0,8.0,0.5,407.6873792044779,2592.3660909445325,19.0,8.0,11.0,0.4210526315789473,474.1124060473377,240.1082046246886,24.0,12.0,12.0,0.5,1701.7136240711975,32122.47080422192,12.0,3.0,9.0,0.25,1086.6809572879413,14752.560119081902,96.0,45.0,51.0,0.46875,417.68031634285546,9222.575734069223,0.0,0.0,0.0,0.0,30313.0,30327.0,30443.0,30456.0,30470.0,30494.0,30504.0,30516.0,30695.0,30781.0,0.1665723326443739,-0.21668135290712218,0.0489891593982387,-0.22559813706879997,0.04407425837152643
28,28,31386.123304500717,3134.4291407559076,12.739827004320285,31514.876695499283,-2196.19013425157,12.739827004320285,31547.632065295267,35225.98897603484,9.907417365380796,31572.30135639943,-5148.819797210297,8.189232490843922,31809.109494795972,10157.841193615275,35.56099438300669,0.94748903770813,131.0,119.0,76.0,265.0,341.0,12.0,1067.0,1064.0,51.0,12.0,39.0,0.2352941176470588,434.3104002179951,3341.2913612901357,14.0,7.0,7.0,0.5,560.8543407341858,2512.0137051584734,24.0,13.0,11.0,0.5416666666666666,1742.981119836219,32224.20253879235,19.0,4.0,15.0,0.2105263157894736,1095.1528855931508,14453.966389968844,93.0,49.0,44.0,0.5268817204301075,403.205588784337,10143.622446248764,0.0,0.0,0.0,0.0,31377.0,31389.0,31508.0,31522.0,31535.0,31559.0,31570.0,31584.0,31765.0,31849.0,0.13856124375912854,-0.25537604052907603,0.049479976872246645,-0.2126997892189818,0.03969402367087334
29,29,32375.27398270043,2483.8483724086177,7.64389620259217,32507.208641588382,-2427.898670621887,5.0959308017133935,32536.65212048116,33689.50477666277,9.67229740951115,32560.602712798853,-6506.691996759819,9.008398498026764,32794.95881659626,10778.713859541382,35.236085305596966,0.9438124243068496,136.0,129.0,67.0,259.0,326.0,7.0,990.0,988.0,8.0,5.0,3.0,0.625,462.2727818946088,3147.7334857302712,6.0,1.0,5.0,0.1666666666666666,709.0022257369887,4101.826633563811,24.0,13.0,11.0,0.5416666666666666,1715.5190134303923,28597.088150136955,19.0,6.0,13.0,0.3157894736842105,1133.217378564481,16250.727363592208,87.0,46.0,41.0,0.5287356321839081,450.9008836435024,11129.463172249483,0.0,0.0,0.0,0.0,32370.0,32377.0,32506.0,32512.0,32524.0,32548.0,32556.0,32573.0,32764.0,32832.0,0.18611151430565678,-0.29202298856870473,0.05092146722853458,-0.17416182894914908,0.041832531183148745
30,30,33305.510860328744,2956.1513730345214,7.64389620259217,33438.30135639943,-2725.1583458361706,10.191861603456228,33468.036568297684,31638.931477690305,9.762110986135404,33492.027373699,-5918.161237321184,9.516445087886304,33716.76033467761,9676.10593380129,42.08283341021953,0.9105034348260872,138.0,125.0,71.0,262.0,333.0,13.0,931.0,935.0,14.0,11.0,3.0,0.7857142857142857,440.3725550012811,3023.10925962706,11.0,5.0,6.0,0.4545454545454545,746.9929369866178,3646.1974683278295,23.0,12.0,11.0,0.5217391304347826,1613.1610781483494,27421.05934494483,18.0,5.0,13.0,0.2777777777777778,1053.156225058921,14150.882122790788,105.0,51.0,54.0,0.4857142857142857,436.94792930537017,10733.67567705336,0.0,0.0,0.0,0.0,33295.0,33308.0,33433.0,33444.0,33456.0,33479.0,33488.0,33504.0,33689.0,33766.0,0.1489682020407615,-0.2741099203016826,0.050986585286100596,-0.17795328360057072,0.04515741480040967
31,31,34231.150678199716,2771.5179313594786,5.095930801728113,34282.849321800284,-1702.0625898479334,5.095930801728113,34377.70607687035,31246.72531959294,9.448507486176856,34402.027373699,-5746.7254420604495,11.896045079455076,34632.30116357554,9241.776195016197,34.68609719941001,0.9173324282883436,58.0,46.0,137.0,253.0,390.0,12.0,927.0,908.0,12.0,9.0,3.0,0.75,519.5613612151608,2262.343061256479,9.0,8.0,1.0,0.8888888888888888,482.8365531210912,1391.5479296656442,23.0,13.0,10.0,0.5652173913043478,1562.3886284084815,26457.17754839201,19.0,4.0,15.0,0.2105263157894736,982.515895013761,14785.71502032314,77.0,36.0,41.0,0.4675324675324675,447.59075608113267,10027.164458853804,0.0,0.0,0.0,0.0,34222.0,34234.0,34280.0,34284.0,34365.0,34388.0,34398.0,34417.0,34601.0,34670.0,0.1874645497820419,-0.28367731950693365,0.050001675773326607,-0.17096969481484164,0.04843124813198836
32,32,35223.849321800284,2941.5742995640994,5.095930801728113,35307.69864360057,-1525.8394042533102,10.191861603456228,35382.47165583118,31191.654256294896,9.671757700684974,35406.45203459914,-4956.553789408246,6.803683738718417,35635.68837968142,9138.575067694508,41.14566936844693,0.9414500434933356,81.0,70.0,114.0,268.0,382.0,11.0,991.0,1004.0,44.0,15.0,29.0,0.3409090909090909,455.1262346284631,2695.3651601213105,20.0,9.0,11.0,0.45,432.03215408673327,1243.9082326884677,24.0,12.0,12.0,0.5,1538.7644014409211,30418.92370044825,13.0,3.0,10.0,0.2307692307692307,1110.9643035123968,15192.346637964629,94.0,44.0,50.0,0.4680851063829787,499.7302647801768,10506.66410193834,0.0,0.0,0.0,0.0,35221.0,35232.0,35302.0,35311.0,35370.0,35394.0,35403.0,35416.0,35594.0,35684.0,0.15472199179055465,-0.2831439225402322,0.04933256789772148,-0.2241404715281084,0.0546836088863304
33,33,36300.79600247154,3401.7790722346977,17.8357578060484,36418.15067819971,-1491.6765397575423,5.095930801728113,36456.13358199132,32418.945026767084,9.60610003703832,36483.30135639943,-3506.279064217977,6.802634479602052,36716.68483389583,10742.195210681735,42.5980918714267,0.9212567372159034,116.0,96.0,79.0,269.0,348.0,20.0,1078.0,1075.0,20.0,7.0,13.0,0.35,456.5120504041257,4983.697060579544,11.0,8.0,3.0,0.7272727272727273,436.2096323952956,96.40847296947254,24.0,12.0,12.0,0.5,1543.10238823376,29740.883798433664,11.0,5.0,6.0,0.4545454545454545,856.5083406707416,10297.654604541269,99.0,58.0,41.0,0.5858585858585859,439.5265753637586,11683.195638484813,0.0,0.0,0.0,0.0,36294.0,36314.0,36410.0,36421.0,36444.0,36468.0,36481.0,36489.0,36659.0,36758.0,0.13419803012199547,-0.2924291029382263,0.047598784814239924,-0.24427842877981903,0.04091589910102413
34,34,37449.69864360057,2928.207668591198,10.191861603456228,37524.273982700426,-1018.2161433686472,7.64389620259217,37599.49967020257,33898.03288289291,9.72372973701157,37627.30135639943,-3380.199991147497,5.909787544170228,37847.023271836326,9825.118183449524,44.56773800416365,0.9257350007116976,76.0,48.0,113.0,264.0,377.0,28.0,1147.0,1142.0,56.0,20.0,36.0,0.3571428571428571,439.04684675847267,2146.8894169480272,7.0,4.0,3.0,0.5714285714285714,435.72265852582984,1021.196227523418,25.0,12.0,13.0,0.48,1548.5066146808936,32994.13178863989,11.0,5.0,6.0,0.4545454545454545,890.6549274643858,8623.238604652826,104.0,49.0,55.0,0.4711538461538461,445.0366998034892,12336.067883626269,0.0,0.0,0.0,0.0,37444.0,37472.0,37520.0,37527.0,37587.0,37612.0,37623.0,37633.0,37812.0,37897.0,0.1499370592693326,-0.4279274703741125,0.045681311951950104,-0.2634917844497212,0.04529581135758311
35,35,38578.84932180029,2188.68740676215,5.095930801728113,38704.178051898714,-1930.3354107849432,22.9316886077764,38742.55408461775,34165.30103894358,10.085100247097454,38768.30135639943,-4804.3790082921505,6.97119097373018,38996.65772017612,9246.597731028787,38.45472012564891,0.9317612322848076,122.0,116.0,76.0,267.0,343.0,6.0,1130.0,1147.0,23.0,6.0,17.0,0.2608695652173913,426.4127113873216,2680.8509723717125,19.0,6.0,13.0,0.3157894736842105,471.89583559994577,1129.2644911478849,25.0,13.0,12.0,0.52,1621.9098557902266,31068.131537803667,11.0,2.0,9.0,0.1818181818181818,1055.4377824303017,14192.004956608667,96.0,46.0,50.0,0.4791666666666667,432.19949616535376,10773.095458625345,0.0,0.0,0.0,0.0,38576.0,38582.0,38698.0,38717.0,38730.0,38755.0,38766.0,38774.0,38956.0,39041.0,0.19482577094832296,-0.2444631295491057,0.047472429818238106,-0.21968245648577303,0.046741461966602366
36,36,39655.54796540086,3046.769091556921,15.28779240518434,39770.69864360057,-2148.7027442183557,10.191861603456228,39815.871496401654,34375.75201954458,9.85717318235358,39840.45203459914,-4938.210812984754,6.643015289297102,40084.53415569612,11547.710227230666,42.05796310491144,0.9355803116854152,118.0,82.0,85.0,273.0,358.0,36.0,1075.0,1070.0,36.0,9.0,27.0,0.25,436.72330656610177,4470.885703137886,19.0,14.0,5.0,0.7368421052631579,406.4878049141895,2691.3521991619873,25.0,13.0,12.0,0.52,1649.0422092584638,31759.907140592015,13.0,3.0,10.0,0.2307692307692307,1174.9877343776934,16032.800972706542,100.0,59.0,41.0,0.59,460.85017608060576,11901.028532345976,0.0,0.0,0.0,0.0,39647.0,39683.0,39765.0,39773.0,39803.0,39828.0,39837.0,39850.0,40034.0,40123.0,0.14333981126969259,-0.18917824068869032,0.04797108753637997,-0.23793794531576654,0.0399083599269641
37,37,40692.12330450071,3909.1423767517463,12.739827004320285,40824.41382109552,-1809.66191121883,5.095930801728113,40855.00474592942,36793.22319865316,9.783786971609883,40880.30135639943,-4489.501510586665,7.187503346449875,41105.93476532596,11129.949109243184,46.07217974822281,0.9457976145041256,138.0,124.0,66.0,272.0,338.0,14.0,1037.0,1039.0,14.0,7.0,7.0,0.5,416.9702698586364,4348.463255243898,6.0,1.0,5.0,0.1666666666666666,640.5013222859532,3847.409118526432,25.0,13.0,12.0,0.52,1799.7316770931357,34858.65718971931,12.0,3.0,9.0,0.25,1111.1361903148502,13299.4723821791,118.0,59.0,59.0,0.5,462.8428382944611,10940.263912756294,0.0,0.0,0.0,0.0,40685.0,40699.0,40823.0,40829.0,40842.0,40867.0,40878.0,40889.0,41059.0,41161.0,0.10666540884732695,-0.35393424501848936,0.048914759856076316,-0.2474965623008895,0.04158535081800869
38,38,41646.30135639943,1576.2616623801011,10.191861603456228,41732.50920834287,-4120.708066566583,5.095930801728113,41790.067200675294,35297.818021391875,9.168070482260584,41814.178051898714,-4878.590468356716,22.93168860777651,42047.50860968283,10039.80293641641,34.32492868886542,0.9279764355161576,78.0,70.0,106.0,263.0,369.0,8.0,958.0,935.0,17.0,8.0,9.0,0.4705882352941176,436.3323699455963,843.5548545889535,32.0,11.0,21.0,0.34375,488.02356569577773,3009.189301321305,23.0,12.0,11.0,0.5217391304347826,1694.0639039940163,29087.243770079484,26.0,6.0,20.0,0.2307692307692307,1101.9034551027446,14678.025107010722,84.0,41.0,43.0,0.4880952380952381,454.6771489445647,10677.299145399193,0.0,0.0,0.0,0.0,41644.0,41652.0,41722.0,41734.0,41778.0,41801.0,41809.0,41828.0,42012.0,42091.0,0.27681468144492544,-0.1184319679560324,0.04799344545794152,-0.2258651268742189,0.045287457515262385
39,39,42503.54796540086,5173.947117968404,15.28779240518434,42630.7245843211,-3477.6843243290127,-0.1430999213314235,42665.478099145046,32816.694841466306,10.041479129226508,42690.15067819971,-4746.430862257647,5.095930801728113,42917.986190295254,10674.105627257864,46.538874594438425,0.903052413195693,135.0,87.0,63.0,272.0,335.0,48.0,853.0,877.0,80.0,33.0,47.0,0.4125,492.7273690466503,4270.18771223821,2.0,1.0,1.0,0.5,531.0010781686078,2194.549464895189,26.0,13.0,13.0,0.5,1552.640767049115,31356.824526526427,14.0,3.0,11.0,0.2142857142857142,1065.3796167320102,13030.596711671633,98.0,47.0,51.0,0.4795918367346938,492.1537416567509,12696.151817164806,0.0,0.0,0.0,0.0,42495.0,42543.0,42630.0,42685.0,42653.0,42678.0,42689.0,42693.0,42876.0,42965.0,0.09523239372421805,-0.15268811906067972,0.047312527192325274,-0.22445910361902136,0.04610725796079491
40,40,44410.424660900135,1084.7722813230357,2.5479654008608508,44524.60271279886,-3578.32739796894,20.383723206912453,44559.46477667103,31194.017184040567,10.093012648333811,44584.60271279886,-6051.216498326947,14.553981926269806,44831.205425597705,8027.281190346621,31.36324149872447,0.9153626927914866,110.0,107.0,79.0,256.0,335.0,3.0,1909.0,1892.0,3.0,1.0,2.0,0.3333333333333333,404.3777455096739,1632.5943993676292,26.0,15.0,11.0,0.5769230769230769,547.151415004744,829.3747603954096,23.0,11.0,12.0,0.4782608695652174,1490.4990422780895,26972.531649767952,19.0,6.0,13.0,0.3157894736842105,934.3276700134466,14571.281592798345,89.0,63.0,26.0,0.7078651685393258,504.92550699636985,7036.774931295959,0.0,0.0,0.0,0.0,44409.0,44412.0,44519.0,44536.0,44548.0,44571.0,44580.0,44598.0,44788.0,44854.0,0.3727766209295808,-0.15290703005971654,0.04778156764755058,-0.15440327912111085,0.06290118597110798
41,41,45628.575339099865,1389.692730731843,1.8937137198420837,45709.60271279886,-3913.149972780173,20.383723206912453,45768.183179923435,30372.93391269459,9.7877235263203,45792.45203459914,-6326.9889415779035,9.373088693113989,46023.665946982845,8729.87416013621,34.31537736291108,0.9264648724678304,78.0,75.0,98.0,263.0,361.0,3.0,1219.0,1209.0,3.0,2.0,1.0,0.6666666666666666,464.43415024394017,1143.1965606812223,46.0,13.0,33.0,0.2826086956521739,445.8688916096066,3621.3706805350416,24.0,13.0,11.0,0.5416666666666666,1513.033223095306,27441.808262631064,17.0,4.0,13.0,0.2352941176470588,1086.7713028810472,16514.414079044414,80.0,37.0,43.0,0.4625,385.0086615467627,8600.065998018137,0.0,0.0,0.0,0.0,45627.0,45630.0,45705.0,45729.0,45755.0,45779.0,45789.0,45803.0,45992.0,46066.0,0.3341991650192765,-0.11394117136094081,0.04981518174847517,-0.17176753632985087,0.04410242971254416
42,42,46770.39728720114,2831.1002510380463,20.383723206912453,46877.84932180029,-2487.501959147918,5.095930801728113,46928.86846419328,33593.99112679046,9.578009481945376,46955.30135639943,-3355.0481023538437,7.042473879124033,47194.26017299569,10534.22782178529,39.53920073123689,0.925348972300558,116.0,98.0,86.0,276.0,362.0,18.0,1138.0,1159.0,40.0,30.0,10.0,0.75,429.64017587597726,2249.397908825728,6.0,3.0,3.0,0.5,447.519337766111,3030.7993383924845,25.0,13.0,12.0,0.52,1602.515188323529,30138.5697623125,12.0,6.0,6.0,0.5,911.432235323115,10576.176496289982,111.0,68.0,43.0,0.6126126126126126,490.18582078164616,10565.138783771192,0.0,0.0,0.0,0.0,46759.0,46777.0,46875.0,46881.0,46916.0,46941.0,46950.0,46961.0,47145.0,47237.0,0.15175731615948468,-0.17990712976942,0.047702435303840954,-0.27165996060791797,0.04653267701007171
43,43,47864.09700116083,3025.062642776674,25.47965400864057,47988.635287009565,-2365.128251212918,5.366930076879389,48019.53481710444,33183.63247576234,9.84872932066456,48042.30135639943,-6100.3801631898405,6.535576548563929,48271.6406296371,10102.69373846441,42.416953311421864,0.9480310371172578,130.0,103.0,65.0,272.0,337.0,27.0,1099.0,1093.0,59.0,20.0,39.0,0.3389830508474576,445.6882311984062,2626.6982524521272,7.0,3.0,4.0,0.4285714285714285,664.2206844101509,1797.382961050414,24.0,13.0,11.0,0.5416666666666666,1660.6814671798568,29543.67651557709,15.0,4.0,11.0,0.2666666666666666,1285.503681903706,15456.833218476626,104.0,49.0,55.0,0.4711538461538461,451.13501164622863,10360.036117087982,0.0,0.0,0.0,0.0,47856.0,47883.0,47986.0,47993.0,48007.0,48031.0,48040.0,48051.0,48238.0,48323.0,0.14733190146082845,-0.2808391824289089,0.05004519828842835,-0.21072517572929853,0.04465492306557838
44,44,48932.575339099865,2155.1048202117713,2.547965400864047,49059.45203459993,-4075.821531219692,15.2877924050935,49092.05727719722,33590.40128891721,10.037868500262997,49115.30135639943,-7446.74296470773,9.289842881033218,49349.17122372353,9671.040233337446,35.895885974409744,0.925483238354442,127.0,119.0,74.0,267.0,341.0,8.0,1067.0,1072.0,8.0,7.0,1.0,0.875,489.0813701274273,2307.0462875319154,16.0,6.0,10.0,0.375,571.5400502009489,334.9694220732763,23.0,12.0,11.0,0.5217391304347826,1751.3134422320773,31015.589763066146,17.0,3.0,14.0,0.1764705882352941,1219.048921628308,17744.35289247797,84.0,39.0,45.0,0.4642857142857143,473.7083501970218,11589.71222169127,0.0,0.0,0.0,0.0,48926.0,48934.0,49053.0,49068.0,49080.0,49103.0,49113.0,49127.0,49311.0,49394.0,0.22694087338144775,-0.14022695690257939,0.052137318252577836,-0.16370229607839748,0.04898215070640302
45,45,49942.15067819971,2444.336687058098,5.095930801728113,50053.027373699,-2570.1624928579936,17.8357578060484,50087.50542531856,35303.25574524417,9.763436829251567,50113.87669549929,-5936.747504358445,9.987826376689751,50342.78358139282,10418.279528039126,39.2033162239928,0.943276152988106,108.0,99.0,79.0,269.0,348.0,9.0,1010.0,996.0,11.0,6.0,5.0,0.5454545454545454,439.1701318765834,1802.57169723246,19.0,9.0,10.0,0.4736842105263157,560.1314542526978,271.47324705072447,23.0,12.0,11.0,0.5217391304347826,1742.2647534617925,31993.674624476393,12.0,3.0,9.0,0.25,963.6177210567153,13268.579724269504,88.0,39.0,49.0,0.4431818181818182,436.8319398769251,12513.92971455234,0.0,0.0,0.0,0.0,49936.0,49945.0,50044.0,50063.0,50076.0,50099.0,50111.0,50123.0,50306.0,50392.0,0.17966842874053915,-0.21793620279231357,0.04935139030899436,-0.16231408196984598,0.04192937410646951
46,46,50843.69864360057,3006.480072548291,10.191861603456228,50969.75753246106,-2375.742726804772,4.769998046598025,50997.999277575174,34014.7308484006,9.768651988479014,51024.30135639943,-4963.595933478656,7.607120755254753,51248.846807315625,11129.52831071478,42.09333869432453,0.9230815782625896,130.0,116.0,68.0,269.0,337.0,14.0,899.0,910.0,65.0,29.0,36.0,0.4461538461538462,418.06554788320256,2653.867023544907,12.0,8.0,4.0,0.6666666666666666,803.0975671142764,6573.221274606871,24.0,12.0,12.0,0.5,1636.1847752903798,31550.045863620533,8.0,2.0,6.0,0.25,1042.16446843141,12783.0599379427,94.0,43.0,51.0,0.4574468085106383,494.22230832640565,12510.300997421626,0.0,0.0,0.0,0.0,50832.0,50846.0,50962.0,50973.0,50986.0,51010.0,51022.0,51030.0,51220.0,51299.0,0.13905482085196408,-0.33804062959055897,0.048102240837437485,-0.20996158478617855,0.044406402008124714
47,47,51777.60271279886,2753.806584295858,20.383723206912453,51904.856851834375,-3301.3154119527076,4.140022068891767,51933.007275697935,31546.47874970443,9.890460944104284,51957.30135639943,-5509.7660199829925,8.668145550627496,52198.808138396555,10049.249294931378,35.86093892581783,0.9236811421200356,128.0,110.0,67.0,265.0,332.0,18.0,939.0,937.0,45.0,24.0,21.0,0.5333333333333333,442.80311693974255,2371.124498633113,7.0,4.0,3.0,0.5714285714285714,797.0289702086483,4236.967655720065,25.0,13.0,12.0,0.52,1571.7585951623676,28148.77302769003,17.0,5.0,12.0,0.2941176470588235,1066.563821678419,13841.47349112252,94.0,55.0,39.0,0.5851063829787234,450.14067713665554,9928.66757900031,0.0,0.0,0.0,0.0,51773.0,51791.0,51901.0,51908.0,51920.0,51944.0,51955.0,51968.0,52147.0,52233.0,0.16079673840019024,-0.2414276949493931,0.04982358277235915,-0.19357697183694766,0.044793463066310504
48,48,52761.09593080172,3275.4997065188695,24.051727805642965,52890.30135639943,-1924.3796603099793,10.191861603455704,52919.44301924885,31255.39731078239,10.056947857253984,52943.45203459914,-6658.525269848883,7.708787646803617,53175.61991670371,9542.75330756006,39.40276301756127,0.9542544897124224,144.0,118.0,65.0,270.0,335.0,26.0,975.0,985.0,45.0,23.0,22.0,0.5111111111111111,479.1875878532282,3050.723505649101,8.0,2.0,6.0,0.25,674.6497665363424,4602.976255896705,24.0,12.0,12.0,0.5,1536.8425550931026,30124.343400952603,14.0,3.0,11.0,0.2142857142857142,1170.1615329011531,16572.785319512557,93.0,44.0,49.0,0.4731182795698925,416.6629990048235,10363.17298509687,0.0,0.0,0.0,0.0,52744.0,52770.0,52888.0,52896.0,52907.0,52931.0,52940.0,52953.0,53146.0,53223.0,0.1462944987903841,-0.35058038725459706,0.04917046933724075,-0.17573884388482772,0.04366276540699531
49,49,53863.45203459914,3634.072543960978,15.28779240518432,53976.424660900135,-2440.7489174100083,2.5479654008640567,54005.59449315871,32765.47634048294,9.64531043522306,54035.15067819971,-2041.0179155538535,5.0959308017278,54273.26017299569,10510.155693739993,44.50752792555467,0.9355777054955324,115.0,101.0,63.0,278.0,341.0,14.0,1110.0,1086.0,40.0,27.0,13.0,0.675,420.0677748864292,3534.2450018220225,7.0,1.0,6.0,0.1428571428571428,682.6192626396873,3746.3945356881454,25.0,13.0,12.0,0.52,1556.0997643861724,29786.822968764147,9.0,6.0,3.0,0.6666666666666666,624.0543176008961,5578.799805977652,105.0,62.0,43.0,0.5904761904761905,447.2379909554909,9633.220001703108,0.0,0.0,0.0,0.0,53860.0,53874.0,53975.0,53982.0,53993.0,54018.0,54032.0,54038.0,54216.0,54316.0,0.11559146654474156,-0.27967615094306636,0.047492053776845435,-0.3057564134274401,0.04255293679634761
50,50,55000.753390998565,3830.595575343511,25.47965400864057,55089.00146389708,-1181.0024847347277,1.316290906536531,55148.25804538,33183.60166252246,9.782683728912485,55174.15067819971,-4022.31960503847,5.095930801728113,55412.68483389583,10396.386590327164,38.14049881859026,0.9173893330432028,91.0,63.0,91.0,277.0,368.0,28.0,1139.0,1145.0,66.0,34.0,32.0,0.5151515151515151,458.5998129497537,3705.097879057872,5.0,3.0,2.0,0.6,461.7907910025688,1506.6990944166596,26.0,13.0,13.0,0.5,1578.9210853081706,30909.590582451652,10.0,3.0,7.0,0.3,1017.048076485952,12076.329640288724,105.0,64.0,41.0,0.6095238095238096,379.863588296069,10352.209285743817,0.0,0.0,0.0,0.0,54995.0,55023.0,55086.0,55091.0,55135.0,55160.0,55171.0,55177.0,55367.0,55454.0,0.11972023773578042,-0.3910159351665501,0.047581365680730285,-0.2528511347561664,0.036538039923361014
51,51,56105.69864360057,4796.326358830466,10.191861603456228,56234.84932180029,-2369.5788706009243,4.0771087350025494,56264.57831889788,32499.696163382818,9.750978699841127,56292.15067819971,-3922.8328161440554,5.095930801728113,56520.34406057971,10751.993664744525,43.749432417085664,0.9539403478057714,138.0,124.0,63.0,277.0,340.0,14.0,1099.0,1113.0,45.0,18.0,27.0,0.4,520.6440175968868,4446.488836693289,13.0,8.0,5.0,0.6153846153846154,731.5973981693526,4688.1277898759,25.0,13.0,12.0,0.52,1554.139568491241,28483.516375792497,13.0,7.0,6.0,0.5384615384615384,845.22253662731,9395.952075791209,100.0,47.0,53.0,0.47,453.1899830360268,12181.86172768953,0.0,0.0,0.0,0.0,56094.0,56108.0,56232.0,56239.0,56252.0,56277.0,56285.0,56295.0,56477.0,56572.0,0.10855058197579373,-0.3087457468692822,0.04782012609220265,-0.215462288667739,0.04214939081688855
52,52,57194.424660900135,2302.1439797665307,2.5479654008640567,57296.30135639943,-2472.526535675849,10.191861603456228,57361.20068507347,33659.21993256643,9.68448210892756,57384.87669549929,-5935.435405435682,6.511790207955799,57621.26017299569,10413.510338663627,37.78090964676108,0.9163922873423352,101.0,90.0,100.0,270.0,370.0,11.0,1090.0,1098.0,11.0,1.0,10.0,0.0909090909090909,455.9658091555633,3435.4472467989244,14.0,2.0,12.0,0.1428571428571428,447.6924296192499,2222.3706592155186,24.0,12.0,12.0,0.5,1691.4334913955277,30958.51426623527,12.0,3.0,9.0,0.25,1175.5216513142166,16085.73581540042,88.0,43.0,45.0,0.4886363636363636,506.342400688911,10632.066958522746,0.0,0.0,0.0,0.0,57193.0,57204.0,57294.0,57302.0,57349.0,57373.0,57382.0,57394.0,57580.0,57664.0,0.19806137807323612,-0.18106678458634864,0.05025171393704845,-0.19805146059506804,0.0486236037821892
53,53,58264.821948101286,3897.242560845776,22.931688605596747,58395.84932180029,-1635.2572306360066,3.753905331615831,58427.971691611616,36315.81712527045,9.696445176594551,58455.30135639943,-2836.2858163018896,7.813217518685743,58688.26017299569,12001.46017987161,42.48336104577106,0.9491705893583714,141.0,90.0,68.0,270.0,338.0,51.0,1067.0,1065.0,55.0,14.0,41.0,0.2545454545454545,478.7943503659933,4179.469209689856,7.0,3.0,4.0,0.4285714285714285,629.6213394022469,2257.844738786127,24.0,12.0,12.0,0.5,1734.2695877867736,33815.83937202423,8.0,2.0,6.0,0.25,868.0895293511476,10846.876074083972,97.0,51.0,46.0,0.5257731958762887,470.2314476037019,12344.907910406686,0.0,0.0,0.0,0.0,58252.0,58303.0,58393.0,58400.0,58416.0,58440.0,58453.0,58461.0,58639.0,58731.0,0.12285464476249736,-0.3850289285419432,0.0477552131569684,-0.30606560324833976,0.039181186335339103
54,54,59332.84932180029,3064.0099229439793,5.095930801728113,59417.45099728223,-2809.4203491626436,20.383723206912453,59473.18643914957,35239.78311406449,9.435288498330245,59499.45203459914,-5666.569900501753,10.732068856088471,59741.65746019684,9831.857311134308,31.770165585082008,0.905804790002124,78.0,67.0,100.0,265.0,365.0,11.0,1071.0,1045.0,17.0,8.0,9.0,0.4705882352941176,493.9268207539687,1767.5187617980414,34.0,11.0,23.0,0.3235294117647059,500.0709596747079,2328.6511008653174,23.0,12.0,11.0,0.5217391304347826,1786.264595442413,31727.51290913016,16.0,7.0,9.0,0.4375,956.4408184014596,14083.592995318028,89.0,58.0,31.0,0.651685393258427,473.8402200258371,9814.16016896378,0.0,0.0,0.0,0.0,59330.0,59341.0,59408.0,59426.0,59461.0,59484.0,59494.0,59508.0,59704.0,59773.0,0.1612027484164905,-0.1779979132790704,0.050688864618167864,-0.16878655609926746,0.04819437518577757
55,55,60271.84932180029,2201.977347770151,5.095930801728109,60401.30135639948,-3277.726134420536,10.191861603456116,60435.329112868574,33185.07889482033,9.532740287678688,60461.30135639943,-4706.336663132328,10.046431108245915,60697.26017299569,10850.687522040826,40.72153275476913,0.9231193496780312,130.0,122.0,71.0,270.0,341.0,8.0,939.0,964.0,12.0,3.0,9.0,0.25,546.8395836254732,2348.562767563395,11.0,2.0,9.0,0.1818181818181818,612.5393993443732,851.1799456971064,24.0,12.0,12.0,0.5,1636.2648225579144,31798.646537766188,16.0,2.0,14.0,0.125,938.3194243017878,12490.4670402541,98.0,54.0,44.0,0.5510204081632653,475.0206990238502,10794.445933408835,0.0,0.0,0.0,0.0,60269.0,60277.0,60399.0,60410.0,60423.0,60447.0,60459.0,60470.0,60649.0,60740.0,0.24834024027505752,-0.1868793713153412,0.0493072452153582,-0.19937362995134397,0.04377793555099144
56,56,61210.84932180029,2747.9663146163457,5.095930801728113,61278.54796540086,-2795.454800966196,15.28779240518434,61353.972244425415,31962.448759480183,9.45439646150156,61379.027373699,-5846.872348158227,11.656733158200169,61610.50304842883,10248.068790735408,35.988159387257106,0.9508567033091532,62.0,45.0,119.0,266.0,385.0,17.0,939.0,919.0,26.0,9.0,17.0,0.3461538461538461,455.2934195145936,2297.7825500797426,31.0,13.0,18.0,0.4193548387096774,463.1762732182352,3208.6331347862083,23.0,12.0,11.0,0.5217391304347826,1569.9096318174384,27908.044144902677,15.0,5.0,10.0,0.3333333333333333,977.0695655116032,14746.259820187688,85.0,40.0,45.0,0.4705882352941176,392.8340440635184,10174.828704593394,0.0,0.0,0.0,0.0,61208.0,61225.0,61270.0,61289.0,61342.0,61365.0,61375.0,61389.0,61582.0,61655.0,0.1656837702459824,-0.1656890582019595,0.04911731399653155,-0.16710978234703233,0.03833249484221391
57,57,62186.4977429812,2469.225571132959,12.955578988534256,62306.33203350646,-3663.559812357965,5.095930801728113,62333.99020603025,30527.286645319604,10.13019198483384,62359.30135639943,-5231.432094268168,9.22560785278195,62586.79656364746,9864.324547499646,40.52581503843922,0.9383693901641212,116.0,98.0,71.0,269.0,340.0,18.0,978.0,978.0,20.0,5.0,15.0,0.25,438.2110292025571,2416.95078567908,14.0,9.0,5.0,0.6428571428571429,728.485087894294,3776.945699244389,25.0,13.0,12.0,0.52,1421.317616224835,27625.411565596223,14.0,2.0,12.0,0.1428571428571428,931.459198090077,14260.244393560324,112.0,61.0,51.0,0.5446428571428571,452.5574503614958,9909.762281189896,0.0,0.0,0.0,0.0,62181.0,62199.0,62297.0,62309.0,62321.0,62346.0,62357.0,62368.0,62552.0,62637.0,0.17746901470872586,-0.19884623841460405,0.04655892391414844,-0.1780505187309289,0.04587819958500935
58,58,63251.32873009842,2940.98020341563,22.411511855652385,63364.15067820355,-2241.7247525614134,5.095930801728113,63394.78529368941,32977.60370341473,9.146341860212289,63424.15067819971,-3356.502749494756,5.095930801728113,63652.13686849497,10032.817499796723,39.982482548894865,0.948753438692403,117.0,93.0,65.0,275.0,340.0,24.0,1068.0,1062.0,63.0,37.0,26.0,0.5873015873015873,405.1600142989613,1525.3199099121923,14.0,8.0,6.0,0.5714285714285714,611.3701896919704,2577.058075070051,24.0,12.0,12.0,0.5,1692.664276147318,30797.993538973373,11.0,8.0,3.0,0.7272727272727273,647.5604075043622,6854.033815860919,99.0,47.0,52.0,0.4747474747474747,451.81313191651265,11726.969682964413,0.0,0.0,0.0,0.0,63245.0,63269.0,63362.0,63367.0,63383.0,63407.0,63416.0,63427.0,63610.0,63702.0,0.13776359794207788,-0.27272312936430476,0.05132769170769215,-0.1929271196342197,0.04503352442378892
59,59,64458.30135639943,2590.1988480952627,10.191861603456228,64563.15067819971,-3486.65361514165,5.095930801728113,64597.94161520867,32025.284426591897,9.827933742242648,64621.45203459914,-5318.332127606358,6.292367512886198,64870.65746019684,9355.374431591545,34.185275246117406,0.9196085766810737,98.0,82.0,76.0,272.0,348.0,16.0,1204.0,1205.0,31.0,14.0,17.0,0.4516129032258064,458.1633488333843,1874.697963980827,12.0,9.0,3.0,0.75,515.5465221429096,1429.4160519428683,25.0,13.0,12.0,0.52,1590.3098561747568,29305.558028817213,14.0,4.0,10.0,0.2857142857142857,1171.0391135406303,15114.03369752166,88.0,56.0,32.0,0.6363636363636364,459.0210066273837,9400.76692312774,0.0,0.0,0.0,0.0,64456.0,64472.0,64554.0,64566.0,64585.0,64610.0,64618.0,64630.0,64815.0,64902.0,0.1768834655958174,-0.14786284473571512,0.049657946358604634,-0.22018916559611035,0.049064952983318984
60,60,65564.84932180027,4144.678288637432,5.095930801728113,65654.42466090013,-1854.5907205250455,2.5479654008640567,65731.03174788793,34331.215920994575,9.913780227952689,65756.15067819973,-4042.8292800956665,5.095930801728113,65989.98619029527,11098.375748162163,39.950762697788335,0.9153407790087104,91.0,51.0,111.0,273.0,384.0,40.0,1104.0,1132.0,43.0,5.0,38.0,0.1162790697674418,468.6818524587365,4918.321112311918,7.0,1.0,6.0,0.1428571428571428,451.60718403108154,1349.508419109915,25.0,13.0,12.0,0.52,1631.4446319398128,31736.245521042096,11.0,3.0,8.0,0.2727272727272727,1056.7751192817557,12830.026388512222,105.0,56.0,49.0,0.5333333333333333,514.7059498250471,10574.48712998988,0.0,0.0,0.0,0.0,65562.0,65602.0,65653.0,65660.0,65718.0,65743.0,65755.0,65764.0,65937.0,66037.0,0.11308039365651615,-0.2435077340963018,0.047520735522278285,-0.2613949405394504,0.04637669164429578
61,61,66623.42466090013,1743.8625618015988,2.5479654008640567,66695.18934244082,-2807.714553841596,10.191861603456228,66789.73359002429,34934.493163516156,9.47842531192378,66813.87669549929,-5898.306116131754,9.309293003774473,67049.2601729957,10957.77285001038,36.05289002476306,0.9218508537329992,69.0,62.0,132.0,269.0,401.0,7.0,1059.0,1059.0,7.0,1.0,6.0,0.1428571428571428,450.4511513528452,3444.777602750478,12.0,4.0,8.0,0.3333333333333333,460.171095398816,3008.404906117955,24.0,13.0,11.0,0.5416666666666666,1818.7496742191688,30510.87582360416,17.0,3.0,14.0,0.1764705882352941,1160.387074824322,15878.964313592583,99.0,53.0,46.0,0.5353535353535354,449.72157883374047,10767.865812991213,0.0,0.0,0.0,0.0,66622.0,66629.0,66691.0,66703.0,66778.0,66801.0,66811.0,66823.0,67006.0,67092.0,0.2583065668245555,-0.16389525593661103,0.05206171635885018,-0.19673225702048353,0.04104133065993556
62,62,67654.30135639943,1667.2871864073293,10.191861603455196,67755.75339099858,-3162.257480110836,25.47965400864057,67794.82198359646,33301.13145026707,9.844870196026289,67820.45203459915,-7082.376653607804,9.252306938777648,68050.96240375497,10573.395692682076,37.0129009310188,0.9308212013918276,98.0,90.0,79.0,265.0,344.0,8.0,1033.0,1005.0,11.0,2.0,9.0,0.1818181818181818,511.1850704389511,407.95035716052166,62.0,46.0,16.0,0.7419354838709677,475.57085257911734,2122.8696440420267,23.0,12.0,11.0,0.5217391304347826,1683.2460143332646,30310.189482572303,16.0,6.0,10.0,0.375,1084.1062645906536,15560.809684101465,97.0,46.0,51.0,0.4742268041237113,404.3697028846378,10009.206572553896,0.0,0.0,0.0,0.0,67652.0,67660.0,67750.0,67770.0,67783.0,67806.0,67816.0,67829.0,68019.0,68094.0,0.3065968926087969,-0.15038966800465875,0.05054621092520762,-0.15307097004483708,0.038244071690658944
63,63,68600.15067819973,1903.952361274325,5.095930801719868,68711.30135639943,-3239.7478084257873,10.191861603456228,68740.35290192573,30862.052404958344,10.061903090359168,68765.75339099858,-6626.018987447058,11.141923155918985,69010.65746019685,10180.317168200265,34.473216119369134,0.9274068008404291,96.0,90.0,85.0,262.0,347.0,6.0,945.0,944.0,7.0,1.0,6.0,0.1428571428571428,439.7346332819694,2231.3189101330636,22.0,16.0,6.0,0.7272727272727273,698.1302645106431,3353.2131397875564,23.0,12.0,11.0,0.5217391304347826,1603.9642224335755,29458.634105015808,20.0,6.0,14.0,0.3,916.22220779241,13565.47441302465,82.0,49.0,33.0,0.5975609756097561,473.09024962946006,9397.56296794465,0.0,0.0,0.0,0.0,68599.0,68605.0,68695.0,68717.0,68728.0,68751.0,68760.0,68780.0,68970.0,69042.0,0.23095884236707098,-0.21548907686424787,0.051972052972597514,-0.13827642352492286,0.04647107175670595
64,64,70585.972626301,2950.783254708602,17.8357578060484,70716.84932180027,-3220.535560984496,4.557867303281637,70747.05819371901,32047.960887039808,10.123670703517035,70773.027373699,-5423.103041105028,9.80129640697541,71004.08799484537,10153.038177990506,37.03247874885487,0.94950565268779,136.0,122.0,71.0,264.0,335.0,14.0,1982.0,2006.0,14.0,10.0,4.0,0.7142857142857143,488.23635820741146,3626.1393470355206,13.0,8.0,5.0,0.6153846153846154,783.5355711613794,3547.2840106832036,25.0,13.0,12.0,0.52,1551.1618592395523,28840.065716648896,17.0,5.0,12.0,0.2941176470588235,982.7286438763574,14244.459364610955,85.0,40.0,45.0,0.4705882352941176,459.88805011034714,11660.59026693446,0.0,0.0,0.0,0.0,70576.0,70590.0,70712.0,70718.0,70734.0,70759.0,70768.0,70783.0,70970.0,71047.0,0.16545991896501602,-0.2432935629258687,0.04840126536309029,-0.18121150131717093,0.045295609259825356
65,65,71773.027373699,3239.2452147188837,17.8357578060484,71881.27398270041,-1831.1769875111768,7.64389620259217,71916.63445426531,32958.125893624296,10.058136739701064,71939.87669549929,-4487.9744312211415,6.0810848107756765,72172.1963626543,11467.000532974564,46.440957891191054,0.952163884420493,108.0,91.0,73.0,276.0,349.0,17.0,1193.0,1170.0,37.0,24.0,13.0,0.6486486486486487,462.17510633493094,2339.541361576953,8.0,5.0,3.0,0.625,540.2272582832087,795.3842596659549,26.0,14.0,12.0,0.5384615384615384,1610.6174638769464,29727.55675865543,13.0,3.0,10.0,0.2307692307692307,1095.2231415614292,14414.01267478469,107.0,52.0,55.0,0.4859813084112149,439.5831391123395,12926.873312021447,0.0,0.0,0.0,0.0,71769.0,71786.0,71877.0,71884.0,71904.0,71929.0,71937.0,71950.0,72122.0,72226.0,0.14267987623624245,-0.295016408554507,0.04886859978250518,-0.2440350671212331,0.03833462271570251
66,66,72908.788870127,3253.761579675016,25.657241829257824,73013.84932169953,-1982.6263544904723,5.095930801728113,73064.45838431537,34919.37982254967,9.355714171098535,73092.15067819973,-4071.41078775228,5.095930801728113,73319.98619029527,10591.13353603528,42.64003399545173,0.9395220217299828,118.0,78.0,84.0,272.0,356.0,40.0,1139.0,1150.0,46.0,16.0,30.0,0.3478260869565217,437.2302732428276,3736.6470225215994,9.0,8.0,1.0,0.8888888888888888,474.7465872768114,2383.3645014956883,24.0,12.0,12.0,0.5,1666.598084789866,32367.049472454542,9.0,6.0,3.0,0.6666666666666666,885.0209548341777,10439.041090927369,122.0,64.0,58.0,0.5245901639344263,444.48539429623366,10859.75139465484,0.0,0.0,0.0,0.0,72893.0,72933.0,73011.0,73015.0,73052.0,73076.0,73086.0,73095.0,73278.0,73367.0,0.1343768627591017,-0.23945338273222921,0.04772702416993206,-0.21737451732861737,0.04196768861273595
67,67,74021.12330450071,2775.7981286723493,12.739827004320285,74150.30135639943,-3362.4477594685623,10.191861603456228,74180.5319195543,33527.509778716274,9.889934799718873,74209.45203459915,-5608.390230127705,9.773793583511797,74441.65161857859,10327.399451355148,34.48727245558665,0.9304292016561144,129.0,114.0,80.0,267.0,347.0,15.0,1104.0,1116.0,19.0,14.0,5.0,0.7368421052631579,499.78651439703225,3417.4011088685843,22.0,14.0,8.0,0.6363636363636364,668.9425273353933,2430.844198134371,25.0,13.0,12.0,0.52,1665.6333506895005,29668.65993072072,16.0,7.0,9.0,0.4375,808.4294500969112,11293.47273684754,83.0,39.0,44.0,0.4698795180722891,507.61123466200394,11147.054008222303,0.0,0.0,0.0,0.0,74009.0,74024.0,74138.0,74156.0,74168.0,74192.0,74202.0,74218.0,74403.0,74485.0,0.18005146312137538,-0.19894510641887866,0.04967960226341855,-0.1441464336333285,0.04915189318017479
68,68,75067.75339099858,2781.2434647106215,18.166021677445933,75146.56280527235,-2207.6364794192195,10.191861603456228,75209.7583209631,36259.2666983926,9.354385182307912,75234.30135639943,-5202.029068261593,7.614795337753434,75478.65746019685,11008.956324832378,34.65677281425455,0.9190870677384876,84.0,58.0,100.0,270.0,370.0,26.0,1053.0,1030.0,47.0,30.0,17.0,0.6382978723404256,402.9447911895478,2408.7163837968446,19.0,14.0,5.0,0.7368421052631579,378.12170669452775,2414.4563630046064,23.0,12.0,11.0,0.5217391304347826,1887.6958858272135,32003.49763616499,14.0,2.0,12.0,0.1428571428571428,1167.5127330100318,15823.548809572483,85.0,54.0,31.0,0.6352941176470588,550.0782355253665,11378.780111364897,0.0,0.0,0.0,0.0,75056.0,75082.0,75140.0,75149.0,75198.0,75221.0,75232.0,75240.0,75430.0,75510.0,0.14487936647842975,-0.17127897197730815,0.05206106073598273,-0.22443410401783653,0.0499664290868864
69,69,76011.42466090013,1816.117348437117,2.5479654008640567,76096.7533952322,-3322.240414524094,25.47965400864057,76158.50123747023,31572.790865141866,9.758322044547368,76181.87669549929,-6322.387132026312,9.69117910529202,76417.83551209555,11026.382474713277,38.288076095870686,0.8985124053510053,81.0,76.0,100.0,271.0,371.0,5.0,939.0,947.0,5.0,1.0,4.0,0.2,414.527330530458,2348.9574846317305,20.0,6.0,14.0,0.3,489.52134871243686,3208.8804522496253,23.0,13.0,10.0,0.5652173913043478,1609.9058832075973,27097.155279736224,17.0,3.0,14.0,0.1764705882352941,1120.453205996991,15295.088007433373,82.0,37.0,45.0,0.4512195121951219,511.18531058869087,11327.292439427085,0.0,0.0,0.0,0.0,76010.0,76015.0,76091.0,76111.0,76146.0,76169.0,76179.0,76191.0,76383.0,76462.0,0.22824919925311257,-0.1473467562950468,0.05099029382876076,-0.17721996179596297,0.04636020125013697
70,70,77854.45203459915,1394.0543182079978,11.738056132917988,77947.28668049342,-1702.9400374014206,5.095930801728113,77993.77014847485,30582.211078969696,9.623164526667692,78019.72601729959,-3868.473252468014,7.126801222691234,78270.20542559771,8557.612044427437,38.03136533014867,0.9015933899390788,94.0,79.0,83.0,265.0,348.0,15.0,1846.0,1838.0,16.0,3.0,13.0,0.1875,393.8819927899822,1625.597784924786,4.0,2.0,2.0,0.5,416.33469891722905,3240.04824569875,24.0,12.0,12.0,0.5,1438.457545082876,28348.032477073502,12.0,3.0,9.0,0.25,865.4729312704119,10740.147404076368,88.0,63.0,25.0,0.7159090909090909,425.7817549092348,8173.280101913052,0.0,0.0,0.0,0.0,77851.0,77866.0,77945.0,77949.0,77982.0,78006.0,78018.0,78028.0,78207.0,78293.0,0.28254422201876755,-0.24447995218465216,0.04703576014724627,-0.22372467761493667,0.049754739137362065
71,71,80096.20542559771,4193.692423739451,40.767446413824906,80208.36361705005,-1469.0070874443966,2.2596869584817796,80237.80254637932,33751.4421046049,10.19495720588148,80264.57533909987,-2588.387528946758,2.5479654008640567,80493.30195338787,10233.464002678407,53.79338527805443,0.9567063188129004,122.0,88.0,59.0,286.0,345.0,34.0,2246.0,2244.0,85.0,57.0,28.0,0.6705882352941176,502.3862201325509,3811.5560847020447,2.0,1.0,1.0,0.5,729.2584238862379,4787.872286434047,26.0,13.0,13.0,0.5,1506.3421611773565,30911.37012187503,3.0,2.0,1.0,0.6666666666666666,896.3244350864256,9561.30615016781,119.0,56.0,63.0,0.4705882352941176,388.82057524831737,11707.942415796806,0.0,0.0,0.0,0.0,80085.0,80119.0,80207.0,80209.0,80225.0,80251.0,80263.0,80266.0,80444.0,80552.0,0.11979567630870286,-0.49642947955745725,0.04463045331541071,-0.3462868002038124,0.03799501079463916
72,72,81223.5965263437,2464.1952304003134,5.155474983922576,81320.17805189872,-3587.9195144257596,22.93168860777651,81359.40862631483,32161.450347077815,9.792599143633566,81387.30135639943,-5156.973384883437,10.191861603456209,81620.2601729957,9560.845457835603,38.264307635809786,0.915223561555452,76.0,65.0,99.0,270.0,369.0,11.0,1122.0,1119.0,16.0,8.0,8.0,0.5,450.74888656083056,1326.190909246003,60.0,46.0,14.0,0.7666666666666667,422.1105426148158,2080.722679286564,23.0,11.0,12.0,0.4782608695652174,1551.278623708388,30547.956165896903,13.0,7.0,6.0,0.5384615384615384,825.3751675030064,11007.552628050857,79.0,33.0,46.0,0.4177215189873418,413.0925535756472,10890.12900261903,0.0,0.0,0.0,0.0,81218.0,81229.0,81294.0,81333.0,81348.0,81371.0,81380.0,81393.0,81589.0,81663.0,0.18291930809703155,-0.11764771782579239,0.04823410035826749,-0.1600503058484686,0.043206697085255846
73,73,82354.69864360057,2126.473367818745,10.191861603456228,82485.027373699,-2286.02524286348,17.8357578060484,82517.88572630878,34255.54888969358,9.847371236183516,82546.72601729959,-4367.116842515309,6.3803472607522105,82777.56152939511,10312.744183489356,39.34713304953558,0.9396399081101664,131.0,122.0,72.0,275.0,347.0,9.0,1128.0,1158.0,31.0,12.0,19.0,0.3870967741935484,419.07446492251165,2220.876741474717,22.0,12.0,10.0,0.5454545454545454,564.4171552742527,1605.3065492383344,24.0,12.0,12.0,0.5,1599.917154574057,32663.91887152331,8.0,3.0,5.0,0.375,860.3883718118357,10496.282589907429,85.0,36.0,49.0,0.4235294117647059,471.7670331601846,12855.907412588163,0.0,0.0,0.0,0.0,82348.0,82357.0,82479.0,82495.0,82506.0,82530.0,82544.0,82551.0,82743.0,82826.0,0.1970748711291796,-0.2468989163773461,0.046705342825653036,-0.19701519396863254,0.04574602305325103
74,74,83482.57544078713,2112.37209413986,2.5479654008640567,83606.00331392727,-3871.5090719156065,10.191861603456228,83639.81082835433,33476.26668226463,9.81630137566419,83665.30135639943,-5929.445971724308,10.191861603456228,83900.7924624204,10887.506818522406,36.375176573063634,0.9242086839195552,121.0,118.0,74.0,272.0,346.0,3.0,1130.0,1121.0,3.0,1.0,2.0,0.3333333333333333,421.64888208238096,3506.4663176625613,13.0,3.0,10.0,0.2307692307692307,587.7524340357929,1309.3068567082364,25.0,13.0,12.0,0.52,1773.104276136099,29407.480432552184,17.0,5.0,12.0,0.2941176470588235,1032.5508077557463,15267.39556901516,88.0,40.0,48.0,0.4545454545454545,466.1102513748539,11160.651982036416,0.0,0.0,0.0,0.0,83482.0,83485.0,83603.0,83616.0,83627.0,83652.0,83663.0,83677.0,83867.0,83949.0,0.19960918971241798,-0.15181481513227488,0.05296601000838218,-0.17413950859484367,0.04281147733307338
75,75,84614.30135639943,3473.761457738863,10.191861603456228,84720.84932180027,-2458.8152103944885,5.095930801728113,84755.65646291674,35617.77660983538,9.549246357253676,84778.72601729959,-5555.048168700123,7.643896201499423,85014.86655101823,11256.63798373888,39.56346350473218,0.9410364897831373,110.0,96.0,73.0,276.0,349.0,14.0,1133.0,1117.0,44.0,34.0,10.0,0.7727272727272727,458.25067212280584,2364.218316355378,9.0,8.0,1.0,0.8888888888888888,578.7929844885126,668.6518148688021,24.0,13.0,11.0,0.5416666666666666,1781.1782031953844,31478.74225607668,14.0,3.0,11.0,0.2142857142857142,1222.1851593505403,16506.07353189614,106.0,50.0,56.0,0.4716981132075472,408.78062806788654,12029.68022846522,0.0,0.0,0.0,0.0,84606.0,84620.0,84716.0,84722.0,84743.0,84767.0,84777.0,84789.0,84974.0,85065.0,0.13191771447112832,-0.23539507240792282,0.05000812438987377,-0.22001342242843785,0.03631462863586828
76,76,85641.8689681113,3348.1546969161395,22.487943439596226,85766.90260619862,-2232.571585851541,4.640531731282944,85795.32324753042,35828.8371399748,9.549753999014886,85820.30135639943,-5063.502800700461,8.407692395731377,86054.98619029527,11804.211673969949,39.44100179243774,0.9515415997647144,134.0,90.0,67.0,274.0,341.0,44.0,1033.0,1039.0,50.0,19.0,31.0,0.38,464.06662045830063,3673.6037442802544,8.0,6.0,2.0,0.75,757.7116723761278,4786.8358185475045,24.0,12.0,12.0,0.5,1772.319392290427,34080.47683308435,12.0,3.0,9.0,0.25,1084.629113331246,14266.531654952598,100.0,51.0,49.0,0.51,398.8339860446618,12173.77629334426,0.0,0.0,0.0,0.0,85627.0,85671.0,85761.0,85769.0,85783.0,85807.0,85818.0,85828.0,86013.0,86102.0,0.13860369739956613,-0.3393896424992454,0.04946628285384742,-0.21420529542932285,0.03378743088148363
77,77,86629.69864360057,1997.824249844481,10.191861603456228,86732.8493216565,-1215.0995633978357,5.095930801728113,86791.87019030948,32138.896971619262,9.3957664575354,86818.87669549929,-4026.419687633379,8.227017415593386,87042.74368212007,10663.51588013429,44.03086392978757,0.9217402397924854,105.0,97.0,98.0,268.0,366.0,8.0,979.0,999.0,9.0,6.0,3.0,0.6666666666666666,482.3277594298081,2257.8037474756516,5.0,4.0,1.0,0.8,569.5217817743415,728.7326092433832,24.0,13.0,11.0,0.5416666666666666,1567.7610606917572,28904.23606525478,14.0,5.0,9.0,0.3571428571428571,811.5990847496954,8819.493414894217,114.0,60.0,54.0,0.5263157894736842,425.9194093513413,9968.97026127098,0.0,0.0,0.0,0.0,86624.0,86632.0,86729.0,86734.0,86779.0,86803.0,86816.0,86827.0,87012.0,87095.0,0.2414265216108747,-0.4687037992028925,0.04878079860911817,-0.20156842746483078,0.03994174286782959
78,78,88580.27151445628,2552.9251847883784,16.37401672858978,88701.45203459915,-2927.678871432287,15.28779240518434,88733.70230479674,30551.799768394092,10.107408086613908,88758.027373699,-5843.064300049448,11.09039052710707,89009.35610379743,9231.89302256615,33.75971247312472,0.9251724546355716,127.0,108.0,76.0,261.0,337.0,19.0,1950.0,1940.0,29.0,19.0,10.0,0.6551724137931034,450.7313344642913,2203.127838949743,13.0,3.0,10.0,0.2307692307692307,563.7647188458138,945.76087897348,23.0,12.0,11.0,0.5217391304347826,1588.9890726734404,27416.50406930653,24.0,5.0,19.0,0.2083333333333333,1033.7008810826062,14136.345822723184,76.0,50.0,26.0,0.6578947368421053,422.5311759038922,8994.378696033229,0.0,0.0,0.0,0.0,88571.0,88590.0,88698.0,88710.0,88722.0,88745.0,88754.0,88774.0,88961.0,89035.0,0.17655485446654565,-0.1925637146706624,0.05200967159771888,-0.17691074888117495,0.04576863866068099
79,79,89785.42466090013,1250.5874828113497,2.546210840113795,89917.87669549929,-3729.97764673131,12.739827004320285,89950.22920057451,31516.104742894833,9.947218710562217,89972.87669549929,-5332.617529259009,12.739827004320285,90210.2986730772,8878.54412680825,32.665113548655995,0.9150999911679614,122.0,119.0,79.0,267.0,346.0,3.0,1207.0,1216.0,3.0,2.0,1.0,0.6666666666666666,447.6980746947437,2254.2353467086564,22.0,13.0,9.0,0.5909090909090909,646.8996249464011,730.5281123243176,24.0,12.0,12.0,0.5,1521.8441112705596,27943.63547460433,22.0,5.0,17.0,0.2272727272727272,1106.4747760347827,15135.903903813618,78.0,35.0,43.0,0.4487179487179487,444.8939011371663,9809.321839169996,0.0,0.0,0.0,0.0,89783.0,89786.0,89905.0,89925.0,89938.0,89962.0,89970.0,89984.0,90175.0,90251.0,0.3579902092801281,-0.1734325741907055,0.048287823755048684,-0.20749186866745578,0.05010887987748294
80,80,91014.93144289729,3339.5878499838805,25.856238176435852,91105.42466090011,-1284.4475152047291,2.5479654008640567,91161.22689044425,33565.02897412652,10.024876658128402,91186.30135639945,-3995.554383149889,5.984306922769132,91416.63451217613,10721.897118731476,45.41640520088082,0.9539758802647744,105.0,62.0,90.0,273.0,363.0,43.0,1238.0,1213.0,52.0,22.0,30.0,0.4230769230769231,399.7084719741832,4080.11423186274,5.0,1.0,4.0,0.2,460.87343819009885,1615.692141241018,25.0,13.0,12.0,0.52,1593.993264673706,31784.801025056695,11.0,2.0,9.0,0.1818181818181818,1073.4350204066714,12610.352789720628,105.0,50.0,55.0,0.4761904761904761,512.9299657469571,10164.90490329025,0.0,0.0,0.0,0.0,90999.0,91042.0,91104.0,91109.0,91148.0,91173.0,91184.0,91194.0,91379.0,91467.0,0.11968796448223769,-0.3588106425015271,0.04748970322362688,-0.26865734200329683,0.04783947841197367
81,81,92163.69864360055,2179.5653208463755,10.191861603456228,92223.18233804828,-2913.1655997527564,5.095930801728113,92325.8913684768,33318.07252500536,9.752326749520057,92349.027373699,-6272.014477682111,9.20583760574221,92586.01064861294,10751.610789028427,36.44090980994063,0.9444444723012406,64.0,56.0,139.0,270.0,409.0,8.0,1139.0,1162.0,34.0,6.0,28.0,0.1764705882352941,459.5383606255844,2979.849082370705,20.0,9.0,11.0,0.45,482.4835936539701,2790.5883690742185,24.0,13.0,11.0,0.5416666666666666,1679.650198366017,27857.268788136626,17.0,4.0,13.0,0.2352941176470588,1265.8046153232824,16772.471513692803,95.0,46.0,49.0,0.4842105263157895,429.20528116624314,10850.905994140698,0.0,0.0,0.0,0.0,92158.0,92166.0,92222.0,92230.0,92313.0,92337.0,92345.0,92361.0,92546.0,92631.0,0.21083945327554351,-0.165621753083628,0.05041258605537377,-0.2018178720453263,0.03992009100666379
82,82,93295.972626301,3811.109815102381,17.8357578060484,93385.84932180028,-1289.6118796222447,3.817270666078374,93456.71313978038,35880.80559073834,9.578209864922815,93483.30135639945,-4071.691541335798,6.487363755834938,93719.2601729957,11462.292878445536,41.68664921651891,0.9403723292344998,96.0,48.0,107.0,273.0,380.0,48.0,1131.0,1131.0,60.0,19.0,41.0,0.3166666666666666,447.22439371191865,3101.862728517982,5.0,4.0,1.0,0.8,499.0146935085053,364.6867262286157,25.0,13.0,12.0,0.52,1697.7476951820595,32120.708892414797,8.0,2.0,6.0,0.25,976.8170729981774,12377.255684058662,94.0,48.0,46.0,0.5106382978723404,468.1850448244041,11966.571684419923,0.0,0.0,0.0,0.0,93286.0,93334.0,93382.0,93387.0,93444.0,93469.0,93481.0,93489.0,93671.0,93762.0,0.11734754845942545,-0.38694951666750893,0.047316320445722856,-0.2399044876267109,0.04084567108774638
83,83,94372.84932180028,1171.0821367145768,5.095930762027917,94503.04482705028,-3181.7417445028977,10.191861603456228,94538.14179382092,35523.02246505502,9.670377697920914,94561.027373699,-6045.91422601349,14.464423581854565,94798.1603799107,10953.620479636982,36.25823632910595,0.9305197150346608,130.0,125.0,77.0,267.0,344.0,5.0,1079.0,1084.0,7.0,3.0,4.0,0.4285714285714285,505.47715165263367,2114.3631411807364,22.0,11.0,11.0,0.5,557.6248428903727,873.0926211793562,24.0,13.0,11.0,0.5416666666666666,1755.9096509595272,29057.20686331744,23.0,4.0,19.0,0.1739130434782608,1207.1175738347008,17660.25174147069,98.0,48.0,50.0,0.4897959183673469,472.8764527363699,10950.354854089288,0.0,0.0,0.0,0.0,94370.0,94375.0,94500.0,94514.0,94525.0,94549.0,94557.0,94577.0,94761.0,94844.0,0.43163253524704015,-0.17525773229514383,0.04943018721694822,-0.1996584021389005,0.043170790298555396
84,84,95340.69864360055,3193.500875220575,10.191861603456228,95463.84932180028,-1854.9117690029757,5.095930801728113,95504.17348807782,33025.46008273083,9.642475471527916,95529.87669549928,-6325.7965360146,8.767946016710615,95762.389867321,10723.09376855822,38.2080262476461,0.9281110910539668,125.0,111.0,79.0,269.0,348.0,14.0,967.0,965.0,29.0,9.0,20.0,0.3103448275862069,505.5270076392435,2886.735549314234,6.0,5.0,1.0,0.8333333333333334,532.3106372575454,817.6830854867128,24.0,12.0,12.0,0.5,1646.390580301172,30494.27648631244,17.0,5.0,12.0,0.2941176470588235,1016.3333434993732,12961.214105823869,88.0,42.0,46.0,0.4772727272727273,418.2385012240681,11244.90386422621,0.0,0.0,0.0,0.0,95335.0,95349.0,95460.0,95465.0,95492.0,95516.0,95527.0,95539.0,95723.0,95808.0,0.1582986908072561,-0.2869735618442192,0.04985216182232923,-0.16066488033769216,0.03900352922870156
85,85,96273.75339099858,2120.598509157779,19.20111848753023,96368.84932180028,-2356.4405479487596,5.095930801728113,96431.3265323624,30877.070473841,9.302990207909184,96457.45203459916,-5774.537162813576,8.61171358763194,96687.3347464222,9831.485548095525,39.27452871663475,0.9225468969871669,102.0,77.0,101.0,267.0,368.0,25.0,939.0,925.0,32.0,14.0,18.0,0.4375,429.21369027831594,2020.1122795397168,14.0,5.0,9.0,0.3571428571428571,484.53796315543354,1086.248744822136,24.0,12.0,12.0,0.5,1553.9074839352286,27825.654218568034,16.0,7.0,9.0,0.4375,1042.7081289885705,12502.27719270745,74.0,25.0,49.0,0.3378378378378378,436.2686865823246,9871.924023834195,0.0,0.0,0.0,0.0,96263.0,96288.0,96365.0,96370.0,96420.0,96443.0,96450.0,96466.0,96663.0,96733.0,0.20240214657548886,-0.2056228253147381,0.05032561250432409,-0.18056999194728934,0.04437464556583059
86,86,97237.84932180028,1079.6198371925475,5.095930801532877,97335.17805189872,-2834.0432556685637,22.93168860777651,97372.54988765204,30061.563612343052,10.221188538030258,97396.87669549928,-6184.191402247396,8.913158047770827,97626.98657062538,9196.770044481576,38.35812179833155,0.9037360293208376,94.0,90.0,79.0,270.0,349.0,4.0,959.0,944.0,4.0,3.0,1.0,0.75,499.4409288949773,407.3673102344675,19.0,6.0,13.0,0.3157894736842105,480.9348853000968,1738.6770908816816,23.0,12.0,11.0,0.5217391304347826,1492.504231411974,25283.62081371474,17.0,5.0,12.0,0.2941176470588235,1012.8538138972872,13308.137437670335,97.0,45.0,52.0,0.4639175257731959,467.9792189040654,9154.11939698534,0.0,0.0,0.0,0.0,97235.0,97239.0,97329.0,97348.0,97361.0,97384.0,97394.0,97408.0,97595.0,97678.0,0.4626081438015512,-0.16969920425108054,0.04964825684580036,-0.16378112319246882,0.0508851712765039
87,87,98296.84932180028,2231.9982067237916,5.095930801728113,98396.60271279886,-3524.312417466318,20.383723206912453,98448.70259353658,30265.915490297342,10.081507416543214,98471.87669549928,-6171.788079293539,8.854862853500453,98705.338641777,9679.914654151946,37.7902697860583,0.9251788433101376,94.0,83.0,94.0,269.0,363.0,11.0,1059.0,1074.0,13.0,5.0,8.0,0.3846153846153846,525.8806762604681,1283.5738672314762,32.0,21.0,11.0,0.65625,504.80122260604753,3848.624682905621,24.0,13.0,11.0,0.5416666666666666,1538.4401584049865,26229.53858439867,16.0,4.0,12.0,0.25,1100.113324230232,15208.904899216925,94.0,45.0,49.0,0.4787234042553192,410.4291025926677,9186.605813203236,0.0,0.0,0.0,0.0,98294.0,98305.0,98388.0,98408.0,98436.0,98460.0,98469.0,98482.0,98666.0,98751.0,0.2356098112786457,-0.14323395965246374,0.05083078220112589,-0.1782487198355258,0.04240007451063888
88,88,99499.24660900142,3480.1910676580733,25.47965400864057,99619.03324503462,-2155.1384433562034,10.191861603456228,99663.12870171138,32176.39747040344,9.918441322818062,99688.7260172996,-4409.331782246497,5.993276915317844,99936.2327992967,10589.61180115462,36.13245833207281,0.902168376998703,130.0,110.0,79.0,275.0,354.0,20.0,1199.0,1218.0,65.0,19.0,46.0,0.2923076923076923,495.25909108694384,3743.977352839735,11.0,4.0,7.0,0.3636363636363636,451.57811873401147,1871.4415336879408,26.0,13.0,13.0,0.5,1570.608904082486,30631.064941409542,7.0,2.0,5.0,0.2857142857142857,1050.3696116452402,12480.81699960161,91.0,57.0,34.0,0.6263736263736264,384.668233621119,10319.556156201475,0.0,0.0,0.0,0.0,99485.0,99505.0,99615.0,99626.0,99650.0,99676.0,99687.0,99694.0,99885.0,99969.0,0.14230801742164656,-0.2095355498511583,0.04881245346149042,-0.23821514540466052,0.0363250552375468
89,89,100670.17805189872,3275.876375737892,22.93168860777651,100784.27775470434,-2196.9955304934074,5.095930801728113,100816.02050519784,34285.478734279866,9.658845329679062,100842.30135639945,-4556.2698451486085,6.87727370352018,101073.89241005432,10042.705546205878,38.268152784962545,0.952488070263221,118.0,99.0,67.0,274.0,341.0,19.0,1179.0,1151.0,40.0,26.0,14.0,0.65,462.3745133794346,3320.5080711796563,8.0,2.0,6.0,0.25,569.0361213991977,2027.5751136254564,24.0,12.0,12.0,0.5,1640.1901933895963,31512.327966743433,13.0,5.0,8.0,0.3846153846153846,961.4903053847464,11751.9552609842,92.0,43.0,49.0,0.4673913043478261,386.11403468974464,10816.523097411384,0.0,0.0,0.0,0.0,100664.0,100683.0,100782.0,100790.0,100804.0,100828.0,100840.0,100849.0,101038.0,101123.0,0.14114528765612672,-0.2590064993311124,0.047839209307865796,-0.21102575968113807,0.03844721254777982
90,90,101732.21252674444,2636.4484865840022,7.64389620259217,101861.30135639945,-2767.7865922369674,10.191861603440664,101893.1376131414,35092.51701036706,9.405965781483768,101920.7260172996,-4771.392228623467,7.082369187290214,102153.55647415583,11020.92039448414,36.68814326491874,0.9512665111770342,136.0,123.0,66.0,272.0,338.0,13.0,1059.0,1076.0,14.0,9.0,5.0,0.6428571428571429,491.60774324951905,3818.258890374736,17.0,8.0,9.0,0.4705882352941176,682.3635622400984,2157.11874166724,24.0,12.0,12.0,0.5,1773.1069006843802,33638.56659592983,11.0,7.0,4.0,0.6363636363636364,826.7778186630344,10371.10037875074,94.0,46.0,48.0,0.4893617021276595,443.2311984224341,10542.52540115228,0.0,0.0,0.0,0.0,101723.0,101736.0,101859.0,101869.0,101881.0,101905.0,101914.0,101925.0,102114.0,102197.0,0.18646590128771534,-0.24653763557998948,0.0505266379200035,-0.173278108159546,0.0402172579564468
91,91,102766.54796540084,4235.306865881484,15.28779240518434,102889.57533910018,-1939.455699320701,2.5479654008636197,102920.07993757816,38240.71093083578,9.52282591200759,102946.7260172996,-2265.1038989533813,6.544140062619904,103195.35610379744,11891.821072899667,45.86337582034451,0.9060110754646332,128.0,114.0,67.0,270.0,337.0,14.0,1031.0,1030.0,55.0,20.0,35.0,0.3636363636363636,490.7690474390851,3104.8010204438524,7.0,6.0,1.0,0.8571428571428571,684.3487116620912,3646.28612022623,24.0,12.0,12.0,0.5,1937.633148817319,36214.85761275742,7.0,3.0,4.0,0.4285714285714285,892.4871013253468,10391.90050900528,106.0,68.0,38.0,0.6415094339622641,472.1544275884698,11971.985220823037,0.0,0.0,0.0,0.0,102756.0,102770.0,102884.0,102891.0,102908.0,102932.0,102944.0,102951.0,103129.0,103221.0,0.1158756763040221,-0.35285606776261297,0.050669380920292696,-0.394015966215824,0.0397041314945837
92,92,103742.99511541204,2663.059216237487,5.095930801728113,103817.972626301,-2331.5957591258307,17.8357578060484,103890.52960604828,33931.89674729339,9.053016619496589,103918.7260172996,-5309.371362515586,7.64389620259217,104149.76414851948,10842.091036771037,41.185283789999254,0.9409640906952154,67.0,58.0,120.0,272.0,392.0,9.0,979.0,968.0,9.0,7.0,2.0,0.7777777777777778,439.2518580939012,2908.1536374644675,27.0,15.0,12.0,0.5555555555555556,450.877444943308,2584.939954220341,23.0,12.0,11.0,0.5217391304347826,1765.4377924575992,30438.74396095276,16.0,8.0,8.0,0.5,764.527767005682,9413.224647836654,91.0,41.0,50.0,0.4505494505494505,492.9171579617982,12970.617381155502,0.0,0.0,0.0,0.0,103736.0,103745.0,103803.0,103822.0,103879.0,103902.0,103911.0,103923.0,104115.0,104195.0,0.16494258010323173,-0.19337719378609283,0.05202885667151575,-0.14399591115499744,0.04546329267021147
93,93,104660.93479755158,3331.524916404574,12.739827004320285,104780.36983000416,-2273.534027751358,2.5479654008640567,104807.40822030716,31196.71589846697,9.565083029306152,104832.30135639945,-5819.051702405843,9.190114045062415,105068.68483389584,10250.986089348882,37.62092468952362,0.9205470794845884,121.0,104.0,66.0,266.0,332.0,17.0,919.0,919.0,26.0,13.0,13.0,0.5,470.47557084351473,4020.1184945020104,3.0,2.0,1.0,0.6666666666666666,776.7923642630775,5229.112139419667,24.0,12.0,12.0,0.5,1577.1845622760682,29099.447347687117,17.0,5.0,12.0,0.2941176470588235,1022.1982818494675,14260.797544141797,91.0,50.0,41.0,0.5494505494505495,462.86662936690897,11047.504886184255,0.0,0.0,0.0,0.0,104657.0,104674.0,104778.0,104781.0,104795.0,104818.0,104830.0,104844.0,105020.0,105110.0,0.141219286257435,-0.3416673578584461,0.050556108771486814,-0.1756640659210585,0.04515337601012286
94,94,106128.57533909989,1542.1157132306842,0.6438117423939677,106506.17805189872,-4029.252211947191,22.93168860777651,106542.70866529328,30924.851163684423,9.89176841486989,106566.60271279886,-7247.942520950433,11.484730493297649,106803.80813839656,8330.336254940103,29.33308189218486,0.9018157201957152,373.0,370.0,79.0,259.0,338.0,3.0,1467.0,1730.0,3.0,2.0,1.0,0.6666666666666666,469.2915297506071,3224.3540790242696,20.0,6.0,14.0,0.3,515.2233320536205,2046.1067317476632,23.0,12.0,11.0,0.5217391304347826,1579.0494814946724,24051.643808105124,18.0,5.0,13.0,0.2777777777777778,1065.0579721193656,15822.870218696537,83.0,46.0,37.0,0.5542168674698795,436.9668130890794,8084.167321007029,0.0,0.0,0.0,0.0,106127.0,106130.0,106500.0,106519.0,106531.0,106554.0,106562.0,106579.0,106772.0,106838.0,0.304316677227454,-0.1278707077521543,0.051060859537748624,-0.1469462497861673,0.05245488293824237
95,95,107551.24660900142,3632.4122183866025,25.47965400864057,107713.2056713082,2017.968404118911,145.23402784925125,107716.61342805876,32440.25582265492,10.058722058847025,107740.30135639945,-4661.96275498095,7.151105577612037,107978.13686849496,9465.738765561242,40.24079078252909,0.9604534104238134,-60.0,-120.0,269.0,282.0,551.0,60.0,1418.0,1175.0,72.0,20.0,52.0,0.2777777777777778,547.0677494370848,5273.177817020647,26.0,10.0,16.0,0.3846153846153846,1445.4475394541912,36878.15985771544,26.0,14.0,12.0,0.5384615384615384,1584.5069260577015,30271.214424733924,7.0,1.0,6.0,0.1428571428571428,1100.0673378277345,12885.456747713308,106.0,56.0,50.0,0.5283018867924528,458.78621866428034,11298.030050404068,0.0,0.0,0.0,0.0,107537.0,107597.0,107477.0,107746.0,107703.0,107729.0,107689.0,107746.0,107925.0,108028.0,0.15060728698905054,0.716288489207196,0.04884384804854554,-0.235966565080855,0.048468083688666855
96,96,108701.12209672488,3098.2258414041085,32.205404969050605,108830.75672670828,-1713.652834409028,2.770906414997346,108860.01400250306,33862.386382473174,10.101713954378896,108885.30135639945,-3298.881155390344,5.267581854205383,109110.60835860368,10408.476670265836,51.191105662524215,0.9473511932936394,139.0,108.0,64.0,278.0,342.0,31.0,1159.0,1148.0,63.0,22.0,41.0,0.3492063492063492,482.9885165815094,2117.3055821288035,6.0,5.0,1.0,0.8333333333333334,776.6240284654126,6422.139098321331,26.0,13.0,13.0,0.5,1536.242037931259,31226.42185613342,9.0,2.0,7.0,0.2222222222222222,1004.4034074300588,11607.28183878866,111.0,52.0,59.0,0.4684684684684684,403.5376564968027,11548.244501542697,0.0,0.0,0.0,0.0,108688.0,108719.0,108827.0,108832.0,108847.0,108873.0,108883.0,108891.0,109070.0,109169.0,0.15589196569434724,-0.45319799487463863,0.04536721129395659,-0.30446789687736164,0.03877009761184354
97,97,109860.39728720114,4225.991515978974,20.383723206912453,109989.42466090011,-1038.5747126377,2.5479654008640567,110021.08846118292,35671.71533326422,10.110265040363728,110046.15067819972,-3573.2739251884404,4.867355118455,110272.69761717954,10200.480160324929,47.100210909682374,0.9294244089258064,139.0,113.0,62.0,276.0,338.0,26.0,1151.0,1161.0,47.0,13.0,34.0,0.2765957446808511,441.95305916769007,3619.1618823645,2.0,1.0,1.0,0.5,634.6883929244082,3780.2637654302753,26.0,13.0,13.0,0.5,1593.2022085175051,33740.1821978005,5.0,1.0,4.0,0.2,1138.2134493116776,13101.084718674443,95.0,39.0,56.0,0.4105263157894737,411.7192843646728,11224.041984071868,0.0,0.0,0.0,0.0,109849.0,109875.0,109988.0,109990.0,110008.0,110034.0,110045.0,110050.0,110238.0,110326.0,0.10457973176155541,-0.611114814563962,0.044662898703719714,-0.3185351789820179,0.04036273566474519
98,98,111002.30135639945,3743.23270981672,10.191861603456228,111097.63539192436,-1223.5644911853544,2.418642124160372,111142.23357222018,35945.865310985784,9.918046774552248,111166.30135639945,-4495.571236640536,6.261153501227935,111401.13873083722,11195.836493521014,43.538897640348786,0.9357211664488018,107.0,87.0,80.0,273.0,353.0,20.0,1147.0,1119.0,43.0,28.0,15.0,0.6511627906976745,451.139333511321,2452.3982257708303,5.0,3.0,2.0,0.6,442.8196233009863,2151.4166604388492,24.0,12.0,12.0,0.5,1752.095925535836,34456.77249692724,11.0,2.0,9.0,0.1818181818181818,1167.071288900706,14898.85421773584,105.0,53.0,52.0,0.5047619047619047,466.385113438366,12072.307158451797,0.0,0.0,0.0,0.0,110988.0,111008.0,111095.0,111100.0,111130.0,111154.0,111164.0,111175.0,111365.0,111448.0,0.1205213163285833,-0.36190950823686885,0.04874262757002987,-0.25960467034503903,0.04165701363254645
99,99,112077.6238119316,3359.2756926957377,23.380919091666104,112196.42466090011,-1709.234268345122,2.334794972425658,112224.8174589847,35621.865057708426,9.784155503765286,112249.45203459916,-5126.954843414675,7.739126801706117,112482.25663725076,10086.523278011971,38.58628490190468,0.945550759934425,128.0,102.0,64.0,271.0,335.0,26.0,1078.0,1082.0,54.0,22.0,32.0,0.4074074074074074,436.17105383812464,2576.3755702667067,4.0,1.0,3.0,0.25,768.3359836781327,5948.746462223997,23.0,12.0,11.0,0.5217391304347826,1741.203980852889,32446.526898907956,16.0,3.0,13.0,0.1875,1178.3975354262195,16422.26201757126,93.0,44.0,49.0,0.4731182795698925,492.6426594396478,11422.698370531967,0.0,0.0,0.0,0.0,112067.0,112093.0,112195.0,112199.0,112213.0,112236.0,112246.0,112259.0,112447.0,112530.0,0.12984080311911164,-0.44952058234944847,0.04888020259557127,-0.2298435565391831,0.0488416717892854
100,100,113095.54796540084,2232.507102192456,15.28779240518434,113184.30135639945,-2027.635345567487,10.191861603456228,113242.21467162875,35121.257921906836,9.416777416192248,113269.30135639945,-3979.021602331587,6.92465898458215,113508.68483389584,11662.715203730068,38.23456428262519,0.9383636265034028,95.0,73.0,94.0,274.0,368.0,22.0,1011.0,1017.0,24.0,9.0,15.0,0.375,489.60237439059983,1496.2873350346613,12.0,3.0,9.0,0.25,466.12128710705207,1831.1647604031784,24.0,12.0,12.0,0.5,1696.878086839749,33721.76438767222,13.0,4.0,9.0,0.3076923076923077,913.6216407257444,11069.452582646249,100.0,58.0,42.0,0.58,411.34394812125817,12292.0355049748,0.0,0.0,0.0,0.0,113087.0,113109.0,113182.0,113193.0,113230.0,113254.0,113267.0,113276.0,113466.0,113550.0,0.21930607697049695,-0.22988417918735568,0.048314843694175415,-0.2296096206641325,0.03526999853256287
101,101,114042.69864360055,1812.8897228979315,5.055915888649068,114174.7260172996,-3950.9731549501935,7.643896201832685,114202.8827610126,31224.375001580236,9.830693403514353,114226.60271279886,-7738.667996329315,10.028254338819242,114467.2601729957,8813.148656235795,34.08584360904797,0.9143527003962454,124.0,113.0,77.0,272.0,349.0,11.0,948.0,959.0,14.0,7.0,7.0,0.5,476.2277911729864,1520.4739942877773,18.0,14.0,4.0,0.7777777777777778,803.0469833312171,3091.263912989296,23.0,12.0,11.0,0.5217391304347826,1636.6368005748263,26999.63904258327,19.0,6.0,13.0,0.3157894736842105,1174.9205038012224,16344.804966164686,88.0,45.0,43.0,0.5113636363636364,425.6919852114371,8167.134194806623,0.0,0.0,0.0,0.0,114037.0,114048.0,114161.0,114179.0,114191.0,114214.0,114221.0,114238.0,114425.0,114510.0,0.2626898840883322,-0.20325295866034312,0.052415358209475696,-0.15182464273677623,0.048301918169760615
102,102,114957.03780380296,3831.314921352681,68.58710314285118,115095.42466090011,-1928.721438912648,2.0560522569498523,115121.18381015849,32141.689718855287,9.420526140839051,115147.87669549928,-4608.325514159199,7.145601352710656,115377.18244602656,9842.50845371041,45.57108314149369,0.9577798662593736,168.0,89.0,62.0,269.0,331.0,79.0,919.0,919.0,79.0,32.0,47.0,0.4050632911392405,471.903644790389,5143.413877583259,3.0,2.0,1.0,0.6666666666666666,855.7389003339915,6838.052809258411,24.0,12.0,12.0,0.5,1561.978772437377,29362.913696491058,15.0,7.0,8.0,0.4666666666666667,864.738961059802,10288.439922389483,99.0,47.0,52.0,0.4747474747474747,473.3955305440565,11014.69104566529,0.0,0.0,0.0,0.0,114925.0,115004.0,115093.0,115096.0,115109.0,115133.0,115142.0,115155.0,115341.0,115424.0,0.1231701529311454,-0.4436819558642071,0.048596660166284694,-0.18764710921632363,0.048097040786954745
103,103,115889.24660900142,3440.1676919800084,20.41866183807397,116022.57533909989,-2442.591251698429,2.5479654008640567,116049.16817085745,30349.161937955774,9.98566206322985,116074.45203459916,-4898.809229563839,9.97718599791926,116307.04014916118,9648.645849861186,39.572629897831106,0.952105402236036,144.0,110.0,68.0,269.0,337.0,34.0,925.0,930.0,52.0,20.0,32.0,0.3846153846153846,462.91803943620386,3178.173044241451,5.0,4.0,1.0,0.8,838.9640273831099,7687.679647886163,25.0,13.0,12.0,0.52,1511.8096553892874,27319.50546889144,16.0,3.0,13.0,0.1875,1003.4660631628376,14050.257038216292,90.0,38.0,52.0,0.4222222222222222,385.2857365047775,9537.174744991127,0.0,0.0,0.0,0.0,115875.0,115909.0,116019.0,116024.0,116036.0,116061.0,116071.0,116087.0,116274.0,116356.0,0.13456263789564535,-0.3434729518496987,0.04981388476162707,-0.2048387712481264,0.039931586514839336
104,104,116941.82194810128,2521.0885423847017,21.054610107507887,117069.40911197913,-2531.5014174701264,5.701762523429207,117101.21861744116,30391.05823379848,10.143664400446644,117125.87669549928,-5860.008749613207,6.360735658707109,117361.73091868852,9488.144070600762,41.93040991413599,0.9579927598613532,137.0,118.0,68.0,273.0,341.0,19.0,1053.0,1051.0,45.0,14.0,31.0,0.3111111111111111,440.9652265279843,2683.9312474654516,17.0,11.0,6.0,0.6470588235294118,621.821647206031,2780.399417531715,25.0,13.0,12.0,0.52,1455.5310316903465,28237.69237586846,14.0,5.0,9.0,0.3571428571428571,1062.026233669654,13347.169726023449,102.0,51.0,51.0,0.5,410.81871267180145,9769.891061602377,0.0,0.0,0.0,0.0,116929.0,116948.0,117066.0,117075.0,117088.0,117113.0,117123.0,117134.0,117327.0,117407.0,0.17491064637931147,-0.245633537044373,0.04789339747543316,-0.18123287507714958,0.04329811073850923
105,105,118143.75339099858,2641.832653762906,15.262542394192836,118250.30135639945,-3149.4265666248566,6.718192503370238,118281.28433634294,31802.81995291887,9.606782002113654,118308.30135639945,-4322.212413438833,6.156260097618829,118534.5771238039,9161.17918675753,43.67803026451406,0.9313853213462654,115.0,90.0,66.0,272.0,338.0,25.0,1210.0,1181.0,26.0,12.0,14.0,0.4615384615384615,450.35958666215095,2155.0349852851487,14.0,8.0,6.0,0.5714285714285714,676.6267042042299,1542.4664286334314,25.0,13.0,12.0,0.52,1494.780827202765,30201.92048636888,12.0,6.0,6.0,0.5,954.7283696533932,9772.848632579511,113.0,57.0,56.0,0.504424778761062,462.45157286751027,8463.517821213092,0.0,0.0,0.0,0.0,118133.0,118158.0,118248.0,118256.0,118268.0,118293.0,118303.0,118314.0,118498.0,118586.0,0.1704724127853743,-0.21484123852087458,0.047001518400432714,-0.2208888130266123,0.05047948123708608
106,106,119247.42466090011,2708.268712613314,2.5479654008640567,119369.30135639945,-3836.926848437258,10.19186160228257,119400.5348493465,31918.184096772668,9.908657206313388,119429.30135639945,-4651.348177770585,9.621018635103756,119662.2601729957,9891.810325961478,36.75210783327576,0.9308492214058453,113.0,101.0,76.0,270.0,346.0,12.0,1099.0,1119.0,12.0,1.0,11.0,0.0833333333333333,397.7546380333835,2948.37178352161,17.0,10.0,7.0,0.5882352941176471,648.8557938181198,291.60414571434944,25.0,13.0,12.0,0.52,1530.6032503143228,29018.110959222504,12.0,6.0,6.0,0.5,744.1563321873167,9226.26888975846,93.0,50.0,43.0,0.5376344086021505,472.15868250607946,9353.442183566403,0.0,0.0,0.0,0.0,119246.0,119258.0,119359.0,119375.0,119388.0,119413.0,119423.0,119435.0,119631.0,119705.0,0.1468667552008067,-0.16910820024687004,0.04795395770867448,-0.15998723461377057,0.04773228225645197
107,107,120329.75339099858,3184.8441150526496,19.795617120978015,120448.84932180028,-2800.599649437406,5.095930801728113,120481.7062542884,35111.633580754504,9.502253402222184,120508.7260172996,-3607.7984300055873,6.242247577723621,120739.98619029528,10061.236488065217,40.470542836521766,0.9439580732340844,137.0,102.0,67.0,274.0,341.0,35.0,1087.0,1080.0,37.0,22.0,15.0,0.5945945945945946,406.2041070858051,1419.668926954633,11.0,3.0,8.0,0.2727272727272727,581.513965937664,875.3403177970793,24.0,12.0,12.0,0.5,1692.401343948471,31735.02803815748,8.0,3.0,5.0,0.375,912.139144592425,10862.377718835942,90.0,41.0,49.0,0.4555555555555555,472.44048953084047,11103.865474035249,0.0,0.0,0.0,0.0,120309.0,120344.0,120446.0,120457.0,120470.0,120494.0,120506.0,120513.0,120710.0,120787.0,0.12754285371957366,-0.2076390911690932,0.048200586852675385,-0.2528243088655628,0.0469565038145417
108,108,121347.972626301,2413.287655674982,12.511195701483118,121459.17805189872,-3526.0436530009047,22.93168860777647,121496.64655942544,34698.64700092644,9.730580350835517,121521.87669549928,-6247.895062849359,9.619111666070252,121762.38347749642,10308.12690689049,32.623295763533406,0.9236134049830896,116.0,99.0,78.0,266.0,344.0,17.0,1011.0,1016.0,20.0,10.0,10.0,0.5,427.53096312259714,1979.469206705627,19.0,5.0,14.0,0.2631578947368421,522.2101777061476,1537.5368673046548,24.0,13.0,11.0,0.5416666666666666,1747.135292454328,29597.089211568928,17.0,6.0,11.0,0.3529411764705882,1086.6445701803398,14674.665538889456,85.0,45.0,40.0,0.5294117647058824,474.74288683453807,9906.044082556542,0.0,0.0,0.0,0.0,121338.0,121355.0,121454.0,121473.0,121484.0,121508.0,121519.0,121532.0,121718.0,121798.0,0.17715706708946774,-0.1481008827731645,0.0503516835226365,-0.17392170631060092,0.04605520393013353
109,109,122308.97400231168,2955.38990076287,16.54951540156957,122402.57533909989,-2086.4870740072615,2.547965400864032,122460.75152115853,36557.43299003277,9.43725479117012,122486.7260172996,-3986.012414369218,7.268036076067429,122725.68483389584,11235.192348244467,42.673219983072194,0.9401150254175666,103.0,81.0,98.0,271.0,369.0,22.0,960.0,964.0,31.0,14.0,17.0,0.4516129032258064,449.9652052284867,3519.827225143582,6.0,5.0,1.0,0.8333333333333334,464.5579329465746,1850.613351613115,23.0,12.0,11.0,0.5217391304347826,1819.36905446199,33515.091716756746,12.0,3.0,9.0,0.25,1013.3443173054349,11682.527480026954,114.0,69.0,45.0,0.6052631578947368,437.1565593856202,11161.176312308413,0.0,0.0,0.0,0.0,122295.0,122317.0,122398.0,122404.0,122449.0,122472.0,122485.0,122496.0,122666.0,122767.0,0.15225239996669743,-0.22265076009043028,0.0497674181597497,-0.2542250780886731,0.0389095750064241
110,110,123191.36250772324,1812.523701190419,10.191861603456225,123247.85617082012,-3186.95361468602,12.739827004320285,123343.94416530553,32370.33953823325,9.292899691394124,123367.45203459916,-6919.0669357973,8.341407070770403,123596.56152939513,10001.953532635203,39.40375515700614,0.9269215804373157,43.0,33.0,149.0,267.0,416.0,10.0,887.0,883.0,11.0,6.0,5.0,0.5454545454545454,444.0890311905529,2171.503722013,23.0,19.0,4.0,0.8260869565217391,444.7165731869764,2616.773165101952,23.0,12.0,11.0,0.5217391304347826,1702.2918143689433,28954.566684162615,17.0,4.0,13.0,0.2352941176470588,1207.0423021867875,16959.809447798267,96.0,44.0,52.0,0.4583333333333333,427.4693798896441,11733.164645723637,0.0,0.0,0.0,0.0,123186.0,123196.0,123229.0,123252.0,123332.0,123355.0,123364.0,123378.0,123556.0,123645.0,0.24501143400160044,-0.13954284465818623,0.05258801231782981,-0.1744516006835967,0.04273858886615115
111,111,124043.42466090011,1494.0641539267435,2.547962887803948,124116.69864360055,-3778.1539623978792,10.191861603456228,124210.89656986392,30612.78998203104,9.7321240028343,124232.45203459916,-7978.79634184666,10.459379608650876,124470.6755679061,8217.540571070953,29.007301405224677,0.9105864022920028,70.0,67.0,136.0,262.0,398.0,3.0,851.0,867.0,3.0,2.0,1.0,0.6666666666666666,488.5847546622181,2243.6035178593547,40.0,14.0,26.0,0.35,426.284281127034,3427.7595301419447,23.0,13.0,10.0,0.5652173913043478,1581.20555756927,24841.473565122385,20.0,4.0,16.0,0.2,1240.7449422272307,18485.79337947377,68.0,30.0,38.0,0.4411764705882353,398.0853140706155,8983.43013511348,0.0,0.0,0.0,0.0,124041.0,124044.0,124111.0,124123.0,124198.0,124221.0,124229.0,124247.0,124441.0,124509.0,0.32701725249086877,-0.11282872147869917,0.0516517951646158,-0.155505277872535,0.04844336460863191
112,112,124911.69864360055,2756.33238186289,10.191861603456228,125024.84932180028,-1427.6478262938208,1.8707201356622083,125079.28520292614,30830.83942176343,9.75649312544962,125104.30135639945,-4978.896837514246,7.506626173074952,125345.80813839656,9682.309159918552,38.06851296999652,0.9131897068869936,116.0,102.0,91.0,267.0,358.0,14.0,867.0,871.0,55.0,12.0,43.0,0.2181818181818181,520.7615084500396,2556.912484546534,5.0,3.0,2.0,0.6,501.6627873711581,2433.3503782604503,24.0,12.0,12.0,0.5,1547.998709635351,28350.07825588847,13.0,2.0,11.0,0.1538461538461538,1079.9116023874071,13916.713291357475,100.0,63.0,37.0,0.63,431.1960068929763,9895.07403506819,0.0,0.0,0.0,0.0,124906.0,124920.0,125022.0,125027.0,125067.0,125091.0,125102.0,125113.0,125300.0,125380.0,0.18893276873164283,-0.3513911331154243,0.050209424675690846,-0.2168977662382259,0.04453441836767414
113,113,125956.69864360055,1191.8720036499606,10.191861603450873,126058.15067819972,-3036.5191169922236,5.095930801728113,126116.30520818938,30195.12569130608,9.55644353530278,126141.87669549928,-4737.499904986216,9.407715880560232,126373.06815560162,8671.902873982732,37.938000228862094,0.9206659475690304,104.0,96.0,94.0,270.0,364.0,8.0,1045.0,1033.0,8.0,6.0,2.0,0.75,428.3358184470101,1865.2984051878536,12.0,9.0,3.0,0.75,502.5408981613645,2895.7777211152156,24.0,12.0,12.0,0.5,1491.8190818554597,26943.742277502428,11.0,4.0,7.0,0.3636363636363636,868.4232180009695,12660.666378974118,108.0,54.0,54.0,0.5,492.6451786609135,8652.285187442587,0.0,0.0,0.0,0.0,125951.0,125959.0,126055.0,126061.0,126104.0,126128.0,126138.0,126149.0,126339.0,126419.0,0.35938071968742,-0.16549900685596491,0.04940595701129971,-0.18330833465283125,0.05680935151371882
114,114,127091.52490969228,2753.52903225358,20.534160569797677,127218.47072027232,-2937.356233895992,5.095930801728113,127251.72414120138,33733.66483541479,9.413393824499304,127277.15067819972,-3784.600911111945,5.095930801728113,127515.68483389584,9422.099186138985,37.81628283142703,0.9404955315043466,138.0,118.0,67.0,274.0,341.0,20.0,1133.0,1139.0,55.0,26.0,29.0,0.4727272727272727,495.1922537460843,2340.3555326486194,9.0,2.0,7.0,0.2222222222222222,571.2268875122003,308.6207303592114,25.0,13.0,12.0,0.52,1632.2111026964872,30193.682245303895,9.0,2.0,7.0,0.2222222222222222,1051.616438022967,12897.45674618654,84.0,39.0,45.0,0.4642857142857143,406.0793556342787,9968.846102108071,0.0,0.0,0.0,0.0,127078.0,127098.0,127216.0,127225.0,127239.0,127264.0,127276.0,127283.0,127478.0,127557.0,0.17983912569855942,-0.19446973469559317,0.048385229137124,-0.2778671946453646,0.043098607604520785
115,115,128202.75339099858,3135.6959057799536,23.276792573722368,128323.2739827004,-2744.033431662478,5.463509716451296,128351.5973241011,33594.70289126171,9.773450225070198,128377.87669549928,-4736.849603357062,6.664896948929572,128610.78942040962,10553.866098005949,40.6208755923052,0.9476242722882764,122.0,102.0,66.0,271.0,337.0,20.0,1119.0,1099.0,54.0,26.0,28.0,0.4814814814814814,486.8857217738011,2676.688814544923,7.0,4.0,3.0,0.5714285714285714,785.463054995201,4408.711004687193,25.0,13.0,12.0,0.52,1596.6539173826102,31205.72182592039,13.0,5.0,8.0,0.3846153846153846,989.9871460340072,10986.653295025406,91.0,46.0,45.0,0.5054945054945055,482.64402364789566,11398.126545444156,0.0,0.0,0.0,0.0,128197.0,128217.0,128319.0,128326.0,128339.0,128364.0,128374.0,128385.0,128568.0,128656.0,0.15527198312704246,-0.28624398155357994,0.04752695454847777,-0.20899695555721073,0.045731490163503835
116,116,129241.86226889143,4192.996141340516,56.05523881893204,129306.30135639945,-2469.961744616495,-3.397287201152076,129389.38439093049,36860.67750445762,9.894032513384978,129415.57533909989,-2831.5433824919755,2.5479654008640567,129640.86288579454,11977.54230019772,55.14652045611154,0.941683371887835,84.0,36.0,113.0,278.0,391.0,48.0,1039.0,1039.0,56.0,23.0,33.0,0.4107142857142857,479.5523958457177,5114.334221537704,2.0,1.0,1.0,0.5,518.7883375173145,224.7430717402972,26.0,13.0,13.0,0.5,1681.181002612258,34823.85695554823,3.0,2.0,1.0,0.6666666666666666,989.0307643500274,9665.984259157176,120.0,62.0,58.0,0.5166666666666667,422.7621137806579,11450.211889028682,0.0,0.0,0.0,0.0,129220.0,129268.0,129304.0,129420.0,129376.0,129402.0,129414.0,129417.0,129596.0,129695.0,0.1143698633818449,-0.2100390172633486,0.04560906408757544,-0.34929034478702015,0.03529623216389552
117,117,130224.6877093815,2828.432295019598,18.525900784645824,130313.30135639945,-2795.183906693773,10.191861603456228,130377.6382999786,36488.07169934771,9.274584143497504,130406.027373699,-4843.551352358056,17.835757806035396,130637.57123284988,9777.85420222118,32.847659599268496,0.9513042736171772,96.0,76.0,105.0,264.0,369.0,20.0,979.0,985.0,20.0,10.0,10.0,0.5,544.9902164296952,4102.873000282546,28.0,16.0,12.0,0.5714285714285714,447.6699198011634,1557.1512336688338,24.0,13.0,11.0,0.5416666666666666,1817.419835622569,29979.7897469685,20.0,9.0,11.0,0.45,774.9322867414692,10396.528180140962,88.0,43.0,45.0,0.4886363636363636,404.9445133527985,9574.261668363488,0.0,0.0,0.0,0.0,130215.0,130235.0,130311.0,130324.0,130366.0,130389.0,130397.0,130416.0,130609.0,130680.0,0.19268278664097174,-0.16015759060758214,0.04980860185206933,-0.159992581964512,0.041414456073686344
118,118,131153.87669549932,2099.5576008240314,12.739827004320285,131264.12330450068,-2982.3580682961906,12.739827004320285,131307.35292867917,34991.94400545482,9.237506992325562,131331.02737369903,-6414.584876469059,11.41887850163868,131561.136868495,9847.88779505683,38.71400697392984,0.9308754856351504,106.0,95.0,86.0,268.0,354.0,11.0,931.0,933.0,19.0,5.0,14.0,0.2631578947368421,468.6765137949709,1109.90055411932,28.0,8.0,20.0,0.2857142857142857,567.0282482234554,2396.2243987813517,23.0,12.0,11.0,0.5217391304347826,1820.1374478880575,30034.75289863455,19.0,6.0,13.0,0.3157894736842105,1180.3284453315598,16870.710729223912,99.0,47.0,52.0,0.4747474747474747,441.5771970270797,10531.778531454767,0.0,0.0,0.0,0.0,131151.0,131162.0,131257.0,131270.0,131295.0,131318.0,131327.0,131343.0,131517.0,131611.0,0.2232263185401655,-0.19012748812800886,0.052015899648339636,-0.18400698845866353,0.04483978759879153
119,119,132035.37825518218,1766.0967865966654,0.9662792358540728,132170.87669549935,-4036.2541943276383,12.7398270043171,132201.5614369006,30377.74991222665,10.27474248343322,132224.60271279886,-7785.677127422158,8.771492940744468,132466.08212109702,9673.362708944636,35.54534013894251,0.8711589395930474,129.0,126.0,76.0,257.0,333.0,3.0,879.0,893.0,3.0,1.0,2.0,0.3333333333333333,467.42440430312706,3093.9840706393315,24.0,16.0,8.0,0.6666666666666666,720.0414177809506,2010.5697466293616,24.0,13.0,11.0,0.5416666666666666,1607.8805268988124,26066.836862024775,20.0,5.0,15.0,0.25,1175.9878941523957,16054.473356770084,83.0,48.0,35.0,0.5783132530120482,505.6946231990109,9836.960324565429,0.0,0.0,0.0,0.0,132034.0,132037.0,132163.0,132178.0,132189.0,132213.0,132220.0,132239.0,132421.0,132496.0,0.2646652255134167,-0.17839347650424567,0.0529295465116612,-0.1510450375613978,0.0522770248996672
120,120,132694.42451294544,2658.8264301419263,0.3309334479948542,133053.87670250578,-4157.067532344221,12.73978277013108,133084.04425283868,30417.793297331104,9.858906904320133,133108.1780519125,-7202.4059409397205,9.497032601433318,133353.08212109702,8475.433098095242,31.84858834137415,0.8582561315449128,349.0,345.0,80.0,261.0,341.0,4.0,659.0,880.0,3.0,1.0,2.0,0.3333333333333333,495.4880122666343,1643.1303251422248,88.0,80.0,8.0,0.9090909090909092,713.1175459741755,2227.0310046388076,23.0,12.0,11.0,0.5217391304347826,1588.5408876770796,26860.358734973695,23.0,6.0,17.0,0.2608695652173913,1086.942525799289,15448.9972878558,80.0,49.0,31.0,0.6125,498.80153439724575,9029.246526001712,0.0,0.0,0.0,0.0,132693.0,132697.0,133042.0,133061.0,133073.0,133095.0,133103.0,133122.0,133307.0,133383.0,0.18635590749719813,-0.17154341141339116,0.05222406741176916,-0.15091381056723277,0.05885263072979076
121,121,134849.22773421777,2773.3130294607035,14.12202738458856,134957.69864360054,-2782.343369998246,10.191861603456228,135003.7348404778,30895.757690336686,10.135172063602992,135027.45203459918,-5841.856187150241,7.584011736675386,135260.87565555132,8959.533895048102,37.505348290705875,0.9628186939192293,117.0,98.0,85.0,271.0,356.0,19.0,2153.0,1920.0,19.0,14.0,5.0,0.7368421052631579,435.0232180149979,3542.353133157999,29.0,9.0,20.0,0.3103448275862069,431.74829848483785,2819.195043814638,25.0,13.0,12.0,0.52,1501.409562601085,27282.22869733702,14.0,3.0,11.0,0.2142857142857142,1182.9399957817388,16397.514130916323,84.0,36.0,48.0,0.4285714285714285,443.8529240175794,9463.170367521983,0.0,0.0,0.0,0.0,134835.0,134854.0,134952.0,134972.0,134991.0,135016.0,135024.0,135037.0,135225.0,135308.0,0.15686048181138507,-0.1551743408597013,0.04859597805140358,-0.20249385775427614,0.049539733787144345
122,122,135912.84932180023,2891.1876583241756,5.095930801728113,136030.4246609001,-1908.144251723046,2.5479654008640567,136059.21404515536,32687.862787107904,9.905329059502549,136084.30135639946,-4571.995344074145,5.5887356277151845,136307.79092973907,10110.719063774108,48.07557690551502,0.9194864890994908,116.0,108.0,65.0,272.0,337.0,8.0,1065.0,1056.0,28.0,6.0,22.0,0.2142857142857142,437.25083620510947,2631.823551800518,5.0,4.0,1.0,0.8,688.4521156629733,4825.5318160652405,25.0,12.0,13.0,0.48,1565.2036310756769,31569.960403331268,9.0,2.0,7.0,0.2222222222222222,1045.92184476558,13308.106916192755,114.0,53.0,61.0,0.4649122807017544,408.0675688222639,9672.58581523392,0.0,0.0,0.0,0.0,135910.0,135918.0,136026.0,136031.0,136047.0,136072.0,136082.0,136091.0,136261.0,136363.0,0.15123571621032514,-0.3607966824527569,0.04788332725420621,-0.2287670406579089,0.04035989589349161
123,123,136909.63070557002,2097.073648497401,2.5479654008640567,137040.02737369903,-2576.421479426089,17.8357578060484,137074.07416795462,33594.62096931485,9.765435386976815,137100.02737369903,-4420.336347306535,7.295278061948402,137330.3513734347,8839.800702302342,37.57721888034757,0.9318901933812732,122.0,119.0,79.0,266.0,345.0,3.0,998.0,1014.0,3.0,1.0,2.0,0.3333333333333333,476.67136027039754,3387.9312393667706,19.0,9.0,10.0,0.4736842105263157,516.0379966414931,363.09910846657385,24.0,12.0,12.0,0.5,1600.7235879169257,30385.312424324344,14.0,4.0,10.0,0.2857142857142857,949.6019684142296,12932.682028448244,86.0,36.0,50.0,0.4186046511627907,461.79024574485373,10261.482982907226,0.0,0.0,0.0,0.0,136909.0,136912.0,137031.0,137050.0,137062.0,137086.0,137096.0,137110.0,137300.0,137376.0,0.22730310907866444,-0.20029253783291825,0.047648210985294884,-0.21482572677820214,0.05223989332978736
124,124,137918.84932180023,1621.9465065839483,5.095930801728113,138048.45203459918,-4277.8900265619195,15.28779240518434,138081.52764967503,33374.1287169036,9.903252941211733,138106.30135639946,-6564.888621542551,8.031867793827159,138338.4973252589,10241.853488039327,38.30768511271883,0.9443055537767384,122.0,118.0,78.0,266.0,344.0,4.0,1008.0,1008.0,20.0,5.0,15.0,0.25,489.5112384736257,1391.7917406291208,19.0,10.0,9.0,0.5263157894736842,621.2279938711939,1286.9554411756008,24.0,13.0,11.0,0.5416666666666666,1674.9498422938698,30147.5429170144,16.0,5.0,11.0,0.3125,1182.0496488200947,15177.836416304608,89.0,45.0,44.0,0.5056179775280899,403.3919651959955,11077.504273616882,0.0,0.0,0.0,0.0,137916.0,137920.0,138038.0,138057.0,138069.0,138093.0,138104.0,138116.0,138308.0,138382.0,0.3018047984237202,-0.1452183179123158,0.05018707324172114,-0.1800563142748869,0.039386617438639006
125,125,138867.30135639946,3448.9918141719236,10.191861603456228,138980.30306129943,-3260.976774694078,10.191861603456228,139013.9866229269,34318.388657856456,9.778617552727168,139037.7260172996,-6349.355246386005,7.40899647223734,139277.80813839656,10258.891915830003,31.42656106931034,0.9263016783168466,127.0,104.0,71.0,264.0,335.0,23.0,951.0,933.0,34.0,20.0,14.0,0.5882352941176471,466.7873727631177,1829.3007610654756,15.0,6.0,9.0,0.4,561.5722861640563,522.3815472255071,24.0,12.0,12.0,0.5,1746.8955136235668,31871.343892425895,12.0,2.0,10.0,0.1666666666666666,1191.1401278556234,16890.45664771297,88.0,48.0,40.0,0.5454545454545454,430.0060390687699,8903.297690764255,0.0,0.0,0.0,0.0,138850.0,138873.0,138977.0,138988.0,139002.0,139026.0,139036.0,139048.0,139232.0,139312.0,0.1353402379341946,-0.17220983924877512,0.05090260883282038,-0.187600170668291,0.04191544687250757
126,126,139835.5753390999,2275.2412080338236,2.5479654008640567,139942.17805189872,-3827.9368840373713,22.93168860777651,139980.80812499725,34805.75575893342,10.088797353602487,140004.30135639946,-6976.1828715661295,8.291581940986031,140233.31237318408,9212.28921048226,34.84915947711141,0.9224142754462372,90.0,79.0,97.0,264.0,361.0,11.0,967.0,968.0,11.0,10.0,1.0,0.9090909090909092,472.74328657982386,2839.8802614747874,59.0,45.0,14.0,0.7627118644067796,485.8351752052285,1719.6474312045425,23.0,12.0,11.0,0.5217391304347826,1716.9340407414238,31110.3614360391,16.0,5.0,11.0,0.3125,1269.8319311775151,17273.22816171026,87.0,42.0,45.0,0.4827586206896552,501.607956152396,10002.665201541728,0.0,0.0,0.0,0.0,139826.0,139837.0,139916.0,139955.0,139969.0,139992.0,140002.0,140013.0,140194.0,140277.0,0.20777721716298841,-0.12691828259530033,0.049329026286140824,-0.18202388821445017,0.05444987067727295
127,127,140786.1506782004,2106.810314050769,5.095930801728113,140900.87357088542,-3416.1380862509163,4.555117586073694,140928.95848675698,35848.448303901125,9.264532870586498,140954.45203459918,-5517.479382673371,8.629488570504565,141185.30448192614,10259.086828124004,35.03276689171472,0.9381128417205604,111.0,105.0,67.0,265.0,332.0,6.0,951.0,948.0,12.0,1.0,11.0,0.0833333333333333,487.0094537909547,1340.2783409141798,11.0,6.0,5.0,0.5454545454545454,860.0766066078249,4954.190283119189,23.0,12.0,11.0,0.5217391304347826,1837.4870660518511,32068.745647705426,19.0,7.0,12.0,0.3684210526315789,1080.5707620529113,14252.492856557456,88.0,40.0,48.0,0.4545454545454545,468.94442782377143,10342.540959586362,0.0,0.0,0.0,0.0,140785.0,140791.0,140896.0,140906.0,140917.0,140940.0,140947.0,140963.0,141145.0,141228.0,0.23115961154309164,-0.2517686887627329,0.05125708790725792,-0.19584500223892906,0.04571015292883758
128,128,141685.97073258253,1883.26876930098,0.7844486514803142,141779.75339099858,-3265.212793756953,25.47965400864057,141843.41339502766,32730.68912924165,9.384535646232957,141866.60271279886,-6799.625098626276,10.085423943605576,142092.74371439975,9206.789344539788,39.31073237343727,0.901376023138434,81.0,79.0,114.0,258.0,372.0,2.0,899.0,916.0,2.0,1.0,1.0,0.5,508.5437237384451,2626.276392802817,74.0,34.0,40.0,0.4594594594594595,508.8251984737629,2105.023056052903,23.0,12.0,11.0,0.5217391304347826,1735.8414636392151,28375.7885399532,19.0,6.0,13.0,0.3157894736842105,1105.1054354934345,16242.42720841332,85.0,35.0,50.0,0.4117647058823529,520.3736473761571,10491.584454212543,0.0,0.0,0.0,0.0,141685.0,141687.0,141766.0,141794.0,141831.0,141854.0,141862.0,141880.0,142064.0,142138.0,0.27003247334006564,-0.15583217101397817,0.05303406404872825,-0.16252446560865513,0.05652064231107577
129,129,142575.12330421334,2935.579405254741,12.739827004320285,142642.15067819977,-1658.943440572197,5.095930801728113,142726.12144461376,31802.980013068325,9.502696776416837,142753.30135639946,-4423.871593337297,6.592149180650773,142997.35610379744,9268.453318449365,37.097181995302066,0.87432393309206,76.0,61.0,120.0,264.0,384.0,15.0,887.0,879.0,25.0,17.0,8.0,0.68,470.06828197618665,2489.019703293511,11.0,8.0,3.0,0.7272727272727273,402.8264113312958,847.5757895414748,24.0,12.0,12.0,0.5,1542.967989240559,29930.025655246296,13.0,6.0,7.0,0.4615384615384615,927.266573919029,10063.151345169572,111.0,74.0,37.0,0.6666666666666666,505.2030671668757,8285.591710465585,0.0,0.0,0.0,0.0,142563.0,142578.0,142639.0,142645.0,142715.0,142738.0,142747.0,142759.0,142943.0,143023.0,0.1601279396955694,-0.2428210639853727,0.048516459420045864,-0.20960521894793835,0.054507807269336
130,130,143474.54796540082,2716.260416625991,15.28779240518434,143586.7260172996,-1920.1834355434585,7.64389620259217,143638.30659429834,31549.371599910966,9.4347102366787,143663.45203459918,-5483.9341968790295,8.819148029251066,143890.9630691774,9115.46913305733,38.71509480526049,0.9202803375035364,119.0,99.0,87.0,262.0,349.0,20.0,899.0,913.0,42.0,20.0,22.0,0.4761904761904761,372.2975631360048,1785.715598638274,8.0,3.0,5.0,0.375,455.7989367073611,2661.581392555585,24.0,12.0,12.0,0.5,1569.1365712550346,29631.399684122644,14.0,5.0,9.0,0.3571428571428571,1034.2188456331428,14271.346903566098,85.0,34.0,51.0,0.4,518.3637151799102,10010.96124541108,0.0,0.0,0.0,0.0,143466.0,143486.0,143585.0,143592.0,143626.0,143650.0,143659.0,143672.0,143862.0,143934.0,0.1370625440982036,-0.23737260111212186,0.04973590571482136,-0.1885906738672628,0.0568663781987983
131,131,144505.12330450068,2186.142469693645,12.739827004320285,144580.15067819977,-2250.539982925274,5.095930801728113,144666.35759970473,31554.90255127188,9.76172861972347,144690.87669549932,-4774.741583196932,7.170530410072082,144924.7234398813,8748.632921039569,35.27002689994084,0.9454134207158768,79.0,67.0,122.0,270.0,392.0,12.0,1031.0,1028.0,20.0,9.0,11.0,0.45,421.3913242527685,2281.510683913773,11.0,8.0,3.0,0.7272727272727273,378.60967130919624,1884.4798555524903,24.0,12.0,12.0,0.5,1491.087873849435,28601.709517981188,15.0,4.0,11.0,0.2666666666666666,1038.9556390074918,12480.032006385074,92.0,44.0,48.0,0.4782608695652174,470.71628557524434,8316.925417464077,0.0,0.0,0.0,0.0,144498.0,144510.0,144577.0,144583.0,144654.0,144678.0,144688.0,144699.0,144893.0,144969.0,0.19275565526697816,-0.16823059096114154,0.047253762594469936,-0.21759410868720946,0.053804553216905436
132,132,145570.4246609001,1493.9640367055706,1.8101297410567372,145704.30135639946,-4340.62613707565,10.191861603456228,145737.58533974722,31408.478016432724,9.719372837992656,145761.45203459918,-5960.109756152155,15.287792405184335,145997.68483389585,8443.800792041544,32.32541303465423,0.903051597651967,133.0,130.0,68.0,269.0,337.0,3.0,1067.0,1070.0,3.0,1.0,2.0,0.3333333333333333,459.0822209937158,2336.6461382477373,43.0,34.0,9.0,0.7906976744186046,602.2234652422018,524.4813789335915,24.0,13.0,11.0,0.5416666666666666,1565.8338833914088,25423.94872469895,14.0,4.0,10.0,0.2857142857142857,1094.991677179279,16016.9074161107,88.0,46.0,42.0,0.5227272727272727,434.8366798365517,8791.554128423883,0.0,0.0,0.0,0.0,145569.0,145572.0,145702.0,145710.0,145725.0,145749.0,145757.0,145770.0,145960.0,146039.0,0.307291346856023,-0.1387411507520271,0.04985386055867381,-0.1837200524787324,0.05149774260974918
133,133,146641.4246609001,1508.3318345797527,2.5479654008640265,146754.75339099858,-3710.2615722013934,25.47965400864057,146798.40813395812,33149.46080903538,10.171345872256849,146823.30135639946,-6418.002029883605,8.413461571583184,147056.784459751,9068.684645339594,34.547638277721596,0.9287036441823036,109.0,104.0,83.0,270.0,353.0,5.0,1071.0,1065.0,5.0,1.0,4.0,0.2,413.6206914867678,2329.033591093097,26.0,6.0,20.0,0.2307692307692307,442.5954297501604,3442.926350208004,24.0,12.0,12.0,0.5,1678.124170012161,30602.73005903678,11.0,2.0,9.0,0.1818181818181818,1089.3104048270675,16325.72607431994,83.0,38.0,45.0,0.4578313253012048,433.3184918517916,9568.326869248269,0.0,0.0,0.0,0.0,146640.0,146645.0,146749.0,146774.0,146786.0,146810.0,146821.0,146832.0,147019.0,147102.0,0.27422393534643497,-0.11928954903509867,0.05062297030046302,-0.16972733878160254,0.04778184585726822
134,134,147680.84932180023,3452.220416854477,5.095930801728113,147794.69864360054,-2233.3909240927487,5.9950535614886125,147827.7879350342,34799.77970974953,9.34556199524724,147857.15067819977,-4245.208641069414,5.095930801728044,148082.5666390847,10694.324705550109,43.21711417879902,0.9532792049449365,111.0,96.0,71.0,272.0,343.0,15.0,1039.0,1027.0,39.0,22.0,17.0,0.5641025641025641,428.4831335013634,2533.020301982907,11.0,6.0,5.0,0.5454545454545454,611.1054869794496,834.0066514486971,24.0,12.0,12.0,0.5,1703.4518795302831,32463.315722273703,11.0,8.0,3.0,0.7272727272727273,791.5658593009016,8426.158639921592,102.0,48.0,54.0,0.4705882352941176,508.7097932811921,10057.071243623494,0.0,0.0,0.0,0.0,147678.0,147693.0,147789.0,147800.0,147816.0,147840.0,147849.0,147860.0,148041.0,148132.0,0.12411812739691164,-0.2736222666561134,0.048950076515945386,-0.18646100256252604,0.04756820157304401
135,135,148727.8493195184,2597.3238284623494,5.095930801728113,148861.30135639946,-3651.34536904656,10.191861603456228,148890.8525418582,34425.52967520118,9.454511978149531,148917.45203459918,-5842.6727033267125,9.301162465289622,149144.8119678499,10400.43965653864,39.58250894334723,0.9355764170839048,124.0,118.0,79.0,268.0,347.0,6.0,1047.0,1065.0,9.0,6.0,3.0,0.6666666666666666,529.8612930514707,3287.941843007411,20.0,14.0,6.0,0.7,743.0271096710438,2153.3362341418415,24.0,13.0,11.0,0.5416666666666666,1787.8125238889406,30771.269606964463,13.0,4.0,9.0,0.3076923076923077,1014.2166641061908,14280.106073103863,99.0,48.0,51.0,0.4848484848484848,515.4037299024558,10409.28575077012,0.0,0.0,0.0,0.0,148723.0,148729.0,148847.0,148867.0,148879.0,148902.0,148913.0,148926.0,149102.0,149194.0,0.20400278442182382,-0.2034940643988063,0.051932752836532585,-0.17358779373842284,0.049555955990613076
