Unnamed: 0,cycle,p_center,p_height,p_width,q_center,q_height,q_width,r_center,r_height,r_width,s_center,s_height,s_width,t_center,t_height,t_width,r_squared,pr_interval,pr_segment,qrs_duration,st_segment,qt_interval,p_duration,pp_interval,rr_interval,fwhm_p,rise_time_p,decay_time_p,rise_decay_symmetry_p,sharpness_deriv_p,sharpness_diff_p,fwhm_q,rise_time_q,decay_time_q,rise_decay_symmetry_q,sharpness_deriv_q,sharpness_diff_q,fwhm_r,rise_time_r,decay_time_r,rise_decay_symmetry_r,sharpness_deriv_r,sharpness_diff_r,fwhm_s,rise_time_s,decay_time_s,rise_decay_symmetry_s,sharpness_deriv_s,sharpness_diff_s,fwhm_t,rise_time_t,decay_time_t,rise_decay_symmetry_t,sharpness_deriv_t,sharpness_diff_t,Average_Heart_Rate,SDNN,RMSSD,NN50,p_on,p_off,q_on,q_off,r_on,r_off,s_on,s_off,t_on,t_off,sharpness_deriv_p_norm,sharpness_deriv_q_norm,sharpness_deriv_r_norm,sharpness_deriv_s_norm,sharpness_deriv_t_norm
0,0,,,,,,,,,,,,,,,,,,,,,,,,,,,,,,,,,,,,,,,,,,,,,,,,,,,,,,,72.64856656332347,215.5747303450364,288.0977083388075,246.0,,,,,,,,,,,,,,,
1,1,1330.434126297626,4350.685995857123,15.792186262755637,1430.301356399424,-4517.070239427404,5.681400826997945,1458.6662921568543,47109.44385700249,7.7334832166132434,1539.424660900144,-1888.002756760446,1.7785998813917558,1731.50678199712,9975.93556561858,33.729659622936346,0.970914496362305,109.0,75.0,124.0,214.0,338.0,34.0,,,41.0,18.0,23.0,0.4390243902439024,198.41124870881583,4290.893485631237,15.0,9.0,6.0,0.6,761.6703841440944,2819.433382580458,19.0,10.0,9.0,0.5263157894736842,2531.1497734666655,44873.47615425235,8.0,1.0,7.0,0.125,346.8135986809146,1969.521502260954,72.0,42.0,30.0,0.5833333333333334,202.80709693203673,10052.463815678408,,,,,1313.0,1347.0,1422.0,1436.0,1449.0,1468.0,1538.0,1546.0,1691.0,1760.0,0.04560458945962775,-0.16862044284718625,0.053729137222460074,-0.18369337514951473,0.02032963180225405
2,2,2115.4520345991364,3895.858138686745,14.214457979829298,2201.3013563994245,-4496.485480612835,5.730834202422057,2230.113048869166,45480.435864448365,7.879942054959305,2302.591055500872,-1536.2228620021926,1.4709402698806398,2496.3344637557393,9719.209899357244,31.94006516154385,0.9740547628419548,101.0,65.0,116.0,227.0,343.0,36.0,792.0,770.0,43.0,28.0,15.0,0.6511627906976745,263.2007129509105,2680.551988710144,19.0,13.0,6.0,0.6842105263157895,739.3960491668715,2565.7658486096793,19.0,9.0,10.0,0.4736842105263157,2432.2738599014147,43861.43478998219,5.0,3.0,2.0,0.6,283.99875734679006,1791.5749144198476,76.0,37.0,39.0,0.4868421052631579,271.59727764202745,10346.609907985398,,,,,2088.0,2124.0,2189.0,2207.0,2221.0,2240.0,2300.0,2305.0,2464.0,2532.0,0.06755911113324903,-0.1644386604504498,0.053479563545755296,-0.18486820133417903,0.02794437824210267
3,3,2887.913499671976,3004.618419653882,11.114080891156684,2975.1780518987043,-3161.7963389552538,22.93168860777651,3012.4520345991364,45867.30580710203,8.00328119621803,3035.1506781997123,-2106.6420376557926,5.095930801728113,3277.771165744053,9145.811413689393,32.51903408881488,0.9721388684331004,83.0,62.0,83.0,278.0,361.0,21.0,767.0,785.0,32.0,16.0,16.0,0.5,231.88491358714452,2818.395088743778,45.0,31.0,14.0,0.6888888888888889,307.68450944063284,1630.5288780209266,20.0,10.0,10.0,0.5,2445.79364586344,42580.11287671894,5.0,1.0,4.0,0.2,1125.9333789272364,15184.614298043436,83.0,41.0,42.0,0.4939759036144578,227.29788834766356,8868.89639817142,,,,,2873.0,2894.0,2956.0,2988.0,3002.0,3021.0,3034.0,3039.0,3238.0,3317.0,0.07717616056346235,-0.0973131968209883,0.05332324632602983,-0.5344682954205836,0.024852676057527875
4,4,4337.57115622296,4148.603314931078,13.463900432955528,4434.662971543492,-4588.9058629526335,6.426950151246281,4464.025235773014,46441.750030605086,7.930990074050221,4532.575339099857,-1278.246640983101,2.5479654008637485,4732.082121096977,9737.391497754275,31.722943359310037,0.973529524714112,100.0,71.0,108.0,228.0,336.0,29.0,1454.0,1448.0,30.0,12.0,18.0,0.4,211.1443117142681,4606.607388534922,16.0,9.0,7.0,0.5625,689.7960867852739,2115.006275971513,20.0,10.0,10.0,0.5,2519.09139164315,45752.931431154306,11.0,10.0,1.0,0.9090909090909092,293.2320757014574,1339.722228337775,68.0,37.0,31.0,0.5441176470588235,326.94112748764667,10138.208809024742,,,,,4326.0,4355.0,4426.0,4442.0,4454.0,4474.0,4523.0,4534.0,4695.0,4762.0,0.050895276237751336,-0.15031820381284514,0.05424195664424941,-0.2294017964138222,0.033575842931143185
5,5,5069.94429947599,3766.4698827489938,17.002566385803327,5162.846132803102,-4024.1280972551176,7.428794364372838,5194.330092230753,46833.27654080627,8.010834466961061,5262.941658697194,-1471.1315210505188,4.263773807724733,5456.642099615737,9522.749086885951,32.531124226577674,0.9806849446874796,94.0,73.0,115.0,230.0,345.0,21.0,729.0,731.0,22.0,12.0,10.0,0.5454545454545454,286.2963990541862,4371.882525084931,21.0,12.0,9.0,0.5714285714285714,448.6719768510981,171.7857974120534,20.0,10.0,10.0,0.5,2477.863513940661,46168.38824192807,10.0,5.0,5.0,0.5,233.65210978000033,1796.092025151504,87.0,43.0,44.0,0.4942528735632184,341.29656747683106,8833.324652230984,,,,,5059.0,5080.0,5153.0,5172.0,5184.0,5204.0,5258.0,5268.0,5424.0,5498.0,0.07601186468142687,-0.11149545094181769,0.05290818189459103,-0.1588247593343333,0.03584013023579927
6,6,5786.830603635771,4501.870066419114,17.592567433487385,5880.089850204264,-4522.39663187574,6.516000414701914,5910.41707223536,46184.411426438455,8.235406271692694,5991.849321800287,-1302.3306055839162,2.187560568215999,6171.014262391902,9194.284967621885,37.75534809953363,0.977298187336145,107.0,80.0,124.0,209.0,333.0,27.0,716.0,716.0,41.0,23.0,18.0,0.5609756097560976,267.9878987809602,4985.79217817113,14.0,7.0,7.0,0.5,604.3226638074757,404.04524465648615,20.0,10.0,10.0,0.5,2456.0430852861714,45541.79204936625,8.0,3.0,5.0,0.375,223.30609008922576,1133.2683083182378,58.0,23.0,35.0,0.396551724137931,268.8571781860135,12578.567964006905,,,,,5766.0,5793.0,5873.0,5886.0,5900.0,5920.0,5989.0,5997.0,6148.0,6206.0,0.05952812827272993,-0.13362885058509844,0.053179049151640796,-0.17146651482486178,0.0292417712886654
7,7,6516.2451520107925,4443.7800970780245,17.9720796383809,6609.464622179244,-3979.262861502226,6.011230258589187,6640.785250047071,48591.93468750873,7.838263357226892,6705.2769392870305,-846.1454360145112,0.5675430257933911,6903.697222890042,10363.83814017856,36.8059311661355,0.9724131332113036,109.0,69.0,116.0,225.0,341.0,40.0,726.0,730.0,51.0,25.0,26.0,0.4901960784313725,191.21029466066437,3556.7476662788163,16.0,8.0,8.0,0.5,454.9980599044488,502.5851275265731,19.0,10.0,9.0,0.5263157894736842,2619.458527120509,46040.37993115251,3.0,1.0,2.0,0.3333333333333333,249.64345310921684,740.0177773505967,75.0,37.0,38.0,0.4933333333333333,258.1435539789269,13268.321792883926,,,,,6492.0,6532.0,6601.0,6617.0,6631.0,6650.0,6704.0,6717.0,6867.0,6942.0,0.04302874815664108,-0.11434229799352356,0.05390726967275661,-0.2950361042955924,0.024908103589359926
8,8,7265.821948101295,3180.630370524674,15.207643207950603,7353.273982700431,-4583.468405079485,7.64389620259217,7387.356727057539,47019.78792919492,7.630087533118256,7449.492086665017,-2116.9831690371752,5.618943497004749,7650.2510882325,10264.522464764626,32.30120135863211,0.9747628078327653,96.0,64.0,105.0,228.0,333.0,32.0,752.0,747.0,54.0,24.0,30.0,0.4444444444444444,215.03763943125276,2560.607327708404,17.0,4.0,13.0,0.2352941176470588,406.01327736125785,3424.625959292498,19.0,9.0,10.0,0.4736842105263157,2564.929418098075,45671.22352844416,8.0,3.0,5.0,0.375,344.51738209558454,2938.212166041877,70.0,36.0,34.0,0.5142857142857142,238.79487611258463,11444.334439412163,,,,,7253.0,7285.0,7349.0,7366.0,7378.0,7397.0,7446.0,7454.0,7616.0,7682.0,0.06760849717843206,-0.08858210452837559,0.05454999971417336,-0.1627397832606645,0.023264099906479225
9,9,8053.032838920256,4344.749110418756,15.057055699117129,8149.442992829451,-4979.179254283503,5.082647728185164,8178.804113150365,46439.15318185305,7.797651708478468,8243.185277664084,-680.3242980763479,0.7929308336315809,8445.808138396545,9814.50304385768,32.8284623297676,0.9740229434531308,102.0,75.0,104.0,235.0,339.0,27.0,789.0,794.0,34.0,18.0,16.0,0.5294117647058824,299.35940940171156,4786.08373401356,15.0,8.0,7.0,0.5333333333333333,723.9642989733849,413.2092908634986,19.0,10.0,9.0,0.5263157894736842,2463.1934277262885,43312.6215008085,3.0,1.0,2.0,0.3333333333333333,287.97107257145746,1270.568265037994,76.0,41.0,35.0,0.5394736842105263,249.54687512202867,9634.393054346088,,,,,8039.0,8066.0,8141.0,8156.0,8169.0,8188.0,8242.0,8245.0,8411.0,8480.0,0.0689014260187877,-0.14539832008469483,0.05304130801180988,-0.42328500302827715,0.02542633834916434
10,10,8824.100836661017,4266.4039926713085,11.388630677087436,8923.301356399426,-5129.273844316704,6.37541774686517,8951.400622266516,45141.42900958144,7.882805229843242,9013.716878759404,-1820.0879633993968,2.0372546264570692,9217.657460196831,8823.526513565886,32.043413440502036,0.9691570895878934,98.0,84.0,103.0,232.0,335.0,14.0,773.0,769.0,14.0,8.0,6.0,0.5714285714285714,346.89424853678946,5791.158039858041,15.0,9.0,6.0,0.6,784.5740464220459,2087.986577709417,19.0,9.0,10.0,0.4736842105263157,2419.4459070346115,44503.3293729688,7.0,4.0,3.0,0.5714285714285714,272.1384620108192,2999.118437275266,78.0,41.0,37.0,0.5256410256410257,322.0743796917484,8655.954855229877,,,,,8816.0,8830.0,8914.0,8929.0,8942.0,8961.0,9010.0,9017.0,9193.0,9249.0,0.08130834518547077,-0.15296006223012704,0.05359701631335319,-0.14951940097584263,0.03650177502119696
11,11,9614.775719069548,4947.333812975081,12.930341156066635,9712.876695499284,-3370.1080325498383,12.739827002810443,9742.373515494628,48473.185652850385,8.208046690612752,9812.424660900142,-493.6989884254836,1.1375541403882892,10004.835512095537,9795.677505421112,37.27974922949865,0.9791292334158316,102.0,71.0,115.0,234.0,349.0,31.0,793.0,795.0,36.0,18.0,18.0,0.5,291.4649160486984,4485.326812864312,20.0,13.0,7.0,0.65,668.3932783824929,2467.1858972324526,20.0,10.0,10.0,0.5,2575.112958968742,46854.45942586356,4.0,1.0,3.0,0.25,195.90360375880132,554.2769716222426,86.0,41.0,45.0,0.4767441860465116,179.89115524775715,10438.579240810064,,,,,9598.0,9629.0,9700.0,9720.0,9732.0,9752.0,9811.0,9815.0,9965.0,10049.0,0.058913533443870424,-0.19832992649698047,0.05312448365599253,-0.396807788453409,0.01836434030705911
12,12,10439.678277992893,3498.754415783175,11.78052284964864,10528.753390998623,-3053.523161578487,25.47965400382786,10565.037434758731,46607.85018043279,8.02475204280001,10631.81846156882,-2169.3298770290644,1.1871750449487464,10831.001307844292,9796.2168697476,31.437897516422737,0.9787477797108496,94.0,69.0,111.0,233.0,344.0,25.0,822.0,820.0,25.0,11.0,14.0,0.44,218.53420776877832,3773.3087256243816,21.0,7.0,14.0,0.3333333333333333,308.64805223399196,2587.6566460564427,19.0,9.0,10.0,0.4736842105263157,2494.343063445328,44319.73515847692,4.0,2.0,2.0,0.5,275.6461134222302,2626.0031944428324,65.0,29.0,36.0,0.4461538461538462,279.20964197020135,10956.73643121668,,,,,10429.0,10454.0,10523.0,10543.0,10556.0,10575.0,10630.0,10634.0,10802.0,10867.0,0.06246057362098699,-0.10107932244222427,0.05351765966009991,-0.12706509800147703,0.028501782441388027
13,13,11266.38386192819,4628.691545794055,14.686572286116164,11365.72601729957,-3521.508581282891,5.837338360997042,11393.316188137784,46855.6967033901,7.811736749710933,11460.698643600574,-1671.4553500184402,3.907683779722778,11658.23279929669,10392.11160006312,34.74730428832875,0.9753623031481352,107.0,64.0,111.0,225.0,336.0,43.0,822.0,831.0,47.0,22.0,25.0,0.4680851063829787,255.205008198755,3643.400397957103,15.0,11.0,4.0,0.7333333333333333,867.2940168099148,3859.597968765033,20.0,10.0,10.0,0.5,2543.7370942016614,44276.29321374972,15.0,6.0,9.0,0.4,242.1895488489025,2392.313694423868,76.0,36.0,40.0,0.4736842105263157,333.30203026523935,10850.252849641336,,,,,11248.0,11291.0,11355.0,11370.0,11383.0,11403.0,11455.0,11466.0,11623.0,11691.0,0.055135453653344366,-0.24628479436899686,0.054288747648001935,-0.1448974086243049,0.0320725992071924
14,14,12077.598195087132,3638.5236228348294,14.843274040230614,12145.54796540086,-3344.9022842241898,15.28779240518434,12198.875098004612,46919.162823829574,7.926531145501108,12264.614792630016,-1511.8175747940068,3.3208988132644612,12464.744524468386,9596.800850953628,34.92714452508757,0.9775612259931794,76.0,45.0,131.0,236.0,367.0,31.0,812.0,804.0,33.0,18.0,15.0,0.5454545454545454,224.92815747561045,2480.228152426858,60.0,30.0,30.0,0.5,218.6227152199211,2197.046701203738,20.0,10.0,10.0,0.5,2453.5444715296394,44293.58260151322,8.0,4.0,4.0,0.5,294.853989468144,1906.30361686657,78.0,37.0,41.0,0.4743589743589743,302.2524233689688,10783.141010124493,,,,,12061.0,12092.0,12137.0,12175.0,12189.0,12209.0,12261.0,12268.0,12432.0,12504.0,0.061818523332924105,-0.06535997067867351,0.05229301470578497,-0.19503278330940121,0.03149512301684724
15,15,12862.490704419268,4105.653867749031,13.50361977898526,12955.45203459914,-3372.4707158831675,15.287792404271608,12986.148222748288,46670.658589493025,8.254052173063497,13050.150678199714,-1041.3032326790872,3.7596228922216,13251.604403252131,9601.043801643844,34.40465827482771,0.9791729264274952,99.0,67.0,108.0,237.0,345.0,32.0,786.0,789.0,35.0,18.0,17.0,0.5142857142857142,226.61178001831877,4184.136568731456,19.0,10.0,9.0,0.5263157894736842,476.0289146656231,465.2573513786266,20.0,10.0,10.0,0.5,2413.5627671467273,44895.64970572558,7.0,4.0,3.0,0.5714285714285714,170.138206649657,1213.4425571216789,88.0,46.0,42.0,0.5227272727272727,257.9117308592517,10711.961570833237,,,,,12846.0,12878.0,12945.0,12964.0,12976.0,12996.0,13046.0,13053.0,13227.0,13290.0,0.05519505231515318,-0.14115138566620966,0.05171477840876437,-0.16338968449365301,0.026862884514191394
16,16,13668.655620814305,3952.832215961263,12.73982700431348,13761.982413696309,-4019.7778424684097,7.533585853921984,13794.153459287172,47800.85454273011,7.631748827746513,13855.150678200322,-791.591684612509,2.6273727048199076,14062.534155696114,9770.307232022256,32.3867104401203,0.9777329305135112,95.0,78.0,106.0,242.0,348.0,17.0,811.0,807.0,17.0,11.0,6.0,0.6470588235294118,337.5081281176987,4566.714622196898,19.0,9.0,10.0,0.4736842105263157,420.38400318780623,1577.5751755230922,20.0,10.0,10.0,0.5,2638.462756984134,44979.67496289512,10.0,6.0,4.0,0.6,165.7823351525015,1166.4670783417864,86.0,46.0,40.0,0.5348837209302325,211.9304482180665,9098.485559622715,,,,,13658.0,13675.0,13753.0,13771.0,13785.0,13804.0,13854.0,13859.0,14024.0,14101.0,0.08538387406246696,-0.10457891447296068,0.05519697884533761,-0.20942910136006976,0.021691277785355904
17,17,14467.322481882968,3625.1547074456394,16.77540934124296,14565.301356399426,-4585.454942705412,6.332433663156528,14592.07897664096,46527.79094252245,7.999647623486433,14654.891945996867,-1401.5045415213478,1.5132147169846026,14858.788875981523,9764.83199637588,34.07900702619756,0.9748599037449256,93.0,72.0,105.0,239.0,344.0,21.0,799.0,797.0,24.0,9.0,15.0,0.375,287.76368491886586,4781.748278542193,19.0,13.0,6.0,0.6842105263157895,827.9176645944257,4711.049485930394,20.0,10.0,10.0,0.5,2493.864284754784,45894.20972597334,6.0,3.0,3.0,0.5,266.5080171993282,1579.0376457114246,76.0,38.0,38.0,0.5,280.56840631003075,10482.6041851207,,,,,14460.0,14481.0,14553.0,14571.0,14582.0,14602.0,14652.0,14658.0,14821.0,14897.0,0.07937969773478447,-0.1805530039961434,0.053599456029097735,-0.19015851130245426,0.028732537990839056
18,18,15224.54796540086,4545.77202762024,11.234391805798126,15319.72601729957,-3293.6096127849446,5.537972186917361,15347.160379873503,45375.63787214623,7.933365580669128,15436.099863595146,-1755.5333612991174,1.2896475105851488,15615.190442061834,9376.325760797145,31.80963636010109,0.979107505727226,98.0,79.0,124.0,213.0,337.0,19.0,753.0,754.0,21.0,9.0,12.0,0.4285714285714285,255.529468069639,5282.336976055285,12.0,7.0,5.0,0.5833333333333334,791.6000353064384,5218.2744279594535,20.0,10.0,10.0,0.5,2417.2834949829908,45058.17556108773,4.0,2.0,2.0,0.5,268.04940281275094,1850.785657847715,66.0,29.0,37.0,0.4393939393939394,126.71583390702216,10300.696978364196,,,,,15216.0,15235.0,15314.0,15324.0,15337.0,15357.0,15434.0,15438.0,15587.0,15651.0,0.056212556748784295,-0.24034422058815072,0.05327271655759658,-0.15268829902178044,0.013514444478542647
19,19,15965.270423607331,4496.556076643277,14.515800125958668,16059.876695499284,-4533.026555235594,6.426837204941966,16090.110110031816,45748.77551648821,8.130690585439043,16113.376699535294,-2149.0832710919744,1.2680299252550176,16359.657460196831,10418.128428397742,32.85519028664452,0.9750588935329946,97.0,67.0,66.0,275.0,341.0,30.0,743.0,743.0,30.0,12.0,18.0,0.4,258.314229565557,4824.61653163839,18.0,11.0,7.0,0.6111111111111112,633.4086218402031,1622.7690016899303,20.0,10.0,10.0,0.5,2453.422054934158,44379.98632029188,4.0,1.0,3.0,0.25,1208.3761440173255,16080.908077385116,76.0,45.0,31.0,0.5921052631578947,194.13924957814635,11392.360354406554,,,,,15953.0,15983.0,16050.0,16067.0,16080.0,16100.0,16112.0,16116.0,16322.0,16391.0,0.0574471273487133,-0.13973194600164504,0.05362814692275044,-0.562275161819735,0.018634752960902407
20,20,16731.88515309312,4467.245177635585,15.68552016246506,16822.602712798856,-2648.390954292131,20.3837232016036,16857.890539562675,46801.27481522939,8.105779407784064,16939.447604185618,-350.2192361385352,1.558200373756556,17125.95881659626,10113.128139857688,35.69587605793813,0.975967629896244,103.0,72.0,125.0,221.0,346.0,31.0,770.0,769.0,34.0,20.0,14.0,0.5882352941176471,255.197350698721,3892.560549247372,19.0,7.0,12.0,0.3684210526315789,303.22854232941256,1667.7806563376112,20.0,10.0,10.0,0.5,2499.462217072185,44068.83381765019,5.0,2.0,3.0,0.4,143.3444017069842,433.5938501730115,87.0,47.0,40.0,0.5402298850574713,204.57546839003996,10414.74160076881,,,,,16714.0,16745.0,16817.0,16834.0,16848.0,16868.0,16937.0,16942.0,17081.0,17163.0,0.05712633637757742,-0.11449538514620863,0.05340585757417971,-0.40929905303740044,0.020228703281605878
21,21,17511.048013755895,5328.184989057851,17.054486952079444,17605.54796540086,-3539.375667433333,5.880399358702931,17636.024115895725,46945.974632677,8.09554676373645,17695.63916303251,-518.1876787390811,0.3970863727311118,17901.08212109698,10257.128856308796,37.94193633865809,0.973857244419102,107.0,65.0,100.0,234.0,334.0,42.0,777.0,777.0,43.0,21.0,22.0,0.4883720930232558,232.900811917308,5639.83316808901,17.0,9.0,8.0,0.5294117647058824,611.5137783416313,2251.6969630901867,20.0,10.0,10.0,0.5,2481.847912522709,45389.52543591555,2.0,1.0,1.0,0.5,171.27044901998133,846.1253565812501,82.0,39.0,43.0,0.4756097560975609,261.5935681448302,12022.907325059492,,,,,17490.0,17532.0,17597.0,17614.0,17626.0,17646.0,17695.0,17697.0,17880.0,17931.0,0.04371109719268406,-0.17277447657458916,0.05286604297688189,-0.33051818105119357,0.025503586023873853
22,22,18299.7223335657,3646.950760601857,15.279569775476046,18386.178051898707,-2817.6421579982843,22.93168860777651,18422.70262228947,47103.92609719073,7.753442505112267,18445.96729731531,-2305.125203075001,1.5928683783718445,18687.95336260517,9588.386042267117,30.702955669392622,0.9800563253832394,97.0,60.0,68.0,275.0,343.0,37.0,786.0,787.0,46.0,24.0,22.0,0.5217391304347826,177.21913853312017,3887.272580248308,46.0,31.0,15.0,0.6739130434782609,302.04245020968375,2106.283978010036,19.0,10.0,9.0,0.5263157894736842,2541.980482983718,44102.49594446846,5.0,2.0,3.0,0.4,1123.83406276998,15147.006846463017,69.0,32.0,37.0,0.463768115942029,300.64721679370035,10818.110439272315,,,,,18284.0,18321.0,18381.0,18401.0,18413.0,18432.0,18444.0,18449.0,18656.0,18724.0,0.04859378427798506,-0.10719688067993043,0.05396536326374972,-0.48753710265750544,0.03135535172117602
23,23,19038.62778776893,4212.264907329314,15.876305528775031,19136.30135639943,-4944.184714742868,4.848243507696316,19164.654025006388,46652.362474185895,8.033240553558576,19242.00987429546,-539.9411437021937,0.9708492279430406,19427.83108651833,9918.017585915097,36.02263880949648,0.9781273336142016,100.0,75.0,116.0,217.0,333.0,25.0,738.0,742.0,33.0,12.0,21.0,0.3636363636363636,289.6990255870762,4201.300842964769,14.0,8.0,6.0,0.5714285714285714,729.2984139757622,2215.682966835786,19.0,10.0,9.0,0.5263157894736842,2452.8358992522085,44420.28832651247,4.0,2.0,2.0,0.5,251.54653834194593,746.7837197512504,62.0,29.0,33.0,0.4677419354838709,313.17855165259726,12629.001461274824,,,,,19028.0,19053.0,19128.0,19142.0,19155.0,19174.0,19240.0,19244.0,19399.0,19461.0,0.06877512026439785,-0.14750630408307688,0.052576885052915245,-0.4658777003307739,0.03157672881094226
24,24,19775.9191716792,4202.43791532697,15.55260231504165,19870.765992455195,-3955.518801799045,7.7365695603394276,19902.301098045205,46841.33560876942,8.073430115446655,19981.414450599925,1474.1025417271676,229.3168860777651,20167.44425786153,9712.739821519155,33.36714416442262,0.9819225464965292,117.0,69.0,398.0,-63.0,335.0,48.0,740.0,738.0,48.0,25.0,23.0,0.5208333333333334,216.9876240720513,4869.644126082099,11.0,4.0,7.0,0.3636363636363636,501.7318791168772,1253.8443718203132,20.0,10.0,10.0,0.5,2459.914520660718,46955.84477464648,382.0,102.0,280.0,0.2670157068062827,189.83143099994473,796.6447768016853,82.0,42.0,40.0,0.5121951219512195,227.43252677102743,11154.073641998251,,,,,19751.0,19799.0,19868.0,19878.0,19892.0,19912.0,19879.0,20266.0,20128.0,20203.0,0.05163374889624481,-0.1268435075795064,0.052515891972136346,0.12877762952468977,0.023415898186332253
25,25,20569.30135639943,3336.4541114127906,10.191861603455951,20647.753390998565,-3652.710828512497,25.47965400864057,20683.88418417839,47716.879147682965,8.085768971806154,20767.547965399957,-1540.4624012077331,15.28779240518434,20949.593419085297,9864.11295681341,31.67610734688046,0.9792337193693452,76.0,50.0,146.0,217.0,363.0,26.0,795.0,781.0,26.0,20.0,6.0,0.7692307692307693,265.00338811699083,2647.1824427415295,40.0,26.0,14.0,0.65,293.17437580589615,2253.7635478681723,20.0,10.0,10.0,0.5,2520.1103530112523,44545.28517685975,14.0,11.0,3.0,0.7857142857142857,247.95546512547995,1794.5617516293255,69.0,31.0,38.0,0.4492753623188406,185.5380558405732,10396.840606316167,,,,,20549.0,20575.0,20625.0,20662.0,20674.0,20694.0,20757.0,20771.0,20919.0,20988.0,0.07942665454636737,-0.08026213668966682,0.052813813435106514,-0.1609617118412505,0.018809400972280742
26,26,21342.911280977645,3658.0501718259216,13.92618601659992,21434.580574651944,-3589.7216425880415,9.043412604730069,21468.568976932685,46867.40413869214,7.849376468475088,21529.27398270043,-1127.4263486788705,2.6779181696285557,21736.232799296693,9309.407441758774,34.51833335711235,0.9787025865708848,97.0,66.0,105.0,237.0,342.0,31.0,773.0,785.0,31.0,13.0,18.0,0.4193548387096774,219.73319428457293,4172.192552634048,24.0,13.0,11.0,0.5416666666666666,364.5363499566642,1857.64635876048,19.0,10.0,9.0,0.5263157894736842,2496.7173299012793,44466.14822766487,10.0,4.0,6.0,0.4,231.4995016439607,1805.4967365504672,86.0,50.0,36.0,0.5813953488372093,192.10049319973956,8519.289829057665,,,,,21330.0,21361.0,21427.0,21445.0,21459.0,21478.0,21525.0,21532.0,21691.0,21769.0,0.06006839271285685,-0.10155003263535735,0.05327193549087721,-0.20533447875795538,0.020635093522498902
27,27,22113.099655976646,3750.9076117105137,12.847636533411144,22206.602712798853,-4146.743624006112,20.383723206912453,22241.93763910164,45409.90227804893,8.15124261863316,22309.66386774408,-1662.8677483675924,7.64389620259217,22510.52659941125,9237.375736187185,28.650819631539463,0.9753465940905626,107.0,74.0,110.0,236.0,346.0,33.0,770.0,775.0,34.0,18.0,16.0,0.5294117647058824,247.72575847331896,3508.278649366885,21.0,8.0,13.0,0.3809523809523809,371.27283292809705,3881.8952682232302,20.0,10.0,10.0,0.5,2369.3116344660452,43023.566620193706,10.0,8.0,2.0,0.8,216.23674313895495,1805.7450731002396,66.0,28.0,38.0,0.4242424242424242,233.6682212605829,10441.681801042236,,,,,22095.0,22128.0,22202.0,22220.0,22232.0,22252.0,22302.0,22312.0,22485.0,22548.0,0.06604421759147233,-0.08953358745854065,0.05217610070945619,-0.13003844914980803,0.025295952869513964
28,28,22870.821948101293,3616.281689185639,13.66312058794443,22963.20129030974,-6009.897269764243,6.175381546656067,22993.083177352793,46898.67843979415,7.85883748334267,23071.30135639943,-1031.1304445518465,10.191861603450562,23258.48597439811,9606.678383496424,31.0721747807283,0.9785580278869218,98.0,67.0,123.0,212.0,335.0,31.0,753.0,749.0,33.0,14.0,19.0,0.4242424242424242,245.2412321772484,3423.4141490883744,14.0,7.0,7.0,0.5,647.2586172896656,958.3342133600904,20.0,10.0,10.0,0.5,2517.2510575764145,45709.09254962359,11.0,2.0,9.0,0.1818181818181818,195.6083766032755,515.0827068428948,66.0,32.0,34.0,0.4848484848484848,233.6757148635976,10629.62807115646,,,,,22858.0,22889.0,22956.0,22970.0,22983.0,23003.0,23069.0,23079.0,23227.0,23291.0,0.06781585430986571,-0.1076987822314401,0.053674242885285516,-0.1897028427749425,0.024324298736286987
29,29,23629.884211190783,3980.688911801903,16.050217687591537,23716.45203459914,-2404.454996174835,15.287792403725923,23753.554918126913,46592.160112376325,7.798614892803548,23830.307787618985,-1329.938361671581,1.2465192110550571,24023.657460196835,9731.594825638496,32.79296936791845,0.9794252676243989,96.0,67.0,119.0,223.0,342.0,29.0,760.0,762.0,31.0,14.0,17.0,0.4516129032258064,202.3992461966247,4159.545147524595,42.0,28.0,14.0,0.6666666666666666,245.76424059274265,1142.9408499865922,19.0,10.0,9.0,0.5263157894736842,2511.687642783137,43259.75792557667,4.0,2.0,2.0,0.5,258.41069739328424,1601.9839079085382,73.0,42.0,31.0,0.5753424657534246,157.17092765959944,10256.869805257957,,,,,23617.0,23646.0,23713.0,23729.0,23744.0,23763.0,23828.0,23832.0,23982.0,24055.0,0.050845280975499896,-0.10221203598475354,0.05390794581588749,-0.1943027623238805,0.016150582764247724
30,30,24390.2054255977,3415.71191213199,16.151735880794895,24488.30135639943,-4924.668382952317,5.758045502444736,24515.274732339654,46885.35426104903,7.646712495825932,24594.907807876974,-1513.7916111568754,4.198505836311094,24780.60458654118,9622.87319477368,33.53767876894514,0.9813937474462944,116.0,68.0,118.0,220.0,338.0,48.0,770.0,760.0,48.0,25.0,23.0,0.5208333333333334,204.5692785399332,3547.0153148169547,14.0,8.0,6.0,0.5714285714285714,788.5567107989264,3499.545454884923,20.0,10.0,10.0,0.5,2564.6582619998535,45636.05663930647,11.0,5.0,6.0,0.4545454545454545,191.0953677356973,1503.973683287956,78.0,39.0,39.0,0.5,211.71062901233188,9394.680839006429,,,,,24365.0,24413.0,24481.0,24494.0,24505.0,24525.0,24590.0,24599.0,24748.0,24819.0,0.05989067105259673,-0.16012381940856493,0.05470062671853363,-0.12623624435972247,0.022000770947217193
31,31,25161.397287201147,4367.43571016566,14.34693343238422,25251.602712798856,-2617.8526522128,20.383723206910073,25286.480863717425,47107.683004846665,8.077854941120785,25362.55304854025,-809.9480229910725,1.594775789011488,25551.693726757352,9058.112442478188,34.90513402974431,0.9810087445210528,97.0,68.0,118.0,222.0,340.0,29.0,761.0,773.0,30.0,11.0,19.0,0.3666666666666666,237.18480218887544,5525.434469148109,49.0,36.0,13.0,0.7346938775510204,283.3367193215665,1041.4737356732687,19.0,9.0,10.0,0.4736842105263157,2512.9242034933764,45388.71736331296,5.0,3.0,2.0,0.6,154.7380831683236,386.0285226336898,93.0,52.0,41.0,0.5591397849462365,293.9173388167704,8490.261626166917,,,,,25150.0,25179.0,25247.0,25264.0,25277.0,25296.0,25360.0,25365.0,25526.0,25587.0,0.05430756579582917,-0.10823249317797533,0.053344253913630915,-0.19104692989667213,0.03244796757417578
32,32,25914.087690984823,4079.5565345302657,15.519601687467503,26010.72601729957,-4072.7720574538616,5.985657790671952,26037.671563404307,47484.88240619515,7.877300965838581,26116.77928045257,-1396.9147905916975,5.500178625760267,26299.94338604283,9173.6314851697,37.70276828271908,0.975771170690331,99.0,77.0,125.0,217.0,342.0,22.0,753.0,749.0,41.0,17.0,24.0,0.4146341463414634,224.82026689231589,4329.933074050878,17.0,13.0,4.0,0.7647058823529411,797.2431453895944,5153.677726619802,19.0,10.0,9.0,0.5263157894736842,2549.371329325576,45208.0596639883,11.0,5.0,6.0,0.4545454545454545,192.5569212645515,839.5541971425331,82.0,37.0,45.0,0.4512195121951219,268.0029123088086,9661.497632663397,,,,,25899.0,25921.0,25998.0,26015.0,26028.0,26047.0,26112.0,26123.0,26269.0,26340.0,0.05510899652680079,-0.195749512652078,0.05368806239252622,-0.13784442870920516,0.0292144842249297
33,33,26682.72230042804,2463.581267908736,10.318188943586122,26769.753390998565,-4262.8100440659355,25.47965400864057,26806.13134371681,47161.70020718433,7.859886784613107,26868.46371022771,-2021.8789037273195,10.191861603456228,27072.79369264663,9008.746127140135,27.799660930086805,0.9709096414861248,66.0,50.0,132.0,233.0,365.0,16.0,771.0,769.0,18.0,10.0,8.0,0.5555555555555556,284.062221934733,3369.142909793931,63.0,48.0,15.0,0.7619047619047619,291.73558703004335,2888.829686175499,19.0,9.0,10.0,0.4736842105263157,2603.934274772417,45245.14143064871,9.0,5.0,4.0,0.5555555555555556,236.46248310458307,3459.2577493393646,73.0,37.0,36.0,0.5068493150684932,235.56823914844455,9324.259818505006,,,,,26674.0,26690.0,26740.0,26784.0,26797.0,26816.0,26863.0,26872.0,27040.0,27105.0,0.11530458752670468,-0.0684373884865349,0.055212900793083566,-0.11695185239267601,0.026148837565614327
34,34,27456.16476190381,3770.820235953239,12.368227555663164,27551.69864360057,-3794.5426167453743,8.356693393907564,27582.75926568387,46935.10096799448,7.675575167403218,27644.72601729957,-1300.911265346303,7.64389620259217,27846.80339790628,9235.705747377457,33.16801768532264,0.9791865397586502,100.0,83.0,103.0,237.0,340.0,17.0,774.0,778.0,17.0,10.0,7.0,0.5882352941176471,253.5659012715672,5322.671844236165,16.0,7.0,9.0,0.4375,517.3795796845742,205.78591054611505,19.0,10.0,9.0,0.5263157894736842,2570.6499110467976,44699.816641500714,16.0,12.0,4.0,0.75,293.28187850077273,1039.896143758972,78.0,38.0,40.0,0.4871794871794871,213.8583062042758,9743.81054447296,,,,,27446.0,27463.0,27546.0,27561.0,27573.0,27592.0,27633.0,27649.0,27810.0,27886.0,0.06724422947928395,-0.136348338110994,0.05477030746774679,-0.22544341517613117,0.023155599805136966
35,35,28209.90051965962,3806.6364567043456,15.0007327585789,28303.876695499283,-3401.8704774282205,12.739827004320285,28334.90989196422,46339.09689255427,8.033003558396532,28392.638645162533,-1133.7473622815116,1.4394424229775056,28597.41730213827,9293.089901972218,33.8706627841512,0.982998306189293,96.0,71.0,101.0,242.0,343.0,25.0,751.0,751.0,26.0,13.0,13.0,0.5,206.8523041767658,4334.471830791852,19.0,11.0,8.0,0.5789473684210527,481.51740254418945,83.15944136530834,20.0,10.0,10.0,0.5,2471.990619902985,45077.29048723632,5.0,3.0,2.0,0.6,229.46053044829324,996.5061341990656,85.0,44.0,41.0,0.5176470588235295,213.131705410717,9540.116064889116,,,,,28198.0,28223.0,28294.0,28311.0,28325.0,28345.0,28390.0,28395.0,28563.0,28637.0,0.05433991570496632,-0.14154489588569277,0.053345679688897495,-0.2023912364272542,0.022934428447257925
36,36,28956.427965843977,3724.1644495945498,14.039204154782384,29045.602712798853,-3035.108199837188,20.383723206912453,29080.832893466373,46773.60263397317,8.068839464836985,29104.342334326084,-2550.866990167711,1.4377007912784865,29344.930725107926,9584.12502947531,32.239613252579815,0.9790542470904008,96.0,70.0,66.0,276.0,342.0,26.0,748.0,747.0,26.0,11.0,15.0,0.4230769230769231,283.02338576429486,4949.893707909399,29.0,17.0,12.0,0.5862068965517241,381.3096833660797,901.639133383697,20.0,10.0,10.0,0.5,2486.6012835374036,44558.20556077814,4.0,1.0,3.0,0.25,1186.8026767684937,15715.42012380604,74.0,35.0,39.0,0.4729729729729729,202.71322920005076,9528.451803237018,,,,,28945.0,28971.0,29041.0,29058.0,29071.0,29091.0,29103.0,29107.0,29311.0,29383.0,0.07599647910153583,-0.12563297854967223,0.053162492164572014,-0.4652546296388686,0.02115093746968245
37,37,29726.21436492337,3374.354731635998,13.544974009883395,29812.753390998576,-3275.8767537370218,25.479654008572226,29849.459222718167,47772.67803697085,8.030541580739033,29906.702053556925,-1317.5883920255085,5.095930801728113,30112.64839361726,9362.265304790968,36.96497583043572,0.9790315098615736,92.0,65.0,105.0,243.0,348.0,27.0,770.0,769.0,28.0,12.0,16.0,0.4285714285714285,244.5054432475382,3754.106963886825,23.0,8.0,15.0,0.3478260869565217,304.21434332779137,2623.705866173849,19.0,9.0,10.0,0.4736842105263157,2559.792038487879,45075.63507604125,9.0,4.0,5.0,0.4444444444444444,212.02517451215675,1777.6041047412764,86.0,44.0,42.0,0.5116279069767442,194.26540649075824,10042.632129263342,,,,,29714.0,29741.0,29806.0,29827.0,29840.0,29859.0,29904.0,29911.0,30071.0,30154.0,0.07245991091428432,-0.09286501483328174,0.05358276202365877,-0.16091912754803014,0.02074982925247231
38,38,30514.565133704396,3684.5944086372665,14.884442808081973,30599.178051898707,-2665.7977923370104,22.931688607775065,30635.96397628936,48450.79032230141,7.825670016890827,30707.67686297447,-1605.9801667247484,1.5866685380923715,30902.63271089845,9046.573683238776,32.34886927584586,0.9820216450498592,95.0,66.0,116.0,233.0,349.0,29.0,793.0,786.0,34.0,17.0,17.0,0.5,284.5101546393096,3468.645673991048,47.0,32.0,15.0,0.6808510638297872,252.913071714296,1810.0545265853657,19.0,9.0,10.0,0.4736842105263157,2607.1774011817133,45928.29362490456,5.0,3.0,2.0,0.6,211.9057100173268,2108.129248996142,82.0,42.0,40.0,0.5121951219512195,202.26485222781585,9394.214597897222,,,,,30499.0,30528.0,30594.0,30613.0,30627.0,30646.0,30705.0,30710.0,30869.0,30943.0,0.07721613916917781,-0.09487331426311073,0.0538108332978349,-0.13194789973620247,0.022358172199776163
39,39,31277.744318748897,2149.642100757491,9.485259772427945,31368.15166699176,-4803.746944417611,30.57558481035779,31399.54779041114,48363.942333154555,8.270919630396858,31422.72601729957,-2083.5487636943753,7.64389620259217,31672.054747397982,8495.888709285935,25.596003544087303,0.971053371238463,81.0,64.0,77.0,262.0,339.0,17.0,759.0,765.0,17.0,6.0,11.0,0.3529411764705882,236.06836612602643,2413.976562184327,27.0,16.0,11.0,0.5925925925925926,503.1804189480883,2514.2750310902725,19.0,10.0,9.0,0.5263157894736842,2524.033973467462,43260.10010613545,11.0,2.0,9.0,0.1818181818181818,1088.9848757961968,16546.063165891515,55.0,34.0,21.0,0.6181818181818182,311.7189127490628,8768.945933982006,,,,,31272.0,31289.0,31353.0,31378.0,31390.0,31409.0,31421.0,31430.0,31640.0,31692.0,0.10981752080629639,-0.10474748665369009,0.052188342217445345,-0.5226586940376184,0.03669055980080773
40,40,32041.80066243247,4336.1564735309175,20.947594705060432,32135.45203459914,-2725.4431589085675,6.676085019079553,32166.247006578684,47087.763141531716,8.188606512577955,32229.840771085564,-857.4683912101539,1.6060260407293392,32428.772750411223,10172.208398165643,38.907622088697714,0.9784824657199508,111.0,62.0,107.0,238.0,345.0,49.0,762.0,764.0,52.0,28.0,24.0,0.5384615384615384,185.18661886840027,4767.772982258276,18.0,9.0,9.0,0.5,421.6228139535895,1848.2096481674305,20.0,10.0,10.0,0.5,2472.3810944082793,45071.90749195959,6.0,3.0,3.0,0.5,260.4493155753345,1613.692467846432,89.0,45.0,44.0,0.5056179775280899,201.1526606537885,11039.54541647834,,,,,32015.0,32064.0,32126.0,32144.0,32156.0,32176.0,32227.0,32233.0,32387.0,32471.0,0.04270754987713887,-0.15469881020099235,0.05250580892910632,-0.30374217667401093,0.019774728631204844
41,41,32829.67126990158,3331.710964309367,13.357142669942904,32923.60271279886,-3212.1803289324585,20.383723206912453,32957.9367976177,47407.36357815233,8.053724308629135,33050.454137793524,-1178.2801439904315,2.820823494120257,33222.71231038724,9283.024009093202,32.26559891878405,0.9778814390430866,96.0,56.0,144.0,206.0,350.0,40.0,786.0,792.0,40.0,16.0,24.0,0.4,182.4111463448829,3775.3895559693024,27.0,15.0,12.0,0.5555555555555556,411.7826113368613,2030.2723493101096,20.0,10.0,10.0,0.5,2528.389061292577,45988.06257879315,9.0,4.0,5.0,0.4444444444444444,174.19946863714105,1010.4532257189908,82.0,43.0,39.0,0.524390243902439,179.95311922417125,9165.953918928906,,,,,32814.0,32854.0,32910.0,32935.0,32948.0,32968.0,33046.0,33054.0,33190.0,33260.0,0.05474999131045422,-0.12819411401903263,0.05333325606948082,-0.14784214902169793,0.019385183001562622
42,42,33619.246609001435,4279.310338001523,13.784447719845693,33714.30135639943,-3732.92543704404,10.19186159741299,33740.32551754859,47341.51457595279,7.962427396577477,33803.182427182015,-1358.819898154253,3.0790304567431774,34017.356103797414,9060.998691396926,32.409753502070934,0.9687201106522488,98.0,65.0,104.0,236.0,340.0,33.0,790.0,784.0,35.0,15.0,20.0,0.4285714285714285,257.4715314148762,4692.695831818003,17.0,11.0,6.0,0.6470588235294118,868.8099607829118,6095.957136960227,19.0,9.0,10.0,0.4736842105263157,2551.832799289653,46046.43762632989,9.0,5.0,4.0,0.5555555555555556,222.6370150386146,1936.8030596192784,89.0,58.0,31.0,0.651685393258427,197.15435425643088,7933.109380522248,,,,,33605.0,33638.0,33703.0,33720.0,33731.0,33750.0,33798.0,33807.0,33981.0,34043.0,0.06016659486657324,-0.2327423827331759,0.053902643845405426,-0.16384586017693192,0.02175856778829705
43,43,34371.972626301,3499.9094871142265,11.182844573965186,34469.726017299574,-4848.962641166634,7.643896201855323,34496.098956118934,45584.59096093805,8.099057131438066,34520.01525673894,-3047.112438123008,2.7136682779325505,34761.879878717096,8884.69786319164,30.88864072607965,0.975878063959486,91.0,67.0,71.0,270.0,341.0,24.0,754.0,754.0,25.0,11.0,14.0,0.44,292.01928941110805,4366.188552942909,26.0,22.0,4.0,0.8461538461538461,844.3202952625464,5916.15801694371,20.0,10.0,10.0,0.5,2435.9819060929817,44817.947356863755,6.0,2.0,4.0,0.3333333333333333,1019.6480117416916,14548.145765816018,62.0,29.0,33.0,0.4677419354838709,239.56896932034644,10372.938541997795,,,,,34362.0,34386.0,34453.0,34474.0,34486.0,34506.0,34518.0,34524.0,34735.0,34794.0,0.08343624041885898,-0.17412390190315172,0.05343871371315808,-0.33462762941881624,0.02696422242030933
44,44,35159.821948101286,3171.5942529341437,13.492558450335531,35245.753390998565,-3347.3571917268323,25.47965400864028,35282.547396406444,47951.02664526377,8.252483273694143,35348.68767850192,-1449.9923277871642,1.593033018611281,35548.07170598054,9657.016060823638,31.836517332375387,0.981911706426584,79.0,50.0,125.0,234.0,359.0,29.0,787.0,786.0,31.0,14.0,17.0,0.4516129032258064,232.02711609337177,3298.859422343093,55.0,40.0,15.0,0.7272727272727273,286.87238580924696,2068.8250952920525,20.0,10.0,10.0,0.5,2473.713172214093,44912.0073437582,5.0,3.0,2.0,0.6,266.12510925772506,1489.5082748383045,75.0,38.0,37.0,0.5066666666666667,160.71364996184977,10784.02883157578,,,,,35147.0,35176.0,35226.0,35260.0,35273.0,35293.0,35346.0,35351.0,35510.0,35585.0,0.07315788136477926,-0.08570115747380262,0.051588325532930523,-0.1835355292285298,0.016642164510197847
45,45,35945.06026507868,3274.6061898106486,12.59362352329364,36036.02737369913,-3824.790113664369,17.835757805752873,36070.08611984627,46911.51397104134,7.854323423574621,36132.926390183144,-1742.1689419641284,10.191861603097284,36336.12078532744,8788.462378693204,31.33062365809044,0.9814052034011732,101.0,83.0,106.0,236.0,342.0,18.0,787.0,789.0,18.0,14.0,4.0,0.7777777777777778,242.6244461176392,3746.269128684597,19.0,7.0,12.0,0.3684210526315789,351.3233566111096,3273.0842596876782,19.0,9.0,10.0,0.4736842105263157,2545.397596714494,44797.1167840554,9.0,4.0,5.0,0.4444444444444444,254.15058256826512,2547.247087505203,78.0,40.0,38.0,0.5128205128205128,199.11501602731244,9760.409883359902,,,,,35931.0,35949.0,36032.0,36047.0,36061.0,36080.0,36129.0,36138.0,36296.0,36374.0,0.07409270979594305,-0.09185428380918963,0.054259549122328,-0.14588170897004668,0.02265641103613847
46,46,36697.28297664915,4011.056661358364,17.952922984440683,36789.45203459914,-3545.0987179608537,7.442391424177344,36821.0256916249,46502.550525301966,8.0078533471208,36846.25179951465,-1606.5251694673866,1.8548907691949603,37097.47940829813,9527.864065557556,33.123550211232725,0.9663308885941986,108.0,62.0,67.0,267.0,334.0,46.0,753.0,752.0,47.0,23.0,24.0,0.4893617021276595,268.37545357924097,4091.454505835411,26.0,17.0,9.0,0.6538461538461539,424.2584441925229,361.5717429788765,20.0,10.0,10.0,0.5,2447.8895056535985,44803.661749875944,4.0,1.0,3.0,0.25,778.1443184667787,10044.835676824574,75.0,49.0,26.0,0.6533333333333333,255.80665381103503,9120.827909702492,,,,,36674.0,36720.0,36782.0,36798.0,36811.0,36831.0,36845.0,36849.0,37053.0,37116.0,0.06690891608805005,-0.11967464884491483,0.05263989776908485,-0.4843648473461252,0.026848268620430365
47,47,37428.39728720114,3586.9547626015487,15.521749574489911,37521.6023843999,-4369.69509096673,6.267788456374153,37552.41187201708,47634.80002779905,7.793325662006129,37629.23736253432,-1535.289142810681,2.274402987707394,37819.08212109698,10265.78566989596,31.955106880122173,0.9757384231262216,96.0,79.0,119.0,217.0,336.0,17.0,729.0,729.0,18.0,12.0,6.0,0.6666666666666666,299.8122688583462,5546.54812255483,16.0,9.0,7.0,0.5625,571.4625723624456,152.7523364679182,19.0,9.0,10.0,0.4736842105263157,2587.1027572732764,46230.93655020806,5.0,2.0,3.0,0.4,229.29934395595689,1218.0058178524469,84.0,44.0,40.0,0.5238095238095238,196.72841924727777,10243.391020356506,,,,,37417.0,37434.0,37513.0,37529.0,37543.0,37562.0,37627.0,37632.0,37787.0,37849.0,0.08358406746141905,-0.13077859220516413,0.054311191728809126,-0.1493525470623563,0.019163503464150498
48,48,38201.67126990158,4421.528627390354,14.983081283477672,38289.60271279886,-2719.810578423332,20.383723206908765,38324.057038604864,47224.56227060504,8.182682256805608,38410.264853916626,-928.914511992502,1.815021120152862,38587.08715833051,9502.031884712813,35.514029945646016,0.980954133489819,97.0,64.0,130.0,212.0,342.0,33.0,772.0,773.0,33.0,16.0,17.0,0.4848484848484848,203.28134885058665,4819.623365602874,18.0,7.0,11.0,0.3888888888888889,416.57804585409446,1314.950722957854,20.0,10.0,10.0,0.5,2469.4715141833535,44902.60087719152,5.0,2.0,3.0,0.4,185.8288674044843,1342.6751032992363,76.0,35.0,41.0,0.4605263157894737,248.1722288637282,11186.996552410516,,,,,38186.0,38219.0,38283.0,38301.0,38314.0,38334.0,38408.0,38413.0,38553.0,38625.0,0.04597535512747908,-0.15316435973845788,0.05229209960767551,-0.20004948249315785,0.026117806367603965
49,49,38983.39728720114,3010.460701167786,12.222858554668925,39071.753390998565,-3439.192176345143,25.47965400864057,39108.01502974217,48382.31845472049,7.799173354804498,39172.54796540086,-1887.0206427842304,8.19948746806906,39379.93144289727,9593.532145159794,28.564774639511924,0.971155513351352,83.0,67.0,123.0,229.0,352.0,16.0,783.0,783.0,20.0,12.0,8.0,0.6,212.4341941085571,3361.5570373076407,40.0,25.0,15.0,0.625,305.1063762501239,2137.6296046536618,19.0,9.0,10.0,0.4736842105263157,2616.3023882806433,45152.19520264784,19.0,10.0,9.0,0.5263157894736842,207.91928951593735,2194.3273314535168,71.0,44.0,27.0,0.6197183098591549,136.38475753511605,10132.081208314308,,,,,38972.0,38988.0,39055.0,39086.0,39099.0,39118.0,39164.0,39178.0,39351.0,39407.0,0.07056534371172887,-0.08871454708133318,0.054075589426934134,-0.11018389772841064,0.014216323609644232
50,50,39793.63920433683,3720.694846748817,12.928460800584125,39878.60271279886,-3419.795309594189,20.383723204010455,39913.48864881611,46576.58213523017,8.146945928802195,39937.30219059743,-2317.618344552532,2.2389322547071373,40179.38724857685,9759.834634261444,29.730125539749448,0.9781621583441276,87.0,56.0,72.0,275.0,347.0,31.0,819.0,806.0,36.0,17.0,19.0,0.4722222222222222,217.7351239866626,3397.2601603338207,25.0,13.0,12.0,0.52,427.42025807785456,2352.551162991815,19.0,9.0,10.0,0.4736842105263157,2480.6645192639344,45278.98192557827,6.0,2.0,4.0,0.3333333333333333,1102.507072296136,15125.084916193837,66.0,30.0,36.0,0.4545454545454545,234.10578922473263,10506.458928293128,,,,,39781.0,39812.0,39868.0,39890.0,39904.0,39923.0,39935.0,39940.0,40149.0,40215.0,0.05852001654393181,-0.12498416407518101,0.05325990885423039,-0.47570691476771143,0.023986655306936777
51,51,40575.273982700426,1838.629877266873,7.64389620259217,40679.87669549929,-5696.856779652801,12.739827004320285,40708.51554009141,45318.13592720598,8.00926942747632,40761.72601731412,-2275.6404813181152,7.64389620259217,40973.70874426152,8186.339068635068,30.95971380302401,0.9715848824061863,94.0,78.0,106.0,240.0,346.0,16.0,775.0,794.0,20.0,7.0,13.0,0.35,228.7735936960879,2295.996017298001,22.0,15.0,7.0,0.6818181818181818,683.1217784825009,592.5528411603532,20.0,10.0,10.0,0.5,2494.4821956107294,43915.26523731406,12.0,2.0,10.0,0.1666666666666666,225.56268164412305,2010.42203901437,71.0,33.0,38.0,0.4647887323943662,166.46912166889874,8316.651688935905,,,,,40571.0,40587.0,40665.0,40687.0,40699.0,40718.0,40760.0,40771.0,40941.0,41011.0,0.12442612650032658,-0.11991205061050073,0.05504379526151713,-0.09912052606546654,0.02033498982551362
52,52,41377.3513263262,3868.0696972783494,13.199555586755922,41471.027373699,-3373.3550757771236,17.83575780604443,41502.967671907034,48052.27526644983,8.059659142478338,41579.12330450071,-1259.112715549187,7.706881272845433,41768.72213319494,10338.35757675788,31.298164737803937,0.9834214515264432,100.0,77.0,127.0,212.0,339.0,23.0,802.0,795.0,25.0,11.0,14.0,0.44,209.4393063937657,3984.468131115432,15.0,5.0,10.0,0.3333333333333333,450.5096236928529,1090.7927613042816,20.0,10.0,10.0,0.5,2585.536288314128,46153.41576802585,22.0,8.0,14.0,0.3636363636363636,150.95901862288034,881.5038863013835,83.0,42.0,41.0,0.5060240963855421,257.27199123774983,10541.790544234838,,,,,41366.0,41389.0,41466.0,41481.0,41493.0,41513.0,41572.0,41593.0,41734.0,41805.0,0.05414569094789873,-0.13354942292550348,0.05380674013826257,-0.11989317299288536,0.0248851898696302
53,53,42193.67126990158,3791.909474449339,12.51500319650249,42280.45203459914,-3389.381389016434,15.28779240518434,42315.70655446753,46766.10741994895,7.928914468764352,42401.12330450071,-1046.0321986440529,12.739827004320285,42582.36510175988,9849.450800770846,30.69113451650003,0.9752102904437198,99.0,63.0,131.0,211.0,342.0,36.0,813.0,813.0,38.0,18.0,20.0,0.4736842105263157,166.76953129683082,3378.4732597020097,22.0,8.0,14.0,0.3636363636363636,275.40894023125276,1968.525968867002,19.0,10.0,9.0,0.5263157894736842,2470.072855082798,44545.85349166747,15.0,7.0,8.0,0.4666666666666667,156.4670255249122,1568.6887129328982,77.0,37.0,40.0,0.4805194805194805,194.744624450133,10545.26733064296,,,,,42178.0,42214.0,42277.0,42293.0,42306.0,42325.0,42394.0,42408.0,42548.0,42619.0,0.043980356709609765,-0.08125640304857336,0.05281758502802272,-0.14958146195474362,0.01977213028313129
54,54,43009.26539019579,3810.8121217728,9.755287694268729,43103.45203459914,-5182.323099620053,8.405814336654949,43133.637314012805,46459.04147357071,7.808774129611666,43201.12330450071,-1343.6364143566605,12.739827004320285,43400.87087401168,9329.360405644937,30.635248431708135,0.9717986805528284,96.0,78.0,108.0,231.0,339.0,18.0,820.0,818.0,18.0,9.0,9.0,0.5,267.8620727109501,4133.565271907566,16.0,7.0,9.0,0.4375,537.0572992769687,710.0641407761132,19.0,10.0,9.0,0.5263157894736842,2559.0963716700676,43891.21260305811,19.0,13.0,6.0,0.6842105263157895,192.42853884439737,1656.4545575945908,78.0,43.0,35.0,0.5512820512820513,199.20015081436568,10853.03763265126,,,,,43000.0,43018.0,43096.0,43112.0,43124.0,43143.0,43188.0,43204.0,43364.0,43435.0,0.07029002326841029,-0.10363253871923647,0.05508284911831141,-0.1432147393359632,0.02135196220888146
55,55,43822.44241582443,3533.0314415407065,11.314938020837545,43912.753390998565,-3485.6341265537017,25.47965400864057,43948.38913495506,47925.891416712206,7.909165865819874,44009.3173679549,-2127.3812885275443,5.118860687710821,44217.2327992967,10079.600191904943,30.32112171262598,0.9740826556697318,96.0,67.0,109.0,236.0,345.0,29.0,815.0,815.0,31.0,14.0,17.0,0.4516129032258064,193.9755579854247,3802.9125168086257,24.0,9.0,15.0,0.375,311.9196123337025,4017.9252393435504,19.0,9.0,10.0,0.4736842105263157,2544.54377573135,45618.61001715645,12.0,7.0,5.0,0.5833333333333334,235.37560547362875,3068.35621239761,75.0,42.0,33.0,0.56,197.35483865266252,8938.66564446725,,,,,43809.0,43838.0,43905.0,43927.0,43939.0,43958.0,44005.0,44014.0,44178.0,44250.0,0.054903433834382925,-0.08948719257637693,0.05309330093845774,-0.11064100579569483,0.01957962963760812
56,56,44603.02092336521,3762.2043820098343,13.355070823123556,44696.33172565741,-4814.975022383244,6.9228594936672385,44728.00712373101,45717.56222728769,8.042516584216887,44749.15067819971,-1770.7383648209989,5.095930801728113,44991.570991229535,9496.45242038363,32.479443413666864,0.9804093607037256,92.0,74.0,67.0,272.0,339.0,18.0,778.0,778.0,19.0,8.0,11.0,0.4210526315789473,260.54324973445983,3901.991087664202,17.0,8.0,9.0,0.4705882352941176,492.9084800066698,1458.032864356028,20.0,10.0,10.0,0.5,2417.5925712953635,43681.85957786882,9.0,1.0,8.0,0.1111111111111111,1369.7695659468652,19359.72828685499,78.0,40.0,38.0,0.5128205128205128,270.96398490737323,9109.093161233402,,,,,44596.0,44614.0,44688.0,44705.0,44718.0,44738.0,44748.0,44755.0,44956.0,45027.0,0.06925281650840913,-0.10236989345018395,0.05288104731560603,-0.7735584167372649,0.028533179856275955
57,57,45394.60271279886,4787.626055104676,12.67144142617602,45486.71588563579,-4321.843489835085,6.560735214563443,45517.00184982906,48275.422106891594,7.969215282048959,45576.542418754034,-967.9614412963792,3.908587697518204,45783.85896535034,9919.205722792887,32.32468555396824,0.9833801160095486,100.0,73.0,100.0,244.0,344.0,27.0,796.0,790.0,36.0,23.0,13.0,0.6388888888888888,254.4398308541749,3822.718803583008,16.0,8.0,8.0,0.5,569.906424829842,1236.4734228976936,20.0,10.0,10.0,0.5,2567.1655780058936,46255.63717105116,5.0,3.0,2.0,0.6,185.7915851842137,1275.8578206788736,76.0,36.0,40.0,0.4736842105263157,248.7650260544984,11503.541475069833,,,,,45379.0,45406.0,45479.0,45495.0,45507.0,45527.0,45574.0,45579.0,45750.0,45823.0,0.05314530164336568,-0.1318665116333467,0.05317748589171665,-0.1919411014300169,0.025079127604226686
58,58,46203.85998264254,3639.220326927475,15.291190551550626,46295.17614938335,-4958.138882592679,7.282926518135162,46326.60903839022,47943.24826576629,7.838970861304159,46392.273982700426,-1060.6634290225982,7.64389620259217,46592.35336231506,10192.539231909752,34.75093318435333,0.9802002781850768,97.0,67.0,109.0,235.0,344.0,30.0,804.0,809.0,31.0,15.0,16.0,0.4838709677419355,169.04084531722157,3754.41600897997,18.0,9.0,9.0,0.5,533.5532697873401,1421.704904951197,20.0,11.0,9.0,0.55,2547.606515747259,44353.842823082945,7.0,4.0,3.0,0.5714285714285714,159.74957003793614,1065.4935397165873,81.0,38.0,43.0,0.4691358024691358,193.18525063658143,11355.206175934673,,,,,46189.0,46219.0,46286.0,46304.0,46316.0,46336.0,46388.0,46395.0,46555.0,46630.0,0.046449742013817436,-0.10761160234146927,0.053137962234535714,-0.15061287649480423,0.01895359402020028
59,59,47026.60271279886,3233.5535215942105,10.110807357197544,47110.452034600414,-4092.172672913017,15.28779240488318,47146.164422171576,46097.3044638052,7.996454853267742,47170.33088767337,-2490.232869856249,2.022310853529385,47413.31778360236,9887.600558347383,28.41679952933241,0.9709383948524746,93.0,69.0,66.0,273.0,339.0,24.0,828.0,823.0,29.0,16.0,13.0,0.5517241379310345,282.4671465670048,2163.9942949445713,67.0,52.0,15.0,0.7761194029850746,253.65573052985047,3273.080896988509,19.0,9.0,10.0,0.4736842105263157,2449.390575543967,44115.59137836859,6.0,2.0,4.0,0.3333333333333333,1059.0759885846771,14096.27199133158,69.0,33.0,36.0,0.4782608695652174,277.81292445169805,10839.632922301776,,,,,47014.0,47038.0,47107.0,47124.0,47137.0,47156.0,47169.0,47173.0,47385.0,47446.0,0.08735502433488175,-0.06198558829368395,0.05313522350243246,-0.4252919481565646,0.028097102306298243
60,60,47843.63970471354,4455.549016342548,10.05404847674815,47939.30135639943,-4113.395219807756,6.50628295589193,47967.969652650616,45124.54459892429,7.975643049788512,47991.15067819971,-1831.535499684555,5.095930784220211,48234.52852773146,9775.136337767985,29.46224243989294,0.9742983037767076,94.0,75.0,67.0,276.0,343.0,19.0,811.0,818.0,19.0,10.0,9.0,0.5263157894736842,284.4288080377895,5062.276082892494,18.0,12.0,6.0,0.6666666666666666,670.0797047709947,2908.679138952564,20.0,10.0,10.0,0.5,2409.7561887403817,42181.82080899179,7.0,2.0,5.0,0.2857142857142857,1186.5677362860042,16164.41113803117,68.0,32.0,36.0,0.4705882352941176,192.60491746563912,9936.93442631259,,,,,47834.0,47853.0,47928.0,47945.0,47958.0,47978.0,47990.0,47995.0,48203.0,48271.0,0.06383698327513186,-0.16290185332648674,0.05340233813235707,-0.6478540746222864,0.01970355305649044
61,61,48644.30135639943,3729.753612815602,10.191861603456095,48737.87669549929,-4632.211111470664,6.942116492172197,48765.99202811179,46657.96050003527,7.792013924762502,48848.726017299574,-2084.661767007881,5.330288206297558,49032.306867695355,9308.366707971098,30.83197979253447,0.9741400753860928,97.0,78.0,125.0,216.0,341.0,19.0,805.0,799.0,21.0,14.0,7.0,0.6666666666666666,256.46986233704536,3652.065598151892,18.0,10.0,8.0,0.5555555555555556,764.7656949312083,3567.3049275682765,20.0,10.0,10.0,0.5,2497.8629168546618,44885.18363806962,13.0,8.0,5.0,0.6153846153846154,244.51144400301135,2658.181264386988,80.0,39.0,41.0,0.4875,187.80385951840643,8943.539106822433,,,,,48631.0,48650.0,48728.0,48745.0,48756.0,48776.0,48841.0,48853.0,49000.0,49069.0,0.0687632184216682,-0.16509733182009606,0.05353562157636045,-0.11729070292009965,0.02017581229987244
62,62,49480.55814425653,4530.739341701405,15.218452206530042,49573.45203459914,-2548.2856254100648,8.750706528381112,49604.52032127797,48766.60409244188,8.008851954586378,49689.84932180029,-1244.861780115781,5.095930801728113,49871.26017299569,10349.099312165416,35.80287747560576,0.9805100264370704,109.0,71.0,125.0,222.0,347.0,38.0,831.0,838.0,38.0,23.0,15.0,0.6052631578947368,359.309964733501,4212.869109006311,28.0,19.0,9.0,0.6785714285714286,397.22354852620776,1491.1501410883895,20.0,11.0,9.0,0.55,2596.797242116152,46778.747871856125,5.0,3.0,2.0,0.6,234.30468377961785,1980.5492648263569,86.0,42.0,44.0,0.4883720930232558,160.86983306269545,10872.93927923782,,,,,49458.0,49496.0,49567.0,49582.0,49594.0,49614.0,49687.0,49692.0,49832.0,49914.0,0.07930492964500827,-0.15587873846060227,0.05324949912841313,-0.18821742905290728,0.015544331753932654
63,63,50345.43305806282,4259.201178186551,12.389458858017193,50434.178051898714,-2979.2010190150772,22.93168860777651,50469.45271984608,49185.48748829797,8.04278784229144,50549.273982700426,-1280.119675155477,7.64389620259217,50739.87701760656,10311.402214382424,31.55699336516978,0.9815691402544916,88.0,66.0,133.0,224.0,357.0,22.0,867.0,865.0,22.0,10.0,12.0,0.4545454545454545,274.14889269277535,5217.999163217453,25.0,12.0,13.0,0.48,249.2293858573082,1736.3022521497314,19.0,9.0,10.0,0.4736842105263157,2629.902214380012,47632.37931890486,12.0,4.0,8.0,0.3333333333333333,180.75938759393105,1090.6457056370507,82.0,41.0,41.0,0.5,199.8022064363086,10947.42804824539,,,,,50335.0,50357.0,50423.0,50447.0,50460.0,50479.0,50545.0,50556.0,50709.0,50780.0,0.06436626992329587,-0.08365645160114216,0.05346906879810246,-0.1412050694181987,0.019376822112284878
64,64,51211.027373699,3534.4951541072564,11.506400378749904,51299.45203459914,-3896.268170533773,15.28779240518434,51330.09817567536,47508.344022817,7.930463828837045,51395.2653017023,-1942.0491607383103,6.216338539501955,51598.86746099107,10163.767710504128,32.94097966739153,0.9785958724801932,95.0,69.0,112.0,232.0,344.0,26.0,870.0,861.0,27.0,16.0,11.0,0.5925925925925926,235.2210493338393,2682.680001268078,18.0,9.0,9.0,0.5,426.2086157444963,1354.725081176353,19.0,9.0,10.0,0.4736842105263157,2582.5912028316284,46272.92436417032,17.0,10.0,7.0,0.5882352941176471,225.9487030621036,2580.5350608496237,74.0,37.0,37.0,0.5,260.4811508042411,10624.028724980137,,,,,51195.0,51221.0,51290.0,51308.0,51321.0,51340.0,51385.0,51402.0,51567.0,51634.0,0.06655011227289445,-0.10938893245792869,0.05436079189776175,-0.11634551155038964,0.025628404566451976
65,65,52022.972626301,2852.8331093912607,12.08641412489695,52128.30135639943,-4850.264490554559,10.191861603456228,52156.254392600946,45974.47702944174,8.103568348170892,52179.726017299574,-2899.5319229492015,3.19761670995416,52423.594269700494,9074.489305280462,31.6762326568316,0.9722331101433788,105.0,71.0,66.0,283.0,349.0,34.0,806.0,827.0,35.0,11.0,24.0,0.3142857142857143,198.73952200139823,2929.8671060433353,16.0,10.0,6.0,0.625,742.1708456470228,1810.8067853129776,20.0,10.0,10.0,0.5,2493.6219740043616,45740.98356588609,6.0,2.0,4.0,0.3333333333333333,1142.3337444317265,15535.943201195112,89.0,45.0,44.0,0.5056179775280899,151.85583990009465,8872.111172168603,,,,,52013.0,52047.0,52118.0,52134.0,52146.0,52166.0,52178.0,52184.0,52388.0,52467.0,0.06966391456519705,-0.15301657200186336,0.054239267853062545,-0.3939717770962923,0.016734367609175477
66,66,52901.60271279886,2899.854024538932,13.089708835104842,52991.30135639943,-4535.175913146291,6.912375126449916,53018.245041005706,48488.540099768616,7.87527727219115,53098.273982700426,-1551.7765369261033,7.64389620259217,53286.808138396555,9701.648613137244,31.105681544417628,0.9775596417941276,95.0,69.0,124.0,215.0,339.0,26.0,885.0,861.0,41.0,29.0,12.0,0.7073170731707317,289.0945060925569,2044.426839972172,15.0,9.0,6.0,0.6,836.401492703502,4351.432258404009,20.0,10.0,10.0,0.5,2634.904461490769,47295.17978334443,12.0,4.0,8.0,0.3333333333333333,244.55717245245785,1553.3618573459798,78.0,42.0,36.0,0.5384615384615384,187.44688703414516,9779.525239107232,,,,,52887.0,52913.0,52982.0,52997.0,53008.0,53028.0,53094.0,53106.0,53253.0,53321.0,0.09969277889376588,-0.18442536931786754,0.05434076703627838,-0.15759818932234818,0.019321137520928008
67,67,53749.76203939481,4759.12992173672,14.47607613823585,53842.50928634495,-3496.60679543068,5.528011451222162,53872.19249338728,50266.95337843861,7.868766945414284,53935.12058626486,-482.40067613878466,0.7125289274068872,54139.028094088615,10875.117453310746,34.59452446957686,0.9802514128612578,98.0,74.0,100.0,242.0,342.0,24.0,843.0,857.0,24.0,11.0,13.0,0.4583333333333333,274.7910139209171,5836.0696863320245,16.0,9.0,7.0,0.5625,648.9294297627044,3442.4895536253025,20.0,10.0,10.0,0.5,2692.5803428709432,46855.47324093411,3.0,1.0,2.0,0.3333333333333333,203.3336081256772,825.7916390966086,81.0,39.0,42.0,0.4814814814814814,164.7961844583185,10948.88260304329,,,,,53739.0,53763.0,53837.0,53850.0,53862.0,53882.0,53934.0,53937.0,54101.0,54179.0,0.05773975882983236,-0.18558833398445515,0.05356561641203209,-0.42150357199578004,0.015153508471593479
68,68,54551.74500364798,2833.216111240368,12.770288848339396,54643.60271279886,-4089.693334778098,20.383723206912453,54676.16057479992,46535.00473345879,8.15150239350052,54699.726017299574,-2873.514737793459,6.438946782330047,54943.95881659626,9411.66234973195,30.8007634840305,0.9742276113430526,97.0,77.0,68.0,277.0,345.0,20.0,801.0,802.0,36.0,13.0,23.0,0.3611111111111111,156.62065471673623,3335.4119752633324,33.0,22.0,11.0,0.6666666666666666,379.5284085100078,2003.0398507490568,19.0,9.0,10.0,0.4736842105263157,2503.9279561778867,44611.52798883787,7.0,3.0,4.0,0.4285714285714285,1111.506090046675,15741.802372375674,86.0,41.0,45.0,0.4767441860465116,161.5669169133459,9523.289822025312,,,,,54539.0,54559.0,54636.0,54655.0,54667.0,54686.0,54698.0,54704.0,54903.0,54981.0,0.05528016521414192,-0.09280119007519683,0.0538074073596807,-0.38681064531452114,0.017166671615450314
69,69,55342.60271279886,4251.5071171565905,14.078262255217547,55436.726017299574,-3729.5448601686194,7.643896202585661,55463.50356292993,47910.550887360296,8.005451302305223,55487.15067819971,-2056.253870441308,1.9046602169047364,55729.40611554834,10145.01182571058,33.02357926486683,0.9804723043932712,97.0,70.0,66.0,275.0,341.0,27.0,797.0,786.0,29.0,16.0,13.0,0.5517241379310345,214.6559026399897,3410.223675805093,17.0,13.0,4.0,0.7647058823529411,860.9537066453927,5335.679520971663,19.0,10.0,9.0,0.5263157894736842,2576.6783954889993,45579.34253033621,5.0,2.0,3.0,0.4,1166.3480560044047,15330.634891469734,74.0,35.0,39.0,0.4729729729729729,213.2518431657781,11374.36263216826,,,,,55327.0,55354.0,55424.0,55441.0,55454.0,55473.0,55486.0,55490.0,55698.0,55765.0,0.050489366882102656,-0.2308468563658643,0.053781022087324305,-0.5672198714228248,0.02102036417792361
70,70,56155.56391909496,3564.510954147134,13.244917116294012,56242.178051898714,-3240.6823745747233,22.93168860777651,56277.7720696913,46608.887949241165,8.376516524702415,56365.84659554521,-1505.5364801388043,7.64389620259217,56545.55958504317,9817.905431316383,32.78813381156696,0.9714110937458784,96.0,64.0,133.0,216.0,349.0,32.0,811.0,815.0,32.0,17.0,15.0,0.53125,162.97838582331497,3110.0988453282525,31.0,18.0,13.0,0.5806451612903226,318.01078709694417,1599.4204712740864,20.0,10.0,10.0,0.5,2411.0641044701715,43436.873571212695,13.0,11.0,2.0,0.8461538461538461,211.29909114572968,1117.7665360200926,79.0,38.0,41.0,0.4810126582278481,141.67771503640986,10374.876268993528,,,,,56139.0,56171.0,56235.0,56255.0,56268.0,56288.0,56355.0,56368.0,56513.0,56584.0,0.04572250946057484,-0.09813081022439817,0.05172970672666362,-0.14034803801383064,0.014430543869825577
71,71,56951.686231609616,4166.859479051054,14.332162006839985,57040.60271279886,-2356.4210625345963,20.383723206912453,57074.221148301935,46995.51180565326,8.07522968418655,57151.84932180029,-964.6325199252208,5.095930801728113,57339.15342151917,10458.365256165338,33.41850603115891,0.9777000368889808,97.0,63.0,126.0,219.0,345.0,34.0,791.0,796.0,42.0,22.0,20.0,0.5238095238095238,132.28722633754649,4407.360658785828,38.0,26.0,12.0,0.6842105263157895,330.8724918942055,428.7755852486405,20.0,10.0,10.0,0.5,2490.7424629222755,45635.410742609776,12.0,3.0,9.0,0.25,214.1824936979218,409.20182922796994,80.0,38.0,42.0,0.475,214.35089658256624,11099.184493665229,,,,,56937.0,56971.0,57034.0,57052.0,57064.0,57084.0,57149.0,57160.0,57303.0,57379.0,0.03174746520793956,-0.14041314481305597,0.05299958160308098,-0.22203532358055422,0.02049564069835902
72,72,57733.3237610442,3483.561821662946,10.88866551606721,57823.02737369901,-3597.574034080154,17.835757805835076,57859.12905939735,45286.38672605033,7.918012677722994,57930.972626301,-1683.2412104147663,17.835757806004736,58126.64014663342,9457.879658883669,30.752560026457452,0.9746752409848866,94.0,79.0,124.0,220.0,344.0,15.0,787.0,785.0,17.0,10.0,7.0,0.5882352941176471,217.16064948559335,4054.4395259802727,63.0,48.0,15.0,0.7619047619047619,281.3436227298742,2606.311723313613,19.0,9.0,10.0,0.4736842105263157,2428.124061931293,43263.22825878367,46.0,11.0,35.0,0.2391304347826087,180.2128568184356,2023.403808728044,66.0,30.0,36.0,0.4545454545454545,244.26692612710843,10959.05683128803,,,,,57725.0,57740.0,57819.0,57838.0,57850.0,57869.0,57921.0,57943.0,58097.0,58163.0,0.06233868109793656,-0.07820370618218829,0.0536170853422172,-0.10706300184631855,0.025826816891000675
73,73,58522.39728720114,3147.246466588287,12.854987563844244,58618.87669549929,-6048.442645867282,6.062471610714863,58647.12178512123,46746.47290557897,7.738114135115963,58708.24033010831,-1671.4743190848478,3.83478083612456,58912.94221031492,10068.66082706442,31.75906267831054,0.9790054894832352,100.0,68.0,100.0,236.0,336.0,32.0,784.0,790.0,34.0,12.0,22.0,0.3529411764705882,208.77033842727545,3793.701178513972,15.0,8.0,7.0,0.5333333333333333,782.8020317440688,1604.15866422283,20.0,10.0,10.0,0.5,2547.396775983843,44826.1912234466,8.0,4.0,4.0,0.5,214.93062266058783,2110.1001782363373,71.0,37.0,34.0,0.5211267605633803,180.36753614405788,10669.843394608211,,,,,58511.0,58543.0,58611.0,58626.0,58637.0,58657.0,58704.0,58711.0,58880.0,58947.0,0.0663342832039427,-0.1294220806208576,0.05449388194761156,-0.12858745133354182,0.017913756282189233
74,74,59330.63008649785,3673.521854886566,17.89834380496848,59414.178051898714,-2354.974905268428,22.93168860777651,59450.00589672038,47735.258968829025,7.96639324016544,59473.215709739736,-1709.825845026261,1.5056747661665122,59717.70217434073,10351.864996421698,34.6253023508163,0.9748999669430912,106.0,53.0,71.0,283.0,354.0,53.0,818.0,801.0,56.0,34.0,22.0,0.6071428571428571,226.0916124515348,2604.1296033815356,27.0,14.0,13.0,0.5185185185185185,291.3928954365795,2241.268140670979,20.0,10.0,10.0,0.5,2601.461112087463,45637.9995127861,4.0,1.0,3.0,0.25,1216.4500525363987,15274.567453955216,77.0,35.0,42.0,0.4545454545454545,229.5798448535059,11829.13806226533,,,,,59299.0,59352.0,59405.0,59427.0,59440.0,59460.0,59472.0,59476.0,59683.0,59759.0,0.06154628211910181,-0.12373503207388344,0.05449768511335005,-0.7114467570337348,0.02217763127058401
75,75,60094.273982700426,2681.16158916836,7.64389620259217,60208.30135639943,-4421.952872181943,10.191861597559914,60235.720845932046,46399.49891272673,7.8653877128736625,60309.87669549929,-1563.115041526007,12.739827004320285,60503.8962181203,9595.328314908673,29.118570837713797,0.9671353753158972,107.0,97.0,124.0,216.0,340.0,10.0,756.0,786.0,12.0,5.0,7.0,0.4166666666666667,341.59772695447265,5704.9932846587635,20.0,13.0,7.0,0.65,861.1894011172493,3996.439260227809,19.0,10.0,9.0,0.5263157894736842,2504.7294538265255,44569.777533532775,31.0,19.0,12.0,0.6129032258064516,172.7991800970422,803.926434433881,67.0,33.0,34.0,0.4925373134328358,167.47176582144672,10348.965665406377,,,,,60090.0,60100.0,60197.0,60214.0,60226.0,60245.0,60307.0,60321.0,60474.0,60537.0,0.1274066167195947,-0.1947531839461484,0.053981821194614525,-0.11054796064680258,0.01745346905548179
76,76,60861.972626301,4096.058149722713,9.521074752508454,60948.32873009842,-3766.013926362082,28.02761940950462,60986.547968534534,46124.920281794875,8.165325974387077,61010.15067819971,-2273.6796747264684,5.095930801472425,61255.46798777298,9786.7732788043,27.902381449143252,0.9768756086284,56.0,34.0,106.0,276.0,382.0,22.0,766.0,751.0,22.0,10.0,12.0,0.4545454545454545,262.4014380649011,4527.813691394285,61.0,44.0,17.0,0.7213114754098361,195.85036691647915,2733.894515591259,19.0,10.0,9.0,0.5263157894736842,2413.14656368871,42340.665619621665,7.0,2.0,5.0,0.2857142857142857,1146.811813586213,16359.049329929612,69.0,34.0,35.0,0.4927536231884058,147.11534025973526,10604.087851262146,,,,,60852.0,60874.0,60908.0,60964.0,60977.0,60996.0,61009.0,61014.0,61221.0,61290.0,0.06406194162127914,-0.052004684726609046,0.0523176310971568,-0.5043858316251951,0.015032057662799879
77,77,61655.42453780056,4166.297811533232,14.426283061795903,61754.726017299574,-3415.417917758465,6.58160518782495,61780.626050880855,47729.80451350692,8.068192945653799,61862.731593000906,-571.2105467707103,1.020794713661231,62048.383477496405,10675.901327521766,33.7700912523587,0.974930324291097,97.0,75.0,125.0,219.0,344.0,22.0,797.0,794.0,30.0,20.0,10.0,0.6666666666666666,253.3917993403204,4777.506385241029,19.0,15.0,4.0,0.7894736842105263,901.9499517373469,7182.802836292232,19.0,10.0,9.0,0.5263157894736842,2529.366546914985,45198.78916064915,4.0,2.0,2.0,0.5,205.75955628884907,987.55510665536,81.0,42.0,39.0,0.5185185185185185,181.03183958670184,11580.508204012363,,,,,61643.0,61665.0,61740.0,61759.0,61771.0,61790.0,61861.0,61865.0,62007.0,62084.0,0.06081941589458055,-0.2640818703467175,0.052993440318809745,-0.36021666170572836,0.016957054400644725
78,78,62454.34136527465,3481.8552316173264,13.502363379140158,62545.027373699,-3755.4409269749513,17.8357578060484,62580.51947827609,47013.51605194944,8.109667344788374,62638.69864360057,-1327.1939129849836,10.191861603456228,62851.121514172,9891.733570399192,28.5000796439187,0.9764187333342266,104.0,68.0,101.0,246.0,347.0,36.0,798.0,799.0,36.0,17.0,19.0,0.4722222222222222,184.34665624538408,3565.740217686195,60.0,46.0,14.0,0.7666666666666667,353.69366109371106,2019.7294806781656,19.0,10.0,9.0,0.5263157894736842,2473.0920323872115,43738.069177213685,48.0,6.0,42.0,0.125,171.84069583068336,774.9729939864559,79.0,40.0,39.0,0.5063291139240507,276.00223621393513,10300.412850898569,,,,,62437.0,62473.0,62541.0,62558.0,62571.0,62590.0,62633.0,62642.0,62822.0,62888.0,0.05294495146478414,-0.09418166014892296,0.05260385182964131,-0.1294767058147498,0.027902311991081737
79,79,63242.972626301,3228.6900083737983,14.46537757249963,63331.60271279886,-2976.8308996333453,20.383723206912453,63368.64004139882,47315.02175846093,7.828940078491085,63431.84932180029,-1005.8899551764628,5.095930801728113,63636.0901680133,9067.30421008385,32.343212426417935,0.977331788192102,94.0,80.0,110.0,235.0,345.0,14.0,786.0,788.0,30.0,10.0,20.0,0.3333333333333333,228.46746753693097,3925.501248895711,28.0,13.0,15.0,0.4642857142857143,293.2533709066878,2010.53498702826,20.0,10.0,10.0,0.5,2542.089885428018,43818.74952627538,9.0,3.0,6.0,0.3333333333333333,185.7570104874149,919.45281932652,79.0,42.0,37.0,0.5316455696202531,165.72454936516243,9952.800547240337,,,,,63233.0,63247.0,63327.0,63346.0,63359.0,63378.0,63429.0,63437.0,63601.0,63672.0,0.07076166090407784,-0.09851193460226701,0.053726909360946,-0.18466931649081597,0.01827715774451003
80,80,64014.03673965291,3402.054788530484,15.546849695087234,64105.60271279886,-2578.105094878666,20.383723206912453,64140.51595976751,48140.57241651448,8.047334217694317,64204.888974689275,-1582.5697211628965,4.011829262774984,64405.53415569612,9905.702404619024,34.548779897775034,0.9782025199861036,103.0,81.0,110.0,233.0,343.0,22.0,772.0,773.0,27.0,20.0,7.0,0.7407407407407407,203.60738811113157,3270.9237493844157,18.0,6.0,12.0,0.3333333333333333,294.864761466507,1330.0699972002462,19.0,10.0,9.0,0.5263157894736842,2514.4249682231766,45130.3445245151,13.0,7.0,6.0,0.5384615384615384,201.34101340506325,2448.345975232038,86.0,46.0,40.0,0.5348837209302325,253.65832593926643,9839.301544423935,,,,,63998.0,64020.0,64101.0,64118.0,64131.0,64150.0,64198.0,64211.0,64371.0,64444.0,0.059848356586602675,-0.11437266931136657,0.05223089053591334,-0.1272241031233144,0.02560730330652632
81,81,64826.01665144776,3630.367152449333,10.491301058513056,64915.87669549929,-4221.538275329217,12.739827004320285,64950.63973105883,47228.010675024314,7.875026219754434,65018.12330450071,-1541.555351471286,12.739827004320285,65229.05474739799,9279.186907624342,29.626729881154183,0.9643976808263306,98.0,79.0,109.0,227.0,336.0,19.0,812.0,811.0,19.0,11.0,8.0,0.5789473684210527,283.8274056524209,4400.449635093317,16.0,3.0,13.0,0.1875,384.9402242569705,3146.285195798409,19.0,10.0,9.0,0.5263157894736842,2519.988956241277,44863.524436942775,17.0,13.0,4.0,0.7647058823529411,251.10577176554327,2029.1700386211592,79.0,51.0,28.0,0.6455696202531646,274.23480333498827,8214.640543721725,,,,,64815.0,64834.0,64913.0,64928.0,64941.0,64960.0,65011.0,65022.0,65190.0,65249.0,0.07818146036852733,-0.09118482390804591,0.05335793145261415,-0.1628911809919013,0.02955375358477372
82,82,65650.72601729959,2787.470249157413,7.643896202579567,65734.87669549929,-4243.008105223519,12.739827003567893,65762.71819340969,47239.51558654726,7.917206013577797,65847.84932180027,-2213.8425160981787,5.0959308012476265,66031.2327992967,9839.63080523758,30.915988186232912,0.9699368247821308,92.0,67.0,131.0,211.0,342.0,25.0,828.0,810.0,26.0,21.0,5.0,0.8076923076923077,242.65998599289543,1369.6987397571525,63.0,56.0,7.0,0.8888888888888888,746.4193896393303,3681.134004019586,20.0,10.0,10.0,0.5,2531.156089884084,44456.24989069275,8.0,3.0,5.0,0.375,227.9088789158279,2282.276398931147,70.0,36.0,34.0,0.5142857142857142,147.04538766838868,9774.701128027587,,,,,65630.0,65655.0,65722.0,65742.0,65753.0,65773.0,65845.0,65853.0,65997.0,66064.0,0.08705383889433291,-0.17591750266053507,0.05358133034295761,-0.10294719577321582,0.014944197661371323
83,83,66390.09968467832,4139.946723254178,12.568031682949243,66485.78360054706,-4987.573036744751,7.941470731935044,66517.1589291603,46832.40631652441,7.808071600250705,66541.33046908131,-2074.3780849698205,2.0613339322142368,66783.61422641684,9110.65686211639,31.516108325184735,0.9769492347256672,96.0,84.0,65.0,277.0,342.0,12.0,737.0,755.0,13.0,7.0,6.0,0.5384615384615384,375.64827743649454,4948.078168005371,16.0,7.0,9.0,0.4375,520.7253796507237,1303.6012819976372,19.0,9.0,10.0,0.4736842105263157,2549.927430459671,45726.86324008454,5.0,1.0,4.0,0.2,1068.2560621871503,14508.896953376465,77.0,37.0,40.0,0.4805194805194805,188.6323197844792,9014.360836874212,,,,,66383.0,66395.0,66479.0,66495.0,66508.0,66527.0,66540.0,66544.0,66753.0,66821.0,0.0907374665781251,-0.10440456226192658,0.054447926788676486,-0.5149765464296698,0.02070457955329691
84,84,67169.027373699,3635.3748898613862,15.019755346471191,67252.45203459915,-3255.714239787526,15.287792404299973,67283.39541698368,48599.08497986268,8.311478163681564,67306.57533909987,-2084.5159994079004,1.3370741769910697,67550.03861991438,9774.346988332029,34.602802825316935,0.9805018956600072,106.0,65.0,64.0,281.0,345.0,41.0,783.0,766.0,46.0,32.0,14.0,0.6956521739130435,231.39162584129951,2798.8261636290013,17.0,8.0,9.0,0.4705882352941176,441.60824333115426,388.0115337067295,20.0,10.0,10.0,0.5,2558.989200783404,47869.58391053885,3.0,2.0,1.0,0.6666666666666666,1243.7782014351117,15158.7485312111,82.0,42.0,40.0,0.5121951219512195,233.20863837446632,10460.585790451642,,,,,67138.0,67179.0,67244.0,67261.0,67273.0,67293.0,67305.0,67308.0,67514.0,67589.0,0.06365000387900085,-0.1356409717825771,0.05265509014920212,-0.5966748164986033,0.023859255114725867
85,85,67927.39728720114,4650.983439120363,13.311137874334898,68021.30135639943,-2221.1219529300033,10.19186160219536,68050.42603637998,47757.76923811912,7.882275150216116,68109.84932180027,-1675.9055878753504,2.4372721300273295,68315.06123569065,10419.589982633384,33.44128207852948,0.981458595767996,74.0,51.0,125.0,237.0,362.0,23.0,752.0,768.0,25.0,12.0,13.0,0.48,258.9273919734243,5075.1074456933175,38.0,32.0,6.0,0.8421052631578947,521.3177398460259,3681.1552478679178,19.0,9.0,10.0,0.4736842105263157,2600.7238022368256,46650.04953858595,9.0,3.0,6.0,0.3333333333333333,261.7555064738433,1816.5071763769868,75.0,38.0,37.0,0.5066666666666667,163.30832601474842,11544.23311137666,,,,,67916.0,67939.0,67990.0,68027.0,68041.0,68060.0,68107.0,68115.0,68277.0,68352.0,0.055671536001511764,-0.23470919242337288,0.05445655950280419,-0.1561875014723753,0.01567320079647461
86,86,68697.81949000362,2929.707938503036,17.039140220227285,68782.60271279886,-3096.0392096504684,20.383723206909902,68820.0696845943,47571.55852990949,8.09369346542539,68897.26378113922,-920.2313861331564,5.815154981595025,69084.87647146103,10027.542667681246,31.580199567069855,0.9800320092450469,93.0,65.0,125.0,215.0,340.0,28.0,770.0,769.0,47.0,25.0,22.0,0.5319148936170213,229.22660917828185,2407.1704695352355,20.0,6.0,14.0,0.3,275.66746428760115,2659.3163259252246,20.0,10.0,10.0,0.5,2512.696733545368,45569.15322097573,14.0,8.0,6.0,0.5714285714285714,130.6910391226158,474.232269487875,77.0,37.0,40.0,0.4805194805194805,213.86607596761755,10319.06040512193,,,,,68685.0,68713.0,68778.0,68797.0,68810.0,68830.0,68889.0,68903.0,69055.0,69118.0,0.07824213675558646,-0.08903875100429462,0.052819306560359366,-0.1420197583911846,0.021327864967047964
87,87,69460.47940829814,3470.808543963334,15.740624859230843,69546.55864516515,-3840.166422748503,9.423711556340658,69579.23540478942,45261.16126589147,7.909766608452286,69658.87669549929,-2204.123938679311,5.637190405099407,69844.2140664138,9473.784667964785,32.18690693017576,0.977325091709498,116.0,63.0,124.0,213.0,337.0,53.0,772.0,758.0,59.0,35.0,24.0,0.5932203389830508,200.29620498609523,2202.3765734173917,14.0,5.0,9.0,0.3571428571428571,393.0802688755182,2065.6443278745464,20.0,10.0,10.0,0.5,2397.492587118408,44281.07825739814,17.0,9.0,8.0,0.5294117647058824,185.0148845898844,1574.5224878879285,72.0,34.0,38.0,0.4722222222222222,202.34398549886384,10065.238708077355,,,,,69426.0,69479.0,69542.0,69556.0,69569.0,69589.0,69652.0,69666.0,69814.0,69879.0,0.05770880255969866,-0.10236021713719919,0.05297019608122923,-0.08394032719446053,0.021358305322590004
88,88,70208.08859908383,4499.532985536256,15.066949674955756,70304.87669549929,-3790.52974709871,6.5698066372771935,70333.44262157944,46569.68942715549,8.144358375291844,70414.32732196858,-1053.891394130133,3.4558505914961537,70597.15468503226,10388.213696521449,34.34904447165254,0.9824565790013904,99.0,71.0,126.0,218.0,344.0,28.0,742.0,755.0,28.0,13.0,15.0,0.4642857142857143,226.33887155701615,4650.315704770299,19.0,12.0,7.0,0.631578947368421,711.0801496679735,4632.389139124542,20.0,10.0,10.0,0.5,2476.559516735425,46290.816526320545,10.0,4.0,6.0,0.4,183.1283174776425,411.32239320524513,79.0,38.0,41.0,0.4810126582278481,168.11062763847846,11815.813491077077,,,,,70195.0,70223.0,70294.0,70312.0,70323.0,70343.0,70410.0,70420.0,70560.0,70638.0,0.05030274748170137,-0.18759387133480163,0.0531796442535712,-0.1737639366803958,0.01618282339482208
89,89,71019.3529931703,3562.080227094136,11.72195781020616,71113.69864360057,-4119.881445246403,8.014939655498615,71145.58519919468,47171.18820121723,7.61570400270164,71202.90241999734,-1899.5054982297197,6.707979901811245,71413.33557590547,9790.724881005017,29.70103090478123,0.979027815393024,99.0,73.0,102.0,237.0,339.0,26.0,814.0,813.0,27.0,11.0,16.0,0.4074074074074074,212.1290082167346,4260.979641876645,17.0,7.0,10.0,0.4117647058823529,466.7197299263097,1867.5572359336984,19.0,10.0,9.0,0.5263157894736842,2562.7361106382505,44444.06459889336,11.0,4.0,7.0,0.3636363636363636,209.0046699040764,2555.988093508623,72.0,36.0,36.0,0.5,248.51986906825687,10816.86504494234,,,,,71009.0,71035.0,71108.0,71124.0,71136.0,71155.0,71199.0,71210.0,71384.0,71447.0,0.05955200183399144,-0.1132847476630231,0.054328419706250276,-0.11003109498701756,0.02538319400133592
90,90,71853.36449802422,4630.988139947412,16.347228558337186,71946.87669549929,-3277.479388290867,6.153882329088713,71976.14514321563,47890.89737801649,8.00084463341067,72050.42466090013,-453.4212877972621,0.7408301313126481,72242.53415569612,10724.202477784247,35.91244135672973,0.9811813501718774,100.0,75.0,113.0,229.0,342.0,25.0,829.0,832.0,32.0,15.0,17.0,0.46875,305.3411489563529,5350.605042436426,16.0,9.0,7.0,0.5625,595.5865783055556,3431.7189588588544,20.0,10.0,10.0,0.5,2534.2251494145944,46152.41647787178,3.0,1.0,2.0,0.3333333333333333,181.8127559742014,391.3642937144811,87.0,43.0,44.0,0.4942528735632184,251.25665516867457,11709.049489061472,,,,,71839.0,71864.0,71939.0,71954.0,71966.0,71986.0,72049.0,72052.0,72201.0,72281.0,0.06593434051848387,-0.18172092261917802,0.05291663527227802,-0.40097975297422556,0.023428936155314675
91,91,72663.27398270041,4004.2867171428447,7.64389620259217,72750.75339099858,-3806.0774926776658,25.47965400864057,72787.01102845307,46998.250331314885,8.097752622196069,72811.31093947569,-1778.4598165146003,2.394376545800266,73053.1940280798,9371.581644812008,32.351944308844764,0.9768811458690794,44.0,34.0,116.0,279.0,395.0,10.0,811.0,808.0,11.0,8.0,3.0,0.7272727272727273,312.23085423787666,4583.706654034562,67.0,52.0,15.0,0.7761194029850746,240.5083668395379,2558.8833598357214,20.0,10.0,10.0,0.5,2470.2900806516195,43996.24554693063,6.0,2.0,4.0,0.3333333333333333,995.418664058278,13454.3259877148,85.0,43.0,42.0,0.5058823529411764,143.71263715817878,9368.887431646825,,,,,72655.0,72665.0,72699.0,72765.0,72777.0,72797.0,72810.0,72815.0,73022.0,73094.0,0.07797415027779551,-0.06319061219910542,0.052561320118031454,-0.5597082682526305,0.015334939458990502
92,92,73454.12330450071,2902.9553005599437,12.739827004320285,73546.45203459915,-3555.6056444288356,15.28779240518434,73577.9088275603,44435.261990753424,8.41349091567013,73600.15067819973,-2564.4070588721047,5.095930801723905,73847.2327992967,8999.473893502221,29.870023808125705,0.9732389888921946,90.0,75.0,73.0,275.0,348.0,15.0,790.0,792.0,34.0,12.0,22.0,0.3529411764705882,216.8834110538041,3638.880615122768,23.0,14.0,9.0,0.6086956521739131,446.0650911372116,646.6373194156517,20.0,10.0,10.0,0.5,2349.8871287235834,42947.42620168397,7.0,1.0,6.0,0.1428571428571428,1337.7412350191394,17704.5015283009,76.0,40.0,36.0,0.5263157894736842,157.73781985474452,9412.773282072389,,,,,73442.0,73457.0,73532.0,73555.0,73568.0,73588.0,73599.0,73605.0,73811.0,73880.0,0.07471124719418519,-0.12545403954910936,0.052883386379325804,-0.5216571333287134,0.017527449017729135
93,93,74271.972626301,3993.804091937559,13.835243734477372,74370.72267390994,-4540.143758111335,4.592379694725061,74399.38978044812,48003.3273021501,7.9037128226646685,74484.04054580556,-1748.9836733895634,2.5785209864576637,74665.0926103404,10294.22801765849,33.439323188570754,0.9823783949292012,102.0,85.0,123.0,219.0,342.0,17.0,817.0,821.0,23.0,16.0,7.0,0.6956521739130435,247.15645353532392,4918.19394398911,12.0,7.0,5.0,0.5833333333333334,762.3375544932532,3062.3363887586843,20.0,10.0,10.0,0.5,2546.9654493758776,46801.40214728131,7.0,4.0,3.0,0.5714285714285714,282.1799655159248,2789.347472906742,82.0,40.0,42.0,0.4878048780487805,150.6993573994446,10518.052213908086,,,,,74262.0,74279.0,74364.0,74376.0,74389.0,74409.0,74480.0,74487.0,74625.0,74706.0,0.061884971782734124,-0.16791044405395208,0.05305810227162727,-0.1613393937343364,0.014639209189940059
94,94,75113.23991619948,4366.021775447903,12.756460361456162,75206.22410086612,-4385.914884821719,5.651074787773494,75236.92819528567,47066.50918060039,7.901793773438639,75320.84932180027,-1227.429492146346,1.928626972600496,75504.03505508338,10128.197761995536,32.69614440475783,0.9762398240288124,99.0,70.0,126.0,216.0,342.0,29.0,846.0,838.0,29.0,12.0,17.0,0.4137931034482758,226.9751861809217,4691.667963324432,13.0,6.0,7.0,0.4615384615384615,560.7355494835722,494.449623015028,20.0,10.0,10.0,0.5,2495.9623096499913,44947.38095443303,8.0,3.0,5.0,0.375,214.9411031338918,1129.1516590194465,75.0,37.0,38.0,0.4933333333333333,172.5196936681378,10266.420424507523,,,,,75101.0,75130.0,75200.0,75213.0,75227.0,75247.0,75318.0,75326.0,75472.0,75542.0,0.05198672793097481,-0.1278491635631377,0.05303053812792139,-0.17511482696903002,0.017033602396222033
95,95,75931.13279694848,2459.8347364608376,9.681360851345245,76024.87669549929,-5595.869508161672,12.739827004320285,76053.35602051564,45213.55207865191,8.090205334725264,76077.74871572797,-3479.61373197135,3.4134836224778344,76332.20542559771,8447.227105521924,26.84604468308389,0.960955018683466,94.0,76.0,69.0,273.0,342.0,18.0,813.0,817.0,28.0,12.0,16.0,0.4285714285714285,240.97707589359655,2297.3613187789024,20.0,13.0,7.0,0.65,736.4251543926105,1483.7256334804115,19.0,9.0,10.0,0.4736842105263157,2471.520841209559,44204.26966962463,7.0,3.0,4.0,0.4285714285714285,989.5306887067604,13988.570808860675,65.0,41.0,24.0,0.6307692307692307,206.83453245985683,7655.620272299669,,,,,75919.0,75937.0,76013.0,76032.0,76044.0,76063.0,76075.0,76082.0,76294.0,76355.0,0.09796474223317526,-0.1316015595643397,0.05466327522575948,-0.2843794641959149,0.024485494455884795
96,96,76725.27743919256,4561.466303620051,11.756824203912396,76819.86556933763,-4154.4110057735215,6.882944710879616,76850.19017774398,47462.18557435406,7.839475871390212,76874.15067819973,-1611.061531806346,1.4929419934058268,77117.14573595648,10066.787617901196,33.566362959582136,0.982854185957868,100.0,75.0,64.0,278.0,342.0,25.0,797.0,797.0,25.0,12.0,13.0,0.48,279.32649791701044,5576.986722769294,18.0,10.0,8.0,0.5555555555555556,570.6032382495026,705.9176405263447,20.0,10.0,10.0,0.5,2557.8965868494265,45971.35891430863,4.0,1.0,3.0,0.25,1017.3456919139238,13418.927041858124,79.0,39.0,40.0,0.4936708860759494,248.7212386345176,9864.552108322228,,,,,76713.0,76738.0,76813.0,76828.0,76840.0,76860.0,76873.0,76877.0,77081.0,77155.0,0.06123611999398802,-0.13734876916523583,0.05389335859475406,-0.6314753793253699,0.02470711095486218
97,97,77550.73409554428,3328.841474845366,9.306499896748338,77643.45203459915,-4022.384013382574,15.287792405003271,77673.03797309035,48092.468664881024,8.008023919177356,77768.69864360057,-2028.8238037145488,10.191861603456228,77941.30090394737,9403.387832903794,30.4910408884998,0.9735098020565492,94.0,74.0,146.0,195.0,341.0,20.0,825.0,822.0,20.0,10.0,10.0,0.5,238.0167718272372,4073.792551369075,17.0,8.0,9.0,0.4705882352941176,571.3116343823373,969.76319140319,20.0,10.0,10.0,0.5,2615.7370893258767,46605.86963481993,19.0,6.0,13.0,0.3157894736842105,180.17936421768653,1947.162554251374,69.0,30.0,39.0,0.4347826086956521,217.74563329918936,8917.841811078455,,,,,77541.0,77561.0,77635.0,77652.0,77663.0,77683.0,77763.0,77781.0,77915.0,77976.0,0.07150138377745781,-0.14203309094347258,0.05438974463034768,-0.08880976449891721,0.023156083442317073
98,98,78356.972626301,3575.708314328349,15.543614402270464,78450.43538444741,-4376.2228861659,7.471033614573466,78482.41699110322,46800.41220488808,8.008192656727278,78575.27398270041,-921.327777198664,5.634731288402749,78749.95881659626,10309.14902365534,33.4119001509307,0.9791039337131568,96.0,66.0,134.0,210.0,344.0,30.0,804.0,809.0,30.0,10.0,20.0,0.3333333333333333,209.05562941747425,3541.4774108143956,15.0,7.0,8.0,0.4666666666666667,471.076296188804,1754.9051366129218,20.0,10.0,10.0,0.5,2506.8925639792137,45586.53453097982,8.0,6.0,2.0,0.75,185.58501388589104,776.4822077708878,84.0,42.0,42.0,0.5,250.82274070749452,11557.734107606597,,,,,78347.0,78377.0,78443.0,78458.0,78472.0,78492.0,78569.0,78577.0,78713.0,78787.0,0.05846551537209004,-0.10764449353755924,0.05356560863191245,-0.20143212706575517,0.02433011106270338
99,99,79141.47744286364,4958.695276196415,15.643084950979008,79235.12330450071,-4561.887885375352,5.88476083285348,79265.47719042865,46106.55142181442,8.104427445403177,79342.86015818294,-363.63701670690034,0.5796261656496771,79534.53415569612,10264.054806526328,37.46771832206693,0.9804413245370291,101.0,69.0,116.0,229.0,345.0,32.0,785.0,784.0,37.0,15.0,22.0,0.4054054054054054,230.00726613803167,5786.221652903447,15.0,7.0,8.0,0.4666666666666667,590.4717128073163,887.4265527415062,20.0,10.0,10.0,0.5,2419.754277851751,45186.34484117807,2.0,1.0,1.0,0.5,212.05671305263695,130.82530436789023,85.0,47.0,38.0,0.5529411764705883,225.52891112532228,10802.176022640537,,,,,79127.0,79159.0,79228.0,79243.0,79255.0,79275.0,79342.0,79344.0,79502.0,79573.0,0.046384634127882844,-0.1294358229846616,0.052481788449415256,-0.5831549135811975,0.02197269162884061
100,100,79887.82194810128,4166.160375317035,15.16817050758614,79983.54968047762,-4374.0578993719055,6.18745998503922,80010.91592750936,46170.2665773582,8.073215899224385,80080.12330450071,-1989.45522164293,6.609815044091838,80278.53415569612,10248.86481951416,33.79364786503301,0.977725970874669,102.0,73.0,111.0,229.0,340.0,29.0,745.0,745.0,31.0,14.0,17.0,0.4516129032258064,275.6031573080774,4730.7888168429745,12.0,7.0,5.0,0.5833333333333334,835.2613353816843,4429.921839323961,20.0,10.0,10.0,0.5,2449.9479206995456,45267.06957692977,21.0,10.0,11.0,0.4761904761904761,270.0585883851912,2466.042260179644,70.0,32.0,38.0,0.4571428571428571,230.93976360525463,10862.329015832029,,,,,79875.0,79904.0,79977.0,79989.0,80001.0,80021.0,80073.0,80088.0,80248.0,80317.0,0.06615279597514406,-0.19095799703557284,0.05306332629885648,-0.13574499463334072,0.022533204181358513
101,101,80597.54796540085,2645.34670893716,15.09774495857166,80686.49028634197,-3433.447694105136,28.027619409504627,80722.70128110585,48012.78752828167,8.041331277645108,80797.62381073322,-1812.0713184075605,17.016843949780466,80987.38347749642,9637.917883985954,29.700521046513227,0.974011851485268,86.0,59.0,132.0,216.0,348.0,27.0,711.0,711.0,29.0,10.0,19.0,0.3448275862068966,262.3196900341138,4122.076067027356,42.0,29.0,13.0,0.6904761904761905,269.1870256687308,2940.1454624140356,20.0,10.0,10.0,0.5,2514.2883267068614,44435.009930320586,27.0,18.0,9.0,0.6666666666666666,209.03273931969764,1501.9752815650745,71.0,34.0,37.0,0.4788732394366197,212.21340137137256,8841.385916659725,,,,,80589.0,80616.0,80675.0,80699.0,80713.0,80733.0,80781.0,80807.0,80957.0,81023.0,0.09916268788052658,-0.07840137659032821,0.052367055864561786,-0.1153556911343835,0.0220185940496525
102,102,,,,,,,,,,,,,,,,,,,,,,,,,,,,,,,,,,,,,,,,,,,,,,,,,,,,,,,,,,,,81025.0,81307.0,81385.0,81395.0,81414.0,81445.0,81532.0,81646.0,81696.0,,,,,
103,103,82024.54796540085,1682.7892349951694,15.28779240518434,82117.17805189872,-4447.308595938947,22.93168860777651,82152.72723811421,47835.2661978116,8.086586004424868,82249.45203459915,-2102.986922682828,15.28779240518434,82415.08957802938,9216.755395386705,27.212180981831388,0.9643618842229716,72.0,59.0,176.0,183.0,359.0,13.0,1427.0,1431.0,38.0,11.0,27.0,0.2894736842105263,158.37285835046615,2209.9329648581215,63.0,49.0,14.0,0.7777777777777778,211.06126413182332,2260.1215421892557,20.0,10.0,10.0,0.5,2529.040133174858,44931.94469083965,19.0,4.0,15.0,0.2105263157894736,191.3707362309638,2107.4626463556156,68.0,35.0,33.0,0.5147058823529411,215.5034211320998,9840.48529257501,,,,,82015.0,82028.0,82087.0,82130.0,82143.0,82163.0,82246.0,82263.0,82381.0,82446.0,0.09411330608548893,-0.047458200747425884,0.05286978278152779,-0.09099948942470255,0.023381701248138417
104,104,82883.38708390637,1911.5811237473324,14.480610514904797,82986.30135639943,-5260.706808583456,10.191861603456228,83012.98775303536,45448.43234724912,7.838138135699106,83089.45203459934,-2371.609770992774,15.28779240518434,83282.1042067921,9203.076537143268,26.188207902185894,0.9629718062346148,95.0,75.0,135.0,211.0,346.0,20.0,860.0,860.0,20.0,9.0,11.0,0.45,226.42958426833013,3131.350065385213,46.0,40.0,6.0,0.8695652173913043,760.399903580707,3045.592903778238,20.0,10.0,10.0,0.5,2522.9876137440074,43972.06773020591,19.0,4.0,15.0,0.2105263157894736,207.06261042784388,1708.8414170687574,70.0,36.0,34.0,0.5142857142857142,184.46000840007304,9110.393768647877,,,,,82874.0,82894.0,82969.0,82992.0,83003.0,83023.0,83086.0,83104.0,83252.0,83315.0,0.11845146483998184,-0.14454329641409136,0.05551319338073313,-0.08730888738966777,0.020043298309603254
105,105,83715.60271279886,3364.5483772407533,11.748572780096318,83804.027373699,-4059.866116774729,17.83575780596302,83836.83387187455,45157.852684958845,8.126663484518469,83898.69864360057,-1694.2778203843675,10.191861603456228,84104.61454821688,8945.706725806593,28.935976662239337,0.9702920961510608,96.0,69.0,116.0,226.0,342.0,27.0,837.0,825.0,27.0,16.0,11.0,0.5925925925925926,216.58159513718553,2869.089370997809,18.0,8.0,10.0,0.4444444444444444,416.5145177012891,2890.191942746842,20.0,10.0,10.0,0.5,2368.305651098756,42622.99505218436,20.0,7.0,13.0,0.35,198.05845524344443,2928.978922022826,76.0,39.0,37.0,0.5131578947368421,190.2926019638048,8551.565437800817,,,,,83700.0,83727.0,83796.0,83814.0,83827.0,83847.0,83893.0,83912.0,84068.0,84138.0,0.06437166919704179,-0.10259316581409336,0.05244504577356907,-0.11689845246189463,0.0212719472923082
106,106,84534.56493345131,3791.1282451812713,12.675143177577375,84635.11547626487,-4725.39983700078,5.624708602137115,84663.9540998071,47301.29986906881,7.783695031500565,84743.52246077893,-2308.4253874132696,6.8379916067733655,84929.72724495287,9544.984741453742,34.15733438193465,0.9757211498144428,103.0,85.0,119.0,223.0,342.0,18.0,816.0,826.0,18.0,9.0,9.0,0.5,354.9975240377767,4400.645439953871,13.0,6.0,7.0,0.4615384615384615,713.6152657310689,1652.619201914671,20.0,10.0,10.0,0.5,2529.949172176744,44636.8713696911,14.0,10.0,4.0,0.7142857142857143,225.1459534572546,2695.7456224115645,84.0,42.0,42.0,0.5,186.36173864833592,10127.79010871986,,,,,84526.0,84544.0,84629.0,84642.0,84654.0,84674.0,84734.0,84748.0,84889.0,84971.0,0.0936390174848339,-0.1510169065786403,0.05348582764489997,-0.09753226363081384,0.0195245716673563
107,107,85398.09388443767,3952.299216587296,10.707679572857874,85448.54796540085,-3000.616569167498,15.28779240518434,85524.91741236484,47192.06599063667,7.477386257069379,85547.42621702427,-1843.2578723504917,1.6639382712948834,85794.90022694964,9913.24605318704,30.63604034657346,0.9749759016031556,49.0,35.0,110.0,285.0,395.0,14.0,863.0,860.0,14.0,7.0,7.0,0.5,258.00152709371145,4543.24485107741,64.0,9.0,55.0,0.140625,191.8497909425214,4267.337487264355,19.0,10.0,9.0,0.5263157894736842,2547.88147901407,44503.07396874741,5.0,1.0,4.0,0.2,1249.3962612951484,16985.575108674162,86.0,43.0,43.0,0.5,147.81880304948388,10059.02602228754,,,,,85391.0,85405.0,85440.0,85504.0,85515.0,85534.0,85546.0,85550.0,85761.0,85835.0,0.06527884478252859,-0.06393678982974786,0.053989615108598815,-0.6778195715512877,0.01491124120761243
108,108,86240.32913282313,3777.2379137051066,12.696443528850374,86331.87669549929,-5781.380205063265,12.739827004320285,86359.61281171821,46453.694846166574,8.0823350110032,86382.72601729959,-2611.0789545676066,7.64389620259217,86625.53032342381,9605.990081648872,29.498913362333308,0.965025668161566,83.0,51.0,77.0,274.0,351.0,32.0,843.0,837.0,32.0,13.0,19.0,0.40625,184.80852305912532,4130.34478187615,31.0,24.0,7.0,0.7741935483870968,783.2974955853098,3014.467390252611,19.0,10.0,9.0,0.5263157894736842,2529.9840735909984,44072.91070774723,7.0,3.0,4.0,0.4285714285714285,1162.5533226209386,16810.328399468897,73.0,36.0,37.0,0.4931506849315068,259.8118578361344,9928.769877088842,,,,,86227.0,86259.0,86310.0,86339.0,86350.0,86369.0,86380.0,86387.0,86592.0,86661.0,0.04892689507022499,-0.1354862451183036,0.0544624939301201,-0.44523867062206735,0.027046858848259147
109,109,87019.90406919828,5113.3668507391185,13.943185303706866,87103.027373699,-4135.809678758914,17.835757806046693,87134.20769337646,46529.17858369486,8.375345374894952,87159.13334302708,-2454.7442256869854,2.850671843927467,87401.60642170493,9907.057188424937,31.400358547375323,0.98067549293905,84.0,46.0,80.0,275.0,355.0,38.0,784.0,774.0,40.0,22.0,18.0,0.55,229.30529556998397,4049.68180523815,57.0,46.0,11.0,0.8070175438596491,432.13753299037006,234.0678206479461,20.0,10.0,10.0,0.5,2409.9483839737823,45852.991856445704,6.0,2.0,4.0,0.3333333333333333,851.6320933123044,12752.64208744455,74.0,36.0,38.0,0.4864864864864865,180.3805913678644,9953.223805431691,,,,,86999.0,87037.0,87083.0,87113.0,87124.0,87144.0,87157.0,87163.0,87367.0,87438.0,0.04484428797375231,-0.10448680344499005,0.05179434620017763,-0.3469331282667409,0.01820728274170203
110,110,87805.75339099858,4605.378467429165,15.84926509027013,87881.75339099897,-3335.8792714756632,25.479654008435663,87919.47581686877,48644.78911926103,8.23731373517903,87980.27398270041,-685.7130554311696,7.643896202592162,88186.90728114273,10259.096719064552,32.66851988970877,0.9816883589952144,94.0,56.0,107.0,241.0,348.0,38.0,785.0,784.0,38.0,24.0,14.0,0.631578947368421,292.77124762731154,3370.804796617795,25.0,10.0,15.0,0.4,269.8119637957496,3848.859814933241,20.0,9.0,11.0,0.45,2574.6447031555435,47461.12851833232,9.0,4.0,5.0,0.4444444444444444,112.86164676307862,791.0739149831502,76.0,39.0,37.0,0.5131578947368421,235.26010025986253,11624.051453828648,,,,,87782.0,87820.0,87876.0,87896.0,87910.0,87930.0,87976.0,87983.0,88157.0,88224.0,0.06357159345271869,-0.08088181311081899,0.052927451218739194,-0.16459019683111087,0.022931853232524557
111,111,88608.60271279886,3245.580143599599,10.858466148461453,88694.30135639943,-4711.227532662157,10.191861603456228,88721.53136051186,46765.848808791096,7.919995433406525,88781.69864360055,-1316.97483243537,10.191861603456216,88992.65746019685,10105.55689269041,26.208192720318777,0.9661034688809628,58.0,42.0,122.0,240.0,362.0,16.0,802.0,802.0,19.0,7.0,12.0,0.3684210526315789,275.22467925013547,2082.705659742436,39.0,32.0,7.0,0.8205128205128205,689.1261599027646,4032.3603053395104,19.0,10.0,9.0,0.5263157894736842,2550.0089668769174,44315.845318300984,9.0,7.0,2.0,0.7777777777777778,270.5457643794418,1656.3314932622866,63.0,32.0,31.0,0.5079365079365079,170.89696546065244,10721.238188390524,,,,,88604.0,88620.0,88662.0,88700.0,88712.0,88731.0,88776.0,88784.0,88962.0,89024.0,0.0847998407289028,-0.14627316450440306,0.05452716099098289,-0.20542971491652914,0.016911187307674876
112,112,89432.56551302459,4109.993722375688,18.2651819716626,89526.027373699,-3311.2805856697037,17.8357578060484,89558.78861488335,48345.07115131288,7.94450477304349,89641.13628118826,-1369.6229094481766,2.358021884641478,89828.38347749642,10280.104148381342,33.031348313381905,0.9742722190189698,104.0,66.0,123.0,219.0,342.0,38.0,819.0,838.0,40.0,16.0,24.0,0.4,235.93209453174873,4888.975286188343,16.0,5.0,11.0,0.3125,388.8003769716414,2323.571535234243,20.0,10.0,10.0,0.5,2559.5229200765752,45735.329109918224,8.0,4.0,4.0,0.5,244.52255091320413,1557.8086922553148,76.0,37.0,39.0,0.4868421052631579,169.51152557978506,10842.754780790012,,,,,89418.0,89456.0,89522.0,89537.0,89549.0,89569.0,89637.0,89645.0,89794.0,89864.0,0.0574044902422317,-0.1174169228226266,0.052942789391407646,-0.17853275469210914,0.016489280957963405
113,113,90245.63391088007,5401.575969653245,5.095930801728113,90344.30135639945,-3981.65811660421,10.191861603456228,90371.91367070204,46269.67019147828,7.81595492594607,90437.12330450072,-1534.12526165311,12.739827004320285,90639.95881659626,9706.673324141726,32.10808463558924,0.9659066173490798,104.0,94.0,107.0,228.0,335.0,10.0,815.0,813.0,10.0,8.0,2.0,0.8,561.5667067168309,8816.930704286291,24.0,18.0,6.0,0.75,751.5289962441628,3671.51074051119,20.0,10.0,10.0,0.5,2558.0226632138647,45155.61638771141,20.0,7.0,13.0,0.35,166.2990950233903,2271.0597739276436,67.0,28.0,39.0,0.417910447761194,132.17744493338165,10380.500703522755,,,,,90238.0,90248.0,90342.0,90350.0,90362.0,90382.0,90430.0,90449.0,90613.0,90677.0,0.10396349322341954,-0.18874774634973193,0.05528508529730105,-0.10839994567600904,0.013617172487369036
114,114,91059.67126990156,5211.721150886523,15.419226742462508,91156.87669549928,-3629.5363623239264,6.674438953911926,91186.0692704402,47627.79481898444,7.696534306594689,91209.15067819972,-2561.6249566544343,2.178394669432542,91451.45204310057,10538.049867827933,32.19314607616489,0.9758467901773258,100.0,58.0,68.0,276.0,344.0,42.0,809.0,814.0,43.0,17.0,26.0,0.3953488372093023,246.539975518178,5462.904076563727,21.0,14.0,7.0,0.6666666666666666,635.6001713271627,3563.2882056980507,20.0,10.0,10.0,0.5,2573.235534730206,45014.29437704965,6.0,3.0,3.0,0.5,1215.4092661970162,16238.17649213804,79.0,40.0,39.0,0.5063291139240507,261.96670938450796,9661.753436509996,,,,,91044.0,91086.0,91144.0,91164.0,91176.0,91196.0,91206.0,91212.0,91414.0,91488.0,0.047304905304889754,-0.17511883278673077,0.05402802175725579,-0.47446807661664114,0.02485912599296739
115,115,91917.972626301,4320.172479573527,17.040969047399983,92015.87669549928,-5295.534765337909,5.661917906291121,92044.89674116737,48300.392763721546,7.896061206920866,92109.63705735946,-1238.466473846597,5.628098331047928,92312.21169943654,10326.99192349031,31.48901595469911,0.98068534669089,101.0,66.0,104.0,237.0,341.0,35.0,860.0,861.0,37.0,11.0,26.0,0.2972972972972973,270.6579391105546,5365.447283060955,14.0,7.0,7.0,0.5,733.0992189790594,1815.5743296516075,20.0,10.0,10.0,0.5,2548.6040444005953,45734.318499756686,11.0,8.0,3.0,0.7272727272727273,134.02429176577175,1309.8015856799498,80.0,41.0,39.0,0.5125,187.04645098140907,10746.333177373082,,,,,91908.0,91943.0,92009.0,92023.0,92035.0,92055.0,92102.0,92113.0,92283.0,92350.0,0.06264979937497149,-0.13843724032888682,0.05276570020595885,-0.10821794097461593,0.018112384745449787
116,116,92813.24660900142,3805.672388557277,15.842508820516288,92899.60271279886,-3365.8200299120117,20.383723206773197,92934.49048813226,48007.75724421162,8.121047713549874,92989.7260172996,-820.0084832879696,7.556919888965171,93209.2327992967,10496.447226452772,32.04218632208803,0.97539858176963,95.0,59.0,103.0,245.0,348.0,36.0,894.0,890.0,37.0,14.0,23.0,0.3783783783783784,199.91324142440703,4808.008291906099,45.0,33.0,12.0,0.7333333333333333,330.81020725773936,1642.1431849484784,19.0,9.0,10.0,0.4736842105263157,2580.3734854588956,46472.21707187149,14.0,7.0,7.0,0.5,195.3188553068516,330.5763024016445,82.0,45.0,37.0,0.5487804878048781,185.60213133864937,10459.027691024065,,,,,92799.0,92835.0,92894.0,92911.0,92925.0,92944.0,92988.0,92997.0,93165.0,93242.0,0.052530333936651276,-0.09828517398964653,0.053749094595957524,-0.2381912617826659,0.01768237645885567
117,117,93672.12330450072,3202.843668994933,12.739827004320285,93772.30135639945,-4359.762225533535,6.391677002932698,93801.08724885243,47688.153062056306,7.530337417548432,93878.87669549928,-1781.9358738925682,12.739827004320285,94069.99399075576,9963.16671493251,28.4083798304012,0.974711341555793,96.0,64.0,125.0,218.0,343.0,32.0,861.0,864.0,35.0,8.0,27.0,0.2285714285714285,215.00271017010817,3216.4228900176886,19.0,12.0,7.0,0.631578947368421,634.6930949915173,2214.656468412345,19.0,9.0,10.0,0.4736842105263157,2637.9571534212223,45568.298290281135,32.0,24.0,8.0,0.75,185.36581542342452,1729.7094525458867,67.0,32.0,35.0,0.4776119402985074,262.1786115868447,10464.410514707124,,,,,93665.0,93697.0,93761.0,93778.0,93792.0,93811.0,93856.0,93886.0,94039.0,94104.0,0.06712869324576713,-0.14557975003185994,0.05531682365614925,-0.10402496416355335,0.02631478716439612
118,118,94499.54796540084,2559.598398453034,13.170841656938412,94596.87669549928,-4733.253939882861,12.739827003876645,94625.22353047554,45577.00253752484,7.8567927630176815,94703.75339099858,-2248.0171232462567,25.47965400864057,94892.01665506836,9126.973378111885,30.910481248402743,0.9636870876926688,95.0,81.0,137.0,206.0,343.0,14.0,827.0,824.0,28.0,10.0,18.0,0.3571428571428571,287.9122573794131,3948.822790472612,18.0,11.0,7.0,0.6111111111111112,760.6286237024765,1808.06824292826,19.0,9.0,10.0,0.4736842105263157,2523.233432872777,44325.792705045176,32.0,6.0,26.0,0.1875,241.9799283762075,2494.332337588929,76.0,38.0,38.0,0.5,267.3302387493328,9063.554621292822,,,,,94491.0,94505.0,94586.0,94604.0,94616.0,94635.0,94698.0,94723.0,94855.0,94929.0,0.11248337143569909,-0.1606988835509849,0.05536198723896613,-0.10764149697702284,0.02929013021890023
119,119,95291.39728720114,4057.660106762207,13.725254014219164,95384.027373699,-5177.226586065548,9.854416467461808,95415.85508014869,47599.39341996131,7.665790810988821,95477.2739827004,-1413.8365061075972,7.64389620259217,95682.97739159394,9692.530118492272,32.17005504204351,0.9737077237935612,93.0,62.0,107.0,242.0,349.0,31.0,791.0,791.0,33.0,12.0,21.0,0.3636363636363636,208.4991960787847,4793.147773623374,23.0,13.0,10.0,0.5652173913043478,490.0676818395428,2100.7142189202523,19.0,10.0,9.0,0.5263157894736842,2598.858914302665,45445.85695026476,7.0,4.0,3.0,0.5714285714285714,301.1837091688388,2074.4125268937655,73.0,33.0,40.0,0.4520547945205479,138.63058973524798,10122.884990072158,,,,,95280.0,95311.0,95373.0,95394.0,95406.0,95425.0,95473.0,95480.0,95651.0,95722.0,0.05138409590574499,-0.0946583414290877,0.05459857211568596,-0.2130258398816007,0.014302827852013191
120,120,96104.09593080172,5491.538501266799,16.142898367317233,96188.75339099858,-2929.251288278218,25.47965400864057,96225.61434501065,47850.477272675445,8.094042267973538,96304.9531025147,-1335.1229241709198,2.0310550571118644,96494.89277436509,10776.46345340634,31.030931634129526,0.9771925658746244,95.0,58.0,126.0,223.0,349.0,37.0,811.0,810.0,39.0,18.0,21.0,0.4615384615384615,217.95197057943872,5740.979327217135,58.0,43.0,15.0,0.7413793103448276,225.99538646202885,2183.691714929977,19.0,10.0,9.0,0.5263157894736842,2517.9458490597685,45029.6175357576,6.0,3.0,3.0,0.5,240.99026930069977,1692.4967706717905,74.0,37.0,37.0,0.5,189.75405012105173,11827.260246561003,,,,,96087.0,96124.0,96182.0,96203.0,96216.0,96235.0,96302.0,96308.0,96459.0,96531.0,0.03968869025122215,-0.07715124590586643,0.05262112297671098,-0.18050043553131942,0.017608193164806052
121,121,96915.82194810128,4098.229472938635,15.750836658144465,97004.60271279952,-3800.3978507146585,20.383723206470805,97040.35120594564,46184.21829544307,7.932416665173546,97122.13817617286,-2076.349100561756,15.28779240518434,97309.65746019685,9959.202166112049,30.403117096492668,0.9689717689085536,97.0,59.0,138.0,203.0,341.0,38.0,813.0,814.0,42.0,16.0,26.0,0.3809523809523809,212.7382870134588,4279.5897728787695,20.0,6.0,14.0,0.3,378.6849073880885,3655.062466764493,19.0,9.0,10.0,0.4736842105263157,2494.8187084962,44120.73958986816,23.0,7.0,16.0,0.3043478260869565,196.92365145672088,2571.597818231652,68.0,36.0,32.0,0.5294117647058824,212.9508389017693,10883.22902328899,,,,,96903.0,96941.0,97000.0,97018.0,97031.0,97050.0,97115.0,97138.0,97275.0,97341.0,0.05190980359157752,-0.099643490566883,0.05401885753563486,-0.09484130168835443,0.02138231912053882
122,122,97726.39728720114,4773.682363903584,18.986745498218028,97812.17805189872,-2843.0598586082083,22.93168860777651,97849.81755436344,47321.78976792933,8.117351405940504,97934.69864360055,-1470.8012372171495,4.435858699290288,98123.93144289729,10150.553804986115,30.73009000635695,0.9743150096237024,92.0,49.0,131.0,213.0,344.0,43.0,811.0,810.0,45.0,12.0,33.0,0.2666666666666666,265.351852985853,6019.01404007251,25.0,8.0,17.0,0.32,238.62280194137557,2608.085453330563,20.0,10.0,10.0,0.5,2489.395623546607,45178.273181583434,9.0,6.0,3.0,0.6666666666666666,174.72768515732042,1361.2115249995463,65.0,36.0,29.0,0.5538461538461539,199.83523293053864,11435.34223345278,,,,,97715.0,97758.0,97807.0,97828.0,97840.0,97860.0,97929.0,97938.0,98091.0,98151.0,0.05558640746446037,-0.08393168410396783,0.0526056946652873,-0.11879761910447971,0.019687126118416942
123,123,98511.67126990156,5897.482823439992,15.351703073146522,98600.45203459916,-3813.5687292349007,7.289894514891824,98635.73652412908,45721.83124051088,7.849063765835303,98719.95149433972,-1766.606475376986,10.191861603456228,98901.7328435824,9275.563096971384,35.304641998725494,0.9772619980248266,96.0,58.0,133.0,216.0,349.0,38.0,784.0,786.0,41.0,18.0,23.0,0.4390243902439024,268.00682451491383,5908.078202667773,17.0,8.0,9.0,0.4705882352941176,327.09997316058053,1985.2333526289856,19.0,10.0,9.0,0.5263157894736842,2387.4150135888717,43711.90893363858,14.0,8.0,6.0,0.5714285714285714,201.14690500051483,1774.1232159448275,93.0,49.0,44.0,0.5268817204301075,195.24813591479895,9412.44531277666,,,,,98496.0,98534.0,98592.0,98609.0,98626.0,98645.0,98713.0,98725.0,98861.0,98941.0,0.04544427386031553,-0.08577267026893341,0.05221608471958035,-0.11386061797242704,0.021049734002515762
124,124,99325.50733908624,5324.542585472549,18.37845434354008,99412.02737369903,-2900.600350426859,17.835757805073293,99447.174142547,47348.95566748736,7.9370886310973185,99513.54796540084,-1351.900911904849,15.28779240518434,99720.65746019685,9951.185296245934,31.032806556283557,0.9778173847945608,100.0,57.0,109.0,235.0,344.0,43.0,814.0,811.0,45.0,19.0,26.0,0.4222222222222222,239.94639540827703,5985.537449653987,16.0,4.0,12.0,0.25,314.9397514598379,2450.3843738584897,20.0,10.0,10.0,0.5,2564.6924567770143,45016.87496821493,18.0,10.0,8.0,0.5555555555555556,225.87030683897575,1756.2189308771488,76.0,38.0,38.0,0.5,188.95104068114415,9140.623781630133,,,,,99308.0,99351.0,99408.0,99424.0,99437.0,99457.0,99504.0,99517.0,99684.0,99752.0,0.045064226937154256,-0.10857743687905527,0.05416576607914684,-0.1670760814272409,0.018987792414279087
125,125,100150.027373699,4686.597052709292,13.619185076083614,100234.30337669756,-6696.287476576429,5.701410272490238,100264.46974046314,46414.60935187004,7.7740796692256575,100338.15371506623,-2530.030488582947,7.43964181404634,100534.7645524125,10279.618406711434,30.43809024812517,0.9742395746467348,96.0,66.0,122.0,222.0,344.0,30.0,832.0,820.0,49.0,36.0,13.0,0.7346938775510204,219.98495380437168,3440.4102102670254,15.0,8.0,7.0,0.5333333333333333,689.8281205888313,2647.055411366832,20.0,10.0,10.0,0.5,2513.4180117579467,44890.659836176215,23.0,12.0,11.0,0.5217391304347826,244.48410066364735,2669.728440885225,67.0,32.0,35.0,0.4776119402985074,204.4140314257566,11011.039624574858,,,,,100130.0,100160.0,100226.0,100241.0,100254.0,100274.0,100327.0,100348.0,100503.0,100570.0,0.04693916531125708,-0.10301650324927741,0.054151441687329015,-0.09663286737725492,0.01988537155156433
126,126,101713.75339099858,4492.097510142962,13.795433251833185,101797.30135639945,-4739.3889112958095,10.191861603456228,101824.4366385583,46251.587801568225,8.023384725015944,101901.43956208495,-2149.5331746943707,10.191861603456228,102092.95326345033,9969.82735279328,30.59598856836775,0.9699301561535536,88.0,43.0,141.0,220.0,361.0,45.0,1565.0,1558.0,45.0,31.0,14.0,0.6888888888888889,180.98452001433873,3549.0657592276957,36.0,30.0,6.0,0.8333333333333334,718.2531856232122,4751.66102842906,19.0,9.0,10.0,0.4736842105263157,2540.331907923925,46471.52325564007,15.0,4.0,11.0,0.2666666666666666,224.79887541024607,2136.9470038170616,71.0,31.0,40.0,0.4366197183098591,301.4719392521159,10030.765486041792,,,,,101683.0,101728.0,101771.0,101803.0,101815.0,101834.0,101897.0,101912.0,102064.0,102132.0,0.04028953503473233,-0.1515497459833556,0.05492420971194834,-0.10458032379156412,0.030238431277112485
127,127,102508.68096862148,4836.1462092104775,17.362346297441096,102594.60271279886,-3417.5983008831377,20.383723206766316,102630.28064999588,49233.65867571813,7.899369882229785,102695.36969176364,-1531.8872077506146,7.03731120932297,102898.72426239352,10659.563575310052,32.59967045068635,0.983988682114536,96.0,59.0,113.0,233.0,346.0,37.0,789.0,805.0,44.0,21.0,23.0,0.4772727272727273,204.93415154644669,5005.586541378291,24.0,12.0,12.0,0.5,329.23591064075026,3178.664198328848,19.0,9.0,10.0,0.4736842105263157,2694.935050172361,47279.22708038987,16.0,8.0,8.0,0.5,182.5143937310669,2310.865531114958,77.0,38.0,39.0,0.4935064935064935,213.48638516144143,11860.515796762942,,,,,102494.0,102531.0,102590.0,102607.0,102621.0,102640.0,102687.0,102703.0,102866.0,102936.0,0.042375507828143824,-0.09633546182290434,0.054737655552328346,-0.11914349359902712,0.02002768534125768
128,128,103343.32873009844,4918.84428042175,13.771162547773898,103423.027373699,-3594.9718604753434,17.83575780604575,103458.26837214528,47261.49055714674,7.840861594700037,103528.39728720114,-2186.937463606921,20.383723206912453,103728.24664403136,9400.996120389076,28.88315036190202,0.9752366611227712,96.0,60.0,141.0,206.0,347.0,36.0,841.0,827.0,39.0,22.0,17.0,0.5641025641025641,239.99153218566553,3761.330717662384,21.0,8.0,13.0,0.3809523809523809,315.2554378391708,3121.999804846014,19.0,9.0,10.0,0.4736842105263157,2574.26913623838,44305.91226248752,55.0,12.0,43.0,0.2181818181818181,175.3633466262261,2937.223303057492,70.0,32.0,38.0,0.4571428571428571,203.82342779094176,9034.933031041312,,,,,103323.0,103359.0,103419.0,103436.0,103449.0,103468.0,103517.0,103560.0,103696.0,103766.0,0.04879022764369525,-0.0876934368541862,0.05446864044894383,-0.08018672209172316,0.021681045836077443
129,129,104131.13739803144,4713.953311843119,13.453895597876905,104222.30135639945,-5128.869057814129,10.191861603456228,104250.6682871607,45700.74636252452,7.940677090299722,104313.12330450072,-2367.8731746813114,12.739827004320285,104521.02247704496,9040.707604738587,29.228015687505547,0.9716134506379394,93.0,59.0,105.0,243.0,348.0,34.0,789.0,794.0,34.0,13.0,21.0,0.3823529411764705,192.80044885232869,5077.353419684697,18.0,11.0,7.0,0.6111111111111112,699.1482149442515,1170.1205130322332,19.0,10.0,9.0,0.5263157894736842,2433.3739260740094,44104.09838969561,52.0,29.0,23.0,0.5576923076923077,199.44075639454675,2450.8922075325404,68.0,28.0,40.0,0.4117647058823529,162.88331372443884,9308.465773731894,,,,,104118.0,104152.0,104211.0,104228.0,104241.0,104260.0,104301.0,104316.0,104494.0,104559.0,0.04089994874746547,-0.1363162535567288,0.05324582462551251,-0.0842278034681436,0.018016655426292667
130,130,104884.82194810128,4851.066803192673,14.811159280432136,104978.87669549928,-4438.4963586674085,12.73982700407078,105007.43432398843,46565.233103992985,8.05219362791036,105030.61563427576,-2309.05496696862,2.2185433024336447,105272.80905774533,10208.723510593229,34.8127613295043,0.9792938551006596,93.0,57.0,69.0,279.0,348.0,36.0,744.0,757.0,38.0,14.0,24.0,0.3684210526315789,194.82776438213705,5853.086327829204,24.0,17.0,7.0,0.7083333333333334,653.3346257119505,2391.53313320748,19.0,9.0,10.0,0.4736842105263157,2556.083505206739,45912.273177134106,5.0,2.0,3.0,0.4,1110.8042828881566,15648.87314323906,85.0,43.0,42.0,0.5058823529411764,165.20777090236308,11308.342356765508,,,,,104872.0,104908.0,104965.0,104986.0,104998.0,105017.0,105029.0,105034.0,105231.0,105313.0,0.04016183909360172,-0.14719728775627616,0.054892531075669715,-0.4810644609064659,0.016182999836456817
131,131,105667.82194810128,3994.5685419871447,16.008212304918835,105752.60271279886,-4132.850534659097,20.383723206912453,105790.80283425716,46734.29143078417,7.916491711648606,105876.2739827004,-2350.7883857808292,7.64389620259217,106058.7460453778,10006.008654039955,28.632937014719353,0.9759058274732032,93.0,56.0,136.0,206.0,342.0,37.0,783.0,784.0,52.0,26.0,26.0,0.5,255.41274487848537,3325.0539599018102,22.0,6.0,16.0,0.2727272727272727,303.82091349842125,5293.235436416831,20.0,10.0,10.0,0.5,2504.5978637053627,43263.76250704909,13.0,4.0,9.0,0.3076923076923077,234.44313455596068,3622.913390098358,62.0,31.0,31.0,0.5,241.38660118795045,11415.352734110951,,,,,105655.0,105692.0,105748.0,105769.0,105781.0,105801.0,105872.0,105884.0,106028.0,106090.0,0.0639400080869378,-0.07351364656198056,0.05359229351780796,-0.09972957837210383,0.024124164742800807
132,132,106444.35606428517,5446.759002350341,19.83526650955405,106531.60271279886,-2179.5530346123455,20.38372320688121,106566.70429154827,47797.08967848711,8.095469397825225,106632.15067819972,-962.7392805168828,2.734097945042872,106834.65746019685,10576.324031678438,35.58048118919278,0.9767038020914032,101.0,55.0,108.0,231.0,339.0,46.0,775.0,774.0,47.0,18.0,29.0,0.3829787234042553,173.36505494832016,5944.204743973972,38.0,25.0,13.0,0.6578947368421053,271.660085545432,1135.4968276504833,19.0,10.0,9.0,0.5263157894736842,2515.712392428236,45771.13470001583,8.0,5.0,3.0,0.625,189.97235689010975,1136.5846778754294,73.0,41.0,32.0,0.5616438356164384,171.4357602702569,11432.087577845456,,,,,106426.0,106472.0,106527.0,106543.0,106557.0,106576.0,106627.0,106635.0,106794.0,106866.0,0.031829029864091855,-0.12464027313460137,0.052633170959790206,-0.19732482171924673,0.01620938993139476
133,133,107225.54796540084,3702.546272403397,15.2877924051737,107321.87669549928,-4195.1691107076485,12.73982700431372,107350.38289269584,45262.19341088996,8.163982080621572,107373.95095571972,-2863.9563677708193,3.2084341206936404,107617.1504925192,9686.177103822349,31.743025435810377,0.9747127901848204,66.0,32.0,95.0,275.0,370.0,34.0,784.0,785.0,38.0,10.0,28.0,0.2631578947368421,234.13539583455244,3585.1799197116397,46.0,39.0,7.0,0.8478260869565217,624.3371584328484,3635.841232292777,19.0,9.0,10.0,0.4736842105263157,2443.1579277869755,45133.27055776435,8.0,3.0,5.0,0.375,1109.9948526439628,15074.577709145597,70.0,34.0,36.0,0.4857142857142857,198.4731078922531,10358.7178813782,,,,,107217.0,107251.0,107283.0,107329.0,107341.0,107360.0,107372.0,107378.0,107583.0,107653.0,0.06323631863284465,-0.1488228822145227,0.053977895096863744,-0.3875739397202951,0.02049034472164791
134,134,108742.75339099858,4281.266619548491,21.24343150401199,108821.17805189872,-2719.6570659541912,22.93168860777651,108856.02512368426,48695.125665586915,8.15953341532376,108917.42466090011,-846.4850584467848,0.9751698487092522,109121.19663770616,10445.123439761324,36.43436978624527,0.9777199917243318,99.0,59.0,103.0,239.0,342.0,40.0,1524.0,1505.0,41.0,26.0,15.0,0.6341463414634146,236.55722065082816,3705.990435057855,19.0,6.0,13.0,0.3157894736842105,313.38521248245354,1409.0446696184763,20.0,10.0,10.0,0.5,2546.0277749222737,46268.044726385,3.0,1.0,2.0,0.3333333333333333,250.4457146517172,406.3986729870364,79.0,41.0,38.0,0.5189873417721519,263.65213170530984,11847.820637031877,,,,,108717.0,108757.0,108816.0,108834.0,108846.0,108866.0,108916.0,108919.0,109086.0,109158.0,0.05525402682717664,-0.11522967965540258,0.05228506426715239,-0.2958654877042484,0.025241648241481614
135,135,109518.53053174476,4112.3132566247605,16.318673929675743,109613.45203459916,-4184.013140775586,15.2877924050353,109643.770956669,47129.663222053125,7.927651971160692,109729.09593080172,-2155.1332905913764,30.57558481036868,109911.5820181968,9508.194176842604,30.681609710739743,0.9776570538200928,91.0,61.0,139.0,206.0,345.0,30.0,771.0,788.0,30.0,10.0,20.0,0.3333333333333333,213.2473850573914,4899.9779884862,23.0,14.0,9.0,0.6086956521739131,443.77904835349545,1096.628530733257,20.0,10.0,10.0,0.5,2559.061104430239,44557.767619034756,50.0,17.0,33.0,0.34,184.7723639560368,2261.5390568299267,73.0,37.0,36.0,0.5068493150684932,219.48228960496272,10378.04817416015,,,,,109509.0,109539.0,109600.0,109622.0,109634.0,109654.0,109712.0,109739.0,109876.0,109945.0,0.05185582219784911,-0.10606540501238307,0.05429831086152959,-0.08573593325419543,0.023083488359915513
136,136,110319.17805189872,4323.838892020212,17.695159885143298,110399.60271279886,-3167.345896136693,20.383723206912453,110434.03987226692,48660.24401258542,8.224149736354265,110499.41884147754,-984.880209496439,2.7203521624597298,110700.543008064,10656.883024736568,32.68225681727247,0.9789408488876792,97.0,61.0,109.0,238.0,347.0,36.0,805.0,789.0,37.0,23.0,14.0,0.6216216216216216,178.2392551108151,3376.999760003949,42.0,30.0,12.0,0.7142857142857143,306.01033876572234,1172.8289861547,20.0,10.0,10.0,0.5,2518.0393643855937,46645.81787224127,11.0,7.0,4.0,0.6363636363636364,199.0982953579922,1464.774156823626,85.0,44.0,41.0,0.5176470588235295,234.7926456436136,10296.825038683352,,,,,110296.0,110332.0,110393.0,110411.0,110424.0,110444.0,110498.0,110502.0,110666.0,110740.0,0.041222455221391695,-0.09661412071822416,0.05174736410557932,-0.20215483409884893,0.02203201865860938
137,137,111075.39728720114,4379.885356944205,20.383723206912453,111128.54796540084,-3315.514875002856,15.28779240518434,111200.84420858433,45737.57025399423,7.7382182487569855,111226.13575213555,-2718.834742971059,3.192276468408819,111469.80813839656,9323.050297890872,31.124590598221655,0.9747702177962784,56.0,19.0,109.0,275.0,384.0,37.0,749.0,767.0,38.0,11.0,27.0,0.2894736842105263,231.98632535615695,6030.513630968528,61.0,10.0,51.0,0.1639344262295081,210.0261561324792,3506.3016987446326,20.0,10.0,10.0,0.5,2455.793065900581,43717.19570728262,6.0,3.0,3.0,0.5,838.294633577951,11631.338758260625,75.0,39.0,36.0,0.52,181.338596957945,9397.86363504716,,,,,111064.0,111101.0,111120.0,111179.0,111191.0,111211.0,111223.0,111229.0,111431.0,111504.0,0.05296630081614992,-0.06334646775858555,0.05369312476073471,-0.30832864547769034,0.019450565122336488
138,138,111831.2739827004,2075.4641802280917,7.64389620259217,111930.027373699,-4917.226556414888,17.8357578060484,111966.05949908408,46460.09421543518,8.136053837487644,111990.40904690431,-3392.4807394541276,2.560533003075477,112234.1165179174,10130.663571119743,29.355718096478903,0.9762315831185308,99.0,74.0,68.0,273.0,341.0,25.0,758.0,766.0,25.0,4.0,21.0,0.16,313.65920371999465,2902.126253409193,41.0,26.0,15.0,0.6341463414634146,276.49344600758803,4464.4060266953275,20.0,10.0,10.0,0.5,2470.261521306679,45458.45091049834,6.0,2.0,4.0,0.3333333333333333,1066.6257240951688,15608.35941503204,76.0,41.0,35.0,0.5394736842105263,216.5083653460368,11059.882664062094,,,,,111827.0,111852.0,111926.0,111945.0,111956.0,111976.0,111988.0,111994.0,112201.0,112267.0,0.1511272546681696,-0.05622955193042341,0.053169533188032095,-0.3144087781222881,0.021371587737179797
139,139,112632.07005769356,3242.9514443013923,17.3863992180427,112730.4524949821,-4602.521860457826,7.262754930583463,112761.0094466371,47485.34683101653,7.878298109103503,112824.2739827004,-1819.8536493885977,4.5977496077312265,113027.0410795738,10051.27243244691,32.6744929565823,0.9733730881856896,99.0,77.0,111.0,230.0,341.0,22.0,800.0,795.0,25.0,11.0,14.0,0.44,232.10650002407863,4281.370644657945,18.0,9.0,9.0,0.5,505.4799141882445,712.838879956887,20.0,10.0,10.0,0.5,2557.767651074595,45462.94006191685,13.0,4.0,9.0,0.3076923076923077,195.9367916472389,2101.021221087346,78.0,40.0,38.0,0.5128205128205128,232.30181444550163,11161.639214444243,,,,,112623.0,112645.0,112722.0,112739.0,112751.0,112771.0,112820.0,112833.0,112988.0,113063.0,0.07157261032444469,-0.10982672750151,0.0538643565177439,-0.10766623553111883,0.02311168222797334
