Unnamed: 0,cycle,p_center,p_height,p_width,q_center,q_height,q_width,r_center,r_height,r_width,s_center,s_height,s_width,t_center,t_height,t_width,r_squared,pr_interval,pr_segment,qrs_duration,st_segment,qt_interval,p_duration,pp_interval,rr_interval,fwhm_p,rise_time_p,decay_time_p,rise_decay_symmetry_p,sharpness_deriv_p,sharpness_diff_p,fwhm_q,rise_time_q,decay_time_q,rise_decay_symmetry_q,sharpness_deriv_q,sharpness_diff_q,fwhm_r,rise_time_r,decay_time_r,rise_decay_symmetry_r,sharpness_deriv_r,sharpness_diff_r,fwhm_s,rise_time_s,decay_time_s,rise_decay_symmetry_s,sharpness_deriv_s,sharpness_diff_s,fwhm_t,rise_time_t,decay_time_t,rise_decay_symmetry_t,sharpness_deriv_t,sharpness_diff_t,Average_Heart_Rate,SDNN,RMSSD,NN50,p_on,p_off,q_on,q_off,r_on,r_off,s_on,s_off,t_on,t_off,sharpness_deriv_p_norm,sharpness_deriv_q_norm,sharpness_deriv_r_norm,sharpness_deriv_s_norm,sharpness_deriv_t_norm
0,0,,,,,,,,,,,,,,,,,,,,,,,,,,,,,,,,,,,,,,,,,,,,,,,,,,,,,,,63.51989837411218,390.3820859391281,526.9482073714281,722.0,,,,,,,,,,,,,,,
1,1,1641.501154146438,2198.1530380027048,8.322257050248794,1760.1233045007198,-13346.276408059466,12.356735431784674,1781.9692546922809,47109.407968780106,9.718419897793344,1805.127363222353,-16697.153873746858,8.021165718426337,2034.7518031426423,12149.372155033689,31.34934517925599,0.9683394898543244,116.0,93.0,71.0,256.0,327.0,23.0,,,23.0,12.0,11.0,0.5217391304347826,107.56244900001116,1935.0871128488168,21.0,16.0,5.0,0.7619047619047619,1637.9615467730953,7803.238449548644,21.0,10.0,11.0,0.4761904761904761,2701.3725640297916,42515.537972190315,17.0,5.0,12.0,0.2941176470588235,1909.4574417490592,31618.594590038185,79.0,39.0,40.0,0.4936708860759494,97.67000815077968,12991.107588578878,,,,,1630.0,1653.0,1746.0,1763.0,1772.0,1793.0,1800.0,1817.0,1998.0,2073.0,0.04893310299165749,-0.12272798020157692,0.05734252839305515,-0.11435825867013916,0.008039099214712372
2,2,2525.347737680198,2428.5105676063013,8.957702529896581,2644.12330450072,-13024.591862412844,11.891105202572286,2665.923377001727,46492.70568100835,9.701054709239536,2689.0273736989925,-16451.231294723988,7.938360215258264,2918.841731080153,12399.927380660543,32.04738214420629,0.9677873009370224,116.0,93.0,69.0,260.0,329.0,23.0,884.0,884.0,23.0,11.0,12.0,0.4782608695652174,110.27992318439505,2437.663621947348,19.0,16.0,3.0,0.8421052631578947,1622.4185231587724,8090.402508887233,21.0,10.0,11.0,0.4761904761904761,2683.9813412324283,42127.833789035736,17.0,5.0,12.0,0.2941176470588235,1888.0377438281223,31094.04010590761,79.0,39.0,40.0,0.4936708860759494,101.16824334915654,13365.741722971206,,,,,2514.0,2537.0,2630.0,2647.0,2656.0,2677.0,2684.0,2699.0,2882.0,2959.0,0.045410518140381884,-0.12456578603747623,0.05772908463636262,-0.11476574063083216,0.008158777083399928
3,3,3698.7627358596887,2470.7291726355043,8.801253962911787,3810.972626301007,-12969.319921519396,11.904554065347554,3833.140703982352,43776.17368300954,9.716355194294769,3856.095052638832,-16701.374832560243,8.352235104517044,4089.8184227634806,12058.87000085469,33.40345550716248,0.9650876621328918,110.0,85.0,71.0,264.0,335.0,25.0,1174.0,1166.0,25.0,13.0,12.0,0.52,114.37797886411994,2402.4915621334217,19.0,15.0,4.0,0.7894736842105263,1471.1901284013643,5511.31671586855,19.0,9.0,10.0,0.4736842105263157,2559.3324211073827,42989.477154281034,17.0,6.0,11.0,0.3529411764705882,1746.4866601791998,28174.930190191317,85.0,42.0,43.0,0.4941176470588235,88.74248756788342,12654.549454744829,,,,,3686.0,3711.0,3796.0,3815.0,3824.0,3843.0,3852.0,3867.0,4050.0,4131.0,0.046293207742439044,-0.11343618148861345,0.05846405032198403,-0.10457143065697373,0.007359104755387003
4,4,4755.336823331855,2829.403273437807,11.180770881071744,4870.123304489479,-13076.606258380049,11.01359447124294,4892.052429724602,46478.742235098194,9.822556684736185,4915.02737369959,-15457.947709020262,7.4687350874500975,5146.767680415132,12586.33905310103,33.87916648438127,0.9707553829540552,114.0,87.0,69.0,264.0,333.0,27.0,1056.0,1060.0,27.0,13.0,14.0,0.4814814814814814,109.1388972221413,2951.7055222841796,17.0,14.0,3.0,0.8235294117647058,1634.6475612556892,8393.818542139992,21.0,10.0,11.0,0.4761904761904761,2668.8047160462525,43579.77581727608,15.0,5.0,10.0,0.3333333333333333,1885.222376896308,29967.59672744414,83.0,41.0,42.0,0.4939759036144578,98.28650825491933,13555.83034205212,,,,,4742.0,4769.0,4856.0,4873.0,4882.0,4903.0,4910.0,4925.0,5108.0,5189.0,0.038573114778910386,-0.12500548911214154,0.057419899672562946,-0.12195812874927853,0.0078089830442557035
5,5,5896.778940706145,2898.2433112592707,10.262175256970137,6010.123304481767,-12957.910156248478,11.048700129488935,6032.0694989689455,46403.45883400571,9.829824771503326,6055.027373709705,-15138.393845607805,7.423499405130984,6289.096479159606,12528.260028763963,33.9947847958122,0.9721910055771152,112.0,85.0,69.0,266.0,335.0,27.0,1140.0,1140.0,27.0,13.0,14.0,0.4814814814814814,119.16279734862238,2891.643713040991,17.0,14.0,3.0,0.8235294117647058,1625.4141121341584,8456.592505159091,21.0,10.0,11.0,0.4761904761904761,2652.992712913923,43640.84569313789,15.0,5.0,10.0,0.3333333333333333,1870.334180561778,29592.049650348916,83.0,41.0,42.0,0.4939759036144578,99.62029149420428,13555.215534949852,,,,,5884.0,5911.0,5996.0,6013.0,6022.0,6043.0,6050.0,6065.0,6250.0,6331.0,0.0411155256998926,-0.12543798286410884,0.05717230524569729,-0.12354905015926967,0.007951646219465706
6,6,7024.188349622066,2647.963780609896,8.666465691269893,7136.972626301007,-13153.90372762582,11.59923705339292,7158.839136089427,44199.40439747883,9.871313585534196,7181.736601116408,-17018.60094091457,8.360778858285308,7413.683593564058,12437.0930746532,34.639549608477935,0.9640416723399124,110.0,85.0,71.0,264.0,335.0,25.0,1130.0,1126.0,25.0,12.0,13.0,0.48,126.67368817325672,2465.496104651327,21.0,17.0,4.0,0.8095238095238095,1506.0863152606942,6787.128876971177,21.0,11.0,10.0,0.5238095238095238,2577.4358267128073,42591.64631117197,17.0,6.0,11.0,0.3529411764705882,1741.808566100852,28049.13188126472,87.0,44.0,43.0,0.5057471264367817,90.2804036605694,13125.79004491374,,,,,7012.0,7037.0,7122.0,7141.0,7148.0,7169.0,7176.0,7193.0,7374.0,7457.0,0.04783814986475398,-0.11449728889969087,0.058313813542243714,-0.1023473417202794,0.007258963418434241
7,7,7999.494921437393,2394.4476140760457,9.122929534838413,8114.972626301007,-13031.804113836546,12.000066267646964,8136.515197687977,46040.49248952148,9.85851074717859,8159.542251877943,-16700.574740336902,8.102415392670073,8391.413760518863,12313.781273381755,32.153928211458975,0.965773947316717,112.0,89.0,71.0,260.0,331.0,23.0,974.0,978.0,23.0,11.0,12.0,0.4782608695652174,107.13013210603069,2431.541151253712,21.0,17.0,4.0,0.8095238095238095,1552.5375904772202,8396.289421651067,21.0,11.0,10.0,0.5238095238095238,2638.3992874263836,43566.82458803688,17.0,6.0,11.0,0.3529411764705882,1752.892115443308,27801.49605961075,81.0,39.0,42.0,0.4814814814814814,101.28979098214876,13220.961707796076,,,,,7988.0,8011.0,8100.0,8119.0,8126.0,8147.0,8154.0,8171.0,8354.0,8431.0,0.04474106323155847,-0.1191345094597309,0.057306061355161794,-0.10495998746735029,0.0082257260165164
8,8,9086.910564177717,2785.7156235707616,10.993727172115548,9200.972626301009,-13458.137767103197,11.277150840029122,9222.654221591314,46803.794592554616,9.950971178179351,9245.545949546722,-15566.349666025164,7.621556598074363,9479.851027083212,12550.780883012209,33.65960648315639,0.9725185644845996,112.0,85.0,71.0,264.0,335.0,27.0,1088.0,1086.0,27.0,13.0,14.0,0.4814814814814814,111.57762907497992,2830.7229653303666,21.0,17.0,4.0,0.8095238095238095,1591.097614133414,8544.155404911864,21.0,11.0,10.0,0.5238095238095238,2663.129277849199,46099.04575005589,15.0,4.0,11.0,0.2666666666666666,1760.3813002421289,26789.19847936077,83.0,40.0,43.0,0.4819277108433735,95.964766914165,13323.699033920164,,,,,9074.0,9101.0,9186.0,9205.0,9212.0,9233.0,9242.0,9257.0,9442.0,9521.0,0.040053488637134635,-0.11822568929429904,0.05689985824937451,-0.11308889611315269,0.007646119218291483
9,9,10178.787176220332,2815.735137252754,10.077108794178452,10290.972626301009,-12398.148633699757,10.922848616384464,10313.83028692051,45497.25294785198,9.59048472334105,10337.027373698991,-15150.311381862371,7.4439827188964385,10570.629283957893,12669.433597917832,34.35156679771824,0.9706263237389064,112.0,87.0,69.0,266.0,335.0,25.0,1090.0,1090.0,25.0,13.0,12.0,0.52,119.20821745678326,2817.5729501061364,19.0,15.0,4.0,0.7894736842105263,1463.2766879004423,5281.701946660307,21.0,10.0,11.0,0.4761904761904761,2637.622035186357,42074.09071526712,15.0,5.0,10.0,0.3333333333333333,1834.039179878297,29407.986864592734,85.0,43.0,42.0,0.5058823529411764,98.84068558082944,13685.779210004364,,,,,10166.0,10191.0,10278.0,10295.0,10304.0,10325.0,10332.0,10347.0,10532.0,10613.0,0.04233644559803728,-0.11802380590300948,0.0579732151787174,-0.12105620364172644,0.007801507843024134
10,10,11163.92394004056,2430.4000794743797,9.15912594095947,11278.972626301009,-12817.308619127438,11.931747046928097,11300.36609361124,44503.51214954086,9.853515754963611,11323.196373414276,-17520.123485366126,8.369680720637973,11554.260172995751,12647.254846204474,34.21298661066275,0.9604545824207742,112.0,87.0,71.0,262.0,333.0,25.0,986.0,988.0,25.0,12.0,13.0,0.48,109.6997522104436,2271.9885778204757,21.0,17.0,4.0,0.8095238095238095,1516.775336714055,8231.673251389293,21.0,10.0,11.0,0.4761904761904761,2593.5052033866436,40245.18942506014,17.0,5.0,12.0,0.2941176470588235,1893.700072952753,31972.08878507333,85.0,42.0,43.0,0.4941176470588235,96.55929626272184,13373.905648804028,,,,,11152.0,11177.0,11264.0,11283.0,11290.0,11311.0,11318.0,11335.0,11514.0,11597.0,0.045136499598110724,-0.11833805222186436,0.0582764163572515,-0.10808714188198996,0.007634802764467099
11,11,12064.018106285495,2444.7191613012765,9.498610467278656,12178.972626301009,-12686.21215001833,11.053216204646365,12201.98714108083,46427.868414974546,9.64645720622237,12225.027373698991,-15951.76573293484,7.695527151705541,12456.038598234858,12668.50983181478,32.38948826340318,0.9690556856008404,114.0,89.0,69.0,260.0,329.0,25.0,900.0,902.0,25.0,12.0,13.0,0.48,104.55153476844912,2284.82039583674,19.0,15.0,4.0,0.7894736842105263,1481.631552878039,5115.349248125382,21.0,10.0,11.0,0.4761904761904761,2693.525933495182,42942.49891793303,15.0,5.0,10.0,0.3333333333333333,1891.578684800366,30694.997255967537,81.0,40.0,41.0,0.4938271604938271,101.11628005129388,13426.680972690574,,,,,12052.0,12077.0,12166.0,12183.0,12192.0,12213.0,12220.0,12235.0,12418.0,12495.0,0.04276627615288063,-0.11679069649453232,0.05801528317906642,-0.11858114747102354,0.007981702772756885
12,12,13003.418067608323,2560.2123177936214,8.961792419672248,13118.972626301003,-12398.870451137836,11.403269219931593,13141.599138762773,46284.94933245632,9.512957554075353,13165.027373698997,-15764.23443319206,7.555609455575579,13396.792562102784,12558.768059174934,32.39202068656161,0.9702528919684424,114.0,91.0,69.0,262.0,331.0,23.0,940.0,938.0,23.0,11.0,12.0,0.4782608695652174,116.5241249251765,2589.677593594307,19.0,15.0,4.0,0.7894736842105263,1486.1504405325236,5681.9642537486025,21.0,10.0,11.0,0.4761904761904761,2693.134778013489,41816.51333295192,15.0,5.0,10.0,0.3333333333333333,1853.032838514927,30136.989360174317,79.0,39.0,40.0,0.4936708860759494,99.4981068028382,13515.876466503742,,,,,12992.0,13015.0,13106.0,13123.0,13132.0,13153.0,13160.0,13175.0,13360.0,13437.0,0.04551346156540502,-0.1198617605038482,0.05818597226215361,-0.11754664309059702,0.007922600874068125
13,13,14005.105518431968,2275.6139440829165,8.058725883197651,14118.972626301009,-13143.128641300242,11.637377114083144,14141.658348216944,44677.35656858791,9.732424251556838,14164.374290646894,-17301.408402284495,8.469902797280744,14396.744699564646,12323.691913095085,32.104047369674525,0.9654099361113782,110.0,87.0,71.0,262.0,333.0,23.0,1002.0,1000.0,23.0,11.0,12.0,0.4782608695652174,116.82088185823028,2258.6444369179117,19.0,15.0,4.0,0.7894736842105263,1470.222988800415,4718.12122550677,21.0,10.0,11.0,0.4761904761904761,2644.672919323787,38940.08513960976,17.0,4.0,13.0,0.2352941176470588,1824.5628077946465,29532.848296430777,81.0,41.0,40.0,0.5061728395061729,93.78279960382146,13111.894620006226,,,,,13994.0,14017.0,14104.0,14123.0,14132.0,14153.0,14160.0,14175.0,14358.0,14437.0,0.05133598436676379,-0.11186248182799241,0.0591949283137137,-0.10545747290456016,0.007609959764100269
14,14,14913.254039717058,2761.346786797853,11.409072131734568,15030.123304500716,-12723.113850336787,11.144417037506326,15052.26014513392,44477.097855244014,9.967465609687869,15074.686861149938,-17954.116909554854,8.604505675244518,15305.41073586775,12241.82801724854,32.34102529923467,0.967717574187526,116.0,87.0,71.0,258.0,329.0,29.0,908.0,912.0,29.0,13.0,16.0,0.4482758620689655,100.37019952267188,2855.5697677778353,17.0,14.0,3.0,0.8235294117647058,1556.8167643946936,7745.7518487484285,21.0,10.0,11.0,0.4761904761904761,2606.4363953728393,39923.63228904425,17.0,5.0,12.0,0.2941176470588235,1884.4598827702755,31975.743339021858,81.0,39.0,42.0,0.4814814814814814,102.28745772281836,13172.035881605796,,,,,14900.0,14929.0,15016.0,15033.0,15042.0,15063.0,15070.0,15087.0,15268.0,15345.0,0.03634827758778694,-0.12236130107045169,0.058601764077678704,-0.10495976450768238,0.008355570555206051
15,15,15926.310341485729,2676.098507657886,10.277023880182044,16040.251888487805,-12474.603865266286,10.365309038472448,16063.679921242365,46673.747029135615,9.549666753705804,16087.027373698991,-14995.68365807512,7.168936706635135,16319.202420118643,12497.637429661554,33.279772820167764,0.9732777970168588,114.0,89.0,69.0,262.0,331.0,25.0,1012.0,1010.0,25.0,12.0,13.0,0.48,108.7883344517548,2593.0949035074736,19.0,14.0,5.0,0.7368421052631579,1541.0698175386644,5219.488493322823,21.0,10.0,11.0,0.4761904761904761,2698.467074431145,43188.87783075194,15.0,5.0,10.0,0.3333333333333333,1862.871286377108,29395.511622239195,83.0,41.0,42.0,0.4939759036144578,100.18830534787278,13488.395975950403,,,,,15914.0,15939.0,16028.0,16045.0,16054.0,16075.0,16082.0,16097.0,16280.0,16359.0,0.04065184227727329,-0.12353657352034628,0.05781552256232298,-0.12422716622019155,0.00801657960648535
16,16,17116.29896165131,2495.5558436428464,8.979091360917495,17230.123304500717,-13382.093273558168,11.263723625811302,17252.007976440793,46541.19704687186,9.909148791548086,17275.027374720255,-15095.776177408005,7.501368207944975,17510.511885466432,12462.677716485656,33.460058403216124,0.9719050538436372,112.0,87.0,69.0,266.0,335.0,25.0,1190.0,1190.0,25.0,12.0,13.0,0.48,116.00943032966272,2380.7234067870454,19.0,16.0,3.0,0.8421052631578947,1639.3026149865966,8384.700153289865,21.0,10.0,11.0,0.4761904761904761,2641.5276941311513,43638.53744389648,15.0,5.0,10.0,0.3333333333333333,1858.85559722463,29489.38350335831,83.0,41.0,42.0,0.4939759036144578,94.46448363804024,13366.986448254034,,,,,17104.0,17129.0,17216.0,17233.0,17242.0,17263.0,17270.0,17285.0,17472.0,17551.0,0.04648640928039497,-0.12249971521463787,0.05675676307746998,-0.12313746410777811,0.007579790297640644
17,17,18129.64734277976,2610.7259230555524,9.522009388012936,18242.972626301005,-12376.44988213168,10.92884962874932,18266.06281588029,43582.77078180092,9.738369558298595,18288.752812744304,-17235.184595861745,8.506573781967688,18519.22489661108,12647.586302964532,34.81157681723873,0.961781692650157,112.0,87.0,71.0,260.0,331.0,25.0,1014.0,1012.0,25.0,12.0,13.0,0.48,115.65881579398877,2404.5618283378312,19.0,15.0,4.0,0.7894736842105263,1408.3185308702334,4465.286437286141,21.0,10.0,11.0,0.4761904761904761,2587.849332934257,39075.51904469804,17.0,5.0,12.0,0.2941176470588235,1831.0967447295816,31144.894564651353,87.0,43.0,44.0,0.4942528735632184,101.67531451893696,13670.315158962258,,,,,18118.0,18143.0,18230.0,18247.0,18256.0,18277.0,18284.0,18301.0,18480.0,18561.0,0.04430140091405057,-0.11379018573843805,0.0593778065623785,-0.10624178317006464,0.008039108181068887
18,18,19011.0593741572,1986.9316700104605,7.924303602629692,19126.972626301005,-12970.215458454217,12.04784472410542,19149.403739456426,46304.04904711881,9.761923002945665,19172.49661796096,-16876.724288466972,8.135336809540524,19403.989684100157,12106.657988026836,30.82663646385765,0.9657377980446012,112.0,89.0,71.0,260.0,331.0,23.0,882.0,884.0,23.0,11.0,12.0,0.4782608695652174,102.76754422784312,1932.014725097511,19.0,15.0,4.0,0.7894736842105263,1509.245375544952,6134.3626772235875,21.0,9.0,12.0,0.4285714285714285,2645.794303239501,46574.79599078497,17.0,4.0,13.0,0.2352941176470588,1845.576763285582,29327.077094177384,79.0,40.0,39.0,0.5063291139240507,93.88879442080147,12643.607591185197,,,,,19000.0,19023.0,19112.0,19131.0,19140.0,19161.0,19168.0,19183.0,19366.0,19443.0,0.0517217304343949,-0.11636239817135798,0.0571395883877704,-0.10935633786153583,0.007755137257008086
19,19,19958.07090539165,2353.5998886293205,8.876657626646244,20072.972626301005,-12657.15082373855,11.32523729156557,20095.55993049479,46413.20240815972,9.588562185909687,20119.027373698995,-15700.342330764057,7.495996547279532,20350.59637449777,12449.070603195953,32.577721386473904,0.9705153342898613,112.0,87.0,71.0,262.0,333.0,25.0,946.0,946.0,25.0,12.0,13.0,0.48,109.85680972138567,2198.4094594207027,19.0,15.0,4.0,0.7894736842105263,1505.2631301899387,5813.856413699384,21.0,10.0,11.0,0.4761904761904761,2685.9473153465055,42010.28133886267,15.0,5.0,10.0,0.3333333333333333,1856.1749614110677,30011.938675505306,81.0,41.0,40.0,0.5061728395061729,92.20759282400414,13256.08337972348,,,,,19946.0,19971.0,20058.0,20077.0,20086.0,20107.0,20114.0,20129.0,20312.0,20391.0,0.04667607703931513,-0.11892590608676402,0.05787032947492328,-0.11822512670784147,0.0074067852744230086
20,20,21082.824146948064,2427.4239405443823,8.827450560951632,21194.972626301005,-12752.412044117034,11.33866831521152,21217.91364415684,43484.05419859464,9.674839624089309,21240.83032448111,-16738.227475938893,8.274335746288166,21473.743118366827,12182.957921354177,34.24566858876197,0.962515136219548,112.0,87.0,71.0,264.0,335.0,25.0,1124.0,1122.0,25.0,13.0,12.0,0.52,112.73737596773148,2372.7450345692914,19.0,15.0,4.0,0.7894736842105263,1420.9567230846044,3992.4828258249745,21.0,10.0,11.0,0.4761904761904761,2575.905771524664,39026.48451066459,17.0,5.0,12.0,0.2941176470588235,1813.5107774404344,30509.121975351736,87.0,44.0,43.0,0.5057471264367817,91.0105135083812,12790.90623272028,,,,,21070.0,21095.0,21182.0,21199.0,21208.0,21229.0,21236.0,21253.0,21434.0,21517.0,0.046443216648200565,-0.11142650646550609,0.0592379394929536,-0.10834544936417824,0.0074703133751171215
21,21,21998.14719516759,2216.090499877777,8.919739107875625,22114.972626301005,-13150.97818890693,13.282179194180184,22136.200643203872,45709.98288848978,9.832976259160947,22159.299293192624,-17814.714982484475,8.676865147991547,22390.853275955895,11930.767111084144,31.2560075466643,0.963804015401268,114.0,89.0,71.0,258.0,329.0,25.0,916.0,920.0,25.0,12.0,13.0,0.48,99.2282899061886,2040.813764210439,23.0,19.0,4.0,0.8260869565217391,1538.6723811149093,8450.115388280612,21.0,10.0,11.0,0.4761904761904761,2598.8583250121637,39896.06659075016,17.0,5.0,12.0,0.2941176470588235,1893.2071044111135,32559.192203748607,79.0,39.0,40.0,0.4936708860759494,96.1924715337703,12756.780644868068,,,,,21986.0,22011.0,22100.0,22119.0,22126.0,22147.0,22154.0,22171.0,22354.0,22429.0,0.044776280531711725,-0.11700060322606307,0.05685537733304603,-0.10627209620095102,0.008062555461702356
22,22,22902.803408966207,2540.6110228148914,9.504492337734588,23020.123304500717,-13453.355909822209,11.160965797265044,23042.190164685297,47373.39428774736,9.925353607270342,23065.094055619807,-16263.282533367175,7.754653639424637,23296.811211974673,12278.632386727444,32.27384773475988,0.9723342547033936,116.0,91.0,69.0,262.0,331.0,25.0,906.0,906.0,25.0,13.0,12.0,0.52,111.90310634020705,2505.0444347774023,19.0,16.0,3.0,0.8421052631578947,1655.9763109435737,8419.894778680875,21.0,10.0,11.0,0.4761904761904761,2712.5911549700745,44388.5910394617,17.0,5.0,12.0,0.2941176470588235,1935.28221070599,31208.7195452035,79.0,39.0,40.0,0.4936708860759494,99.62977794892976,13236.575589001475,,,,,22890.0,22915.0,23006.0,23023.0,23032.0,23053.0,23060.0,23075.0,23260.0,23337.0,0.04404574542710716,-0.12309020307227256,0.05725980153530308,-0.11899702330912566,0.008114077758091717
23,23,23968.94456579484,2442.67077838949,8.245785527088486,24082.972626301005,-13437.572057609246,11.470040797578918,24105.24608327671,45052.21029695129,9.854382202642633,24128.059462771325,-16844.51678257969,8.30929831135983,24362.070079501096,12223.06808487834,32.92761315609807,0.9697196560583066,110.0,87.0,71.0,264.0,335.0,23.0,1066.0,1062.0,23.0,11.0,12.0,0.4782608695652174,121.82893474087064,2414.2705086294395,19.0,15.0,4.0,0.7894736842105263,1517.9963966798364,5935.981033480461,19.0,9.0,10.0,0.4736842105263157,2615.734654316807,44946.783050537975,15.0,4.0,11.0,0.2666666666666666,1788.7586505825782,28601.518300593892,83.0,42.0,41.0,0.5060240963855421,94.80951194207675,12873.8031340312,,,,,23958.0,23981.0,24068.0,24087.0,24096.0,24115.0,24124.0,24139.0,24324.0,24403.0,0.049875298717576386,-0.11296656793146244,0.05806007379162516,-0.1061923398379989,0.007756605075232257
24,24,24949.56722810484,2786.268108713739,11.00722497144471,25064.972626301005,-12443.889003582608,11.07163908588921,25087.463567149724,43466.44923307512,9.865014729122334,25110.137435896984,-17272.187129180104,8.392046356122961,25341.85477196009,11869.72619464576,32.678692873914386,0.9685059389193694,114.0,87.0,71.0,262.0,333.0,27.0,980.0,982.0,27.0,14.0,13.0,0.5185185185185185,105.44173268521467,2613.884026266066,19.0,15.0,4.0,0.7894736842105263,1443.7060106806412,5946.305154330988,19.0,9.0,10.0,0.4736842105263157,2541.1439054916423,43501.49286768034,17.0,4.0,13.0,0.2352941176470588,1786.0361626648237,28770.895725044436,81.0,40.0,41.0,0.4938271604938271,93.43210409563424,12618.11174991222,,,,,24936.0,24963.0,25050.0,25069.0,25078.0,25097.0,25106.0,25121.0,25304.0,25383.0,0.037843354828437925,-0.11601726841705168,0.058462192112025524,-0.10340532726439985,0.00787146245528224
25,25,26095.766995081744,2522.3276351351656,10.05548649217911,26210.123304500717,-13375.033571888443,11.091453887707958,26232.529698689585,46977.45850339618,9.937044763497951,26255.45203554825,-15284.7322266191,7.538480625845582,26491.79424819635,12059.421897378175,32.774298327432334,0.9756494471490108,114.0,87.0,71.0,266.0,337.0,27.0,1146.0,1146.0,27.0,14.0,13.0,0.5185185185185185,107.0129492061016,2363.1843348149705,19.0,14.0,5.0,0.7368421052631579,1629.430011711181,7648.910890681821,21.0,11.0,10.0,0.5238095238095238,2668.5614233271363,46075.49201667883,15.0,3.0,12.0,0.2,1918.7240387790116,30473.31560031791,81.0,40.0,41.0,0.4938271604938271,91.51560790697368,12729.52327510256,,,,,26082.0,26109.0,26196.0,26213.0,26222.0,26243.0,26252.0,26267.0,26454.0,26533.0,0.04242626838617142,-0.12182623714200659,0.05680514673083509,-0.12553206757770088,0.007588722634114823
26,26,27248.943856109217,2490.4908715149186,8.834720148112362,27362.123304500717,-13252.721672021911,11.143100255898316,27384.368554015924,45297.35091243328,9.872783624643397,27407.22838509525,-15814.610775544725,7.971234609079042,27643.008166015978,12158.540707649545,33.30335809882882,0.9705946941433272,110.0,87.0,71.0,266.0,337.0,23.0,1154.0,1152.0,23.0,11.0,12.0,0.4782608695652174,118.02536761319124,2455.1074781468833,19.0,14.0,5.0,0.7368421052631579,1594.812386144569,7136.926006451678,21.0,10.0,11.0,0.4761904761904761,2620.5719785681404,42703.04245360113,17.0,5.0,12.0,0.2941176470588235,1864.0863602552115,30498.64622623924,83.0,41.0,42.0,0.4939759036144578,97.33415580381558,13059.498672029004,,,,,27238.0,27261.0,27348.0,27365.0,27374.0,27395.0,27402.0,27419.0,27604.0,27685.0,0.047390403620069736,-0.12033848032222767,0.05785265420121604,-0.11787115008469148,0.008005414312803
27,27,28179.478259170533,2569.529284907184,9.770164097367198,28294.972626301005,-12759.24306346076,11.342067647424074,28317.50007619382,44000.9181616659,9.84375219824478,28340.172947503655,-17877.458460933853,8.53500342653555,28569.811515205725,12259.46261005581,34.07670914670821,0.9570281488798535,114.0,87.0,71.0,262.0,333.0,27.0,930.0,932.0,27.0,13.0,14.0,0.4814814814814814,108.66243413925037,2632.869885977591,19.0,15.0,4.0,0.7894736842105263,1457.6956980900757,5638.233864448444,19.0,10.0,9.0,0.5263157894736842,2612.8046523698113,37596.37565885665,19.0,6.0,13.0,0.3157894736842105,1817.6751876860696,29610.237712002483,85.0,42.0,43.0,0.4941176470588235,97.88607437487772,13019.891353289166,,,,,28166.0,28193.0,28280.0,28299.0,28308.0,28327.0,28336.0,28351.0,28532.0,28613.0,0.042288848302881064,-0.11424625197904935,0.05938068480230298,-0.1016741385056543,0.007984532233459138
28,28,29069.424864733595,2333.804587466988,9.191604458939317,29186.972626301005,-13192.27289515611,11.670090568888437,29208.990283386687,47197.01349777436,9.882179404048076,29231.9757843045,-16481.984604241086,7.863502405534116,29463.71073768341,12058.483959166246,31.927037715914537,0.9689582769190088,114.0,89.0,71.0,260.0,331.0,25.0,890.0,892.0,25.0,11.0,14.0,0.44,103.52225628264256,2352.6114638814206,21.0,17.0,4.0,0.8095238095238095,1566.379820841629,7826.855025444786,21.0,11.0,10.0,0.5238095238095238,2686.099043387993,46811.46243930548,15.0,4.0,11.0,0.2666666666666666,1828.255973083193,28420.7556273895,81.0,40.0,41.0,0.4938271604938271,91.06269918922668,12654.039555254983,,,,,29058.0,29083.0,29172.0,29191.0,29198.0,29219.0,29228.0,29243.0,29426.0,29503.0,0.044357722509664445,-0.11873464362738938,0.05691247908121686,-0.11092450435930833,0.007551753561856791
29,29,30010.891142172688,2651.874905621952,10.002432536686666,30126.972626301005,-12690.774022076374,10.890549610742251,30149.89406175121,46225.266123551155,9.62061628323985,30173.027373698995,-15893.61430723946,7.598505251116619,30404.955435860025,12373.033489230958,32.98890532437057,0.9706978688267152,116.0,89.0,69.0,262.0,331.0,27.0,942.0,940.0,27.0,13.0,14.0,0.4814814814814814,111.71044413685232,2651.3816717437785,19.0,15.0,4.0,0.7894736842105263,1486.8703639098132,5239.562794918208,21.0,10.0,11.0,0.4761904761904761,2689.9353420515477,42677.522605557766,15.0,5.0,10.0,0.3333333333333333,1883.6762030804616,30477.00278021248,83.0,41.0,42.0,0.4939759036144578,97.54927763722462,13292.655273930057,,,,,29998.0,30025.0,30114.0,30131.0,30140.0,30161.0,30168.0,30183.0,30366.0,30445.0,0.042125080598646315,-0.11716151917316563,0.05819188438768255,-0.1185178000841795,0.007884022759829107
30,30,31085.95854147863,2271.121133478364,7.984019934172447,31200.972626301005,-13606.074416093668,12.14172266168693,31222.51870933971,45298.99002258186,9.886824683870683,31245.47381723639,-17292.548305353474,8.420260854175304,31479.594349511102,12214.111985513717,32.94400982274897,0.965859297571246,112.0,89.0,71.0,264.0,335.0,23.0,1074.0,1074.0,23.0,12.0,11.0,0.5217391304347826,118.02513114107592,2082.119155945679,21.0,17.0,4.0,0.8095238095238095,1551.981920662672,7475.69135077979,21.0,11.0,10.0,0.5238095238095238,2618.1529616986136,42304.29079554622,17.0,5.0,12.0,0.2941176470588235,1910.1425288040691,32259.668987783247,83.0,42.0,41.0,0.5060240963855421,92.04658887978984,12866.573157661143,,,,,31074.0,31097.0,31186.0,31205.0,31212.0,31233.0,31240.0,31257.0,31442.0,31521.0,0.05196778340057673,-0.11406537059851311,0.05779715972460857,-0.11046044198197914,0.007536085225758508
31,31,32044.126945702188,2320.1023226146003,9.372009131152671,32160.972626301005,-13114.79659340769,11.852641325028076,32183.265085821276,45217.21881895326,9.869246777729863,32206.00560668647,-17639.52026069954,8.58237940292167,32437.902622469996,12050.986698836474,32.4340992927156,0.9668489859810736,114.0,89.0,71.0,262.0,333.0,25.0,958.0,960.0,25.0,12.0,13.0,0.48,101.63122364131664,2183.2312447326167,21.0,17.0,4.0,0.8095238095238095,1500.243104168744,6227.488570838771,19.0,9.0,10.0,0.4736842105263157,2619.0369494368047,44242.57279482909,19.0,6.0,13.0,0.3157894736842105,1810.772463173435,29428.520427795404,83.0,42.0,41.0,0.5060240963855421,85.73693160452227,12594.209819280231,,,,,32032.0,32057.0,32146.0,32165.0,32174.0,32193.0,32202.0,32217.0,32398.0,32479.0,0.0438046299297632,-0.1143931660307152,0.05792123040391437,-0.1026542919768513,0.007114515495465628
32,32,33034.0603665926,2458.9397359675672,9.690227997582328,33150.12330450071,-13435.88408287699,11.325207314645404,33172.18004047858,47409.96881861385,9.909890645953752,33195.10995495176,-16092.528277603911,7.666831516425366,33428.56120722716,12240.043820207831,32.336332684525836,0.9726546127546574,114.0,89.0,69.0,264.0,333.0,25.0,990.0,990.0,25.0,12.0,13.0,0.48,105.8405398617078,2336.0442498086422,19.0,16.0,3.0,0.8421052631578947,1652.9393162618342,8366.68013737614,21.0,10.0,11.0,0.4761904761904761,2706.4207335376723,44413.354979405965,17.0,5.0,12.0,0.2941176470588235,1932.77871452367,31030.50220552555,81.0,41.0,40.0,0.5061728395061729,95.28309894851384,13118.68440762171,,,,,33022.0,33047.0,33136.0,33153.0,33162.0,33183.0,33190.0,33205.0,33390.0,33469.0,0.04304316137298934,-0.12302423168181238,0.057085478032946765,-0.12010410553160451,0.0077845390382675905
33,33,34255.911236905886,2363.1131388818403,9.109937616396715,34368.972626301,-12787.783077369835,11.370049521939888,34391.94536626619,43943.86075281515,9.689599768954157,34415.015082020225,-16411.559774316807,8.204523781310854,34650.646671798655,12044.623863344284,33.515616286039446,0.9670621883485676,112.0,87.0,71.0,266.0,337.0,25.0,1222.0,1218.0,25.0,12.0,13.0,0.48,106.05066912294949,2178.293657550725,19.0,15.0,4.0,0.7894736842105263,1430.9325860100482,4103.0299694022415,21.0,10.0,11.0,0.4761904761904761,2579.258760421086,39825.06853155342,17.0,5.0,12.0,0.2941176470588235,1818.896502201835,30485.42432373374,83.0,41.0,42.0,0.4939759036144578,91.96847032542264,12915.497559958716,,,,,34244.0,34269.0,34356.0,34373.0,34382.0,34403.0,34410.0,34427.0,34612.0,34693.0,0.0448775250655708,-0.11189840939218994,0.05869440500299812,-0.11083020305286938,0.007635644862710298
34,34,35206.681796479366,2272.0996199229057,8.803333404083713,35322.972626301,-12749.195058746964,11.88028214467484,35345.50758958331,45355.69225039796,9.80010398994017,35368.407694662026,-17250.277516778155,8.4775061148461,35601.3132223961,12022.811977086994,31.484973057822145,0.9659309760607332,114.0,89.0,71.0,262.0,333.0,25.0,952.0,954.0,25.0,13.0,12.0,0.52,104.72124346898904,2186.503687613093,19.0,15.0,4.0,0.7894736842105263,1476.2843216641377,5877.85073815058,19.0,10.0,9.0,0.5263157894736842,2644.823551537847,39088.57716185317,17.0,4.0,13.0,0.2352941176470588,1824.6241254065667,29544.36656213232,79.0,39.0,40.0,0.4936708860759494,95.47265576189407,12788.95686453801,,,,,35194.0,35219.0,35308.0,35327.0,35336.0,35355.0,35364.0,35379.0,35564.0,35641.0,0.04609007569507112,-0.11579431602242912,0.05831293538496573,-0.10577360993942739,0.007940958899119882
35,35,36305.67654041458,2953.277968723954,11.112210551036885,36418.972626301,-12821.918806055744,10.29027430981538,36442.23208159978,46339.02347567527,9.749114131188506,36465.05131020578,-15155.84479139308,7.454646847999726,36699.831846076195,12394.372119660027,34.26270477138642,0.9740585395078488,114.0,87.0,69.0,266.0,335.0,27.0,1098.0,1098.0,27.0,14.0,13.0,0.5185185185185185,116.79808507065658,2847.1379735027786,19.0,15.0,4.0,0.7894736842105263,1489.1388966796055,5001.455085755171,21.0,10.0,11.0,0.4761904761904761,2674.985551615446,44146.9641499329,15.0,5.0,10.0,0.3333333333333333,1885.673894263229,29882.92543547156,85.0,42.0,43.0,0.4941176470588235,93.84080228204972,13205.154558598511,,,,,36292.0,36319.0,36406.0,36423.0,36432.0,36453.0,36460.0,36475.0,36660.0,36741.0,0.03954862573302656,-0.11614009721979293,0.057726411801051994,-0.12441892353860029,0.007571242929942283
36,36,37329.93309163407,2277.7650493283068,7.700945360846549,37444.12330450071,-13318.843541066268,12.330292514463936,37465.97609152085,45098.49171174816,9.850281343513938,37488.9004103545,-17676.983620945553,8.588367229152492,37722.03607126918,12151.39292368952,32.88801639781699,0.9626422286760628,108.0,87.0,73.0,262.0,335.0,21.0,1024.0,1024.0,21.0,10.0,11.0,0.4761904761904761,122.23561270546274,2090.1158487154826,21.0,16.0,5.0,0.7619047619047619,1579.9807125377645,7314.815305214811,21.0,10.0,11.0,0.4761904761904761,2608.528237053834,39634.761031662405,17.0,5.0,12.0,0.2941176470588235,1867.6175635551497,31888.795564326698,85.0,42.0,43.0,0.4941176470588235,93.74178688038276,12791.510370795024,,,,,37320.0,37341.0,37428.0,37447.0,37456.0,37477.0,37484.0,37501.0,37684.0,37763.0,0.05366471521788824,-0.11862746999513711,0.057840697948980675,-0.10565250291583682,0.0077144889864955496
37,37,38242.674574711615,2079.927126220332,8.21420398127892,38360.972626301,-13426.275316579691,13.047344581763094,38382.17670426498,46524.91345148129,9.878616441164162,38405.26237922512,-17680.185833886266,8.549314005954699,38637.6943286,11960.66410474518,30.876193513981978,0.963754009105678,114.0,91.0,71.0,260.0,331.0,23.0,914.0,916.0,23.0,11.0,12.0,0.4782608695652174,103.10240317893113,1980.865145698426,23.0,19.0,4.0,0.8260869565217391,1572.6013350426786,8827.400428163222,21.0,10.0,11.0,0.4761904761904761,2636.737115101296,41017.28337737595,17.0,5.0,12.0,0.2941176470588235,1914.5669488205017,32597.902470588044,79.0,40.0,39.0,0.5063291139240507,92.3585931824265,12493.306056670708,,,,,38232.0,38255.0,38346.0,38365.0,38372.0,38393.0,38400.0,38417.0,38600.0,38677.0,0.04957019978209046,-0.11712863753812064,0.05667365975545615,-0.10828884757257455,0.007721861626879471
38,38,39373.745233738475,2780.167367648237,10.065988912197325,39486.972626301,-12806.32067557222,11.121702663467724,39509.60881619273,46664.197970913774,9.68516368809641,39533.027373699,-15052.497406541062,7.338698542317024,39769.032493405,12122.378993774464,33.433826422035686,0.9747108828968511,112.0,85.0,71.0,266.0,337.0,27.0,1130.0,1126.0,27.0,14.0,13.0,0.5185185185185185,119.05646367733576,2636.031593862136,19.0,15.0,4.0,0.7894736842105263,1517.5288913396923,6063.341918911892,21.0,10.0,11.0,0.4761904761904761,2668.440497766892,42815.44253158309,15.0,5.0,10.0,0.3333333333333333,1845.205266466889,29387.824330198535,83.0,41.0,42.0,0.4939759036144578,94.08233874690704,12974.400089178129,,,,,39360.0,39387.0,39472.0,39491.0,39500.0,39521.0,39528.0,39543.0,39730.0,39809.0,0.04282348791758046,-0.11849842978197055,0.05718389287286488,-0.12258465931806473,0.007761045814128045
39,39,40483.74732256924,2575.0134164860106,8.932031881206672,40596.972626301,-13310.611907991364,11.580849912244132,40619.02794359289,45063.32937005641,9.896952079443023,40641.85747732336,-16998.726522715646,8.42243815083778,40876.669810316605,12184.77313840638,33.45108760984545,0.9680891022200748,110.0,85.0,71.0,266.0,337.0,25.0,1110.0,1110.0,25.0,12.0,13.0,0.48,118.460330650269,2353.5705557306037,21.0,17.0,4.0,0.8095238095238095,1524.646714544636,6659.470613704765,19.0,9.0,10.0,0.4736842105263157,2611.780198287152,44039.16309541161,17.0,6.0,11.0,0.3529411764705882,1769.7528933012138,28484.57997031777,83.0,41.0,42.0,0.4939759036144578,92.91017051151644,13002.322058781609,,,,,40472.0,40497.0,40582.0,40601.0,40610.0,40629.0,40638.0,40653.0,40838.0,40919.0,0.04600377221021464,-0.11454369829754225,0.05795799455560473,-0.10411091036356561,0.007625104665975583
40,40,41407.76461087006,2178.0959209138164,8.424429609144507,41522.972626301,-12594.371957448084,11.907763001406332,41545.832804296726,45158.06699444584,9.695059464108525,41568.757789299634,-17353.344431622394,8.458356984429832,41801.50583019739,12129.015344338304,31.403219116922426,0.9666535860465596,112.0,89.0,73.0,260.0,333.0,23.0,924.0,926.0,23.0,12.0,11.0,0.5217391304347826,106.11549356216186,1978.1142711561115,19.0,15.0,4.0,0.7894736842105263,1443.7545774927964,4909.193041529784,21.0,10.0,11.0,0.4761904761904761,2645.944521459812,39720.59821437075,17.0,5.0,12.0,0.2941176470588235,1857.1769831029435,31551.473728884623,79.0,40.0,39.0,0.5063291139240507,90.06032465381377,12689.740089368352,,,,,41396.0,41419.0,41508.0,41527.0,41536.0,41557.0,41564.0,41581.0,41764.0,41841.0,0.048719384919302035,-0.11463490060248586,0.05859295354217103,-0.10702127134171754,0.00742519669544758
41,41,42394.34533672986,2501.0679158313333,9.05795292167978,42508.972626301,-13300.403430149128,11.408738020832262,42531.15099155294,46879.38270356389,9.835359209708042,42554.099240168245,-16087.855233035983,7.750687104686268,42788.261468661,12148.470943895574,32.709973075071886,0.9719620863485436,112.0,87.0,71.0,264.0,335.0,25.0,986.0,986.0,25.0,12.0,13.0,0.48,115.85635945370665,2410.467461751417,19.0,15.0,4.0,0.7894736842105263,1560.3339083596811,7099.76246950871,19.0,9.0,10.0,0.4736842105263157,2679.576217256697,47372.71613334274,15.0,4.0,11.0,0.2666666666666666,1824.74391653872,28150.773594943228,81.0,40.0,41.0,0.4938271604938271,90.80480878117513,12759.055065015596,,,,,42382.0,42407.0,42494.0,42513.0,42522.0,42541.0,42550.0,42565.0,42750.0,42829.0,0.04632275625957842,-0.11731478045415847,0.05715894840596928,-0.11342369073483809,0.007474587476937021
42,42,43398.72086463438,2287.5275331420435,8.025478934801106,43512.972626301,-13713.76359195259,12.351282752529684,43534.26212883931,45739.70918314779,9.93621790455437,43557.07810833581,-17378.43052061089,8.527049063222814,43791.10949479597,12032.56116785456,32.61553243432184,0.9654745914721424,110.0,87.0,71.0,262.0,333.0,23.0,1006.0,1004.0,23.0,11.0,12.0,0.4782608695652174,117.36257951166138,2193.148187612599,21.0,17.0,4.0,0.8095238095238095,1569.575497552932,8307.54487826417,21.0,10.0,11.0,0.4761904761904761,2625.402005260233,41024.15232199019,17.0,5.0,12.0,0.2941176470588235,1890.0349189579404,31961.886157293105,83.0,41.0,42.0,0.4939759036144578,93.82052223135324,12764.350342732216,,,,,43388.0,43411.0,43498.0,43517.0,43524.0,43545.0,43552.0,43569.0,43752.0,43831.0,0.05130542815826024,-0.11445257073513931,0.05739874721869743,-0.10875751505386813,0.0077972196378272565
43,43,44286.52973285572,2405.7362611540834,9.275991237020898,44402.972626301,-12728.375931347176,11.444829022830731,44425.40379063977,44673.99290387369,9.819172548132492,44448.07876453749,-17742.222941451404,8.526426640168824,44679.01930253115,12173.462638924051,32.27603244452144,0.965381632966545,114.0,89.0,71.0,260.0,331.0,25.0,888.0,890.0,25.0,13.0,12.0,0.52,105.35438955555082,2297.8792954447617,19.0,15.0,4.0,0.7894736842105263,1476.5677757804735,6040.624343187993,19.0,9.0,10.0,0.4736842105263157,2611.232432791627,44179.613735925195,19.0,6.0,13.0,0.3157894736842105,1820.016304172447,29565.702594763112,81.0,39.0,42.0,0.4814814814814814,95.0157906616996,12996.028941677792,,,,,44274.0,44299.0,44388.0,44407.0,44416.0,44435.0,44444.0,44459.0,44642.0,44719.0,0.04379299229792133,-0.11600598408977013,0.05845084047916404,-0.10258107510983404,0.00780515729007877
44,44,45258.473267634196,2724.534510814292,10.03444092760752,45372.97262629636,-12667.313788880176,10.820685162267951,45395.71992113282,46785.23817466439,9.673957054729836,45419.027373699,-15495.484543544377,7.387091259708788,45652.04104806772,12385.723829129362,33.511232591771495,0.9739203366285372,114.0,89.0,69.0,264.0,333.0,25.0,970.0,970.0,25.0,12.0,13.0,0.48,114.00429778732246,2657.7110338914526,19.0,15.0,4.0,0.7894736842105263,1515.6410501022306,6061.487837361719,21.0,10.0,11.0,0.4761904761904761,2692.6737605867147,43106.50989431885,15.0,5.0,10.0,0.3333333333333333,1878.5364535747185,29993.726294410066,81.0,40.0,41.0,0.4938271604938271,93.19300006149982,13122.64091367048,,,,,45246.0,45271.0,45360.0,45377.0,45386.0,45407.0,45414.0,45429.0,45614.0,45693.0,0.041843587348522726,-0.11964975963828375,0.05755391798015637,-0.12123121728112346,0.007524227194725905
45,45,46418.30026354384,2834.206008592285,9.700482763882007,46530.972626301,-12559.67212388473,10.612426866215648,46554.21490793644,45360.69994015868,9.700987443120162,46577.07774753795,-15273.32218499714,7.622486457203021,46813.00832673153,12431.58472205141,34.046539449787495,0.973261844453972,112.0,87.0,69.0,268.0,337.0,25.0,1160.0,1160.0,25.0,12.0,13.0,0.48,123.96241192461206,2740.8087226951493,19.0,15.0,4.0,0.7894736842105263,1446.978357587392,4679.707111456959,21.0,10.0,11.0,0.4761904761904761,2632.4259980206134,42842.489358317995,15.0,5.0,10.0,0.3333333333333333,1855.1041263383536,29819.610903564775,83.0,41.0,42.0,0.4939759036144578,94.67880085016186,13350.69672406428,,,,,46406.0,46431.0,46518.0,46535.0,46544.0,46565.0,46572.0,46587.0,46774.0,46855.0,0.04373796807599835,-0.11520829073520743,0.058033187351460534,-0.12146041993146765,0.007615988063228865
46,46,47413.74036966849,2479.670620708046,9.466855571019137,47526.972626301,-12619.135481836023,10.760505761441394,47550.145533433264,43592.8064476884,9.74968865540009,47572.72502095753,-17741.863343339788,8.635975167160945,47803.7339916572,12314.471867262886,34.339069747262066,0.9599917436551622,112.0,87.0,71.0,262.0,333.0,25.0,996.0,994.0,25.0,12.0,13.0,0.48,108.05901820165494,2288.2465703629296,19.0,15.0,4.0,0.7894736842105263,1419.0600780646253,4091.033406676608,21.0,10.0,11.0,0.4761904761904761,2605.188957047146,39039.80445291845,17.0,5.0,12.0,0.2941176470588235,1852.935774795263,31715.986946845707,87.0,44.0,43.0,0.5057471264367817,92.19826213400955,12995.45546964388,,,,,47402.0,47427.0,47514.0,47531.0,47540.0,47561.0,47568.0,47585.0,47764.0,47847.0,0.04357797253362615,-0.1124530345289675,0.059761900399172195,-0.10443862287389595,0.007486984673627119
47,47,48330.5104638061,2407.748686208228,9.629530351604604,48446.972626301,-13312.012238354955,11.432225756878177,48468.86718762122,47156.866050480035,9.936549179928717,48491.808441628025,-16565.212176928504,7.873147302002591,48723.88069255196,12306.798665507826,32.73805900514763,0.9693766270520294,114.0,89.0,71.0,262.0,333.0,25.0,918.0,920.0,25.0,13.0,12.0,0.52,103.36683435543628,2326.448707383169,21.0,17.0,4.0,0.8095238095238095,1580.6630740158337,8242.357074732543,21.0,11.0,10.0,0.5238095238095238,2690.1800050321212,46497.58718135235,15.0,4.0,11.0,0.2666666666666666,1820.2970041619903,28273.338658673976,83.0,42.0,41.0,0.5060240963855421,98.29104733742784,13026.654311818078,,,,,48318.0,48343.0,48432.0,48451.0,48458.0,48479.0,48488.0,48503.0,48686.0,48765.0,0.04293090676262418,-0.11873960493076934,0.05704747219953851,-0.10988673037929701,0.007986727499890564
48,48,49262.879716449504,2202.2165740956366,8.140487515591973,49378.972626301,-12981.587879266115,11.907169435458329,49401.44414885692,46691.34342386733,9.69990060388319,49424.58624539975,-16276.964646222532,7.861751894834829,49657.0617787783,12118.518642689907,31.365699178312756,0.9691324218992672,112.0,89.0,71.0,262.0,333.0,23.0,932.0,932.0,23.0,11.0,12.0,0.4782608695652174,110.262021483356,2117.7452783194603,19.0,15.0,4.0,0.7894736842105263,1517.342030058193,6037.263235226394,21.0,9.0,12.0,0.4285714285714285,2661.34620417532,47628.95168162723,15.0,5.0,10.0,0.3333333333333333,1846.005327322392,30205.89064350386,79.0,39.0,40.0,0.4936708860759494,95.32375987846972,12904.308316292248,,,,,49252.0,49275.0,49364.0,49383.0,49392.0,49413.0,49420.0,49435.0,49620.0,49697.0,0.050068654818219344,-0.11688416272108404,0.05699870701974519,-0.11341213595071627,0.007865958100082686
49,49,50415.37349134921,2484.728331157973,8.042294209884808,50528.12330450065,-13478.90508404624,11.785483341962554,50550.17328995871,44665.45140742274,9.86486079340827,50572.99362823349,-16947.835276189235,8.429317895497087,50808.40302860963,12052.502734194622,33.22068796470007,0.9665831428470496,110.0,87.0,71.0,264.0,335.0,23.0,1152.0,1150.0,23.0,11.0,12.0,0.4782608695652174,128.5899230307024,2509.1357127228935,21.0,16.0,5.0,0.7619047619047619,1580.944537295495,6765.904938116115,21.0,10.0,11.0,0.4761904761904761,2600.7177526199107,40477.158685307775,17.0,5.0,12.0,0.2941176470588235,1853.6550654595876,31232.339431253673,85.0,42.0,43.0,0.4941176470588235,88.59590157387744,12569.4434688602,,,,,50404.0,50427.0,50514.0,50531.0,50540.0,50561.0,50568.0,50585.0,50770.0,50849.0,0.051752105619842496,-0.11729027895349718,0.05822660850098808,-0.10937414927934011,0.0073508302406369574
50,50,51395.078766807754,2488.845218720061,9.529597132459113,51510.972626300994,-13234.941151271343,11.85672800883035,51532.86745573461,45659.43387890525,9.92968857362679,51555.64017602771,-17440.37899287887,8.464266374192755,51789.18863939607,12283.2817797614,32.008253616588824,0.96824602279583,114.0,89.0,71.0,262.0,333.0,25.0,980.0,982.0,25.0,13.0,12.0,0.52,109.48649480465257,2515.735760363577,21.0,17.0,4.0,0.8095238095238095,1535.0709996789433,7426.590020185336,21.0,11.0,10.0,0.5238095238095238,2633.4151140049967,43693.25783640929,17.0,6.0,11.0,0.3529411764705882,1782.9161111763867,28774.088165814806,79.0,39.0,40.0,0.4936708860759494,94.1448058433678,13072.963211668142,,,,,51382.0,51407.0,51496.0,51515.0,51522.0,51543.0,51550.0,51567.0,51752.0,51829.0,0.04399088138592974,-0.11598623538507272,0.05767515911364902,-0.10222920682540067,0.00766446683641874
51,51,52449.52842807923,2552.70363405428,9.173559810658867,52562.972626301,-12825.140988620782,11.10842614172484,52586.024696419074,46535.58577668286,9.73009761467712,52609.02737371977,-15691.480095797668,7.601198723048933,52844.23231566414,12233.12498656008,32.29868785920745,0.972874574593529,112.0,89.0,69.0,266.0,335.0,23.0,1054.0,1054.0,23.0,12.0,11.0,0.5217391304347826,116.6736309397296,2334.9566458445233,19.0,15.0,4.0,0.7894736842105263,1485.5063998046942,5191.715229146861,21.0,10.0,11.0,0.4761904761904761,2677.0779274198003,43321.646544264586,15.0,5.0,10.0,0.3333333333333333,1890.2249495066744,30370.13055199675,81.0,40.0,41.0,0.4938271604938271,92.8018758651818,12882.949712404725,,,,,52438.0,52461.0,52550.0,52567.0,52576.0,52597.0,52604.0,52619.0,52806.0,52885.0,0.04570590544991119,-0.11582768572468113,0.05752754333568909,-0.12046186452563486,0.007586113602790665
52,52,53550.23957380262,2417.1304404988787,8.155373347342579,53662.972626301,-12887.754685335996,11.50553731038296,53685.86815127617,44444.19569789193,9.72605734082997,53708.81619789459,-16716.710519956083,8.300451290508347,53943.2180448305,12419.383469161405,33.392203136814494,0.9649490902570476,110.0,87.0,73.0,264.0,337.0,23.0,1100.0,1098.0,23.0,12.0,11.0,0.5217391304347826,122.57999834117209,2267.704636844759,19.0,15.0,4.0,0.7894736842105263,1445.6033728730945,4449.594246103411,21.0,10.0,11.0,0.4761904761904761,2606.837872523799,39802.78738396333,17.0,5.0,12.0,0.2941176470588235,1828.2072681431537,30715.07134989451,83.0,41.0,42.0,0.4939759036144578,91.86741448178734,13200.992991537882,,,,,53538.0,53561.0,53648.0,53667.0,53676.0,53697.0,53704.0,53721.0,53904.0,53985.0,0.05071302577939171,-0.11216875306588024,0.05865418040735173,-0.10936405616168776,0.007397099438140669
53,53,54493.033781134254,2284.7411875241883,9.23702510673888,54608.1233045007,-12978.753690044,11.75199999784192,54630.34186122016,45651.3789579236,9.852189296038446,54653.206933029425,-17330.526035149534,8.317660321645356,54886.25639746691,12349.6945705887,31.60857236574267,0.9674779580257596,114.0,89.0,71.0,260.0,331.0,25.0,944.0,946.0,25.0,13.0,12.0,0.52,100.71718027769047,2257.717191093084,21.0,16.0,5.0,0.7619047619047619,1578.3436685454467,7377.857850948083,21.0,10.0,11.0,0.4761904761904761,2648.433665943303,41751.54721361302,17.0,5.0,12.0,0.2941176470588235,1920.1518717780575,32214.32227515596,81.0,40.0,41.0,0.4938271604938271,93.5080965617702,12906.04888797408,,,,,54480.0,54505.0,54594.0,54611.0,54620.0,54641.0,54648.0,54665.0,54848.0,54925.0,0.04408253364873705,-0.12160980216121936,0.05801431909393879,-0.1107959370583231,0.007571693050973385
54,54,55443.35393906026,2323.2313665016854,8.81583193082711,55558.972626301,-13261.246002821335,11.61102259886466,55580.83980915406,47071.37827274938,9.869258947018396,55603.83426567199,-16340.344181700752,7.794162336327331,55836.40607281122,12525.960751083205,32.70504588328899,0.9697139752386248,112.0,89.0,71.0,262.0,333.0,23.0,950.0,950.0,23.0,11.0,12.0,0.4782608695652174,108.26109235531736,2343.171401295881,21.0,17.0,4.0,0.8095238095238095,1575.131831523025,8033.355746675141,21.0,11.0,10.0,0.5238095238095238,2686.8210430266595,46381.34369959417,15.0,4.0,11.0,0.2666666666666666,1811.1802977965297,28041.871031135262,83.0,42.0,41.0,0.5060240963855421,99.42049616893632,13253.651582930686,,,,,55432.0,55455.0,55544.0,55563.0,55570.0,55591.0,55600.0,55615.0,55798.0,55877.0,0.04659935894302967,-0.11877706146073416,0.05707971896336244,-0.11084101275081078,0.007937155332403445
55,55,56336.447627616115,2139.4950996428397,7.647152464921939,56452.972626301,-13281.719012152673,12.982722492009472,56474.39586273688,45722.44444987566,9.852136382698452,56497.300454083714,-18370.533705393693,9.03681006046958,56727.837916758166,12460.517507889152,31.671106789901405,0.9610531541240578,112.0,91.0,71.0,258.0,329.0,21.0,894.0,894.0,21.0,10.0,11.0,0.4761904761904761,113.79564128092882,1977.0231426910436,21.0,17.0,4.0,0.8095238095238095,1543.5971415096312,7906.530094018319,21.0,10.0,11.0,0.4761904761904761,2622.7214740879726,40011.13892433368,17.0,5.0,12.0,0.2941176470588235,1908.9337174116756,33363.07450824252,81.0,40.0,41.0,0.4938271604938271,99.33343411532356,13214.62766442053,,,,,56326.0,56347.0,56438.0,56457.0,56464.0,56485.0,56492.0,56509.0,56690.0,56767.0,0.053188082225533256,-0.11621968060740116,0.05736179475187935,-0.10391280667317802,0.007971854624210623
56,56,57199.101465223466,2404.173239102616,9.421310460828265,57316.972626301,-13028.79406954752,12.309570909729228,57338.8922480515,44703.34245142267,9.907292153376988,57361.69150587131,-18464.131227724676,8.822239085977223,57592.09280139669,12066.209958724565,30.36849279343923,0.9677575038159876,116.0,89.0,71.0,258.0,329.0,27.0,862.0,864.0,27.0,13.0,14.0,0.4814814814814814,101.59070542427098,2367.670667831249,21.0,17.0,4.0,0.8095238095238095,1494.2286520280602,6944.011694009783,21.0,11.0,10.0,0.5238095238095238,2592.8890080889387,41699.598270272225,17.0,6.0,11.0,0.3529411764705882,1785.2063643541549,29609.221047007097,77.0,38.0,39.0,0.4935064935064935,95.72338057436306,12633.59681611866,,,,,57186.0,57213.0,57302.0,57321.0,57328.0,57349.0,57356.0,57373.0,57556.0,57631.0,0.04225598379182975,-0.11468664283523775,0.058002128384617484,-0.09668509946861685,0.00793317710381374
57,57,58487.841737197006,1197.990681788002,9.44108528649941,58594.972626301,-12996.67043863524,10.722093508284797,58618.3003278282,47274.685078153016,9.778789053108303,58641.45203459914,-14827.816311028895,7.269370773877576,58879.095548869875,12342.604623552432,32.68252174666243,0.97500263371331,110.0,79.0,69.0,268.0,337.0,31.0,1288.0,1280.0,31.0,16.0,15.0,0.5161290322580645,40.299353871743385,982.8495404001038,19.0,15.0,4.0,0.7894736842105263,1499.844182873298,5002.692998292796,21.0,10.0,11.0,0.4761904761904761,2685.5207668128937,45472.91255906452,17.0,5.0,12.0,0.2941176470588235,1913.8520562531055,30060.5814021929,83.0,41.0,42.0,0.4939759036144578,97.95373324114831,13223.30225469015,,,,,58472.0,58503.0,58582.0,58599.0,58608.0,58629.0,58638.0,58651.0,58840.0,58919.0,0.03363912130902101,-0.11540218627185521,0.056806740486441645,-0.1290717403094336,0.007936228715795596
58,58,59682.100735411506,1403.457250392948,8.882430382514553,59792.972626301,-12550.112157214437,11.738241042167282,59815.34020312066,44609.82371930821,9.626973464625223,59839.027373699,-16479.117360242173,7.988130756406195,60072.704331954905,12448.452706095268,33.86565750798845,0.9651795493487046,110.0,83.0,71.0,266.0,337.0,27.0,1194.0,1196.0,27.0,14.0,13.0,0.5185185185185185,55.02992027713705,1201.6167295052132,19.0,15.0,4.0,0.7894736842105263,1466.6560711357115,5664.635881367817,21.0,9.0,12.0,0.4285714285714285,2569.559918467019,45193.828888449745,15.0,5.0,10.0,0.3333333333333333,1805.4283098543376,30239.724449758352,85.0,43.0,42.0,0.5058823529411764,94.42550332444874,13321.74178915343,,,,,59668.0,59695.0,59778.0,59797.0,59806.0,59827.0,59834.0,59849.0,60034.0,60115.0,0.039210257570531246,-0.11686398119498906,0.0576007637832214,-0.1095585564679664,0.007585320485510153
59,59,60705.86441848632,1150.014785979548,8.629619518725773,60818.972626301,-13060.08147462665,11.655686697700832,60841.02142377358,46371.976463567305,9.885930016809606,60864.01301204628,-16836.502678607,8.01637843523927,61098.134129119426,12581.097543219448,31.447110224853716,0.9668887118334786,112.0,85.0,71.0,262.0,333.0,27.0,1026.0,1026.0,27.0,14.0,13.0,0.5185185185185185,47.37472459304441,948.3219887874556,21.0,17.0,4.0,0.8095238095238095,1540.1896377992384,7552.469969289608,19.0,9.0,10.0,0.4736842105263157,2654.732362612237,45809.522441517525,15.0,4.0,11.0,0.2666666666666666,1821.182794673268,28641.636808810446,81.0,40.0,41.0,0.4938271604938271,97.60565926191732,13236.041301761314,,,,,60692.0,60719.0,60804.0,60823.0,60832.0,60851.0,60860.0,60875.0,61060.0,61137.0,0.04119488303160559,-0.11793108954117516,0.05724863516865534,-0.10816871112949848,0.007758119585879982
60,60,61957.469697991546,1230.206585081833,9.671343261936643,62066.972626301,-13016.695959895122,10.726634698210487,62090.43910138098,46504.80687470052,9.762780079751906,62113.43702326406,-15214.852283492764,7.609193976109541,62351.22619600416,12560.375644453616,32.99387799475795,0.9714196057281442,112.0,81.0,71.0,266.0,337.0,31.0,1252.0,1250.0,31.0,15.0,16.0,0.4838709677419355,39.48001755947184,1141.233408963174,19.0,15.0,4.0,0.7894736842105263,1472.2916443724412,4326.927558455776,21.0,10.0,11.0,0.4761904761904761,2672.5822840014825,44708.13834051744,17.0,5.0,12.0,0.2941176470588235,1900.972632322628,30477.14254637806,83.0,41.0,42.0,0.4939759036144578,99.16536829914304,13500.080579966309,,,,,61942.0,61973.0,62054.0,62071.0,62080.0,62101.0,62108.0,62125.0,62312.0,62391.0,0.032092185197371254,-0.11310793836689596,0.057468947053200575,-0.12494190524511851,0.007895095744443938
61,61,63163.63772279927,1245.9845792140509,8.617809784798665,63272.972626301,-12418.350280812012,11.272273479535134,63295.93113167738,43508.78597762893,9.689574376218571,63318.92635271533,-16806.53263011459,8.272832898347094,63554.38936973012,12428.378431830995,33.5477176616952,0.9586317152723092,110.0,83.0,71.0,266.0,337.0,27.0,1206.0,1204.0,27.0,14.0,13.0,0.5185185185185185,51.09048238581516,1000.6872605954472,19.0,15.0,4.0,0.7894736842105263,1411.5728176852083,4377.261313494653,21.0,10.0,11.0,0.4761904761904761,2568.04753520632,39073.6857487344,17.0,5.0,12.0,0.2941176470588235,1823.5344282586043,30687.51852211772,85.0,42.0,43.0,0.4941176470588235,88.8833276397522,12978.670868583838,,,,,63150.0,63177.0,63260.0,63277.0,63286.0,63307.0,63314.0,63331.0,63514.0,63597.0,0.04100410489674142,-0.1136683042244568,0.05902365413107003,-0.1085015254717755,0.007151643163045975
62,62,64217.08591459636,1255.5545935090315,9.02121949000867,64326.12330450071,-12966.501966007649,11.65821485964485,64348.474740015845,45853.515926233464,9.825603978207576,64371.50410526971,-16428.49880967575,7.92346901928676,64607.54860565799,12572.86669760864,32.03738518183614,0.966236644980198,110.0,81.0,71.0,264.0,335.0,29.0,1054.0,1054.0,29.0,15.0,14.0,0.5172413793103449,48.89319754839421,1146.512063544421,21.0,16.0,5.0,0.7619047619047619,1579.4094879941315,7145.837290633098,21.0,10.0,11.0,0.4761904761904761,2641.4497772007117,43044.61297951275,17.0,6.0,11.0,0.3529411764705882,1750.839182130533,27462.99508576429,81.0,40.0,41.0,0.4938271604938271,92.57172456660616,13155.444984907916,,,,,64202.0,64231.0,64312.0,64329.0,64338.0,64359.0,64366.0,64383.0,64570.0,64647.0,0.03894151461128202,-0.12180690614435834,0.05760626472897141,-0.1065732908657093,0.007362817628871648
63,63,65377.66345483739,1332.0844232206414,10.43006409985982,65484.51019313503,-12466.941110749747,10.606680783522918,65507.584070446916,45743.43399389054,9.599836368425992,65531.027373699,-14860.93356562518,7.298305492581592,65768.2877949078,12674.872511978832,33.36142845837202,0.97069040698593,112.0,79.0,69.0,268.0,337.0,33.0,1160.0,1158.0,33.0,18.0,15.0,0.5454545454545454,39.215262700172765,1084.1354004923694,19.0,15.0,4.0,0.7894736842105263,1513.5769155776848,6228.914929022897,21.0,10.0,11.0,0.4761904761904761,2644.073198249717,42029.567045669,15.0,5.0,10.0,0.3333333333333333,1817.110659443823,28945.18290111864,85.0,42.0,43.0,0.4941176470588235,94.336842149069,13350.737570593694,,,,,65360.0,65393.0,65472.0,65489.0,65498.0,65519.0,65526.0,65541.0,65730.0,65809.0,0.029439022044383818,-0.12140724032718721,0.05780224542396308,-0.12227432761337288,0.007442823749107746
64,64,66469.6921801764,1488.486132196634,8.969340954225459,66578.12330450071,-13287.291285739291,11.740921828884634,66600.15462898985,45038.042778640374,9.899621066027247,66622.8602280706,-17248.968431138248,8.562574057447721,66858.96954326465,12530.060682607706,33.45044011891054,0.9626223302583918,108.0,81.0,71.0,266.0,337.0,27.0,1092.0,1094.0,27.0,14.0,13.0,0.5185185185185185,65.4525036016221,1262.1312345208987,21.0,16.0,5.0,0.7619047619047619,1583.0211244003792,7277.671178901535,21.0,10.0,11.0,0.4761904761904761,2615.9435324585165,40486.020899495576,17.0,5.0,12.0,0.2941176470588235,1862.6575431342192,31542.405622740465,83.0,41.0,42.0,0.4939759036144578,96.13840965272296,13350.125279153828,,,,,66456.0,66483.0,66564.0,66581.0,66590.0,66611.0,66618.0,66635.0,66820.0,66901.0,0.043972531678901534,-0.1191379860919713,0.058082975437359526,-0.10798660514513468,0.007672621233683843
65,65,67389.79643406394,2219.0907368135527,8.523626255576685,67504.972626301,-12634.546100439236,11.616463265176227,67527.86630410918,45162.39810646462,9.765707807046184,67550.66691060067,-17427.749342876585,8.50163024434602,67784.64377845291,12333.26049443607,31.778998518143307,0.9646502509677004,112.0,89.0,73.0,262.0,335.0,23.0,918.0,926.0,23.0,12.0,11.0,0.5217391304347826,106.74752257617082,2018.77367339534,19.0,15.0,4.0,0.7894736842105263,1450.6435808253516,5104.217298658545,21.0,10.0,11.0,0.4761904761904761,2645.930204806227,39835.8626493,17.0,5.0,12.0,0.2941176470588235,1859.609620094216,31551.660875798814,79.0,39.0,40.0,0.4936708860759494,97.84076522922024,13188.529493068256,,,,,67378.0,67401.0,67490.0,67509.0,67518.0,67539.0,67546.0,67563.0,67746.0,67825.0,0.048104172040054675,-0.1148156466637864,0.058587017424734225,-0.1067039457309106,0.00793308187022883
66,66,68351.95187112597,2390.0574770553226,8.819973773364953,68468.972626301,-13578.498424483456,11.661605260591196,68490.51028811105,47603.67352454085,9.987169658728988,68513.45203478858,-16558.736034897713,7.953956392002016,68749.17183887171,12468.123370339245,31.866741859593695,0.9702605811229168,114.0,89.0,71.0,264.0,335.0,25.0,962.0,964.0,25.0,12.0,13.0,0.48,112.43914123469747,2209.018967489308,21.0,17.0,4.0,0.8095238095238095,1611.5325340740994,9161.145568964574,21.0,11.0,10.0,0.5238095238095238,2701.659617274262,45613.263097705334,17.0,5.0,12.0,0.2941176470588235,1960.3606715082235,32021.119687021775,79.0,39.0,40.0,0.4936708860759494,97.08080008364011,13287.70569931858,,,,,68340.0,68365.0,68454.0,68473.0,68480.0,68501.0,68510.0,68525.0,68712.0,68789.0,0.047044534415644455,-0.11868267636783293,0.05675317506497667,-0.1183883037555972,0.007786320138168367
67,67,69521.18297903311,2155.4836712622764,7.458714331108515,69634.972626301,-13960.484482887765,12.917073691784744,69656.105501882,45885.8305403304,9.899900607198198,69679.29450373942,-17049.797118209164,8.61191347408605,69916.52901120085,12088.809759453625,32.60540976360982,0.9617803106624626,110.0,87.0,71.0,266.0,337.0,23.0,1170.0,1166.0,23.0,11.0,12.0,0.4782608695652174,118.76869752575568,2111.7578515212667,21.0,17.0,4.0,0.8095238095238095,1583.106467051403,8165.444642471809,21.0,10.0,11.0,0.4761904761904761,2598.541773375627,40644.14530952813,17.0,5.0,12.0,0.2941176470588235,1861.4023974943395,31723.612426263804,83.0,41.0,42.0,0.4939759036144578,86.37596212706927,12798.27011341482,,,,,69510.0,69533.0,69620.0,69639.0,69646.0,69667.0,69674.0,69691.0,69878.0,69957.0,0.055100717815321394,-0.11339910652756464,0.05663059255496515,-0.10917446023485898,0.007145117165858451
68,68,70472.60707636854,2380.5163616980353,9.265078558106818,70588.972626301,-13044.45631045404,11.918141499385165,70611.33222964455,45203.15086400571,9.926480044485432,70633.95448586807,-18127.837615150165,8.861349612966453,70868.497143989,12242.05386389278,31.14522425511089,0.9655191173450935,114.0,89.0,71.0,264.0,335.0,25.0,952.0,954.0,25.0,13.0,12.0,0.52,105.66631534801394,2305.766473521754,21.0,17.0,4.0,0.8095238095238095,1493.3891021132783,6282.879819460248,19.0,9.0,10.0,0.4736842105263157,2612.5111014123963,43821.84662841524,19.0,6.0,13.0,0.3157894736842105,1814.444046280811,29911.98741193288,81.0,40.0,41.0,0.4938271604938271,91.04455797597754,12703.95280279358,,,,,70460.0,70485.0,70574.0,70593.0,70602.0,70621.0,70630.0,70645.0,70830.0,70909.0,0.04438798113222863,-0.11448458000633203,0.057794889326900495,-0.10009158757933749,0.007437032951187066
69,69,71464.7250928472,2729.1496344850048,10.576013319230675,71580.972626301,-13531.728913632176,11.334029128123465,71602.79546728493,48154.41599672592,10.018079746289736,71625.71254295789,-16213.851791476078,7.656684543607814,71861.16119848391,12613.9123118426,32.78770701070811,0.9735344047120952,114.0,87.0,71.0,264.0,335.0,27.0,992.0,992.0,27.0,13.0,14.0,0.4814814814814814,110.56014409950863,2722.428131834079,21.0,17.0,4.0,0.8095238095238095,1614.7079840469985,8991.85494149573,21.0,11.0,10.0,0.5238095238095238,2717.070488025388,47706.93525103736,15.0,4.0,11.0,0.2666666666666666,1832.7041204549105,27911.81943508031,81.0,39.0,42.0,0.4814814814814814,98.0739968886506,13539.002878064246,,,,,71452.0,71479.0,71566.0,71585.0,71592.0,71613.0,71622.0,71637.0,71824.0,71901.0,0.040510839970990274,-0.11932754449583337,0.056424118780926034,-0.11303323504032503,0.007775065694453386
70,70,72618.29866547877,2491.026404020171,8.88035876257218,72730.972626301,-13293.98691340136,11.4958343414486,72753.67098039713,44957.05787804702,9.81832024542904,72776.60271280212,-16870.860645687146,8.463043913040917,73014.0388600546,12300.230989699536,32.6001524048322,0.9687232051332668,110.0,85.0,73.0,266.0,339.0,25.0,1152.0,1150.0,25.0,12.0,13.0,0.48,114.3590781343546,2370.8007771124694,19.0,15.0,4.0,0.7894736842105263,1485.1010253355705,4944.865881632933,21.0,10.0,11.0,0.4761904761904761,2629.304372040546,39687.878667712415,17.0,5.0,12.0,0.2941176470588235,1815.0344748050288,30673.54729166359,82.0,40.0,42.0,0.4878048780487805,87.58773670877775,12827.424064629718,,,,,72606.0,72631.0,72716.0,72735.0,72744.0,72765.0,72772.0,72789.0,72976.0,73055.0,0.045908416687111354,-0.1117122376462154,0.05848479629545468,-0.1075839883289548,0.007120820477446766
71,71,73545.65750974667,2417.0877323368295,10.727805816212834,73662.972626301,-13277.406433799886,12.00981071656238,73684.3924383861,44760.55607358452,10.0812138071878,73707.10781448374,-18231.767253688977,8.730284874188515,73940.06451744608,12035.860423227608,32.04584815061701,0.9642709342402253,116.0,87.0,71.0,262.0,333.0,29.0,928.0,932.0,29.0,14.0,15.0,0.4827586206896552,90.94811955582458,2263.2065563818614,21.0,17.0,4.0,0.8095238095238095,1526.732148645991,8549.80370337145,21.0,10.0,11.0,0.4761904761904761,2576.8351166652765,39992.54380259944,17.0,5.0,12.0,0.2941176470588235,1900.0578959824352,32581.29119882513,81.0,40.0,41.0,0.4938271604938271,88.87289908766373,12624.845265132066,,,,,73532.0,73561.0,73648.0,73667.0,73674.0,73695.0,73702.0,73719.0,73902.0,73981.0,0.03762714871251129,-0.11498722708069219,0.05756932761132514,-0.10421687977603934,0.0073840087839628695
72,72,74454.33813180786,2654.2077903285312,10.919427861619736,74570.972626301,-12751.888902361408,10.499841843343464,74594.33614545203,47270.653222805595,9.758737772776076,74617.28029848303,-15933.498818486132,7.567090674942405,74850.78957359458,12583.542213720546,32.846521013804086,0.97252230768167,118.0,89.0,69.0,264.0,333.0,29.0,910.0,910.0,29.0,14.0,15.0,0.4827586206896552,105.24862910685296,2601.4270297778194,19.0,15.0,4.0,0.7894736842105263,1493.0674038725492,5181.325891211479,21.0,10.0,11.0,0.4761904761904761,2723.58199354055,44985.21854901369,17.0,5.0,12.0,0.2941176470588235,1952.263607712531,31248.559379085316,81.0,41.0,40.0,0.5061728395061729,101.84716605094296,13582.776614556684,,,,,74440.0,74469.0,74558.0,74575.0,74584.0,74605.0,74612.0,74627.0,74812.0,74891.0,0.03965350018576562,-0.11708597959915268,0.05761676236423501,-0.12252573210395598,0.008093680167408922
73,73,75380.9249819942,2290.071342242992,8.15220683462063,75498.972626301,-13440.728477890918,12.11100297136697,75520.4503320239,47593.599147156325,9.889428841263827,75543.55428864749,-16466.29582852127,7.898881108602675,75778.09644502203,12390.519954464093,31.342691607236553,0.9687438317165696,114.0,91.0,71.0,262.0,333.0,23.0,926.0,926.0,23.0,11.0,12.0,0.4782608695652174,114.83129950561882,2220.1341036089293,21.0,17.0,4.0,0.8095238095238095,1599.6408370960478,8984.806757842143,21.0,10.0,11.0,0.4761904761904761,2695.5734822307486,44452.1456498248,17.0,6.0,11.0,0.3529411764705882,1781.6494313081732,27827.37903886328,79.0,40.0,39.0,0.5063291139240507,97.63316443355372,13031.15038940162,,,,,75370.0,75393.0,75484.0,75503.0,75510.0,75531.0,75538.0,75555.0,75740.0,75817.0,0.05014311012387423,-0.11901444476966765,0.05663731112026661,-0.10819977060184831,0.007879666454060158
74,74,76534.95613590903,2661.576259921359,9.882053927045805,76648.12330450071,-12882.842114692185,11.280767622433496,76670.37468833468,43622.81141194107,9.900966148922636,76693.29435465454,-17235.497731663996,8.449334770428885,76929.41939877342,12329.100987129072,34.71078919234731,0.9643759743117468,112.0,87.0,71.0,268.0,339.0,25.0,1154.0,1150.0,25.0,13.0,12.0,0.52,114.36315299841992,2664.3670660755506,19.0,14.0,5.0,0.7368421052631579,1539.6393176412546,6722.802813112559,21.0,10.0,11.0,0.4761904761904761,2556.195870635839,40052.02192206771,17.0,5.0,12.0,0.2941176470588235,1865.347811791704,31606.163259611927,87.0,43.0,44.0,0.4942528735632184,93.8507554191697,13158.372759174948,,,,,76522.0,76547.0,76634.0,76651.0,76660.0,76681.0,76688.0,76705.0,76888.0,76973.0,0.042968204488643504,-0.11951084271112655,0.058597687491918966,-0.10822709276128428,0.00761213291359564
75,75,77506.45960464331,2564.383057894096,9.951915420669277,77622.972626301,-13271.077251238212,11.668927532708071,77644.83939559931,46952.11673820927,9.917111236456568,77667.8315531014,-16556.15899126943,7.884400561034367,77902.75522368982,12462.627469524108,32.98078720585886,0.969646243306236,114.0,89.0,71.0,264.0,335.0,25.0,970.0,974.0,25.0,12.0,13.0,0.48,109.2093380511134,2509.3665936430752,21.0,17.0,4.0,0.8095238095238095,1571.7384509639826,8109.233122310603,21.0,11.0,10.0,0.5238095238095238,2674.986514639043,46075.83147952723,15.0,4.0,11.0,0.2666666666666666,1813.3027913114852,28214.57524725703,83.0,41.0,42.0,0.4939759036144578,97.57705703004544,13383.484643969516,,,,,77494.0,77519.0,77608.0,77627.0,77634.0,77655.0,77664.0,77679.0,77864.0,77943.0,0.042586983140029594,-0.11843337365980121,0.05697265002031655,-0.10952436445359671,0.007829573440164096
76,76,78497.6328591989,2589.9981845099874,9.501331176558994,78612.972626301,-13275.5224874133,11.240333412377147,78635.30836496165,47132.45133567231,9.8652610550115,78658.19017334367,-16152.62240242185,7.779994014486835,78893.17497907855,12486.092395906617,33.19493428348863,0.9705718730986554,112.0,87.0,71.0,266.0,337.0,25.0,992.0,990.0,25.0,12.0,13.0,0.48,113.5241159144666,2390.380201638774,19.0,15.0,4.0,0.7894736842105263,1557.5576938787324,7044.4608026027845,21.0,9.0,12.0,0.4285714285714285,2687.117997544386,48120.86863536769,15.0,4.0,11.0,0.2666666666666666,1842.272768863762,28412.499048182977,83.0,41.0,42.0,0.4939759036144578,95.68346892433364,13387.112895595228,,,,,78486.0,78511.0,78598.0,78617.0,78626.0,78647.0,78654.0,78669.0,78854.0,78935.0,0.043831735710635145,-0.11732552864533005,0.057012056903364035,-0.11405409740696594,0.007663203658151855
77,77,79427.18388162694,2183.8845257177995,8.141447198574259,79542.972626301,-13108.475054028044,11.839043755983148,79565.80027273479,44581.64008403329,9.72755559956585,79588.52667870607,-18115.408158729795,8.858055640533106,79821.0867623835,12125.550552963094,32.66373034979723,0.9590420226181824,112.0,89.0,73.0,260.0,333.0,23.0,930.0,930.0,23.0,11.0,12.0,0.4782608695652174,110.1997863019955,2169.072005135955,19.0,15.0,4.0,0.7894736842105263,1458.7869727536283,4262.011284610539,19.0,10.0,9.0,0.5263157894736842,2646.1227858491375,38418.816965813035,17.0,5.0,12.0,0.2941176470588235,1844.334011273724,31953.850541583943,83.0,41.0,42.0,0.4939759036144578,98.58483819759348,13028.998033339336,,,,,79416.0,79439.0,79528.0,79547.0,79556.0,79575.0,79584.0,79601.0,79784.0,79861.0,0.05046044559786192,-0.11128578776257916,0.059354541036654995,-0.101810237733172,0.008130339135281781
78,78,80293.67937502386,1741.1054984606076,7.445913879295778,80412.972626301,-13576.317792339303,13.819682782215317,80434.1625614608,47417.60194861136,9.81755599097572,80457.40783455895,-18017.5084865262,8.702071151610346,80690.58495332744,11757.41666749986,29.887931679880136,0.9620775681606863,114.0,91.0,73.0,260.0,333.0,23.0,866.0,870.0,23.0,12.0,11.0,0.5217391304347826,96.01691247871656,1487.63654641083,23.0,19.0,4.0,0.8260869565217391,1590.0978331120375,8745.4235594934,21.0,10.0,11.0,0.4761904761904761,2663.1356879633067,41123.74919342865,17.0,5.0,12.0,0.2941176470588235,1934.660206107154,33302.27809575914,77.0,39.0,38.0,0.5064935064935064,89.6437351107057,12369.6332225595,,,,,80282.0,80305.0,80396.0,80417.0,80424.0,80445.0,80452.0,80469.0,80654.0,80729.0,0.05514709623489765,-0.11712290898267574,0.05616344096965236,-0.10737667794378596,0.007624441460725052
79,79,81329.002302098,2660.622716498098,9.843521410444955,81444.12330450071,-13302.937306103564,10.947682378573798,81466.67968567873,47138.5950709288,9.88723943800723,81489.55507046402,-15887.7002589134,7.622642891336936,81726.07032019443,12217.572473574524,32.91059306480046,0.973651123807703,114.0,89.0,71.0,266.0,337.0,25.0,1036.0,1032.0,25.0,13.0,12.0,0.52,114.67964045652612,2674.8495754526457,19.0,14.0,5.0,0.7368421052631579,1628.774095581883,7382.922741984922,21.0,11.0,10.0,0.5238095238095238,2701.665537547577,46487.358171402826,15.0,4.0,11.0,0.2666666666666666,1789.7361065932653,27322.571451126256,81.0,40.0,41.0,0.4938271604938271,93.40779122228354,12911.428407487638,,,,,81316.0,81341.0,81430.0,81447.0,81456.0,81477.0,81486.0,81501.0,81688.0,81767.0,0.043102556309624784,-0.12243717745212404,0.057313238408620744,-0.11264916113892431,0.007645364201793435
80,80,82462.36487883827,2487.883044242554,8.579668014317244,82574.972626301,-12761.093284314977,11.650365144157266,82597.49039712574,45033.09203094412,9.632548014312768,82621.027373699,-16139.448664620542,8.071890113178748,82857.1906220401,12137.442202139233,33.29106813794565,0.9700495964341448,110.0,87.0,71.0,268.0,339.0,23.0,1132.0,1130.0,24.0,12.0,12.0,0.5,121.3637867562852,2379.63953586179,19.0,15.0,4.0,0.7894736842105263,1474.1420715333356,5328.226501199227,21.0,9.0,12.0,0.4285714285714285,2588.386163904241,46107.354104762664,15.0,5.0,10.0,0.3333333333333333,1803.2653003032235,30220.738007430708,83.0,41.0,42.0,0.4939759036144578,85.80229403201629,12858.156686076578,,,,,82450.0,82473.0,82560.0,82579.0,82588.0,82609.0,82616.0,82631.0,82818.0,82899.0,0.04878195019542604,-0.11551847782080284,0.05747742487070736,-0.11173029127421066,0.007069223696644551
81,81,83375.24490948785,2338.1393562931185,8.899986552235314,83490.972626301,-12959.17394262976,12.12186325418848,83513.32550938788,44949.7510983641,9.85356633872289,83536.02525184269,-18082.643637250363,8.751530544206345,83769.22494756937,11961.368350008126,31.975795973311964,0.9635876006353074,112.0,89.0,71.0,262.0,333.0,23.0,914.0,916.0,23.0,11.0,12.0,0.4782608695652174,106.66767334086865,2336.110035692722,21.0,17.0,4.0,0.8095238095238095,1480.3840115922235,5998.38135639224,19.0,9.0,10.0,0.4736842105263157,2605.238324244164,43557.6351767044,19.0,6.0,13.0,0.3157894736842105,1816.643250057036,29875.531361742847,81.0,39.0,42.0,0.4814814814814814,96.0006293397124,12769.571622675496,,,,,83364.0,83387.0,83476.0,83495.0,83504.0,83523.0,83532.0,83547.0,83732.0,83809.0,0.04562075098465447,-0.11423444257680936,0.05795890434505607,-0.10046336622565183,0.008025890226819007
82,82,84329.01190790671,2551.294062087669,9.478057019076486,84444.12330450071,-13230.233751060705,11.41154300807079,84466.42640693596,46990.06161126943,9.840190122802724,84489.4188061217,-16206.32080199332,7.744298337681383,84724.18911086998,12252.504048204506,32.732463392090075,0.9718814515703016,114.0,89.0,71.0,264.0,335.0,25.0,954.0,954.0,25.0,13.0,12.0,0.52,113.61096016061724,2547.9001433409035,19.0,14.0,5.0,0.7368421052631579,1624.1761267200063,7613.718962513055,21.0,10.0,11.0,0.4761904761904761,2697.096783969127,44441.569501461185,17.0,5.0,12.0,0.2941176470588235,1946.6220877659405,31512.55501548489,81.0,40.0,41.0,0.4938271604938271,93.51734722526297,12914.855552820423,,,,,84316.0,84341.0,84430.0,84447.0,84456.0,84477.0,84484.0,84501.0,84686.0,84765.0,0.044530719468555434,-0.12276246642957397,0.05739717488096022,-0.1201149916473647,0.007632508984069023
83,83,85393.15816009096,2576.8974532541056,8.97649870808027,85506.12330450071,-13400.016349304004,11.162635995458947,85528.30653364594,46629.37450510174,9.897563912870156,85551.13299726437,-15877.133807440729,7.809274365461725,85787.16379310738,12352.473915545424,33.09475524344838,0.9720904186998284,110.0,87.0,71.0,266.0,337.0,23.0,1064.0,1062.0,23.0,11.0,12.0,0.4782608695652174,120.17828199287042,2585.327259454567,19.0,14.0,5.0,0.7368421052631579,1632.1076085651505,7803.7195335431215,21.0,10.0,11.0,0.4761904761904761,2679.3856208424686,43977.46001743542,17.0,5.0,12.0,0.2941176470588235,1903.555429256046,30770.167169444543,83.0,41.0,42.0,0.4939759036144578,91.63065470580968,13151.408814109553,,,,,85382.0,85405.0,85492.0,85509.0,85518.0,85539.0,85546.0,85563.0,85748.0,85829.0,0.04663681196980086,-0.12179892665951278,0.057461324525151326,-0.11989288824686704,0.007418000259081196
84,84,86366.36641191553,2152.9235485220015,7.642795371635487,86480.972626301,-13181.221356150494,12.345188013942549,86503.10929103386,44781.12619010933,9.814261881552136,86525.9192910176,-17844.359814411724,8.776964605674634,86758.82421732113,12292.68809652959,32.54426097220659,0.9589138780045692,110.0,89.0,71.0,262.0,333.0,21.0,972.0,974.0,21.0,10.0,11.0,0.4761904761904761,116.14870612818376,1985.8049763306476,21.0,17.0,4.0,0.8095238095238095,1494.5571163063555,5967.6019374216985,19.0,9.0,10.0,0.4736842105263157,2600.3616378269267,42757.81417167543,19.0,6.0,13.0,0.3157894736842105,1782.9326003490687,29429.721792202145,83.0,41.0,42.0,0.4939759036144578,95.43689203435048,13114.388800582346,,,,,86356.0,86377.0,86466.0,86485.0,86494.0,86513.0,86520.0,86537.0,86720.0,86799.0,0.0539492943016582,-0.11338532871303157,0.05806825015493381,-0.09991575034869621,0.0077637121583922514
85,85,87283.69760258537,2230.990983167236,8.753609504270484,87400.972626301,-13473.222080127263,11.772190682639277,87422.55607694887,47208.35541296394,9.965063158066783,87445.46443280292,-17087.70264796438,8.089810549541047,87678.45485045073,12345.875032387565,31.787861346628755,0.9684217527674576,114.0,91.0,71.0,262.0,333.0,23.0,918.0,920.0,23.0,12.0,11.0,0.5217391304347826,104.21533602060497,2015.9169338630395,21.0,17.0,4.0,0.8095238095238095,1595.7901138501688,8823.029631999241,21.0,11.0,10.0,0.5238095238095238,2694.767574073872,44943.815871834784,17.0,5.0,12.0,0.2941176470588235,1972.112449554191,32527.910089555287,81.0,40.0,41.0,0.4938271604938271,97.65637724822687,12995.950921400714,,,,,87272.0,87295.0,87386.0,87405.0,87412.0,87433.0,87440.0,87457.0,87640.0,87719.0,0.0467125760735506,-0.11844160991036641,0.05708242853412044,-0.11541121063393062,0.007910040964454922
86,86,88396.27246922924,2862.1202178791777,9.943067522636246,88508.972626301,-13492.709029997974,11.076277050478474,88531.16254977233,46931.10181439742,9.929688687597514,88554.0314639563,-15776.246901184018,7.724957965113184,88790.85327882276,12555.13757369876,32.938676978416,0.9747857847736496,110.0,85.0,71.0,266.0,337.0,25.0,1112.0,1108.0,25.0,12.0,13.0,0.48,116.25136411213286,2780.4706056937466,19.0,15.0,4.0,0.7894736842105263,1576.237197255523,7316.577410099913,21.0,9.0,12.0,0.4285714285714285,2672.611316578548,47794.8464243834,15.0,4.0,11.0,0.2666666666666666,1810.4327256020931,27734.22596143104,83.0,41.0,42.0,0.4939759036144578,92.73621332619004,13393.285776341045,,,,,88384.0,88409.0,88494.0,88513.0,88522.0,88543.0,88550.0,88565.0,88752.0,88831.0,0.04061721914611775,-0.11682140285921215,0.056947551053630925,-0.11475687068932845,0.007386315982746324
87,87,89540.87465648881,2791.4570336843535,9.32308068039744,89654.972626301,-13652.500900612238,11.79531146641655,89676.4236427951,45753.7969770142,9.978217124807069,89699.22387478055,-16719.17892549018,8.386390478689524,89935.18422974541,12386.38596492148,33.32165778064957,0.9694699439151374,112.0,87.0,71.0,266.0,337.0,25.0,1146.0,1146.0,25.0,13.0,12.0,0.52,121.53550593354906,2768.7474584120787,21.0,17.0,4.0,0.8095238095238095,1574.22970571442,8258.0589805343,21.0,10.0,11.0,0.4761904761904761,2625.678389953791,42207.55025074556,17.0,5.0,12.0,0.2941176470588235,1885.091179633005,31520.65118043805,83.0,41.0,42.0,0.4939759036144578,93.64441770630316,13200.027167810256,,,,,89528.0,89553.0,89640.0,89659.0,89666.0,89687.0,89694.0,89711.0,89896.0,89977.0,0.043538376004712595,-0.11530705745229614,0.057387114587951676,-0.11275022463926032,0.0075602696356714735
88,88,90478.61615830852,2464.050106020411,9.614808691443416,90594.12330450072,-13075.871986020402,11.389210204515992,90616.32938478237,46023.02159819877,9.855015314718464,90639.06286801334,-17258.374052383093,8.313345768657866,90872.4967824216,12508.196142126932,32.162782215103796,0.9686396695563404,114.0,89.0,71.0,262.0,333.0,25.0,938.0,940.0,25.0,13.0,12.0,0.52,106.11428295793144,2402.1688904005737,19.0,14.0,5.0,0.7368421052631579,1602.5397563641804,7574.79544028393,21.0,10.0,11.0,0.4761904761904761,2679.7757137198178,42274.36619022688,17.0,5.0,12.0,0.2941176470588235,1923.7142646545697,32165.926226640513,81.0,40.0,41.0,0.4938271604938271,94.86052355395591,13132.229029683196,,,,,90466.0,90491.0,90580.0,90597.0,90606.0,90627.0,90634.0,90651.0,90834.0,90913.0,0.043064985853438015,-0.12255700867043347,0.05822685301098739,-0.11146555630418364,0.007583869206725243
89,89,91363.89385781392,2370.8199932580815,8.728329912989256,91480.972626301,-13301.21800283897,11.741286367038208,91502.98453844507,47397.98129676694,9.853387542749024,91525.96309836522,-16943.66597734659,8.111469449435525,91758.54433108092,12570.878231593788,31.62843596683208,0.969922729352806,114.0,89.0,71.0,260.0,331.0,25.0,884.0,886.0,25.0,12.0,13.0,0.48,111.0841311916732,2179.713048163748,21.0,17.0,4.0,0.8095238095238095,1575.615161713133,7674.111911361668,21.0,11.0,10.0,0.5238095238095238,2712.5000488676337,46603.20370275328,15.0,4.0,11.0,0.2666666666666666,1835.9111978871256,29042.558892890826,79.0,39.0,40.0,0.4936708860759494,101.9593437119897,13505.023345422862,,,,,91352.0,91377.0,91466.0,91485.0,91492.0,91513.0,91522.0,91537.0,91720.0,91797.0,0.04685473022311435,-0.11845645724901574,0.057228176699851474,-0.10835383560686981,0.008110757405615477
90,90,92296.32571479167,2196.8562322912685,7.979015388500705,92412.972626301,-13099.645399071398,12.471093884801697,92435.07094359134,45413.198778734775,9.806685335687265,92457.92763747078,-18039.40197871269,8.789144486173763,92690.3890405346,12391.719597947564,32.30731330143617,0.9608421025209166,112.0,91.0,71.0,262.0,333.0,21.0,932.0,932.0,21.0,10.0,11.0,0.4761904761904761,112.4982400682212,2017.5751245634292,21.0,17.0,4.0,0.8095238095238095,1504.4813471938278,6368.656591841979,19.0,9.0,10.0,0.4736842105263157,2628.10476521704,43143.932512515865,19.0,6.0,13.0,0.3157894736842105,1801.1293575417667,29776.227017899175,81.0,40.0,41.0,0.4938271604938271,101.7748326650583,13021.003918971466,,,,,92286.0,92307.0,92398.0,92417.0,92426.0,92445.0,92452.0,92469.0,92652.0,92731.0,0.05120874020549274,-0.11484901318782849,0.057870945801943345,-0.09984418328651808,0.008213132314736627
91,91,93201.3886894846,2331.427856443359,9.716857658239489,93318.972626301,-13328.090645797804,11.88375417061894,93340.90626637878,45361.45419094141,9.973805505024572,93363.57106950556,-18030.417472394187,8.69845374984808,93595.904112164,12080.86360412615,31.662949356594556,0.9662455335544168,116.0,89.0,71.0,260.0,331.0,27.0,906.0,906.0,27.0,13.0,14.0,0.4814814814814814,96.35233269509784,2361.056365544761,21.0,17.0,4.0,0.8095238095238095,1526.5807207059936,7242.792141075868,21.0,11.0,10.0,0.5238095238095238,2625.563027846264,42971.70205978454,17.0,6.0,11.0,0.3529411764705882,1787.547423792791,29237.046094817943,81.0,40.0,41.0,0.4938271604938271,91.46546807516788,12645.83686886486,,,,,93188.0,93215.0,93304.0,93323.0,93330.0,93351.0,93358.0,93375.0,93558.0,93635.0,0.04132760635453902,-0.11453859080612626,0.057880927202959544,-0.09914065642293915,0.00757110344693639
92,92,94386.40293736145,2656.424695853464,9.993007922268925,94498.9726262977,-13078.56208096705,11.09535253121166,94521.5355669556,46879.33759437708,9.74393207834679,94545.02737369906,-14928.192851345722,7.316274480210012,94782.37462680276,12362.726704130762,33.49920894409129,0.9748448853860662,110.0,85.0,71.0,268.0,339.0,25.0,1186.0,1180.0,25.0,12.0,13.0,0.48,115.17212053709574,2593.122241355288,19.0,15.0,4.0,0.7894736842105263,1538.7814827441862,6246.244224015005,21.0,10.0,11.0,0.4761904761904761,2667.86919553413,42994.537857657386,15.0,5.0,10.0,0.3333333333333333,1840.8584589249292,29221.463150399653,83.0,40.0,43.0,0.4819277108433735,90.74518608693144,13054.193423272394,,,,,94374.0,94399.0,94484.0,94503.0,94512.0,94533.0,94540.0,94555.0,94744.0,94823.0,0.04335606453172688,-0.1176567785676945,0.05690927671840923,-0.12331422009724255,0.007340224228738367
93,93,95570.20531348584,2370.361333245945,8.848575033241097,95682.972626301,-13400.343140175748,11.831513464145912,95704.69650463428,45209.64577159971,9.937798921722369,95727.65174243988,-16631.310558951373,8.28860793951597,95963.99283821718,12255.212695286533,33.580497294941935,0.966746778590988,110.0,85.0,71.0,268.0,339.0,25.0,1182.0,1184.0,25.0,12.0,13.0,0.48,110.06342292292142,2218.499231102768,21.0,17.0,4.0,0.8095238095238095,1539.4530433507373,7493.389577210992,21.0,11.0,10.0,0.5238095238095238,2596.537052480374,43352.66159003189,17.0,6.0,11.0,0.3529411764705882,1734.3588758674698,27727.223230148877,85.0,42.0,43.0,0.4941176470588235,87.88778135082357,12883.943705060596,,,,,95558.0,95583.0,95668.0,95687.0,95694.0,95715.0,95722.0,95739.0,95924.0,96007.0,0.0464331835738317,-0.11488161364579408,0.0574332536379105,-0.10428275449008413,0.007171461119122479
94,94,96570.94127220503,2476.632441087331,9.33834357583549,96686.12330450072,-13224.663698359076,11.387498921412654,96708.4473692872,45948.616061928275,9.896355794174124,96731.30333763304,-16951.26836866903,8.19079403987592,96965.91163207775,12555.566577091517,32.62160288595976,0.9686604497165086,114.0,89.0,71.0,264.0,335.0,25.0,1002.0,1004.0,25.0,13.0,12.0,0.52,110.93696825105518,2445.8034487304485,19.0,14.0,5.0,0.7368421052631579,1597.814365337582,7292.48834855194,21.0,10.0,11.0,0.4761904761904761,2661.639196020586,42820.810843633786,17.0,5.0,12.0,0.2941176470588235,1927.6160560403232,32015.05609690377,81.0,40.0,41.0,0.4938271604938271,93.6269269893654,13211.623311187892,,,,,96558.0,96583.0,96672.0,96689.0,96698.0,96719.0,96726.0,96743.0,96928.0,97007.0,0.04479347294762474,-0.12082079376701578,0.057926427913156345,-0.11371515181737842,0.007457005338189523
95,95,97567.4067394182,2550.9109469855953,8.983887397300673,97682.12330450072,-13549.87694246476,11.71771089715674,97704.19007629831,46978.28768860741,9.872991327656129,97727.14797677532,-16424.673970044987,7.942473375343123,97962.05364720816,12382.372943707282,32.477285203752594,0.9699868992331192,112.0,89.0,71.0,264.0,335.0,23.0,996.0,996.0,23.0,11.0,12.0,0.4782608695652174,117.4197654736545,2576.7483591682467,21.0,16.0,5.0,0.7619047619047619,1637.2791105470317,7790.457036102733,21.0,10.0,11.0,0.4761904761904761,2691.923614812318,43501.88887342169,17.0,5.0,12.0,0.2941176470588235,1919.8652722986617,31395.882952261683,81.0,40.0,41.0,0.4938271604938271,94.56966207354024,13042.630528282143,,,,,97556.0,97579.0,97668.0,97685.0,97694.0,97715.0,97722.0,97739.0,97924.0,98003.0,0.04603052317934075,-0.12083350406053253,0.057301441735287645,-0.11688909477290545,0.007637442556727426
96,96,98533.93472498066,2201.7271754733715,7.8472816163560175,98648.972626301,-13199.06634851478,12.338581297460538,98670.95489494968,45987.70189905134,9.802484610976926,98693.89686849977,-17404.179322000116,8.4720498009094,98927.57307630756,12414.511466765964,32.5915859545726,0.963627250832716,112.0,89.0,71.0,264.0,335.0,23.0,966.0,966.0,23.0,12.0,11.0,0.5217391304347826,115.62297377882692,2012.417634109242,21.0,17.0,4.0,0.8095238095238095,1529.2404591362526,6831.380136174096,19.0,9.0,10.0,0.4736842105263157,2649.2667229218255,44098.82174918818,17.0,6.0,11.0,0.3529411764705882,1797.78837322708,29158.67390420354,83.0,42.0,41.0,0.5060240963855421,90.98592640925447,13010.312910852796,,,,,98522.0,98545.0,98634.0,98653.0,98662.0,98681.0,98688.0,98705.0,98888.0,98969.0,0.052514668968451084,-0.11585974483023413,0.05760815638792501,-0.10329636002741871,0.007328997734049113
97,97,99411.85541586835,2628.7675940422378,10.08503272006232,99528.972626301,-13101.894294969636,12.023531764145318,99550.6933522232,45317.68281444458,9.964525660927654,99573.28540788054,-18289.720631718956,8.780426208618202,99805.45828418678,12156.878217202464,31.839394095507593,0.9655880953335932,116.0,89.0,71.0,260.0,331.0,27.0,878.0,880.0,27.0,14.0,13.0,0.5185185185185185,106.96610722448922,2464.621212598661,21.0,17.0,4.0,0.8095238095238095,1526.8038934184608,7858.262520172118,21.0,11.0,10.0,0.5238095238095238,2625.856657142229,41812.85092125355,17.0,5.0,12.0,0.2941176470588235,1938.9811349687584,33278.01378004001,81.0,39.0,42.0,0.4814814814814814,99.80658297699726,13016.63883284674,,,,,99398.0,99425.0,99514.0,99533.0,99540.0,99561.0,99568.0,99585.0,99768.0,99845.0,0.04069059108416966,-0.11653306453591711,0.057943312501080965,-0.10601480328825141,0.008209885892890413
98,98,100300.17262307578,2446.3417107756636,9.40014949008204,100416.972626301,-13425.924493606422,11.489229015865966,100439.15250692016,47393.61376461003,9.884763149793976,100462.1134846224,-16766.840620433584,7.987602343555995,100694.62804648852,12291.951740248556,32.193800572647156,0.9722306944137368,114.0,89.0,71.0,262.0,333.0,25.0,890.0,888.0,25.0,12.0,13.0,0.48,107.62728065902714,2299.882419469436,21.0,17.0,4.0,0.8095238095238095,1574.4917337889383,7341.011011837885,19.0,9.0,10.0,0.4736842105263157,2707.727596572423,47500.01562296462,15.0,4.0,11.0,0.2666666666666666,1851.6406844816668,28992.977057090466,81.0,41.0,40.0,0.5061728395061729,93.59239247946915,13090.853952467434,,,,,100288.0,100313.0,100402.0,100421.0,100430.0,100449.0,100458.0,100473.0,100656.0,100735.0,0.04399519502322579,-0.11727250026906744,0.057132752315974464,-0.11043468035505094,0.007614119747396325
99,99,101305.1917274708,2519.458517258575,8.982615154621811,101418.972626301,-13156.43008545725,11.385554714903456,101441.3642974458,45644.793259256454,9.83615322341438,101464.15900329796,-16828.05491064465,8.225434679540882,101698.52422056127,12364.555043522423,33.154103001589995,0.9693628085759098,110.0,87.0,71.0,264.0,335.0,23.0,1004.0,1002.0,23.0,11.0,12.0,0.4782608695652174,116.14246697760429,2526.052384073567,19.0,15.0,4.0,0.7894736842105263,1516.7546013017725,6189.204199243037,19.0,9.0,10.0,0.4736842105263157,2639.3419874954075,45948.87098267928,15.0,4.0,11.0,0.2666666666666666,1817.1953373566132,28875.786601847045,83.0,41.0,42.0,0.4939759036144578,96.56926076007969,13222.387756637812,,,,,101294.0,101317.0,101404.0,101423.0,101432.0,101451.0,101460.0,101475.0,101660.0,101739.0,0.046098185853037585,-0.11528618260802759,0.05782350623222873,-0.1079860594112478,0.007810168697552174
100,100,102326.03230829924,2760.855503949845,10.881107376994644,102440.12330450072,-12808.709510309884,10.976745740862166,102462.60706916048,44820.34012400118,9.908196371952892,102485.23710049404,-17112.92376119076,8.307484907661788,102718.6570083428,12133.48025966048,33.88803693797256,0.9697572326869192,114.0,86.0,71.0,264.0,335.0,28.0,1020.0,1022.0,29.0,14.0,15.0,0.4827586206896552,108.42952738983374,2678.135299345703,19.0,14.0,5.0,0.7368421052631579,1558.359018272654,7050.453848808808,21.0,11.0,10.0,0.5238095238095238,2622.344471734781,42512.516604077755,17.0,5.0,12.0,0.2941176470588235,1910.6006381715988,31918.922225185263,83.0,41.0,42.0,0.4939759036144578,92.40473257739316,13029.519948448617,,,,,102312.0,102340.0,102426.0,102443.0,102452.0,102473.0,102480.0,102497.0,102680.0,102761.0,0.03927388711024824,-0.12166401439725932,0.058507911017179504,-0.11164665166711726,0.007615682442292022
101,101,103398.29934098262,2640.1039485529323,9.591328178125698,103512.12330450072,-13461.339194468732,11.203067123033168,103534.47656346728,47054.967168122406,9.885996242645758,103557.45203460033,-15688.071255165592,7.626852330213163,103793.20502871949,12269.488725034376,33.451901194480534,0.972657899693014,112.0,87.0,71.0,266.0,337.0,25.0,1072.0,1072.0,25.0,12.0,13.0,0.48,116.80809454819762,2550.104525325023,19.0,14.0,5.0,0.7368421052631579,1637.4795428946416,7491.851991011,21.0,10.0,11.0,0.4761904761904761,2688.8744510069346,45046.85982323397,17.0,5.0,12.0,0.2941176470588235,1933.211230494344,30971.543919506756,83.0,41.0,42.0,0.4939759036144578,95.69889357667144,13160.948742719816,,,,,103386.0,103411.0,103498.0,103515.0,103524.0,103545.0,103554.0,103569.0,103754.0,103835.0,0.04424374828582841,-0.12164313811864144,0.05714326484173013,-0.12322810108717461,0.007799745834674404
102,102,104473.28678631688,2528.0490122559645,8.418140890686722,104584.972626301,-13122.344805830082,11.319506122584883,104607.75989593317,45338.71310248518,9.670268069474428,104631.027373699,-16158.128522306204,7.9255669274711344,104866.45583520092,12238.490009350991,33.355436399213716,0.9699127361171068,108.0,85.0,71.0,266.0,337.0,23.0,1076.0,1072.0,23.0,11.0,12.0,0.4782608695652174,124.74243157755288,2552.493885245054,19.0,15.0,4.0,0.7894736842105263,1483.5034163208545,4727.046358169828,21.0,10.0,11.0,0.4761904761904761,2645.265507299403,41141.9079368509,15.0,5.0,10.0,0.3333333333333333,1843.5990701408664,30476.82092696997,83.0,40.0,43.0,0.4819277108433735,96.59940398281393,12981.957095456366,,,,,104462.0,104485.0,104570.0,104589.0,104598.0,104619.0,104626.0,104641.0,104828.0,104907.0,0.049343359631400505,-0.11305170213647746,0.058344521189208756,-0.1140973144009709,0.007893081900545393
103,103,105374.3680448304,2541.46072534591,9.6242393086769,105488.972626301,-12600.488554447817,11.780143977095864,105511.44394617491,43749.07719241547,9.825079921043931,105534.20512773449,-18017.61478109159,8.642474575314418,105764.50243336422,12436.262012249392,34.51227905208863,0.9570149813621712,112.0,87.0,71.0,262.0,333.0,25.0,902.0,904.0,25.0,12.0,13.0,0.48,106.86565896475584,2419.767876755251,19.0,15.0,4.0,0.7894736842105263,1441.005173881735,5600.9233993943935,19.0,9.0,10.0,0.4736842105263157,2555.004569913768,42940.42255398494,19.0,6.0,13.0,0.3157894736842105,1806.8926513674949,29691.42590270309,87.0,43.0,44.0,0.4942528735632184,95.60796525272222,13357.36739542578,,,,,105362.0,105387.0,105474.0,105493.0,105502.0,105521.0,105530.0,105545.0,105726.0,105807.0,0.0420489122255512,-0.11436105573645221,0.058401336299653765,-0.10028478648925943,0.007687837805166125
104,104,106212.70854847063,1851.495350152756,7.631767257788532,106330.972626301,-13604.638442938109,13.102803778828436,106352.38297622482,47209.327878170545,9.852889488964156,106375.66363163965,-17612.721033292895,8.36755783762877,106607.5551830124,11823.451773758616,30.41452882004788,0.9643547385513416,114.0,93.0,71.0,260.0,331.0,21.0,838.0,842.0,21.0,11.0,10.0,0.5238095238095238,98.78782254382908,1745.4631367518425,21.0,17.0,4.0,0.8095238095238095,1584.8756777318893,8359.27276084066,21.0,10.0,11.0,0.4761904761904761,2669.067335895319,42520.740323788516,17.0,6.0,11.0,0.3529411764705882,1788.489752989653,28954.84227596124,79.0,40.0,39.0,0.5063291139240507,91.37564711600966,12320.109567239231,,,,,106202.0,106223.0,106316.0,106335.0,106342.0,106363.0,106370.0,106387.0,106570.0,106647.0,0.053355695727606706,-0.11649524420507963,0.05653686370590097,-0.10154534041667466,0.007728339309406411
105,105,107107.99564724843,2521.5827656835663,9.31493379960042,107224.972626301,-13236.616815188409,11.641263574805564,107246.85506127842,46935.6568865573,9.861887331281572,107269.92156905166,-16499.49474734874,7.868822562303643,107502.28213121476,12175.389493633807,31.85972584383278,0.9703349952270366,114.0,89.0,71.0,260.0,331.0,25.0,894.0,894.0,25.0,12.0,13.0,0.48,111.24552981540252,2351.662484732653,21.0,17.0,4.0,0.8095238095238095,1570.780514134666,7921.902893118795,21.0,11.0,10.0,0.5238095238095238,2681.786227273917,46188.885650315395,15.0,4.0,11.0,0.2666666666666666,1814.044124557287,28247.23300991836,81.0,40.0,41.0,0.4938271604938271,93.83166729439108,12785.378341483143,,,,,107096.0,107121.0,107210.0,107229.0,107236.0,107257.0,107266.0,107281.0,107464.0,107541.0,0.04411734222225515,-0.11866933492644946,0.05713750281061901,-0.10994543483513523,0.007706666578794314
106,106,108355.68229072596,2980.036055395125,10.439279765998537,108466.12330450072,-13234.61268038529,10.99766440097838,108488.344523335,45825.53889844301,9.90360628677783,108511.2071847606,-14981.85466132749,7.6313254413363,108749.54613646316,12338.699917150472,34.52435144034134,0.9738084845319108,110.0,83.0,69.0,272.0,341.0,27.0,1248.0,1242.0,27.0,14.0,13.0,0.5185185185185185,118.63012883066637,2815.8105365395513,19.0,14.0,5.0,0.7368421052631579,1611.11295449306,7578.178620689208,21.0,10.0,11.0,0.4761904761904761,2621.853648385684,43756.44300078533,17.0,5.0,12.0,0.2941176470588235,1855.2461681764405,29610.632907043568,85.0,42.0,43.0,0.4941176470588235,86.02899094597312,13027.196570414782,,,,,108342.0,108369.0,108452.0,108469.0,108478.0,108499.0,108506.0,108521.0,108710.0,108793.0,0.03980828641851352,-0.12173480202264271,0.05721380940431811,-0.12383287717810858,0.006972289748808549
107,107,109328.75770617924,2592.1652085026353,9.261466447666525,109442.972626301,-13067.207086675604,11.380823233695768,109464.90403760893,44338.02820432157,9.97838498031288,109487.40356111004,-17978.910581733457,8.620817824772626,109718.62353731212,12521.00283764388,35.39829891486365,0.960897055782986,112.0,87.0,71.0,262.0,333.0,25.0,974.0,976.0,25.0,13.0,12.0,0.52,118.56285890197846,2557.5837947812183,21.0,17.0,4.0,0.8095238095238095,1508.8741478887202,7160.959980956694,21.0,11.0,10.0,0.5238095238095238,2596.781565193116,42115.07091532632,17.0,5.0,12.0,0.2941176470588235,1930.264285580289,32858.54237687459,87.0,43.0,44.0,0.4942528735632184,102.73515999206678,13616.384317759132,,,,,109316.0,109341.0,109428.0,109447.0,109454.0,109475.0,109482.0,109499.0,109678.0,109761.0,0.045738928411305356,-0.11547028664046291,0.058567817973917274,-0.10736269457513373,0.00820502649222295
108,108,110215.8274572862,2194.024826776874,8.680228868730225,110332.1233045007,-13170.495767779468,11.92271356993406,110354.12454658686,46849.842011227294,9.832997563969435,110377.18873143107,-16907.53877522084,8.033629289724265,110609.1292438254,12340.1555505428,31.99190668926765,0.9673307963282836,114.0,89.0,71.0,260.0,331.0,25.0,886.0,890.0,25.0,12.0,13.0,0.48,102.4235996863268,1982.1741578646397,19.0,16.0,3.0,0.8421052631578947,1620.6199384054562,8051.24520184875,21.0,10.0,11.0,0.4761904761904761,2687.847869983333,42803.24044883666,17.0,5.0,12.0,0.2941176470588235,1929.8672250556103,31892.857481233797,81.0,41.0,40.0,0.5061728395061729,98.70914422483364,13188.819437927265,,,,,110204.0,110229.0,110318.0,110335.0,110344.0,110365.0,110372.0,110389.0,110570.0,110649.0,0.04668297205952401,-0.12304927369326288,0.057371546084172616,-0.11414241012322641,0.007999019446759872
109,109,111243.18365691928,2487.171189276609,9.179220968486456,111356.972626301,-13138.841799166596,10.812969510605951,111380.14010682049,46550.32894845444,9.727925072586071,111403.0273790222,-15627.366641390854,7.604336464112532,111637.57136798698,12460.313603012124,32.65541212642696,0.9712396812181427,114.0,89.0,69.0,265.0,334.0,25.0,1028.0,1026.0,25.0,13.0,12.0,0.52,111.69677295912166,2479.7398665181836,19.0,15.0,4.0,0.7894736842105263,1497.1264245165594,4700.68531582078,21.0,10.0,11.0,0.4761904761904761,2694.305317491487,43798.99726430425,15.0,5.0,10.0,0.3333333333333333,1896.414516574561,30421.407326246248,81.0,40.0,41.0,0.4938271604938271,89.1892519107827,13089.818500907122,,,,,111230.0,111255.0,111344.0,111361.0,111370.0,111391.0,111398.0,111413.0,111600.0,111678.0,0.044909161637405645,-0.11394660559894426,0.05787940447155408,-0.12135214845165865,0.007157865744985931
110,110,112397.5329600912,2523.935271252232,8.674200062417711,112510.972626301,-13844.375867368317,11.954964852711116,112532.13628130216,45348.16412321704,10.012276348697002,112555.00625599427,-16913.73741686252,8.425165174879295,112790.92899237567,12081.621473695564,33.74219265916854,0.967469270293198,110.0,87.0,71.0,266.0,337.0,23.0,1154.0,1152.0,23.0,12.0,11.0,0.5217391304347826,121.08546157501787,2289.882875761223,21.0,17.0,4.0,0.8095238095238095,1579.8113385063357,8612.748608340942,21.0,10.0,11.0,0.4761904761904761,2596.997415011321,40940.15361741219,17.0,5.0,12.0,0.2941176470588235,1857.9589152458548,31181.1493440841,83.0,41.0,42.0,0.4939759036144578,92.19766837234164,12921.27325378044,,,,,112386.0,112409.0,112496.0,112515.0,112522.0,112543.0,112550.0,112567.0,112752.0,112833.0,0.04797486803809442,-0.11411213865046865,0.0572679724796561,-0.10984910486983923,0.007631232990793241
111,111,113421.40305788952,2560.1804421296456,9.53409901429161,113536.1233045007,-13202.271599024343,11.30372913355014,113558.22030889137,46203.65877401199,9.909844937379535,113581.05883609236,-16583.3710314188,7.991910857074219,113815.69997416322,12613.398689660478,33.33808113713996,0.9699680690280004,112.0,87.0,71.0,264.0,335.0,25.0,1024.0,1026.0,25.0,11.0,14.0,0.44,112.37536671547927,2610.199344871153,19.0,16.0,3.0,0.8421052631578947,1614.7578925676037,7950.884422610876,21.0,10.0,11.0,0.4761904761904761,2664.119858444727,42829.92212255809,17.0,5.0,12.0,0.2941176470588235,1909.3261500795295,31293.85738251678,83.0,42.0,41.0,0.5060240963855421,94.7648027725226,13348.367615197654,,,,,113410.0,113435.0,113522.0,113539.0,113548.0,113569.0,113576.0,113593.0,113776.0,113857.0,0.04389353377842446,-0.1223090951020077,0.05766036563197903,-0.11513498350016571,0.0075130268299696025
112,112,114548.76591918702,2690.710380234764,9.906125849070172,114662.972626301,-13466.41645305729,11.206435364462106,114684.77984963713,47124.13106432805,9.95957242577458,114707.66328050091,-15539.89841653234,7.646391979375192,114944.31596620489,12533.288688565031,33.84911185342926,0.9713740484120482,112.0,87.0,71.0,266.0,337.0,25.0,1128.0,1126.0,25.0,13.0,12.0,0.52,116.58607397501083,2683.044358707029,21.0,17.0,4.0,0.8095238095238095,1594.4832664141,8428.523777718185,21.0,11.0,10.0,0.5238095238095238,2675.1474365735107,46850.176160932904,15.0,4.0,11.0,0.2666666666666666,1774.361494931781,27032.659347493616,85.0,42.0,43.0,0.4941176470588235,93.45570219631112,13279.48921785298,,,,,114536.0,114561.0,114648.0,114667.0,114674.0,114695.0,114704.0,114719.0,114906.0,114985.0,0.04332910551481899,-0.11840442273357016,0.05676810110135992,-0.11418102276937032,0.00745659854476799
113,113,115556.86747339596,2567.203879060717,8.772631431703738,115670.972626301,-13016.68803364275,11.583313607937152,115693.27875853764,45178.637133928314,9.839844182234454,115715.92795431016,-17247.555626019497,8.523753261062673,115950.09160147862,12551.714911931986,33.18880133510232,0.9659890210608144,112.0,87.0,71.0,264.0,335.0,25.0,1008.0,1008.0,25.0,13.0,12.0,0.52,119.78949622201218,2506.5372011656837,19.0,15.0,4.0,0.7894736842105263,1501.408289889224,6255.574519379372,19.0,9.0,10.0,0.4736842105263157,2626.117456017714,44507.53050736802,17.0,6.0,11.0,0.3529411764705882,1795.211446647466,29038.82483959516,85.0,42.0,43.0,0.4941176470588235,90.93619682464032,13139.722208667888,,,,,115544.0,115569.0,115656.0,115675.0,115684.0,115703.0,115712.0,115727.0,115912.0,115991.0,0.04666146588475883,-0.11534487774529936,0.058127416465282196,-0.10408497792807388,0.00724492210528093
114,114,116455.08063963804,2311.350679234655,8.73243530286793,116570.972626301,-12568.74869632621,11.29854100279034,116593.61264973036,45057.01067582164,9.61110598524974,116617.027373699,-17050.913989810928,8.142572353514435,116849.32471765424,12179.007957250846,31.533603637049445,0.9664635757681056,114.0,91.0,69.0,262.0,331.0,23.0,898.0,900.0,23.0,11.0,12.0,0.4782608695652174,107.98005898413147,2283.7074395636428,19.0,15.0,4.0,0.7894736842105263,1469.931098967461,5328.001460404478,21.0,10.0,11.0,0.4761904761904761,2658.745302444571,39850.10656696613,15.0,5.0,10.0,0.3333333333333333,1856.2822026374224,31325.93874663744,79.0,39.0,40.0,0.4936708860759494,95.21176855452808,12956.666832474928,,,,,116444.0,116467.0,116558.0,116575.0,116584.0,116605.0,116612.0,116627.0,116812.0,116889.0,0.046717298224900394,-0.11695126813993148,0.05900847088089887,-0.10886702048621419,0.007817694913143002
115,115,117428.15911264851,2546.3192424212334,9.32534982982369,117544.12330450072,-13463.296633500917,11.58471723493864,117566.11401146124,47448.30446435797,9.895007817713385,117589.09155680476,-16244.581510354988,7.764028442373363,117823.78279027875,12318.64899896282,32.41890748069954,0.9721998754593696,114.0,89.0,69.0,264.0,333.0,25.0,972.0,974.0,25.0,12.0,13.0,0.48,113.0318572231062,2411.999452652625,19.0,16.0,3.0,0.8421052631578947,1650.7159039144765,8360.746280658917,21.0,10.0,11.0,0.4761904761904761,2705.24974730285,44026.91418254904,17.0,5.0,12.0,0.2941176470588235,1928.7188928599608,31184.891960830773,81.0,40.0,41.0,0.4938271604938271,92.698448324309,12988.73301329576,,,,,117416.0,117441.0,117530.0,117547.0,117556.0,117577.0,117584.0,117599.0,117786.0,117863.0,0.044390292992337814,-0.12260859645675311,0.057014676875018135,-0.11872998338741525,0.007525049892412213
116,116,118559.35544581876,2791.340626599033,9.60109480450306,118672.972626301,-13583.191265352512,11.245121799617468,118694.85340950792,46829.252348825285,9.968191200225393,118717.73401597112,-15835.727063690956,7.882191565100962,118955.12810587572,12371.871003738806,33.41530533995661,0.9738845483197912,112.0,86.0,71.0,268.0,339.0,26.0,1132.0,1128.0,26.0,13.0,13.0,0.5,123.96060195915317,2876.5547096824776,21.0,17.0,4.0,0.8095238095238095,1588.5441139559107,7987.66183304518,21.0,11.0,10.0,0.5238095238095238,2668.5194607641006,46506.29227602608,15.0,4.0,11.0,0.2666666666666666,1772.3770612372073,27430.2505324264,83.0,41.0,42.0,0.4939759036144578,96.10939969425756,13260.28481431482,,,,,118546.0,118572.0,118658.0,118677.0,118684.0,118705.0,118714.0,118729.0,118916.0,118997.0,0.044408984262944165,-0.11694925610065644,0.05698402871962658,-0.11192268306398213,0.007768380357765862
117,117,119568.33479466474,2357.5254893694687,8.843263238211557,119682.972626301,-12790.996150549916,11.615801760968283,119705.05196468942,44652.23641272797,9.92017642011552,119727.660177457,-17628.041792183394,8.619384534692626,119960.43787911092,12559.95809717732,34.101849215876875,0.9616064898241508,112.0,87.0,71.0,264.0,335.0,25.0,1008.0,1010.0,25.0,12.0,13.0,0.48,108.63469330697082,2216.1403315518965,21.0,17.0,4.0,0.8095238095238095,1490.6198182072342,7037.6130353235385,21.0,11.0,10.0,0.5238095238095238,2596.5323239825034,42908.63631818662,17.0,6.0,11.0,0.3529411764705882,1772.270358449994,28862.50589333955,85.0,42.0,43.0,0.4941176470588235,101.12469576939117,13351.7739602232,,,,,119556.0,119581.0,119668.0,119687.0,119694.0,119715.0,119722.0,119739.0,119920.0,120003.0,0.04607996553879283,-0.11653664817522041,0.05815010697297057,-0.10053699550654867,0.008051356142033433
118,118,120453.99607134896,2086.686531744672,8.014347088018322,120570.972626301,-13220.023860388586,12.920637565883482,120592.96497293151,46340.83572540378,9.85929954906914,120615.92049898674,-17813.05429307684,8.735952510138137,120848.16264715408,12081.30065959134,31.18927701071307,0.9638329923917508,114.0,91.0,71.0,260.0,331.0,23.0,886.0,888.0,23.0,12.0,11.0,0.5217391304347826,105.67099588993072,1882.1864560869487,21.0,17.0,4.0,0.8095238095238095,1525.7871433169998,6981.674270317726,19.0,9.0,10.0,0.4736842105263157,2638.40246543792,43699.499502308856,19.0,6.0,13.0,0.3157894736842105,1802.964185604047,29635.75949817021,81.0,40.0,41.0,0.4938271604938271,91.96476697631844,12641.05209140251,,,,,120442.0,120465.0,120556.0,120575.0,120584.0,120603.0,120610.0,120627.0,120810.0,120887.0,0.05064057024491338,-0.11541485548212552,0.056934719111929245,-0.10121589234165086,0.0076121577938967734
119,119,121391.20988926243,2420.9840573106794,8.996622807362828,121506.972626301,-12812.055259201568,11.180277612015226,121529.4814617829,47268.23450238962,9.63398815791266,121553.027373699,-15770.5844699096,7.4427651259489345,121786.20489733704,12422.51785499894,32.612754131930664,0.9707630811375064,112.0,89.0,71.0,264.0,335.0,23.0,938.0,936.0,23.0,11.0,12.0,0.4782608695652174,111.87549856418332,2437.3528411037864,19.0,15.0,4.0,0.7894736842105263,1538.478667787547,6420.815537335824,21.0,9.0,12.0,0.4285714285714285,2684.604457256525,49269.05211162751,15.0,5.0,10.0,0.3333333333333333,1878.2459155314384,30259.083439036305,81.0,40.0,41.0,0.4938271604938271,95.78924444116988,13145.234425540102,,,,,121380.0,121403.0,121492.0,121511.0,121520.0,121541.0,121548.0,121563.0,121748.0,121827.0,0.04621075393964339,-0.12008055200063375,0.056795107444108296,-0.11909805366536329,0.007710936346340076
120,120,122309.36629704588,2141.144206149986,7.835659642108725,122424.972626301,-12885.815080058135,12.1608264046653,122447.69636190166,44477.30933752268,9.67535223002692,122470.56912509711,-17448.44296247465,8.568104020068072,122703.31616193731,11825.751829625198,30.899411077553676,0.965377672345928,112.0,89.0,73.0,260.0,333.0,23.0,918.0,918.0,23.0,11.0,12.0,0.4782608695652174,111.04311095291791,2138.6130176204733,19.0,15.0,4.0,0.7894736842105263,1444.6660726223456,4460.038388083656,21.0,10.0,11.0,0.4761904761904761,2622.566251608825,38443.25719301394,17.0,5.0,12.0,0.2941176470588235,1825.074156214242,31139.754305563365,79.0,39.0,40.0,0.4936708860759494,91.33146588065924,12526.010985934954,,,,,122298.0,122321.0,122410.0,122429.0,122438.0,122459.0,122466.0,122483.0,122666.0,122743.0,0.051861575055977056,-0.11211289807022654,0.058964139033390955,-0.10459810999407354,0.007723100162804098
121,121,123132.15481985164,2913.248479567969,13.574249887755624,123248.972626301,-11500.375230818834,10.001700980381456,123272.32367632964,41118.174221151465,9.752715832082153,123294.83076008609,-16721.454278259935,8.402361091242508,123522.2601729957,12525.223774945938,36.53482968674004,0.9595662851140876,120.0,87.0,71.0,258.0,329.0,33.0,822.0,826.0,33.0,16.0,17.0,0.4848484848484848,88.36380973087698,2900.7546807521494,17.0,13.0,4.0,0.7647058823529411,1332.134294705873,4204.818767092551,21.0,10.0,11.0,0.4761904761904761,2457.787654064523,37480.45729268048,17.0,5.0,12.0,0.2941176470588235,1776.6935959879736,30056.891482665076,91.0,46.0,45.0,0.5054945054945055,94.28478650421688,13409.139059843534,,,,,123116.0,123149.0,123236.0,123253.0,123262.0,123283.0,123290.0,123307.0,123480.0,123565.0,0.03033171058034199,-0.11583398523693422,0.05977375456520685,-0.1062523370528786,0.007527592975449561
122,122,123922.83386146968,1963.943657604366,9.226031653224869,124040.972626301,-12847.576348374016,12.441116893585903,124063.7730463099,45000.259430319915,9.820079067849283,124087.02099362024,-16046.647842730616,8.314226131078334,124316.9232686245,11326.097701405692,30.477886776167523,0.9673838487512458,116.0,89.0,73.0,256.0,329.0,27.0,790.0,790.0,27.0,13.0,14.0,0.4814814814814814,81.36533712846179,1925.7383758202088,19.0,15.0,4.0,0.7894736842105263,1448.676553669457,4918.157882673859,21.0,10.0,11.0,0.4761904761904761,2559.1684314156155,39939.70597609552,17.0,5.0,12.0,0.2941176470588235,1802.6263998535928,30203.22262650157,77.0,39.0,38.0,0.5064935064935064,94.57453814153487,12149.611888051097,,,,,123910.0,123937.0,124026.0,124045.0,124054.0,124075.0,124082.0,124099.0,124280.0,124355.0,0.04142956790711189,-0.11275874253534215,0.056870081724269335,-0.11233663363966767,0.008350143238637007
123,123,124765.3045441597,2806.8955969209337,11.877433659677372,124884.12330450072,-13578.763819553384,11.705663961335684,124906.24032971608,47400.999474131575,9.85889041436524,124929.35809293782,-16025.120356685626,7.662350700197557,125160.57670298372,12126.597083172694,31.398672233256605,0.9738091758048176,120.0,89.0,71.0,258.0,329.0,31.0,844.0,844.0,31.0,15.0,16.0,0.4838709677419355,92.84510754985986,2906.3043186506898,21.0,16.0,5.0,0.7619047619047619,1646.9426248306806,7820.781571388393,21.0,10.0,11.0,0.4761904761904761,2699.39668721226,44468.23156982765,17.0,5.0,12.0,0.2941176470588235,1935.3865914277417,31177.557013144306,77.0,39.0,38.0,0.5064935064935064,99.48254781669056,13076.5015920819,,,,,124750.0,124781.0,124870.0,124887.0,124896.0,124917.0,124924.0,124941.0,125124.0,125199.0,0.033077506570500056,-0.12128811184263237,0.0569480963937357,-0.12077204715784272,0.008203665639615927
124,124,126044.08911553257,751.7004880755208,6.7310911218434795,126152.972626301,-13477.969870536996,11.83016408718624,126175.8479743932,44032.06437693984,9.786523136525789,126199.05156005608,-16202.79980779811,8.308115116593216,126436.73167288402,11540.760276786708,32.62745865437315,0.9632380303658948,104.0,83.0,73.0,268.0,341.0,21.0,1280.0,1268.0,23.0,12.0,11.0,0.5217391304347826,49.15010747003382,557.4701819560148,19.0,15.0,4.0,0.7894736842105263,1453.809720044604,3779.7979006922874,21.0,10.0,11.0,0.4761904761904761,2555.546687693301,39665.975275152305,17.0,5.0,12.0,0.2941176470588235,1796.72292478246,30190.00406981435,85.0,43.0,42.0,0.5058823529411764,79.48805958693193,12096.001536034852,,,,,126034.0,126055.0,126138.0,126157.0,126166.0,126187.0,126194.0,126211.0,126396.0,126479.0,0.06538522756033634,-0.1078656306557451,0.058038311940506564,-0.11088965771938565,0.0068875929904562375
125,125,126988.06760748856,1657.5469799535424,9.70588781092942,127102.972626301,-13301.556396429442,11.538067300067304,127124.60950731245,43972.8969669597,10.1168396363266,127147.39095248956,-17827.07565245528,8.488766030059182,127377.5391533182,12321.663753993553,34.00157250901195,0.9615946381952118,114.0,85.0,71.0,260.0,331.0,29.0,942.0,950.0,29.0,14.0,15.0,0.4827586206896552,59.25569043134944,1476.3518761941357,21.0,17.0,4.0,0.8095238095238095,1510.7733933559336,7885.567103729948,21.0,11.0,10.0,0.5238095238095238,2543.948891824114,41202.90252171176,17.0,5.0,12.0,0.2941176470588235,1902.1876481419029,32212.49380222518,85.0,42.0,43.0,0.4941176470588235,94.0164107985575,13070.75774863944,,,,,126974.0,127003.0,127088.0,127107.0,127114.0,127135.0,127142.0,127159.0,127338.0,127419.0,0.03574902621041261,-0.11357869322431118,0.05785265623357914,-0.106702169510338,0.007630171758914133
126,126,127958.98876168218,1317.6804337628416,8.804077542759016,128072.972626301,-13092.63555682292,11.493274850249248,128095.23588490007,46203.55749217687,9.741295781218934,128119.027373699,-16091.16775251786,7.677910652779499,128351.3742600558,12001.634810896496,32.27467266337958,0.9690570637144804,112.0,85.0,71.0,262.0,333.0,27.0,972.0,970.0,27.0,13.0,14.0,0.4814814814814814,54.42050648711026,1246.2353674562646,19.0,15.0,4.0,0.7894736842105263,1531.9167829621467,6520.752925374971,21.0,9.0,12.0,0.4285714285714285,2622.1370998325633,47223.62789100973,15.0,5.0,10.0,0.3333333333333333,1837.0994499452163,30102.975073573736,81.0,39.0,42.0,0.4814814814814814,92.75462123341336,12788.23006277738,,,,,127946.0,127973.0,128058.0,128077.0,128086.0,128107.0,128114.0,128129.0,128312.0,128391.0,0.04130023114307316,-0.11700598984165754,0.0567518442768512,-0.11416818705763332,0.0077284988832687865
127,127,129087.64215644012,1632.9324183416156,11.961527013409215,129197.28268524616,-12831.733346069555,10.088960089419649,129220.83278198306,47004.43890298493,9.773849791946864,129243.64764577996,-14685.826534117705,7.151616669457386,129479.35715056048,12220.058158383512,34.35440459987855,0.973525078394308,114.0,79.0,69.0,268.0,337.0,35.0,1130.0,1126.0,35.0,18.0,17.0,0.5142857142857142,39.05569703601616,1359.745475200608,19.0,13.0,6.0,0.6842105263157895,1463.5631201478257,3928.345091746012,21.0,11.0,10.0,0.5238095238095238,2685.2172478361163,47509.76677550454,15.0,4.0,11.0,0.2666666666666666,1778.5561593690716,26187.402266520156,83.0,41.0,42.0,0.4939759036144578,92.7629646011428,13167.222301045456,,,,,129070.0,129105.0,129184.0,129201.0,129210.0,129231.0,129240.0,129253.0,129440.0,129521.0,0.023917521997438577,-0.114058099609444,0.05712688653465867,-0.12110698401871894,0.007591041171723329
128,128,130214.24267773546,1502.9232588037385,9.129374224903309,130324.972626301,-13250.339865971291,12.189298984964934,130346.59314307354,43941.55320422429,9.936642116955728,130369.74142806044,-17397.87113971701,8.332612985993876,130602.52344579394,12320.962989262389,34.755840583020806,0.9562489029049452,110.0,83.0,71.0,264.0,335.0,27.0,1124.0,1126.0,27.0,14.0,13.0,0.5185185185185185,58.34185886067244,1303.44455683495,21.0,17.0,4.0,0.8095238095238095,1498.4878558005162,7240.166121664297,21.0,11.0,10.0,0.5238095238095238,2535.672408851224,41270.86480798491,17.0,6.0,11.0,0.3529411764705882,1739.8821574228002,28087.5608351486,89.0,45.0,44.0,0.5056179775280899,99.4549880908682,13293.10150443956,,,,,130200.0,130227.0,130310.0,130329.0,130336.0,130357.0,130364.0,130381.0,130562.0,130645.0,0.03881892073924654,-0.11309052227775988,0.05770557078550102,-0.10000546293568541,0.008072014190574418
129,129,131123.47030347615,1795.8524405666617,10.154721076255,131238.97262630097,-13134.954500898812,11.662505795668933,131260.55660038037,42937.708203399474,10.12841378931972,131283.39054311175,-17764.746578418028,8.520426977720687,131512.5851157209,12144.701528183372,34.04169997796779,0.9574443315429368,116.0,87.0,71.0,260.0,331.0,29.0,910.0,914.0,29.0,15.0,14.0,0.5172413793103449,61.66530339347564,1746.2513330393326,21.0,17.0,4.0,0.8095238095238095,1479.1622678678502,7664.051726485155,21.0,11.0,10.0,0.5238095238095238,2486.0301570713123,39893.37833800398,17.0,5.0,12.0,0.2941176470588235,1867.828962547312,31783.523980400965,83.0,41.0,42.0,0.4939759036144578,88.77992178107912,12967.959973319514,,,,,131108.0,131137.0,131224.0,131243.0,131250.0,131271.0,131278.0,131295.0,131474.0,131555.0,0.03433762262450573,-0.11261266780685328,0.05789852931355306,-0.10514244908038786,0.00731017732918785
130,130,132009.51785436156,1733.3107290209546,10.060364103722364,132122.97262630097,-12699.26491771983,10.799432170962374,132146.45583261157,46390.483341655316,9.771598391092176,132169.47013520345,-16077.00232940872,7.695566103911212,132401.00549250457,12307.811722313983,32.233844588334065,0.9696816801480128,116.0,85.0,71.0,260.0,331.0,31.0,884.0,886.0,31.0,16.0,15.0,0.5161290322580645,56.838507708311255,1465.140178744366,19.0,15.0,4.0,0.7894736842105263,1456.161691529862,4589.361424213532,21.0,10.0,11.0,0.4761904761904761,2676.340489405932,44165.25432957774,17.0,5.0,12.0,0.2941176470588235,1941.6996030979412,31384.48825516044,79.0,39.0,40.0,0.4936708860759494,94.9752308432151,13145.215855378545,,,,,131994.0,132025.0,132110.0,132127.0,132136.0,132157.0,132164.0,132181.0,132364.0,132441.0,0.032791874391971246,-0.11466503777695174,0.057691584493640556,-0.12077497802846639,0.007716662635570352
131,131,133030.50650026245,1377.0476522454192,9.753853376471668,133140.97262630097,-13008.94121781326,10.56014076133638,133164.44291544068,47209.43886144934,9.724806522443435,133187.45203459918,-15313.696546575262,7.264155690383057,133421.3736539077,12183.42922027239,32.56196088906866,0.9717211171331268,112.0,83.0,69.0,264.0,333.0,29.0,1024.0,1018.0,29.0,15.0,14.0,0.5172413793103449,45.75964313937521,1208.371304975242,19.0,15.0,4.0,0.7894736842105263,1491.4008075470474,4520.34020739004,21.0,10.0,11.0,0.4761904761904761,2711.0669906576422,45594.67806963049,17.0,5.0,12.0,0.2941176470588235,1949.9089442979464,30662.2742120114,81.0,39.0,42.0,0.4814814814814814,94.323583330944,13041.208508654245,,,,,133016.0,133045.0,133128.0,133145.0,133154.0,133175.0,133184.0,133197.0,133384.0,133461.0,0.03323025391660148,-0.1146442883072497,0.057426376081573534,-0.12733104240164808,0.007741956851852189
132,132,134204.31104628017,1196.8034141453893,7.954000976790381,134312.97262630097,-13097.98144170889,11.348176552432957,134335.90453606748,43989.30143985331,9.75298926275112,134358.88587038702,-16291.670659724225,8.19803587847119,134594.14342270268,12009.021650644285,33.51148110532034,0.9643591109406874,106.0,81.0,73.0,266.0,339.0,25.0,1174.0,1170.0,25.0,12.0,13.0,0.48,57.97431940418009,1024.0558028340988,19.0,15.0,4.0,0.7894736842105263,1445.0945749360385,4105.442761679069,21.0,10.0,11.0,0.4761904761904761,2576.071104864149,39841.40471021218,17.0,5.0,12.0,0.2941176470588235,1810.0972817574468,30190.975402761112,87.0,44.0,43.0,0.5057471264367817,88.09606298310979,12554.877290062646,,,,,134192.0,134217.0,134298.0,134317.0,134326.0,134347.0,134354.0,134371.0,134554.0,134637.0,0.048440970938889126,-0.11032956348024094,0.058561309694504196,-0.11110568827249341,0.007335823478874603
133,133,135171.88532964312,1743.1955868766606,9.97195957825669,135284.12330450068,-12824.220305191591,11.19657452793624,135306.48964662972,44286.980301653086,9.925263353606963,135329.2726523073,-17188.723446276745,8.310824502891903,135560.5517786997,12337.13113088244,33.709310376626306,0.9638067547837732,114.0,83.0,71.0,262.0,333.0,31.0,966.0,972.0,31.0,16.0,15.0,0.5161290322580645,58.68003778998501,1506.8006629780805,19.0,14.0,5.0,0.7368421052631579,1546.8513969003009,6993.217429077342,21.0,10.0,11.0,0.4761904761904761,2584.9377168913347,41037.45888699783,17.0,5.0,12.0,0.2941176470588235,1893.827823695632,31748.16485609363,83.0,41.0,42.0,0.4939759036144578,93.23393963026368,13231.408754583932,,,,,135156.0,135187.0,135270.0,135287.0,135296.0,135317.0,135324.0,135341.0,135522.0,135603.0,0.03366233727973343,-0.12061952774423983,0.05836789275955325,-0.11017850334347283,0.007557181539302882
134,134,136242.9930082285,1777.6538532973216,11.713926288633578,136351.64491419942,-12366.033218122468,9.818833412604658,136375.85033558196,46604.91707004085,9.512487208560149,136399.02737369903,-14722.911733393945,7.069135427149562,136633.3066810622,12372.253224137796,33.91190687645831,0.9736533797087498,114.0,81.0,69.0,266.0,335.0,33.0,1072.0,1068.0,33.0,17.0,16.0,0.5151515151515151,46.43948233513395,1639.5475625271358,19.0,14.0,5.0,0.7368421052631579,1552.4657711887291,5360.65960520096,21.0,10.0,11.0,0.4761904761904761,2690.396313349328,43604.229304388675,15.0,5.0,10.0,0.3333333333333333,1869.3169380636396,29222.262427705507,83.0,41.0,42.0,0.4939759036144578,98.21220914712418,13340.035437653918,,,,,136226.0,136259.0,136340.0,136357.0,136366.0,136387.0,136394.0,136409.0,136594.0,136675.0,0.02612402985485314,-0.1255427463120174,0.05772773523673539,-0.12696652482292117,0.00793810208762264
