Unnamed: 0,cycle,p_center,p_height,p_width,q_center,q_height,q_width,r_center,r_height,r_width,s_center,s_height,s_width,t_center,t_height,t_width,r_squared,pr_interval,pr_segment,qrs_duration,st_segment,qt_interval,p_duration,pp_interval,rr_interval,fwhm_p,rise_time_p,decay_time_p,rise_decay_symmetry_p,sharpness_deriv_p,sharpness_diff_p,fwhm_q,rise_time_q,decay_time_q,rise_decay_symmetry_q,sharpness_deriv_q,sharpness_diff_q,fwhm_r,rise_time_r,decay_time_r,rise_decay_symmetry_r,sharpness_deriv_r,sharpness_diff_r,fwhm_s,rise_time_s,decay_time_s,rise_decay_symmetry_s,sharpness_deriv_s,sharpness_diff_s,fwhm_t,rise_time_t,decay_time_t,rise_decay_symmetry_t,sharpness_deriv_t,sharpness_diff_t,Average_Heart_Rate,SDNN,RMSSD,NN50,p_on,p_off,q_on,q_off,r_on,r_off,s_on,s_off,t_on,t_off,sharpness_deriv_p_norm,sharpness_deriv_q_norm,sharpness_deriv_r_norm,sharpness_deriv_s_norm,sharpness_deriv_t_norm
0,0,0.0,0.0,0.0,0.0,0.0,0.0,0.0,0.0,0.0,0.0,0.0,0.0,0.0,0.0,0.0,0.0,0.0,0.0,0.0,0.0,0.0,0.0,0.0,0.0,0.0,0.0,0.0,0.0,0.0,0.0,0.0,0.0,0.0,0.0,0.0,0.0,0.0,0.0,0.0,0.0,0.0,0.0,0.0,0.0,0.0,0.0,0.0,0.0,0.0,0.0,0.0,0.0,0.0,0.0,58.26951343583803,303.6564912032913,433.1947071539772,292.0,,,,,,,,,,,,,,,
1,1,4190.650299590592,997.3683421553128,14.20223316453996,4289.11502168372,-3501.7816729816113,8.270531495572143,4319.812084063204,33270.503083704956,10.496024303785982,4344.301356399425,-5582.6594576974,6.326110176925214,4581.3674176775185,5926.300241322437,37.09812268261561,0.9898330926646028,105.0,64.0,76.0,274.0,350.0,41.0,,,44.0,20.0,24.0,0.4545454545454545,30.36614103920153,885.5913834353075,17.0,11.0,6.0,0.6470588235294118,524.5261568771903,2545.482466119299,25.0,13.0,12.0,0.52,1493.1969663664966,31761.745517901894,14.0,3.0,11.0,0.2142857142857142,1001.483231676244,14447.248148436294,90.0,42.0,48.0,0.4666666666666667,27.9568547221922,6047.562387696587,0.0,0.0,0.0,0.0,4173.0,4214.0,4278.0,4295.0,4307.0,4332.0,4342.0,4354.0,4540.0,4628.0,0.030446265191835048,-0.14978836656900416,0.04488050459020039,-0.17939178258408608,0.004717421255044903
2,2,5135.074969772188,160.3455147753496,4.2625480919776635,5235.813319257528,-4643.569269169584,20.383723206912453,5266.348284292666,34421.057729885215,10.977735219217337,5290.452034599137,-8323.247770345648,8.469238718726283,5536.841177675383,5611.9936006060925,29.8091885657369,0.98303832301594,90.0,77.0,83.0,274.0,357.0,13.0,948.0,947.0,13.0,6.0,7.0,0.4615384615384615,32.15225602922268,289.7879041597426,24.0,18.0,6.0,0.75,562.0780155807089,1671.242165177314,25.0,12.0,13.0,0.48,1542.0993630245978,32161.115345268387,16.0,3.0,13.0,0.1875,1124.558416958372,17605.974881342372,79.0,39.0,40.0,0.4936708860759494,37.86527810672499,5611.662014808152,0.0,0.0,0.0,0.0,5129.0,5142.0,5219.0,5242.0,5254.0,5278.0,5287.0,5302.0,5499.0,5576.0,0.20051858684210316,-0.12104439128593555,0.044801045195241314,-0.13511052992618905,0.006747206216100382
3,3,6379.310800799212,1700.5082014291852,18.120699058777625,6476.691468867803,-3879.487133280367,8.29335103991266,6508.59959655236,35581.383207469866,10.555899115129325,6533.876695499281,-5919.933446661223,6.132484392903543,6780.184241310517,7244.849643624521,40.837114802534,0.9924908361093596,109.0,60.0,78.0,285.0,363.0,49.0,1242.0,1242.0,50.0,23.0,27.0,0.46,32.48870455072319,1674.3137496348122,18.0,12.0,6.0,0.6666666666666666,533.8674953376911,2085.6620291674926,25.0,13.0,12.0,0.52,1566.85029599023,33598.05851367418,12.0,3.0,9.0,0.25,1010.77685195355,14416.497962839494,95.0,46.0,49.0,0.4842105263157895,40.11816277545677,7728.849573994893,0.0,0.0,0.0,0.0,6356.0,6405.0,6465.0,6483.0,6496.0,6521.0,6531.0,6543.0,6735.0,6828.0,0.019105291302575426,-0.13761290526211137,0.044035676939655606,-0.17074125259357723,0.0055374734810074095
4,4,7601.430545707795,1950.8357038761308,17.04041126668994,7699.503992636279,-3894.474674761331,8.215032232237245,7731.085725865656,35489.38170851269,10.55002532171396,7756.452034599137,-5476.539895959638,6.028390862594121,8001.579656359808,7453.780470242603,40.64278956705311,0.9925776767138832,107.0,62.0,77.0,284.0,361.0,45.0,1221.0,1222.0,46.0,20.0,26.0,0.4347826086956521,41.75856991369416,1892.1051642995485,18.0,12.0,6.0,0.6666666666666666,560.8636659696708,2580.6569694384043,26.0,13.0,13.0,0.5,1545.6069456209832,34558.80291287736,13.0,3.0,10.0,0.2307692307692307,1020.6348271718346,14431.609876343931,95.0,47.0,48.0,0.4947368421052631,47.387373808608025,8003.812674668212,0.0,0.0,0.0,0.0,7581.0,7626.0,7688.0,7705.0,7718.0,7744.0,7753.0,7765.0,7957.0,8049.0,0.021405477575955643,-0.14401522998837907,0.04355125029552839,-0.18636490312520435,0.006357495233162626
5,5,8786.963646574015,1936.2784735972164,16.69339251473894,8886.7280680421,-4111.183926830764,8.70632344417871,8918.106618406202,35020.21159556851,10.599334989306753,8942.876695499283,-6048.681790021284,6.385983159433995,9188.183683789106,7726.220899772488,40.68988870550183,0.9903067040522718,107.0,64.0,77.0,284.0,361.0,43.0,1187.0,1187.0,43.0,19.0,24.0,0.4418604651162791,47.31384141351052,1923.9101973803076,18.0,12.0,6.0,0.6666666666666666,559.5267738120834,2214.3116426444926,26.0,13.0,13.0,0.5,1549.8594320756324,34080.511694379704,13.0,3.0,10.0,0.2307692307692307,1025.6895230003456,14755.403994319337,95.0,47.0,48.0,0.4947368421052631,48.012196143526126,8304.10281190863,0.0,0.0,0.0,0.0,8768.0,8811.0,8875.0,8893.0,8905.0,8931.0,8940.0,8952.0,9143.0,9236.0,0.024435452884837842,-0.13609869657264698,0.044256141281332324,-0.16957240579136773,0.006214188898603705
6,6,9955.784744634708,1670.8462763890034,13.938433970755916,10056.140597719865,-4172.319693852698,9.714187451548971,10087.34429120759,34551.3585056643,10.529012951707957,10112.45203459914,-6226.8922822531395,6.5807362061173915,10357.285520692316,7546.676341581435,39.72564130034263,0.9900905423421918,105.0,68.0,78.0,283.0,361.0,37.0,1170.0,1170.0,38.0,18.0,20.0,0.4736842105263157,47.45113398200871,1588.0875928727355,18.0,12.0,6.0,0.6666666666666666,529.1308863849665,1540.4538312681611,25.0,12.0,13.0,0.48,1549.097180430287,34133.45018143015,14.0,3.0,11.0,0.2142857142857142,1040.3504151314269,15210.85176011905,96.0,47.0,49.0,0.4895833333333333,43.29897018590715,7992.036974323504,0.0,0.0,0.0,0.0,9939.0,9976.0,10044.0,10062.0,10075.0,10100.0,10109.0,10122.0,10312.0,10405.0,0.028399461190744053,-0.12681935355158988,0.044834624380292606,-0.1670737774116411,0.005737488693841836
7,7,11102.418368332445,2467.201144372845,20.060617049489753,11199.911000466038,-3416.584224685139,7.301421135128076,11230.054504787426,34469.51468656275,10.3065349427833,11254.876695499284,-5618.809413895633,6.005242951996434,11497.17149455987,7581.395188798988,48.08427383837726,0.9878404823786456,108.0,62.0,75.0,287.0,362.0,46.0,1145.0,1142.0,47.0,22.0,25.0,0.4680851063829787,50.70026584370591,2491.3219510994154,16.0,11.0,5.0,0.6875,570.5904552881805,3356.2322970426453,25.0,13.0,12.0,0.52,1550.3429272119777,33392.10835380489,12.0,3.0,9.0,0.25,998.0552931495224,14111.542733061691,105.0,50.0,55.0,0.4761904761904761,50.22772042153562,8467.70036421015,0.0,0.0,0.0,0.0,11081.0,11127.0,11189.0,11205.0,11217.0,11242.0,11252.0,11264.0,11450.0,11551.0,0.020549709114452343,-0.16700611422531642,0.044977219473773096,-0.17762753986303137,0.006625128907109838
8,8,14613.559816687468,1481.232232122182,13.37017609192871,14718.39728720115,-4092.465780281995,15.31681199377422,14747.812403420068,33827.34848898708,10.77553915301305,14772.45203459914,-7552.920588733542,7.409874439255214,15013.432597085806,5688.418344767203,33.89163256010201,0.9935313263336102,109.0,69.0,79.0,273.0,352.0,40.0,3511.0,3519.0,42.0,20.0,22.0,0.4761904761904761,32.50932388320816,1327.7334817916164,20.0,15.0,5.0,0.75,578.5947967143977,2620.8994021796825,25.0,13.0,12.0,0.52,1548.0005232430187,31909.34322860744,15.0,3.0,12.0,0.2,1086.313122549264,16661.578797630995,85.0,42.0,43.0,0.4941176470588235,31.975183151489663,5794.64515372966,0.0,0.0,0.0,0.0,14595.0,14635.0,14704.0,14723.0,14735.0,14760.0,14769.0,14783.0,14972.0,15056.0,0.021947486139044924,-0.14138048496389116,0.04576180494155461,-0.14382689580633004,0.005621102600673481
9,9,15897.691084590264,795.1108561742644,9.784421309648188,15985.39728720115,-4045.48375204201,16.598159274552085,16014.618154631284,34654.64281874038,10.870467624845537,16039.45203459914,-7114.63502310245,7.068413019885549,16289.227109328502,6225.349483914358,35.53244318658168,0.9935848560558992,86.0,59.0,80.0,283.0,363.0,27.0,1286.0,1266.0,29.0,15.0,14.0,0.5172413793103449,30.48101339948174,740.6430775345502,21.0,16.0,5.0,0.7619047619047619,596.2550439685006,3126.4585146290938,25.0,13.0,12.0,0.52,1546.7911447241509,32475.29356691417,15.0,3.0,12.0,0.2,1080.3807503259502,16149.838839425573,88.0,43.0,45.0,0.4886363636363636,35.45426464897297,6354.084514012693,0.0,0.0,0.0,0.0,15884.0,15911.0,15970.0,15990.0,16002.0,16027.0,16036.0,16050.0,16247.0,16333.0,0.03833555178222999,-0.14738782319111604,0.044634456422320536,-0.15185329209689144,0.005695144463870347
10,10,17156.306151950772,1715.2731714250417,17.26790992012877,17254.757632443907,-4000.581289739216,8.298814976486153,17286.57987181991,35884.00410425945,10.51524980006115,17311.876695499283,-5686.583881586836,5.998032823523976,17558.138690149222,7481.101774036879,40.69801970095739,0.9927702367674418,108.0,63.0,77.0,285.0,362.0,45.0,1259.0,1272.0,45.0,20.0,25.0,0.4444444444444444,35.29297111513615,1698.2869757853691,17.0,11.0,6.0,0.6470588235294118,541.469825497379,1970.7470257074904,25.0,13.0,12.0,0.52,1578.7706757075584,33901.6102135966,12.0,3.0,9.0,0.25,1007.8386814442696,14226.766799592862,95.0,46.0,49.0,0.4842105263157895,42.06293634365869,7948.126844843573,0.0,0.0,0.0,0.0,17136.0,17181.0,17244.0,17261.0,17274.0,17299.0,17309.0,17321.0,17513.0,17606.0,0.02057571452937429,-0.13534778730434835,0.043996502483962134,-0.17723095314001297,0.005622559031296416
11,11,18347.615982989228,2316.8584914266435,16.147229351325777,18446.55568423975,-4130.29870569274,8.652341479392135,18478.034470450904,35385.338661401256,10.493252362088898,18503.45203459914,-5884.214374042892,6.337478128690691,18749.569643371746,7756.059511334289,40.06687748330178,0.9931382719276116,107.0,65.0,78.0,284.0,362.0,42.0,1188.0,1191.0,43.0,20.0,23.0,0.4651162790697674,51.164170336881504,2163.3023822225127,18.0,12.0,6.0,0.6666666666666666,562.5326279666883,2207.127334400894,26.0,13.0,13.0,0.5,1566.8219438113758,34359.70437231267,13.0,3.0,10.0,0.2307692307692307,1026.9041201217285,14917.00957315603,95.0,47.0,48.0,0.4947368421052631,39.30931939016816,8146.68362730896,0.0,0.0,0.0,0.0,18328.0,18370.0,18435.0,18453.0,18465.0,18491.0,18500.0,18513.0,18704.0,18797.0,0.022083424829876568,-0.13619659691715674,0.04427884550729152,-0.1745184751683629,0.005068207552136963
12,12,19545.922271837513,2341.6303846471737,15.392148808048765,19646.280727532572,-4282.722041773237,9.373010336972907,19677.44823972104,34800.119827789225,10.525821014046718,19702.45203459914,-6174.468450798626,6.536613809931047,19950.125362047256,7728.543694950766,38.38707360770347,0.9928895065768136,107.0,67.0,78.0,284.0,362.0,40.0,1199.0,1200.0,41.0,19.0,22.0,0.4634146341463415,53.12464795082706,2213.4435000671315,18.0,12.0,6.0,0.6666666666666666,533.0548275696318,1406.284324682087,25.0,12.0,13.0,0.48,1556.6099178123598,34592.319510162,14.0,3.0,11.0,0.2142857142857142,1049.2663218524042,15266.016998260844,92.0,45.0,47.0,0.4891304347826087,43.624892440902904,8138.639936218194,0.0,0.0,0.0,0.0,19527.0,19567.0,19634.0,19652.0,19665.0,19690.0,19699.0,19712.0,19906.0,19996.0,0.022687033914121184,-0.12446636096628944,0.044730016031995015,-0.16993629981487535,0.005644645894853909
13,13,20761.190431795647,2080.6016908056754,19.628497065100643,20862.016318428738,-4092.902757199127,8.476959125417624,20892.708653227844,34538.683791244905,10.45902835082964,20917.45203459914,-6118.999123487312,6.376490528761184,21164.235687906355,7534.3712249834625,42.05850679125771,0.991968846570571,111.0,63.0,76.0,286.0,362.0,48.0,1215.0,1215.0,48.0,21.0,27.0,0.4375,42.77837456851854,2185.3810623205936,17.0,11.0,6.0,0.6470588235294118,565.3720357177639,2265.773021726432,25.0,13.0,12.0,0.52,1561.5970707977426,32786.95482743146,14.0,3.0,11.0,0.2142857142857142,1059.185426098632,15198.42236834692,97.0,47.0,50.0,0.4845360824742268,41.84592448637592,8058.22940575493,0.0,0.0,0.0,0.0,20740.0,20788.0,20851.0,20868.0,20880.0,20905.0,20914.0,20927.0,21119.0,21213.0,0.02056057858530019,-0.13813473450433544,0.045212987276416906,-0.17309782281762867,0.005554003544133541
14,14,22873.214560002347,1995.2464542203609,15.045446661161511,22970.162223042065,-3872.3817317103135,8.569432176930173,23001.053792209277,34046.43589100163,10.444701407690564,23025.45203459914,-6589.319595985653,6.908932117483674,23271.80920689325,6495.485064986823,38.55709389356543,0.9954891457269852,105.0,64.0,77.0,283.0,360.0,41.0,2112.0,2108.0,42.0,20.0,22.0,0.4761904761904761,42.833194297722976,1883.4794259458208,17.0,11.0,6.0,0.6470588235294118,526.6316739817116,1991.5613338261992,25.0,13.0,12.0,0.52,1564.26579817971,32730.672695010035,14.0,3.0,11.0,0.2142857142857142,1070.620272266675,15956.128924022005,93.0,46.0,47.0,0.4946236559139785,41.16167153235268,6907.355478693575,0.0,0.0,0.0,0.0,22854.0,22895.0,22959.0,22976.0,22988.0,23013.0,23022.0,23036.0,23228.0,23319.0,0.021467620808006883,-0.13599683875926002,0.0459450675890906,-0.16247812185630192,0.006336966542226386
15,15,23928.53253118447,1100.2980459879595,11.474825951443387,24028.972626301005,-4337.939889673748,15.247229644664024,24057.926117219777,35107.595211588334,10.870342457868434,24082.876695499283,-7259.782245059028,7.044555791359429,24333.331480489163,6678.884586156754,34.55898093814665,0.9919278554644124,101.0,69.0,79.0,283.0,362.0,32.0,1059.0,1058.0,34.0,16.0,18.0,0.4705882352941176,34.6773973575349,1003.3919723345392,21.0,16.0,5.0,0.7619047619047619,652.6227380645513,3865.3397846596017,25.0,12.0,13.0,0.48,1570.9370677867337,33695.40978883263,15.0,4.0,11.0,0.2666666666666666,1060.4375994295374,15928.148224204204,86.0,42.0,44.0,0.4883720930232558,42.105213979534014,6935.904759221125,0.0,0.0,0.0,0.0,23913.0,23945.0,24014.0,24033.0,24046.0,24071.0,24080.0,24093.0,24292.0,24376.0,0.031516367300641716,-0.15044531613222384,0.044746359251293805,-0.1460701662437969,0.006304228413649338
16,16,25074.24551740571,1576.986561900993,15.916952114166978,25172.805725812716,-4106.7538034200315,8.774793550628386,25204.05534850472,34958.14782618398,10.544544030870956,25228.876695499283,-6010.28604891007,6.385317450587297,25478.56938291587,7571.684987894791,37.83130066435277,0.992814694469354,107.0,63.0,77.0,286.0,363.0,44.0,1141.0,1145.0,45.0,20.0,25.0,0.4444444444444444,35.782017392816876,1499.5252086731434,18.0,12.0,6.0,0.6666666666666666,557.6997819239302,2142.046367426944,26.0,13.0,13.0,0.5,1557.6225773012577,33928.87639497828,13.0,3.0,10.0,0.2307692307692307,1018.266332149995,14729.259453402366,91.0,45.0,46.0,0.4945054945054945,41.802884706640455,7906.854055676171,0.0,0.0,0.0,0.0,25054.0,25098.0,25161.0,25179.0,25191.0,25217.0,25226.0,25238.0,25435.0,25524.0,0.02269012194351429,-0.13580063685811597,0.044556782156936356,-0.16942061057720398,0.005520948741722971
17,17,26270.61366826794,1359.9881318049927,12.787958519585858,26371.972626301005,-4342.262253083991,13.309154254767956,26400.223598232104,33861.879091828494,10.765037322570205,26424.876695499283,-6782.235894384346,7.254643792286264,26673.187424524072,6959.490572794123,37.347210321953206,0.9910238371493808,104.0,66.0,78.0,284.0,362.0,38.0,1199.0,1197.0,39.0,18.0,21.0,0.4615384615384615,35.637260372792824,1278.504721631852,20.0,16.0,4.0,0.8,670.008598288584,4304.636880428037,25.0,12.0,13.0,0.48,1543.5732592143456,33234.994954142654,14.0,3.0,11.0,0.2142857142857142,1017.3463959840726,15428.503169477512,90.0,44.0,46.0,0.4888888888888889,39.11932716719678,7313.467463585526,0.0,0.0,0.0,0.0,26253.0,26291.0,26357.0,26376.0,26388.0,26413.0,26422.0,26435.0,26629.0,26719.0,0.02620409659420676,-0.1542994317795352,0.04558439462347613,-0.1500016236277523,0.005621004405138665
18,18,27359.346099139795,1790.6996697544223,19.21517675114159,27456.120641694713,-3531.2001694714154,7.700353098855019,27486.93678337005,34442.38662657786,10.274052799412804,27511.876695499283,-5778.268898103499,6.146380713623858,27757.167517146176,6757.436009069774,40.24685927617065,0.9938457961062918,108.0,61.0,76.0,284.0,360.0,47.0,1087.0,1086.0,49.0,23.0,26.0,0.4693877551020408,34.22913409115981,1744.9628221204516,17.0,11.0,6.0,0.6470588235294118,524.0369590478011,2366.8751585582613,25.0,13.0,12.0,0.52,1559.825171274126,33057.01414736633,13.0,4.0,9.0,0.3076923076923077,992.9791028126024,14299.84770393353,95.0,46.0,49.0,0.4842105263157895,37.994871637767965,7143.188992793686,0.0,0.0,0.0,0.0,27337.0,27384.0,27445.0,27462.0,27474.0,27499.0,27509.0,27521.0,27712.0,27805.0,0.019114949686595974,-0.1484019409543255,0.04528795255060719,-0.17184716051177729,0.005622675758493542
19,19,28392.611418081065,2352.8571113604303,16.174055285418756,28489.97445579018,-3760.028328248072,8.291180542464977,28520.887025675624,34509.73160041115,10.440953268749444,28545.45203459914,-6276.674762173521,6.4640780018383825,28791.873153642555,6894.12200669165,39.91459310122476,0.995153778086234,106.0,65.0,76.0,284.0,360.0,41.0,1034.0,1034.0,41.0,20.0,21.0,0.4878048780487805,52.14794363883162,2199.0221663681996,17.0,11.0,6.0,0.6470588235294118,541.2045017585428,2415.800170734385,25.0,13.0,12.0,0.52,1564.8414959372026,32978.969172348356,14.0,3.0,11.0,0.2142857142857142,1071.5363329998083,15507.604136575648,94.0,46.0,48.0,0.4893617021276595,38.25396233779402,7312.186376947848,0.0,0.0,0.0,0.0,28373.0,28414.0,28479.0,28496.0,28508.0,28533.0,28542.0,28555.0,28747.0,28839.0,0.02216366790275653,-0.14393628305739625,0.04534493383073889,-0.1707171987717826,0.005548779424075108
20,20,29470.05115042469,1881.7314545851984,12.845501421623029,29570.084914847077,-4183.639868296906,12.753791975897412,29600.174985474976,34579.78029753251,10.86424924395368,29624.876695499283,-7024.458510703193,6.926042245176858,29873.799616349577,7247.045797050299,37.966571791168136,0.9916059805268744,103.0,69.0,79.0,285.0,364.0,34.0,1077.0,1080.0,35.0,17.0,18.0,0.4857142857142857,54.29738487419821,1761.648660763275,19.0,14.0,5.0,0.7368421052631579,586.4062920324919,2793.802312766226,25.0,12.0,13.0,0.48,1549.7002644726576,33852.66397999614,14.0,3.0,11.0,0.2142857142857142,1058.108959275973,15655.578667797718,91.0,45.0,46.0,0.4945054945054945,37.53011394992824,7505.786352525289,0.0,0.0,0.0,0.0,29453.0,29487.0,29556.0,29575.0,29588.0,29613.0,29622.0,29635.0,29830.0,29920.0,0.0288550126224931,-0.14016653213298896,0.044815214299763456,-0.15063210319538914,0.005178677629607887
21,21,30643.166565151165,1844.1618074912135,16.95618567596876,30742.72413005228,-4001.134320917224,8.671912882851927,30773.93646164981,34806.957582259405,10.50908127020464,30798.876695499283,-6021.071986383949,6.3131223677660255,31047.22616782449,7554.694092523715,39.89931629381352,0.9922215830157955,108.0,63.0,77.0,287.0,364.0,45.0,1174.0,1173.0,46.0,20.0,26.0,0.4347826086956521,39.300052414078046,1768.962301782214,18.0,12.0,6.0,0.6666666666666666,555.6272380649648,2297.8124630913776,25.0,13.0,12.0,0.52,1553.654924996265,33537.27454647752,13.0,3.0,10.0,0.2307692307692307,1013.6472673553606,14608.466618521628,93.0,45.0,48.0,0.4838709677419355,43.16786361964505,8028.935960043275,0.0,0.0,0.0,0.0,30623.0,30668.0,30731.0,30749.0,30761.0,30786.0,30796.0,30808.0,31002.0,31095.0,0.021310522891449312,-0.13886742945875213,0.044636332300072676,-0.1683499665254995,0.005714045213606317
22,22,31775.314515166177,1915.4664736508184,14.689369149984048,31875.084583720098,-4239.514017098619,10.83795044162853,31905.65900955403,33710.289130866695,10.549431856153028,31930.45203459914,-6647.080901591813,7.061596928258754,32178.40013366025,7158.672754357342,38.94854938260717,0.9926818389661808,105.0,66.0,79.0,284.0,363.0,39.0,1132.0,1132.0,39.0,18.0,21.0,0.4615384615384615,47.99247056172843,1829.9913882489695,19.0,13.0,6.0,0.6842105263157895,549.0743728756131,1806.8764808811695,25.0,13.0,12.0,0.52,1554.679088406457,31923.81415084155,14.0,3.0,11.0,0.2142857142857142,1044.143810491972,15763.934263700525,93.0,45.0,48.0,0.4838709677419355,36.53631785332503,7435.115368057014,0.0,0.0,0.0,0.0,31757.0,31796.0,31862.0,31881.0,31893.0,31918.0,31927.0,31941.0,32134.0,32225.0,0.02505523913987192,-0.12951351750722154,0.04611882984364323,-0.15708306036141748,0.005103783774874484
23,23,32811.627208523816,1963.511217391071,13.283951286677697,32908.47443939108,-4263.277483856771,9.607045072936591,32939.13481592131,33315.75188932613,10.479532084005683,32963.45203459914,-6650.509565790551,7.145980060789039,33211.11798472588,6459.49385033434,37.165574218697465,0.994829449924778,103.0,65.0,78.0,283.0,361.0,38.0,1039.0,1033.0,38.0,19.0,19.0,0.5,46.60495213041695,1804.6917230975887,19.0,12.0,7.0,0.631578947368421,524.9341180547243,1303.98645908549,25.0,13.0,12.0,0.52,1543.685606649765,32226.43404092641,15.0,3.0,12.0,0.2,1057.471877407077,15865.764836463972,89.0,43.0,46.0,0.4831460674157303,34.95423195280752,6693.073098753525,0.0,0.0,0.0,0.0,32793.0,32831.0,32896.0,32915.0,32926.0,32951.0,32960.0,32974.0,33169.0,33257.0,0.0237355161089129,-0.12312924036552343,0.04633500728958,-0.15900614335577976,0.005411295801604998
24,24,33762.37184830583,2176.68136372857,13.588488805905396,33860.39398246797,-3897.90785441499,10.235991990032751,33891.83199986405,33737.319849966465,10.50305045979582,33916.45203459914,-6517.742394747205,6.8635685709693055,34161.538845728304,6459.4057647633035,38.66684676965316,0.9952091288518546,103.0,68.0,78.0,282.0,360.0,35.0,951.0,953.0,35.0,17.0,18.0,0.4857142857142857,57.309557519028985,2145.04834624023,19.0,12.0,7.0,0.631578947368421,477.8976339136085,1149.2043527692615,25.0,13.0,12.0,0.52,1547.4356959333677,32148.595170511508,14.0,3.0,11.0,0.2142857142857142,1051.438529684482,15638.611324462145,92.0,46.0,46.0,0.5,33.225523199404776,6747.189735715108,0.0,0.0,0.0,0.0,33745.0,33780.0,33848.0,33867.0,33879.0,33904.0,33913.0,33926.0,34116.0,34208.0,0.026328868558354337,-0.12260362526844104,0.04586717921918465,-0.1613194363943963,0.005143743001972919
25,25,34710.97615440191,2117.3709868989968,15.6178005739829,34809.60028215329,-3951.208280986108,9.302035412277824,34841.065819462085,34254.658939658104,10.509558950655164,34865.45203459914,-6758.061084319738,6.772541851143437,35111.71657802453,6645.321557243182,38.285498888815795,0.9958491545071247,107.0,65.0,77.0,282.0,359.0,42.0,947.0,949.0,42.0,20.0,22.0,0.4761904761904761,42.45783608074144,2001.6952599603403,18.0,12.0,6.0,0.6666666666666666,536.2737316134458,2028.921792472656,25.0,13.0,12.0,0.52,1562.6502167339588,32953.28374010422,14.0,3.0,11.0,0.2142857142857142,1090.139812168455,16067.07437086952,92.0,46.0,46.0,0.5,33.46887656150902,6933.476479042527,0.0,0.0,0.0,0.0,34691.0,34733.0,34798.0,34816.0,34828.0,34853.0,34862.0,34875.0,35067.0,35157.0,0.020052147849122657,-0.13572398453255094,0.0456186184625768,-0.1613095529275151,0.005036457043230518
26,26,35803.05090343387,1762.701935761467,12.57411117245024,35902.47745069185,-4428.069069521328,12.631104883135569,35932.442739672086,34601.72579326467,10.89998106052696,35956.87669549929,-7284.047188028459,7.191632180446428,36207.25106910397,6790.511068079751,35.143513510796495,0.9934231195969336,102.0,68.0,79.0,283.0,362.0,34.0,1091.0,1092.0,35.0,17.0,18.0,0.4857142857142857,50.33094011501628,1635.719122452847,20.0,14.0,6.0,0.7,582.4958555795852,2273.719690880156,25.0,12.0,13.0,0.48,1561.2387000282713,34271.312248903465,14.0,3.0,11.0,0.2142857142857142,1073.232613096363,16103.65116199575,87.0,43.0,44.0,0.4942528735632184,34.704475677956516,6887.4106549318985,0.0,0.0,0.0,0.0,35786.0,35820.0,35888.0,35908.0,35920.0,35945.0,35954.0,35967.0,36165.0,36250.0,0.02855329031749993,-0.13154624429617415,0.04512025525420964,-0.14734015107154325,0.005110731037770091
27,27,36944.10651593826,2199.6644640736954,15.899175195228148,37041.80286593896,-4003.424403295564,8.868745490619228,37073.31771108706,34877.8617858696,10.48624280379185,37098.45203459914,-6073.450117296895,6.369215278155127,37346.415046173905,7517.244280895207,39.48122124372377,0.9937205420818906,106.0,63.0,78.0,285.0,363.0,43.0,1141.0,1141.0,44.0,20.0,24.0,0.4545454545454545,46.52144568758406,1999.6000030851883,18.0,12.0,6.0,0.6666666666666666,534.0274273768374,1913.7184775191315,26.0,13.0,13.0,0.5,1551.9909506932877,34344.18906235091,13.0,3.0,10.0,0.2307692307692307,1044.325737749325,15070.016811747148,93.0,45.0,48.0,0.4838709677419355,42.6535177086161,7926.676068758481,0.0,0.0,0.0,0.0,36924.0,36967.0,37030.0,37048.0,37060.0,37086.0,37095.0,37108.0,37302.0,37393.0,0.021149337295483742,-0.13339265927869984,0.044497881212490514,-0.17194933976244167,0.005674089615129098
28,28,38105.25065107951,2461.3685781589606,16.365008668731935,38204.29304961145,-4019.226042410041,8.889901903616039,38235.26007203666,34654.50405290221,10.572960313293368,38259.87669549929,-6276.11502138641,6.596481945996767,38507.44009373202,7666.40906847164,40.911617023885086,0.9924724383071692,108.0,65.0,77.0,286.0,363.0,43.0,1161.0,1162.0,44.0,20.0,24.0,0.4545454545454545,52.27384039641726,2316.664306176756,17.0,11.0,6.0,0.6470588235294118,535.7436471389807,1932.1499455211977,26.0,13.0,13.0,0.5,1550.7982026243149,33958.92902432654,13.0,3.0,10.0,0.2307692307692307,1028.9300769861154,15069.101585931465,96.0,46.0,50.0,0.4791666666666667,48.46449688738994,8231.6769773003,0.0,0.0,0.0,0.0,38085.0,38128.0,38193.0,38210.0,38222.0,38248.0,38257.0,38270.0,38462.0,38556.0,0.02123771338444433,-0.13329522686356146,0.04475026392693218,-0.16394378902871382,0.006321668522320545
29,29,39265.36931542015,2304.7047644148915,14.631130945585507,39363.48305586361,-3903.888412483224,9.127135263369269,39394.24572881945,33739.538730760054,10.43541372513476,39418.87669549929,-6318.815874407007,6.72750086519199,39665.39070197584,7204.510784004509,40.78824922126291,0.9926203688273484,106.0,66.0,77.0,285.0,362.0,40.0,1159.0,1159.0,40.0,19.0,21.0,0.475,51.33641777427036,2196.278681179831,17.0,11.0,6.0,0.6470588235294118,510.9629347340815,1619.191680866064,25.0,12.0,13.0,0.48,1539.536028627511,32984.20117053807,14.0,4.0,10.0,0.2857142857142857,1008.922305350206,14963.234771777556,96.0,47.0,49.0,0.4895833333333333,37.208683081757016,7587.934957292131,0.0,0.0,0.0,0.0,39246.0,39286.0,39352.0,39369.0,39382.0,39407.0,39416.0,39429.0,39620.0,39714.0,0.022274617802208355,-0.13088564035288683,0.04563002597376736,-0.1596695212209976,0.00516463701662685
30,30,40282.976693863915,2123.45643066369,15.202133650766903,40381.44448051412,-4042.418141155308,9.778459961609794,40411.77590435051,33582.69559316396,10.52493215984764,40435.87669549929,-6552.33244684915,7.126429775466927,40680.21438215027,6512.612364651436,39.46219877951937,0.9942315240839774,105.0,65.0,77.0,282.0,359.0,40.0,1019.0,1017.0,41.0,20.0,21.0,0.4878048780487805,44.879347241336056,1986.7132828817505,18.0,12.0,6.0,0.6666666666666666,534.6226589757928,1945.8111372073504,25.0,13.0,12.0,0.52,1559.0652784324343,31864.10424725506,14.0,3.0,11.0,0.2142857142857142,1030.8476114564812,15476.951404831005,94.0,46.0,48.0,0.4893617021276595,34.01118762324416,6790.072585318185,0.0,0.0,0.0,0.0,40264.0,40304.0,40369.0,40387.0,40399.0,40424.0,40433.0,40446.0,40635.0,40728.0,0.021135045011170275,-0.1322531812166763,0.046424661597140975,-0.1573252913856942,0.005222357130887597
31,31,41247.8820717321,1799.7285822412075,12.278909768273824,41346.06822974141,-4130.510556273487,10.681237393066422,41377.32536154414,33622.64693622619,10.576118444752884,41401.87669549929,-6733.04744287497,7.003410154244334,41648.223853078256,6353.50598251355,37.33309186111948,0.9937348936578034,103.0,69.0,78.0,282.0,360.0,34.0,965.0,966.0,35.0,17.0,18.0,0.4857142857142857,48.009372340084234,1649.7413982023902,18.0,12.0,6.0,0.6666666666666666,515.4562799177053,1358.6455898694117,25.0,12.0,13.0,0.48,1538.3208657303871,32983.198390773614,14.0,4.0,10.0,0.2857142857142857,1023.18657788581,15392.734924938615,90.0,44.0,46.0,0.4888888888888889,37.999819468939286,6651.145411766827,0.0,0.0,0.0,0.0,41231.0,41265.0,41334.0,41352.0,41365.0,41390.0,41399.0,41412.0,41605.0,41694.0,0.02667589591776001,-0.12479238895415043,0.04575252116968065,-0.15196485492888723,0.005980921332808116
32,32,42307.04587479741,1443.4815204410936,10.923766494071373,42408.972626301,-4304.813594910148,17.83575780604837,42437.62374244037,35076.45007758885,10.882499874656276,42462.45203459914,-7405.972813205787,7.473117085437251,42714.203309494966,6355.301999881673,33.569886055881,0.9909949948908215,101.0,72.0,80.0,284.0,364.0,29.0,1059.0,1060.0,30.0,15.0,15.0,0.5,49.18061685803032,1357.6020430512913,22.0,17.0,5.0,0.7727272727272727,660.839672453246,4067.29037371538,25.0,13.0,12.0,0.52,1561.6248621844493,32508.79794649149,15.0,3.0,12.0,0.2,1087.8133759880243,16656.03858659249,85.0,42.0,43.0,0.4941176470588235,40.45425246546083,6511.691693766042,0.0,0.0,0.0,0.0,42292.0,42321.0,42393.0,42413.0,42425.0,42450.0,42459.0,42473.0,42672.0,42757.0,0.03407083233251361,-0.15351179740618695,0.044520607379884405,-0.14688325266983365,0.006365433533483387
33,33,43462.691800765875,2114.6611255931357,14.241942768587265,43560.59595597195,-4102.3079478208165,9.183718432427634,43591.95688746489,34963.19370806847,10.56157831722303,43616.87669549929,-6272.722352793231,6.540736439892242,43866.76491267385,7384.6623955512205,38.942569107816816,0.9931581888713896,105.0,66.0,77.0,288.0,365.0,39.0,1156.0,1154.0,39.0,19.0,20.0,0.4871794871794871,52.099146258282,1930.8477291138397,18.0,12.0,6.0,0.6666666666666666,559.7224394715357,2242.160765309343,25.0,13.0,12.0,0.52,1563.781539698383,33709.06045287464,13.0,3.0,10.0,0.2307692307692307,1024.502992154586,14963.69588012214,93.0,46.0,47.0,0.4946236559139785,40.957190036328726,7728.872085022104,0.0,0.0,0.0,0.0,43444.0,43483.0,43549.0,43567.0,43579.0,43604.0,43614.0,43626.0,43822.0,43914.0,0.02463711354398159,-0.13644086367744904,0.04472650733097956,-0.16332669206989162,0.005546250842963759
34,34,44651.09710511393,2657.596252486036,18.95234446313925,44748.709779758705,-3727.6693715146184,7.792396368243994,44779.79432187427,35464.11490737175,10.496059456515692,44804.87669549929,-5630.572690386769,5.984242218725684,45051.27939192488,7870.802328881309,44.200933148881326,0.9906884504147028,109.0,62.0,76.0,288.0,364.0,47.0,1188.0,1188.0,47.0,22.0,25.0,0.4680851063829787,46.74823078964161,2547.0873302466857,16.0,11.0,5.0,0.6875,569.1706419491082,2885.4879526067507,25.0,13.0,12.0,0.52,1562.5671063316368,33910.40869055351,12.0,3.0,9.0,0.25,1008.3947979056012,14167.53099151931,102.0,50.0,52.0,0.4901960784313725,44.60702872735316,8477.043196093926,0.0,0.0,0.0,0.0,44629.0,44676.0,44738.0,44754.0,44767.0,44792.0,44802.0,44814.0,45003.0,45102.0,0.01759041868978826,-0.15268807000387055,0.04406051329387142,-0.17909275900607077,0.005667405540559832
35,35,45779.97450466559,2771.447553672501,22.01974441798024,45878.13306283524,-3368.164811259879,6.943347850349828,45908.73709980178,35440.688221849094,10.433480320416503,45933.87669549929,-5475.259938132752,5.785479830812149,46180.36536993728,7831.723243777381,45.0371987342197,0.9925320447337176,110.0,62.0,74.0,290.0,364.0,48.0,1127.0,1129.0,50.0,23.0,27.0,0.46,49.5371505010277,2724.7113733467004,15.0,10.0,5.0,0.6666666666666666,558.7983789957364,3100.7753476719895,25.0,13.0,12.0,0.52,1559.6664403120542,33715.95071474655,12.0,3.0,9.0,0.25,1001.9975693612456,13889.36214714715,101.0,49.0,52.0,0.4851485148514851,45.61878393123255,8490.411899766294,0.0,0.0,0.0,0.0,45758.0,45806.0,45868.0,45883.0,45896.0,45921.0,45931.0,45942.0,46132.0,46232.0,0.017874107137760924,-0.16590588950031665,0.04400779213284362,-0.18300456611799887,0.005824871808063252
36,36,47807.05685265609,2055.011823818063,13.843107830615883,47904.613252447794,-4042.474699624115,9.686428291715297,47935.38552046686,33805.2881026826,10.457663435404132,47959.87669549929,-6742.802685102964,7.089380338008586,48207.98237384055,6591.929816887094,38.145724945803586,0.9954153315803912,104.0,66.0,77.0,284.0,361.0,38.0,2030.0,2027.0,38.0,18.0,20.0,0.4736842105263157,45.426735055833504,1918.1849598077995,19.0,13.0,6.0,0.6842105263157895,560.7722419155832,2360.586695243746,25.0,12.0,13.0,0.48,1559.805383552756,33168.827198978484,14.0,4.0,10.0,0.2857142857142857,1025.8796403495403,15613.462755406015,92.0,46.0,46.0,0.5,31.367261890537943,6814.434717068538,0.0,0.0,0.0,0.0,47789.0,47827.0,47893.0,47911.0,47923.0,47948.0,47957.0,47970.0,48163.0,48254.0,0.02210533999334073,-0.13872003749775502,0.046140869405250785,-0.15214439577418465,0.004758433836807823
37,37,48856.276239424675,1674.8552021158555,11.903088879628264,48955.00083965086,-4374.4823496447,11.853683325980011,48985.31562243246,34371.90124068181,10.8119047976013,49009.87669549929,-7210.66004578045,7.196866771434396,49259.45181210824,6897.285334125283,36.5216768172296,0.99142056631916,102.0,69.0,78.0,284.0,362.0,33.0,1050.0,1050.0,34.0,16.0,18.0,0.4705882352941176,49.352348906162675,1565.9461489071605,20.0,14.0,6.0,0.7,586.3412449536663,2402.3563858655775,25.0,12.0,13.0,0.48,1557.2566694177474,33791.7200918216,14.0,3.0,11.0,0.2142857142857142,1059.7517529902436,15959.18422792934,90.0,44.0,46.0,0.4888888888888889,41.98882658696123,7253.49424919111,0.0,0.0,0.0,0.0,48840.0,48873.0,48942.0,48960.0,48973.0,48998.0,49007.0,49020.0,49216.0,49304.0,0.02946663618670768,-0.13403671522444013,0.045306096352174245,-0.14697014507158626,0.006087732282035027
38,38,50016.420113776614,2304.2350204866425,15.830371962838178,50113.581198532986,-4091.25209656321,8.971304587149968,50144.98093573889,34814.23111933573,10.54880524746796,50169.87669549929,-6208.569771507932,6.534221433821326,50419.49869405113,7398.53647624843,39.42955569470245,0.9942608325390044,105.0,63.0,77.0,287.0,364.0,42.0,1158.0,1159.0,42.0,19.0,23.0,0.4523809523809524,51.34495089163378,2196.2490431159704,18.0,12.0,6.0,0.6666666666666666,557.8705918762633,2226.890284791145,26.0,13.0,13.0,0.5,1557.0601782724812,33585.586208882254,13.0,3.0,10.0,0.2307692307692307,1019.3382019657464,14874.207246396236,93.0,45.0,48.0,0.4838709677419355,43.02202796099712,7843.800314730448,0.0,0.0,0.0,0.0,49997.0,50039.0,50102.0,50120.0,50132.0,50158.0,50167.0,50179.0,50375.0,50466.0,0.022282861962921643,-0.1363569339432526,0.04472481879422275,-0.16418245094766332,0.005814937602742248
39,39,51171.82915887661,1864.8696872898809,15.106977320690174,51269.7674034574,-4256.2361187162605,9.631305432063654,51300.94732963248,34517.81485574109,10.54177672523655,51325.87669549929,-6288.014804762861,6.6754200662707355,51575.89184890594,7569.882206111277,38.278348033451465,0.9922358510390252,106.0,64.0,78.0,285.0,363.0,42.0,1156.0,1156.0,43.0,20.0,23.0,0.4651162790697674,39.68999539006966,1699.8122294077257,18.0,12.0,6.0,0.6666666666666666,555.4209105882463,1922.4933135780875,25.0,13.0,12.0,0.52,1558.026659204425,33325.62862984758,13.0,3.0,10.0,0.2307692307692307,1011.1028143888044,14923.768034036304,91.0,45.0,46.0,0.4945054945054945,43.28110378707955,7944.26727534074,0.0,0.0,0.0,0.0,51152.0,51194.0,51258.0,51276.0,51288.0,51313.0,51323.0,51336.0,51532.0,51621.0,0.021282985969785957,-0.13049579372390857,0.04513688556809934,-0.16079841504554726,0.005717539931088767
40,40,52313.62349653245,1837.3580486198853,17.74525420559421,52412.78234755669,-3981.548448266803,8.32179138274549,52443.831715146865,34641.79854713838,10.421512622056262,52468.87669549929,-5883.249583921494,6.275999756866259,52717.216105341904,7317.113288165052,39.45817845633805,0.9913356616027418,109.0,63.0,76.0,287.0,363.0,46.0,1141.0,1143.0,47.0,21.0,26.0,0.4468085106382978,35.08875013014288,1776.8502155518718,18.0,12.0,6.0,0.6666666666666666,556.7710037184263,2257.1259526466574,25.0,13.0,12.0,0.52,1554.5093969926986,33157.40201058921,12.0,3.0,9.0,0.25,995.7214693454608,14396.202793973382,94.0,45.0,49.0,0.4787234042553192,43.39382096883316,7753.974450725574,0.0,0.0,0.0,0.0,52293.0,52339.0,52402.0,52419.0,52431.0,52456.0,52466.0,52478.0,52674.0,52765.0,0.019097393758663136,-0.13983780706242385,0.04487380742883254,-0.16924685161525313,0.005930456350733261
41,41,53416.027512299486,1404.1936332215123,13.421578207862536,53515.99579681502,-4275.449810824255,10.88797870292754,53546.06236664717,33593.47094213572,10.553659368811562,53570.45203459914,-6721.684757974708,7.234155706747207,53817.67256846095,6570.898297153805,38.23687568577333,0.991500482030098,103.0,67.0,78.0,283.0,361.0,36.0,1104.0,1102.0,38.0,17.0,21.0,0.4473684210526316,41.01370768925918,1356.223240108718,19.0,13.0,6.0,0.6842105263157895,578.5934788311375,2261.3625558324034,24.0,12.0,12.0,0.5,1559.7241352291123,32534.095165507464,15.0,3.0,12.0,0.2,1059.5792262576244,15975.096495885504,92.0,45.0,47.0,0.4891304347826087,40.724545666442346,6878.557098146681,0.0,0.0,0.0,0.0,53400.0,53436.0,53503.0,53522.0,53534.0,53558.0,53567.0,53581.0,53774.0,53864.0,0.029208014278746728,-0.13532926462294073,0.04642938319519633,-0.1576359594966907,0.006197713588731429
42,42,54502.82975953064,1653.577177641533,13.998924235362816,54598.17205750296,-3962.045509780849,9.234213711608223,54629.56408922555,33924.59843926936,10.416188485530606,54654.45203459914,-6301.737064099969,6.696839971367409,54901.80755428246,6680.045436150325,38.61151823811007,0.9944346394138908,102.0,63.0,78.0,285.0,363.0,39.0,1091.0,1084.0,39.0,19.0,20.0,0.4871794871794871,35.30448082504912,1549.5825272343188,19.0,12.0,7.0,0.631578947368421,499.2085376542144,1400.3086127834474,25.0,13.0,12.0,0.52,1552.4636393679496,31818.166472785942,14.0,3.0,11.0,0.2142857142857142,1033.1292408900365,15412.324623929648,94.0,47.0,47.0,0.5,35.04800217876339,6947.817908348014,0.0,0.0,0.0,0.0,54484.0,54523.0,54586.0,54605.0,54617.0,54642.0,54651.0,54664.0,54856.0,54949.0,0.021350367737539327,-0.12599767883075805,0.0457621817439377,-0.16394356514422279,0.005246671226080966
43,43,55563.65461414389,1074.494433590217,11.253363696791538,55659.84197411464,-4161.995248516682,10.0830946632379,55690.388537585975,33810.076954370175,10.61800325676168,55714.87669549929,-6773.394186289693,7.217488731484766,55962.81310627993,6460.097754650575,37.95387968278432,0.9911859174780944,98.0,67.0,78.0,285.0,363.0,31.0,1059.0,1061.0,31.0,15.0,16.0,0.4838709677419355,34.1839918683536,1027.4816906352144,19.0,13.0,6.0,0.6842105263157895,568.358852840531,2411.181810396497,25.0,12.0,13.0,0.48,1544.5529123448218,33293.710138168775,14.0,3.0,11.0,0.2142857142857142,1027.0990461127576,15550.489240864365,94.0,46.0,48.0,0.4893617021276595,29.26190520942579,6562.083724032167,0.0,0.0,0.0,0.0,55549.0,55580.0,55647.0,55666.0,55678.0,55703.0,55712.0,55725.0,55918.0,56010.0,0.031814024158444774,-0.1365592267418113,0.04568321197344031,-0.15163727635869048,0.004529638144927508
44,44,56599.41221785338,1141.3426357509534,12.380248527826122,56696.90784863366,-4149.582778905056,9.561067508016212,56728.22569379799,34218.21876950862,10.513071764057006,56752.87669549929,-6678.092835252672,6.932562977304575,57002.852843631896,6538.9532421051,36.158334912773135,0.9942810378529746,102.0,67.0,78.0,285.0,363.0,35.0,1034.0,1038.0,35.0,16.0,19.0,0.4571428571428571,33.96514390350266,1132.4010131908128,18.0,12.0,6.0,0.6666666666666666,532.6104012936444,1646.1481719670464,26.0,13.0,13.0,0.5,1559.1940627981382,33343.19879475788,14.0,4.0,10.0,0.2857142857142857,1027.5343571218575,15504.344212179863,90.0,45.0,45.0,0.5,31.171904757271445,6664.555581416327,0.0,0.0,0.0,0.0,56583.0,56618.0,56685.0,56703.0,56715.0,56741.0,56750.0,56763.0,56959.0,57048.0,0.029758937272289912,-0.12835275970423787,0.04556619598760397,-0.15386643798924965,0.0047671092915226605
45,45,57685.20971074869,1527.5958544540845,16.032441784256072,57781.81999615671,-4064.86239142102,9.185206907217127,57813.21037132953,34926.11010245479,10.558234129006202,57837.87669549929,-6589.396914835105,6.665148803573219,58088.53625026765,7157.315111596479,37.71582043983206,0.993346531722802,105.0,61.0,78.0,286.0,364.0,44.0,1083.0,1085.0,45.0,20.0,25.0,0.4444444444444444,33.59074199301918,1419.976920815006,18.0,12.0,6.0,0.6666666666666666,541.533654650798,2031.7565329152071,26.0,13.0,13.0,0.5,1570.6527214814885,34063.448612503635,13.0,3.0,10.0,0.2307692307692307,1049.1895871777729,15419.071601016249,91.0,45.0,46.0,0.4945054945054945,39.89016405742498,7482.832355566717,0.0,0.0,0.0,0.0,57665.0,57709.0,57770.0,57788.0,57800.0,57826.0,57835.0,57848.0,58045.0,58134.0,0.02198928590639798,-0.1332231211058255,0.04497073154937729,-0.1592239169590269,0.0055733418796657195
46,46,58762.38410953396,1568.516555039715,15.360844398288844,58861.98976807812,-4243.122500610547,9.656106501118916,58893.16875194709,34769.058420653106,10.559519878414465,58917.87669549929,-6521.412818748282,6.71786994301703,59167.4522673012,7514.203959521633,38.352927672212545,0.9923090501257066,106.0,65.0,78.0,285.0,363.0,41.0,1078.0,1080.0,41.0,18.0,23.0,0.4390243902439024,39.353386342525454,1539.780375213822,18.0,12.0,6.0,0.6666666666666666,545.6150205715853,1738.9927485577468,26.0,13.0,13.0,0.5,1570.8260755338436,33905.26496215671,13.0,3.0,10.0,0.2307692307692307,1037.9708433377082,15318.37223105336,92.0,45.0,47.0,0.4891304347826087,44.64197860720287,7961.228592819344,0.0,0.0,0.0,0.0,58744.0,58785.0,58850.0,58868.0,58880.0,58906.0,58915.0,58928.0,59123.0,59213.0,0.0250895575287881,-0.12858809060852622,0.04517885001455087,-0.1591634929709811,0.0059410123610811405
47,47,59821.73957531288,2217.114434541961,12.021726235134588,59929.9296753063,-4442.291323196243,10.330256599748695,59960.78443575582,34513.111631901826,10.618343789514023,59985.45203459914,-6654.757765359535,6.899421444681321,60234.401340808115,7536.530747257904,38.49108340024111,0.9910401571319593,109.0,82.0,79.0,285.0,364.0,27.0,1062.0,1067.0,27.0,14.0,13.0,0.5185185185185185,92.49308407994856,2250.8801362088084,19.0,13.0,6.0,0.6842105263157895,566.5996671893815,1846.9338152591504,25.0,13.0,12.0,0.52,1573.449531204957,32972.76879743929,14.0,3.0,11.0,0.2142857142857142,1076.4726773030986,15899.34491207458,93.0,46.0,47.0,0.4946236559139785,44.8841786199384,7921.410461491825,0.0,0.0,0.0,0.0,59808.0,59835.0,59917.0,59936.0,59948.0,59973.0,59982.0,59996.0,60190.0,60281.0,0.04171777633077244,-0.1275467154148079,0.045589906467620726,-0.16175985892477338,0.005955549061651356
48,48,60898.05696785855,1860.0374908785068,16.577264576324154,60997.64862037248,-4054.9408313727854,8.551217377834613,61028.45188101173,34625.22356672109,10.410463925644438,61053.45203459914,-6167.797533894863,6.486883612412705,61300.664410761165,7548.109844035967,40.707001074224095,0.9923420852588184,107.0,64.0,77.0,286.0,363.0,43.0,1075.0,1068.0,44.0,20.0,24.0,0.4545454545454545,45.39768212003805,1808.28556302825,18.0,12.0,6.0,0.6666666666666666,576.1613252865014,2535.0859028889786,25.0,12.0,13.0,0.48,1558.6715181789468,34304.642776163324,13.0,3.0,10.0,0.2307692307692307,1045.3130385216034,15257.967871469576,95.0,46.0,49.0,0.4842105263157895,45.66982290023625,8077.075734719607,0.0,0.0,0.0,0.0,60879.0,60922.0,60986.0,61004.0,61016.0,61041.0,61050.0,61063.0,61256.0,61349.0,0.024406864024335582,-0.14208871331211118,0.04501549326246122,-0.1694791427210655,0.006050497918538058
49,49,61953.81546745077,1081.7671692737704,10.090617833507368,62053.972626301,-4209.578283119813,15.176943912408028,62081.95650548913,34250.038913859324,10.74604590361514,62106.45203459914,-7111.443499462945,7.517878535426831,62355.22121664947,6465.29108844322,34.89223007162088,0.9894201545808984,99.0,70.0,79.0,282.0,361.0,29.0,1055.0,1054.0,30.0,15.0,15.0,0.5,38.10650503649533,981.6294080363814,21.0,17.0,4.0,0.8095238095238095,675.2914516337502,4683.827468419989,24.0,12.0,12.0,0.5,1565.9600069600629,32703.740056803617,15.0,3.0,12.0,0.2,1075.192621769041,16355.441566709696,88.0,44.0,44.0,0.5,39.555309004846,6643.85032458246,0.0,0.0,0.0,0.0,61939.0,61968.0,62038.0,62058.0,62070.0,62094.0,62103.0,62117.0,62312.0,62399.0,0.035226161524274775,-0.16041783908417462,0.0457214081098867,-0.15119189540776629,0.00611810179367663
50,50,62962.39709466894,1919.878110998566,13.852065387916957,63059.60299952074,-3763.799730527976,9.810376021616364,63090.7726991438,33919.37379238709,10.449094719835,63115.45203459914,-6312.652167449539,6.550943027461945,63360.046252987086,6861.7572046935975,40.236047244680286,0.992253997321111,104.0,64.0,78.0,283.0,361.0,40.0,1010.0,1008.0,40.0,19.0,21.0,0.475,40.72957447133646,1817.8851066894013,19.0,13.0,6.0,0.6842105263157895,529.00145185914,2319.949166370916,25.0,13.0,12.0,0.52,1552.1487200847268,32296.805145388324,14.0,3.0,11.0,0.2142857142857142,1052.214756309469,15366.836954557984,96.0,47.0,49.0,0.4895833333333333,40.76211794629992,7270.087275216232,0.0,0.0,0.0,0.0,62943.0,62983.0,63047.0,63066.0,63078.0,63103.0,63112.0,63125.0,63315.0,63408.0,0.021214666825985228,-0.14054984051580585,0.045759946206114614,-0.16668346812059326,0.005940478033588496
51,51,63914.70730192973,1606.0418829376397,11.196392879411384,64013.24067513354,-4143.3346230286725,11.65489202041878,64043.91220483335,33598.84546698811,10.6436141468798,64068.45203459914,-7280.786524230161,7.4362067507417215,64316.00489619424,6159.530495219379,35.47926391803597,0.9932116167192356,101.0,68.0,79.0,281.0,360.0,33.0,953.0,953.0,33.0,16.0,17.0,0.4848484848484848,48.23465756284554,1468.1104036815134,19.0,13.0,6.0,0.6842105263157895,532.2359356352262,1668.378173769494,25.0,13.0,12.0,0.52,1557.7526144070432,32064.726284840515,15.0,3.0,12.0,0.2,1076.0802209864576,16492.910629549773,90.0,45.0,45.0,0.5,37.69637848363633,6370.04633436981,0.0,0.0,0.0,0.0,63899.0,63932.0,64000.0,64019.0,64031.0,64056.0,64065.0,64079.0,64272.0,64360.0,0.030033250113389743,-0.12845593804494004,0.046363278045895434,-0.147797249295156,0.006120008418319184
52,52,64884.517448528146,2294.476099797139,15.776919589577506,64982.12785302992,-3723.083491948834,8.538283666060275,65013.62801003117,34623.15379302291,10.506733436201902,65037.87669549929,-6772.49384440978,6.71306122299464,65284.909452877735,6783.037052467617,39.73658465099993,0.995901289776298,106.0,65.0,77.0,284.0,361.0,41.0,968.0,970.0,42.0,20.0,22.0,0.4761904761904761,49.6262654138527,2136.240374681336,17.0,11.0,6.0,0.6470588235294118,507.8534037140196,1874.7709116108144,25.0,13.0,12.0,0.52,1581.57831130342,32344.097373891505,13.0,3.0,10.0,0.2307692307692307,1070.5285933448356,15792.76447231213,95.0,47.0,48.0,0.4947368421052631,35.08490115961858,7107.295789452464,0.0,0.0,0.0,0.0,64865.0,64906.0,64971.0,64988.0,65001.0,65026.0,65035.0,65048.0,65239.0,65332.0,0.02162858241070382,-0.13640666528490492,0.04567978759988444,-0.1580700725521489,0.0051724472221266965
53,53,65953.87911156354,1775.5499357641013,11.811241692961106,66053.972626301,-4202.534571541201,14.496961463799028,66083.0695106832,34915.51563787337,10.923561179322045,66107.87669549929,-7319.358371577244,7.123933392953096,66358.67848400548,6959.625142422094,36.26994263131592,0.9921166146953192,101.0,69.0,79.0,285.0,364.0,32.0,1068.0,1070.0,34.0,17.0,17.0,0.5,54.5043517858873,1625.8816260605713,20.0,16.0,4.0,0.8,644.8258203339525,3910.608292231715,25.0,12.0,13.0,0.48,1559.7676943806591,33810.24054035812,14.0,3.0,11.0,0.2142857142857142,1064.4126007577854,16003.428378221046,89.0,44.0,45.0,0.4943820224719101,41.0272631144018,7225.422408948196,0.0,0.0,0.0,0.0,65938.0,65970.0,66039.0,66058.0,66071.0,66096.0,66105.0,66118.0,66316.0,66403.0,0.030697166375347005,-0.1534373624670682,0.04467262378587805,-0.14542430452526345,0.005895039211856669
54,54,67024.6320545727,1690.6407778744206,13.786297064174027,67124.04291697528,-4206.97332088997,11.69960484345365,67154.95199677354,34757.12444209394,10.712570928437373,67179.87669549929,-6723.444432047518,6.891620998307461,67429.230716953,7450.639564212774,37.51146780798028,0.9916162591375288,105.0,66.0,79.0,285.0,364.0,39.0,1072.0,1071.0,40.0,19.0,21.0,0.475,41.66628621166972,1515.8351857580244,19.0,13.0,6.0,0.6842105263157895,549.2485621287308,1924.7949354139585,26.0,13.0,13.0,0.5,1566.7757437050536,33618.43674375216,14.0,4.0,10.0,0.2857142857142857,1032.1172944974255,15443.50886511949,92.0,45.0,47.0,0.4891304347826087,42.10875403398071,7775.052015952928,0.0,0.0,0.0,0.0,67006.0,67045.0,67111.0,67130.0,67142.0,67168.0,67177.0,67190.0,67385.0,67475.0,0.024645262764840668,-0.13055670198843555,0.04507782990837844,-0.15351019926301535,0.005651696565250486
55,55,67953.08566888169,979.4257191599928,10.27625162878206,68055.972626301,-4466.845652206514,15.964859687291582,68084.8535441631,34575.9252143602,10.895581991216003,68109.45203459915,-7525.862092477327,7.5260576262223005,68357.36160503209,7174.494330842833,34.51149857240727,0.9880671388853922,102.0,73.0,79.0,280.0,359.0,29.0,929.0,930.0,29.0,14.0,15.0,0.4827586206896552,35.8014153638709,951.4935737982136,21.0,16.0,5.0,0.7619047619047619,655.235023836097,3563.596583856033,25.0,13.0,12.0,0.52,1560.1007039510914,32730.067396724968,15.0,3.0,12.0,0.2,1102.0676692717057,16692.91035858556,86.0,43.0,43.0,0.5,46.3710296243796,7468.768971367285,0.0,0.0,0.0,0.0,67939.0,67968.0,68041.0,68060.0,68072.0,68097.0,68106.0,68120.0,68316.0,68400.0,0.03655347686251907,-0.14668853030827841,0.045121011058386506,-0.1464373988959094,0.006463316783878775
56,56,72112.111576591,1975.761793597007,16.133227620451954,72214.58301969357,-3942.609192058802,8.993332871356747,72246.0969898509,33701.9501045942,10.427190295817391,72270.45203459915,-6810.788454681981,6.796784875186408,72511.1594430988,6087.442400532286,38.78143397390404,0.9956911270229104,112.0,68.0,77.0,278.0,355.0,44.0,4158.0,4162.0,45.0,21.0,24.0,0.4666666666666667,40.17975879729099,1877.6983440942472,18.0,12.0,6.0,0.6666666666666666,526.8557453192781,1840.8192195487593,25.0,13.0,12.0,0.52,1551.942841662659,32395.314789015945,14.0,3.0,11.0,0.2142857142857142,1081.5722236132951,16048.720920250948,93.0,45.0,48.0,0.4838709677419355,33.7394900893242,6358.976884316904,0.0,0.0,0.0,0.0,72091.0,72135.0,72203.0,72221.0,72233.0,72258.0,72267.0,72280.0,72467.0,72558.0,0.020336337572426196,-0.13363123750141662,0.04604905166752058,-0.158802792189175,0.005542473812380388
57,57,73214.67126990156,988.582579721484,11.654233047883489,73312.55250348298,-4235.664532742617,11.90841281377081,73343.1022864653,34100.51906038557,10.83393390934262,73367.45203459915,-7235.398929525621,7.142857987987273,73616.98662328717,6326.897826817657,36.915051791135745,0.9935210675484544,100.0,66.0,79.0,284.0,363.0,34.0,1101.0,1097.0,35.0,16.0,19.0,0.4571428571428571,28.293109663637814,942.588793790016,19.0,14.0,5.0,0.7368421052631579,594.3720890333672,2802.9879488856595,26.0,13.0,13.0,0.5,1549.2927564687143,33056.23476804884,15.0,3.0,12.0,0.2,1104.0491275213274,16401.880523131927,89.0,44.0,45.0,0.4943820224719101,31.837762588623356,6491.655781728297,0.0,0.0,0.0,0.0,73199.0,73233.0,73299.0,73318.0,73330.0,73356.0,73364.0,73378.0,73573.0,73662.0,0.028619874802577352,-0.14032558160325032,0.04543311360525656,-0.15258994538863843,0.00503212845538195
58,58,74444.65239465742,1556.8045431009248,14.926667110144102,74543.6646995425,-4165.083096441294,9.128771085443963,74575.42016411076,34887.63868620934,10.519747131691814,74600.45203459915,-6229.670856023861,6.431923540801995,74849.47306046162,6994.458768683313,38.407002853770955,0.993130117232926,106.0,66.0,78.0,286.0,364.0,40.0,1233.0,1232.0,40.0,19.0,21.0,0.475,39.02155763876128,1488.8801775796533,18.0,12.0,6.0,0.6666666666666666,537.8441433866155,1675.80097326458,25.0,12.0,13.0,0.48,1554.4370879112223,34543.5786209494,13.0,3.0,10.0,0.2307692307692307,1057.980335989268,15293.138150327177,93.0,45.0,48.0,0.4838709677419355,40.096770669155646,7345.5018471840785,0.0,0.0,0.0,0.0,74426.0,74466.0,74532.0,74550.0,74563.0,74588.0,74597.0,74610.0,74805.0,74896.0,0.02506516171968261,-0.12913167178973142,0.0445555258666925,-0.16982925108575203,0.00573264808546491
59,59,75691.08097395784,1489.381747707768,13.928739055388151,75789.16242611507,-4250.742608526543,9.548475025876822,75820.29889549219,34899.27953924976,10.623754435891405,75844.87669549929,-6197.344614892172,6.566443284328483,76093.79156486686,7295.062011216171,38.43216000178825,0.9920596448158406,104.0,65.0,78.0,285.0,363.0,39.0,1247.0,1245.0,39.0,18.0,21.0,0.4615384615384615,38.35262946725376,1433.5554979643855,18.0,12.0,6.0,0.6666666666666666,543.9769223270956,1708.9066196433378,26.0,13.0,13.0,0.5,1558.759971361473,34398.097500232776,13.0,3.0,10.0,0.2307692307692307,1035.2015538362116,15054.544733344206,93.0,46.0,47.0,0.4946236559139785,40.29823657808677,7615.958113720502,0.0,0.0,0.0,0.0,75673.0,75712.0,75777.0,75795.0,75807.0,75833.0,75842.0,75855.0,76049.0,76140.0,0.02575070463048198,-0.1279722091937383,0.044664531530182475,-0.16703953356872073,0.005524043046670222
60,60,76851.83573637596,1333.0614595744808,12.132184039980952,76952.62891967136,-4219.804357006648,12.48359110508082,76982.04617139176,34171.138807599666,10.67414389155079,77006.87669549929,-6624.363172610594,6.995600002771015,77255.28776770699,6977.109969639021,37.551228677015594,0.9907451703418793,103.0,71.0,78.0,284.0,362.0,32.0,1159.0,1162.0,35.0,16.0,19.0,0.4571428571428571,43.150082368781995,1273.0484997253636,20.0,15.0,5.0,0.75,634.7928171080532,3584.3337554558766,25.0,12.0,13.0,0.48,1557.4054631804054,33321.238218910265,14.0,4.0,10.0,0.2857142857142857,1016.2892640991608,15264.126473148996,92.0,45.0,47.0,0.4891304347826087,41.56690573398749,7324.702600537737,0.0,0.0,0.0,0.0,76836.0,76868.0,76939.0,76958.0,76970.0,76995.0,77004.0,77017.0,77211.0,77301.0,0.032369162020898644,-0.1504318123313064,0.04557663330886819,-0.15341690025407403,0.005957610803737706
61,61,77976.25463795997,1550.855829268105,14.3553374857848,78073.94506009796,-3987.487985450677,8.463976439698076,78104.42948120386,33970.16903929346,10.365158108556304,78128.87669549929,-6175.140991322388,6.566165234182926,78375.43649782694,6859.082841852015,40.3814424345736,0.9905256091754404,105.0,67.0,76.0,285.0,361.0,38.0,1126.0,1122.0,38.0,18.0,20.0,0.4736842105263157,39.47759893615696,1513.40130720297,17.0,11.0,6.0,0.6470588235294118,562.4783779915646,2343.5058148070216,25.0,12.0,13.0,0.48,1552.6606263979495,33527.213583354365,13.0,3.0,10.0,0.2307692307692307,1017.0261960938204,14960.991474318404,97.0,47.0,50.0,0.4845360824742268,33.928465656637854,7182.942541021212,0.0,0.0,0.0,0.0,77958.0,77996.0,78063.0,78080.0,78092.0,78117.0,78126.0,78139.0,78329.0,78424.0,0.025455363542585135,-0.14106083329753072,0.045706591115339444,-0.16469683810021435,0.004946501804821016
62,62,79014.58817865043,1695.0640533655874,21.70665116966283,79112.04441673907,-3326.869920359183,7.438527000335552,79142.9759858128,34621.03810531412,10.305049108181038,79167.87669549929,-5607.263396185106,5.904840082516482,79411.22212825819,6870.667147830572,43.682644873714125,0.9908067622316076,110.0,60.0,74.0,286.0,360.0,50.0,1035.0,1038.0,51.0,24.0,27.0,0.4705882352941176,29.535831817529324,1745.2265950211022,17.0,11.0,6.0,0.6470588235294118,519.0980679846392,2670.0503448114214,25.0,13.0,12.0,0.52,1551.7858865745309,33302.87635530684,12.0,3.0,9.0,0.25,999.267728033154,14050.70047597536,101.0,49.0,52.0,0.4851485148514851,40.74662532306784,7366.335068792978,0.0,0.0,0.0,0.0,78992.0,79042.0,79102.0,79117.0,79130.0,79155.0,79165.0,79176.0,79365.0,79462.0,0.017424611039851427,-0.1560319701133957,0.044822049583092695,-0.17820952172730184,0.0059305194745074615
63,63,80007.28551547827,1114.453111263652,11.69614367929226,80105.34548189865,-4119.001010932166,10.720974667089289,80136.18769204992,33707.18069684918,10.623838794966492,80160.45203459915,-6990.08173559116,7.160454173420887,80408.41107277758,6285.474882350515,36.175734995325215,0.9932499203673996,101.0,68.0,78.0,283.0,361.0,33.0,994.0,994.0,33.0,15.0,18.0,0.4545454545454545,34.19997398529599,1100.6648571590006,18.0,12.0,6.0,0.6666666666666666,518.8610984441142,1557.4538256488554,24.0,12.0,12.0,0.5,1550.0983127736197,32737.05051540887,15.0,3.0,12.0,0.2,1084.2244094509392,16250.438849347443,89.0,43.0,46.0,0.4831460674157303,29.279568466201212,6407.835219979723,0.0,0.0,0.0,0.0,79992.0,80025.0,80093.0,80111.0,80124.0,80148.0,80157.0,80171.0,80366.0,80454.0,0.030687674196106327,-0.1259677035929378,0.04598718376107074,-0.155108974467413,0.0046582905849194695
64,64,81043.65860235922,960.3812345323864,10.89018137248264,81141.60943549487,-4237.963448385092,12.16131285884304,81171.63295079845,34277.959378996864,10.851040864056609,81195.87669549929,-7326.667988260069,7.298220928217022,81445.56586647095,6649.000804474263,36.332556230487945,0.992685796410114,100.0,67.0,79.0,283.0,362.0,33.0,1038.0,1035.0,33.0,16.0,17.0,0.4848484848484848,28.211087783920025,925.7524616256238,20.0,15.0,5.0,0.75,617.3205230790824,3337.338469320007,25.0,13.0,12.0,0.52,1570.2092226377065,32263.378492607742,14.0,3.0,11.0,0.2142857142857142,1072.4194594864005,16218.318132682263,89.0,44.0,45.0,0.4943820224719101,33.463647726827666,6776.752223778848,0.0,0.0,0.0,0.0,81028.0,81061.0,81128.0,81147.0,81159.0,81184.0,81193.0,81207.0,81402.0,81490.0,0.02937488444123559,-0.145664428350442,0.045808130095393626,-0.14637205632967104,0.005032883693488084
65,65,82161.91791710132,1539.4547395127126,15.404716713835084,82259.76662391488,-4103.880873431864,8.882216648147915,82291.03949285058,35086.50602098339,10.518274243952126,82315.87669549929,-6300.333513241923,6.435691484633263,82565.05430490372,7255.073033447186,38.468831464530616,0.991693070134853,105.0,62.0,77.0,286.0,363.0,43.0,1118.0,1119.0,45.0,20.0,25.0,0.4444444444444444,35.1614148521752,1411.4210300179404,18.0,12.0,6.0,0.6666666666666666,556.7559478371436,2133.163891962031,26.0,13.0,13.0,0.5,1572.748386780099,33980.65451821595,13.0,3.0,10.0,0.2307692307692307,1036.6676499861635,15042.25662699276,93.0,46.0,47.0,0.4946236559139785,41.23589700644282,7592.527076314891,0.0,0.0,0.0,0.0,82143.0,82186.0,82248.0,82266.0,82278.0,82304.0,82313.0,82325.0,82521.0,82611.0,0.022840174478468218,-0.13566571862295734,0.04482487899591715,-0.1645417100233368,0.0056837328606256544
66,66,83256.18883574834,1669.712543731206,15.854440370305245,83355.66481742752,-4161.82274177618,9.133693681891195,83386.6137875184,34873.065054042396,10.624158006402014,83410.87669549929,-6340.168410856606,6.632179605307498,83659.70198249265,7477.631295667646,38.48683544957447,0.9914627827578256,107.0,65.0,77.0,285.0,362.0,42.0,1094.0,1096.0,44.0,20.0,24.0,0.4545454545454545,39.60563269109149,1608.05163094191,19.0,13.0,6.0,0.6842105263157895,579.5405705539841,2583.623394788072,25.0,13.0,12.0,0.52,1574.7273199803635,32874.10583939166,14.0,3.0,11.0,0.2142857142857142,1058.515353166741,15304.000756993995,93.0,46.0,47.0,0.4946236559139785,45.19352151796836,7931.9026976448495,0.0,0.0,0.0,0.0,83237.0,83279.0,83344.0,83361.0,83374.0,83399.0,83408.0,83421.0,83615.0,83706.0,0.023720030636283758,-0.139251622789357,0.04515597689907745,-0.16695382276505294,0.006043828550914561
67,67,84389.12753853729,1477.9857049482632,14.896766419147422,84488.29840579456,-4255.582227682372,9.1223441092912,84519.43554415139,34783.25605192116,10.490001963357964,84544.45203459915,-6161.880720198143,6.559292369106826,84792.5604035222,7677.609257362641,38.702602957646384,0.9902223027271048,107.0,65.0,77.0,285.0,362.0,42.0,1130.0,1133.0,43.0,19.0,24.0,0.4418604651162791,35.77649922931664,1354.2913534976328,18.0,11.0,7.0,0.6111111111111112,533.9441701409194,1404.7031616419306,25.0,12.0,13.0,0.48,1560.3309553833417,34494.43464432675,14.0,3.0,11.0,0.2142857142857142,1044.711217100497,15317.852611271786,94.0,47.0,47.0,0.5,41.13346047288463,8054.079948447667,0.0,0.0,0.0,0.0,84370.0,84412.0,84477.0,84495.0,84507.0,84532.0,84541.0,84554.0,84748.0,84839.0,0.024206255249653443,-0.12546912304211547,0.04485868008027273,-0.16954421296667083,0.005357587120422759
68,68,85526.52845158304,1655.6571471626232,17.226500662367368,85625.74857064671,-4009.551435437861,8.02979279969012,85656.65414760205,34888.33133766926,10.3521068193225,85681.87669549929,-5755.6732244616705,6.136323790036042,85928.99264012185,7373.940338579629,40.209973291867584,0.9896159966113102,109.0,63.0,76.0,287.0,363.0,46.0,1137.0,1137.0,48.0,22.0,26.0,0.4583333333333333,32.296287294692675,1517.2434355632672,17.0,11.0,6.0,0.6470588235294118,569.1796557879298,2371.0519096801536,25.0,13.0,12.0,0.52,1568.3957274526083,33051.52487597267,13.0,4.0,9.0,0.3076923076923077,987.571420584685,14197.99883566323,96.0,47.0,49.0,0.4895833333333333,41.21181048064533,7835.633940980126,0.0,0.0,0.0,0.0,85506.0,85552.0,85615.0,85632.0,85644.0,85669.0,85679.0,85691.0,85884.0,85978.0,0.01950662753459575,-0.14195594319038157,0.04495473607702174,-0.17158226015811606,0.005588845120570039
69,69,87577.587225664,1113.5827073156056,11.309261518091937,87673.12656814572,-4089.737057608126,10.68902780137742,87703.882016664,33657.87102559245,10.528255901458802,87728.45203459915,-6777.934572574372,6.93547718612426,87975.27620564117,6374.655295385782,36.4047831053163,0.9924495295343266,100.0,66.0,77.0,283.0,360.0,34.0,2056.0,2047.0,34.0,17.0,17.0,0.5,30.175753853403886,1020.5993765533058,18.0,12.0,6.0,0.6666666666666666,535.2874261362363,1712.142264003454,25.0,13.0,12.0,0.52,1554.2328099655049,32210.40633750485,14.0,3.0,11.0,0.2142857142857142,1065.8201515771807,15898.703899664808,92.0,45.0,47.0,0.4891304347826087,36.25355949083978,6594.426880688349,0.0,0.0,0.0,0.0,87561.0,87595.0,87661.0,87679.0,87691.0,87716.0,87725.0,87738.0,87931.0,88021.0,0.027097900905937503,-0.13088553581713586,0.04617739514135377,-0.15724851577792148,0.005687140372449861
70,70,88445.35952103732,1728.8328512256612,15.44888868080252,88545.583001927,-3798.422812501997,9.77802894141729,88577.0329517105,33760.19949225209,10.49550266231882,88601.45203459915,-6911.418723555112,6.9202429900889815,88845.49777388127,6746.5338914366685,38.80754766368399,0.9931606460516392,109.0,66.0,79.0,280.0,359.0,43.0,872.0,873.0,43.0,21.0,22.0,0.4883720930232558,28.658587866740625,1639.60705700077,19.0,13.0,6.0,0.6842105263157895,518.958465966888,2098.052424875225,25.0,13.0,12.0,0.52,1554.5031468629936,32417.610973396,14.0,3.0,11.0,0.2142857142857142,1083.859782477032,16124.2434790911,93.0,45.0,48.0,0.4838709677419355,37.59717962917657,7100.00183353684,0.0,0.0,0.0,0.0,88424.0,88467.0,88533.0,88552.0,88564.0,88589.0,88598.0,88612.0,88801.0,88892.0,0.016576841333401916,-0.13662472336118192,0.04604543723800417,-0.15682160578450868,0.005572814164158936
71,71,89536.1837186533,993.7552121161328,11.696461830261011,89634.44714001895,-4135.262397207531,11.817057988777766,89665.32684000435,34530.64188072519,10.7642548864639,89689.87669549929,-7015.197213922578,6.944075177916379,89941.15821989249,6897.4676428294515,36.739075581263464,0.9919320022396892,101.0,66.0,79.0,286.0,365.0,35.0,1084.0,1089.0,36.0,16.0,20.0,0.4444444444444444,32.29903743322092,898.2434780332508,19.0,13.0,6.0,0.6842105263157895,526.4303439836888,1631.0514951810155,25.0,12.0,13.0,0.48,1558.5972036547153,33978.22965142093,14.0,3.0,11.0,0.2142857142857142,1059.6446723845977,15796.537144537955,91.0,45.0,46.0,0.4945054945054945,39.06546418040616,7144.35781199109,0.0,0.0,0.0,0.0,89520.0,89555.0,89621.0,89640.0,89653.0,89678.0,89687.0,89700.0,89898.0,89986.0,0.03250200556376691,-0.12730276664890186,0.045136641509253714,-0.15104987644275972,0.005663740114970787
72,72,90737.7918291038,1338.4281148605976,14.243748717174457,90834.97190103758,-4201.817140165495,9.547061327577484,90866.56994979572,35009.980850449036,10.609848339170728,90891.45203459916,-6386.384704405935,6.645612130521609,91142.30745835348,7367.362438710902,37.140388834915576,0.9927798366010846,103.0,63.0,78.0,287.0,365.0,40.0,1200.0,1201.0,40.0,18.0,22.0,0.45,34.3167107180672,1288.159734227649,18.0,12.0,6.0,0.6666666666666666,531.2608864403555,1578.3217449051565,25.0,13.0,12.0,0.52,1572.3360634475707,32960.6522607984,14.0,3.0,11.0,0.2142857142857142,1068.9056698583377,15614.483797227393,90.0,44.0,46.0,0.4888888888888889,38.18398181010789,7651.525739510867,0.0,0.0,0.0,0.0,90720.0,90760.0,90823.0,90841.0,90854.0,90879.0,90888.0,90901.0,91098.0,91188.0,0.02563956206317544,-0.1264359844130273,0.04491108036202779,-0.1673725776527219,0.005182856433053279
73,73,91900.3800678336,1455.4955671687353,13.445561197120558,92000.61140305734,-4368.041524709743,9.61088532536018,92031.68399373976,34823.41088869931,10.612250316412654,92056.45203459916,-6427.525276581584,6.694288536477246,92306.6318038803,7623.462448241544,38.06650049215386,0.99133585239428,104.0,68.0,78.0,287.0,365.0,36.0,1167.0,1165.0,36.0,16.0,20.0,0.4444444444444444,43.586551550095145,1475.5868144996834,19.0,13.0,6.0,0.6842105263157895,583.0967350745656,2225.1077592341585,25.0,13.0,12.0,0.52,1572.392769864574,33075.521623926536,14.0,3.0,11.0,0.2142857142857142,1073.452650607815,15610.768308089744,92.0,46.0,46.0,0.5,42.97694435014685,8007.713630566216,0.0,0.0,0.0,0.0,91884.0,91920.0,91988.0,92007.0,92019.0,92044.0,92053.0,92066.0,92262.0,92353.0,0.02994619326452553,-0.13349157323162408,0.0451533244371199,-0.16700870154784056,0.0056374573419798344
74,74,93040.79883995764,1521.105959025262,13.231204333539464,93140.82718768272,-4505.190855259674,10.522013787051952,93171.71190118976,34448.45376094566,10.662177406207432,93196.45203459916,-6549.858822532202,6.902827021169571,93446.92930812726,7657.054210952123,37.27037769960888,0.9901097968194684,104.0,68.0,79.0,286.0,365.0,36.0,1138.0,1140.0,38.0,17.0,21.0,0.4473684210526316,44.72585448501934,1443.0576602160368,19.0,13.0,6.0,0.6842105263157895,573.9952745339214,1880.8702065643752,25.0,13.0,12.0,0.52,1566.50904459548,32837.38402741974,14.0,3.0,11.0,0.2142857142857142,1067.4895825634544,15691.33060323268,91.0,45.0,46.0,0.4945054945054945,46.272216818444186,8022.700199029289,0.0,0.0,0.0,0.0,93024.0,93060.0,93128.0,93147.0,93159.0,93184.0,93193.0,93207.0,93403.0,93493.0,0.02940351013658513,-0.12740753787684694,0.04547400169151967,-0.16297902160748537,0.006043083350808669
75,75,94166.67126990156,1258.025973803308,11.942808613069165,94268.972626301,-4660.024511509493,13.57563139096025,94297.02406637228,34284.72118400802,10.886044147294992,94321.87669549928,-7094.347569181241,7.450422131977032,94572.3792182667,7287.134020884189,36.22508724342606,0.9899047051385312,103.0,69.0,79.0,284.0,363.0,34.0,1124.0,1126.0,35.0,16.0,19.0,0.4571428571428571,38.22146991787464,1190.6356943593933,20.0,16.0,4.0,0.8,701.5022168674817,4522.169409214168,25.0,12.0,13.0,0.48,1554.3784426753418,33255.40920858954,15.0,4.0,11.0,0.2666666666666666,1026.7861524810166,15758.151730041212,90.0,44.0,46.0,0.4888888888888889,41.1428838276904,7560.672692442508,0.0,0.0,0.0,0.0,94151.0,94185.0,94254.0,94273.0,94285.0,94310.0,94319.0,94333.0,94529.0,94617.0,0.030382099188558213,-0.15053616459202881,0.04533735112888641,-0.1447329923531669,0.005645962282260632
76,76,95228.5746222504,1355.2014269921317,13.642336721488292,95325.45189476988,-4166.07411004847,9.426113179174935,95355.89745947345,33806.22539071755,10.446410652172997,95380.45203459916,-6616.856935959929,6.937729184685083,95629.64719894434,6810.738702554787,37.15277158686229,0.9932890781964712,102.0,63.0,78.0,285.0,363.0,39.0,1063.0,1058.0,40.0,19.0,21.0,0.475,28.19013890871729,1225.853596795566,18.0,12.0,6.0,0.6666666666666666,536.1732704350809,1657.8702882723762,25.0,13.0,12.0,0.52,1564.3837992735755,32384.528731934064,14.0,3.0,11.0,0.2142857142857142,1061.8870721546273,15822.12264661328,91.0,45.0,46.0,0.4945054945054945,38.70317726878736,7052.886562927837,0.0,0.0,0.0,0.0,95211.0,95250.0,95313.0,95331.0,95343.0,95368.0,95377.0,95391.0,95586.0,95676.0,0.02080143833030436,-0.12869988777728267,0.046275021277682224,-0.160482096323362,0.005682669525152881
77,77,96200.50616783222,1518.9607618307075,16.207031040154646,96298.20969802554,-3877.410882345264,8.450712420837199,96329.14853529776,33954.638021650084,10.405718650135878,96353.87669549928,-6418.242304765183,6.637156236791335,96600.03616157228,6796.399107233224,38.596628335533495,0.9938318169671854,107.0,62.0,77.0,282.0,359.0,45.0,971.0,974.0,45.0,21.0,24.0,0.4666666666666667,24.9015856088905,1409.7132825269296,17.0,11.0,6.0,0.6470588235294118,523.9850142729308,1864.783496896788,25.0,13.0,12.0,0.52,1544.3351491183337,32914.6989909103,14.0,4.0,10.0,0.2857142857142857,1016.8227848468704,15020.198131631354,90.0,44.0,46.0,0.4888888888888889,41.020200449285376,7193.616079348399,0.0,0.0,0.0,0.0,96180.0,96225.0,96287.0,96304.0,96316.0,96341.0,96351.0,96364.0,96557.0,96646.0,0.016393830726001236,-0.13513786136484893,0.045482303422985634,-0.15842698616908507,0.006035578517693095
78,78,97956.000834075,1515.479428732065,14.819146085111992,98056.10883918972,-3813.1401386020552,9.728703446509074,98087.44996046343,34243.25630739231,10.502253206442788,98111.87669549928,-7014.413183938417,6.927720541915078,98357.89700748396,6585.599654764075,35.70773151489011,0.9939621385492938,108.0,66.0,78.0,280.0,358.0,42.0,1759.0,1758.0,42.0,20.0,22.0,0.4761904761904761,24.829623674901818,1429.0836755836126,18.0,12.0,6.0,0.6666666666666666,502.5243478084115,1724.6816262716843,25.0,12.0,13.0,0.48,1568.389559426534,33641.7635190327,14.0,4.0,10.0,0.2857142857142857,1060.986306428879,15900.688430295022,88.0,44.0,44.0,0.5,44.27787542504396,6944.991416204046,0.0,0.0,0.0,0.0,97936.0,97978.0,98044.0,98062.0,98075.0,98100.0,98109.0,98122.0,98315.0,98402.0,0.01638400575036223,-0.1317875371852038,0.04580141401704124,-0.15125802809254557,0.006723438676235503
79,79,99045.39071143763,1200.7021486964256,13.082813490407718,99143.7197112042,-4088.942855731665,9.800412857709068,99175.29743392533,35033.10025981817,10.640253370839083,99199.87669549928,-6565.561344826704,6.703237527494308,99449.43844464608,6991.977614115343,36.99693004230544,0.9928700188808648,104.0,66.0,78.0,285.0,363.0,38.0,1089.0,1088.0,40.0,18.0,22.0,0.45,32.516294959612075,1158.6887336146683,18.0,12.0,6.0,0.6666666666666666,539.4109723002429,1948.216361136343,26.0,13.0,13.0,0.5,1569.5129356938564,34355.38257588049,13.0,3.0,10.0,0.2307692307692307,1053.8910968178834,15442.61312015941,90.0,44.0,46.0,0.4888888888888889,39.03151103060209,7266.296752729722,0.0,0.0,0.0,0.0,99028.0,99066.0,99132.0,99150.0,99162.0,99188.0,99197.0,99210.0,99405.0,99495.0,0.027081066686616875,-0.13191942057691633,0.04480085759050097,-0.16051804887152427,0.005582327802624199
80,80,100187.28462213842,1166.228173801498,12.32750967043614,100286.9701858482,-4388.774960175516,10.98477442319761,100318.0432804381,34965.09370693296,10.705027904409912,100342.87669549928,-6600.574495587642,6.931969686287243,100593.53292337892,7427.262755167666,36.24123802693862,0.9916727264064052,103.0,69.0,79.0,285.0,364.0,34.0,1142.0,1142.0,35.0,16.0,19.0,0.4571428571428571,37.345524356841,1160.5513789116178,19.0,13.0,6.0,0.6842105263157895,559.5503467067002,1839.687717605874,26.0,13.0,13.0,0.5,1573.5709965849442,34000.39462449039,13.0,3.0,10.0,0.2307692307692307,1032.5302642778172,15445.8647780936,88.0,44.0,44.0,0.5,44.842208584538454,7744.96973838106,0.0,0.0,0.0,0.0,100171.0,100205.0,100274.0,100293.0,100305.0,100331.0,100340.0,100353.0,100551.0,100638.0,0.03202248513265426,-0.1274957936517945,0.04500405489469439,-0.15643036298856167,0.00603751476993844
81,81,101331.00585062514,1255.5913621398915,11.807907102881387,101431.03359893888,-4472.452367855762,10.828992464962624,101461.91745834483,34795.51361718638,10.634095236103322,101486.87669549928,-6626.23804626997,6.904987883393103,101736.29758860118,7704.427855529578,37.57019403718968,0.989590005818567,102.0,71.0,79.0,285.0,364.0,31.0,1143.0,1144.0,33.0,16.0,17.0,0.4848484848484848,41.66060941807313,1207.3192941232776,19.0,13.0,6.0,0.6842105263157895,563.312927256909,1674.6315070016503,25.0,13.0,12.0,0.52,1577.3054213731511,33602.57826191042,14.0,4.0,10.0,0.2857142857142857,1026.5784181148435,15361.58783505719,91.0,45.0,46.0,0.4945054945054945,46.7923226414312,8130.993260012727,0.0,0.0,0.0,0.0,101316.0,101347.0,101418.0,101437.0,101449.0,101474.0,101484.0,101497.0,101692.0,101782.0,0.03318007010423469,-0.12595168845296825,0.04533071242247967,-0.15492628108836554,0.006073432514245387
82,82,102445.4884627456,1601.6839611975215,15.5834171792352,102544.49280815363,-4418.164790355736,9.503996149174586,102575.46126396794,34526.75705096545,10.48004635573077,102600.45203459916,-6498.136431867612,6.869090320777803,102849.86375397487,7391.614822188888,37.457965803043955,0.9919065943970008,105.0,64.0,78.0,285.0,363.0,41.0,1113.0,1114.0,43.0,19.0,24.0,0.4418604651162791,40.67145770633977,1573.860506185576,19.0,12.0,7.0,0.631578947368421,529.7763312129207,1117.578783238467,25.0,12.0,13.0,0.48,1567.04882687407,34236.90775970825,14.0,3.0,11.0,0.2142857142857142,1050.0252450635578,15684.826126702965,91.0,45.0,46.0,0.4945054945054945,40.32890548975896,7731.699381158687,0.0,0.0,0.0,0.0,102427.0,102468.0,102532.0,102551.0,102563.0,102588.0,102597.0,102610.0,102806.0,102895.0,0.025392935617542918,-0.11990868524627052,0.045386504865224574,-0.1615886733178012,0.0054560345012426275
83,83,103539.7326949262,1492.1403210294714,15.350934156036764,103634.55441734596,-4053.5155342672465,8.416033488902423,103664.99502905823,33956.540393549614,10.383393199846548,103689.45203459916,-6215.305626813676,6.619066586995699,103936.50555110832,7166.55162116692,40.0257030746557,0.9917307451162668,103.0,61.0,76.0,286.0,362.0,42.0,1093.0,1089.0,44.0,21.0,23.0,0.4772727272727273,23.725353006964877,1318.3965519869998,17.0,12.0,5.0,0.7058823529411765,591.7883011984017,2811.3220848418205,25.0,13.0,12.0,0.52,1556.418087266255,32683.147429513803,14.0,3.0,11.0,0.2142857142857142,1055.919255485513,15436.155576346106,96.0,48.0,48.0,0.5,39.314435618363525,7549.322624839792,0.0,0.0,0.0,0.0,103520.0,103562.0,103623.0,103640.0,103652.0,103677.0,103686.0,103699.0,103890.0,103985.0,0.015900215732120998,-0.14599384070335852,0.0458355907058751,-0.16989015808492722,0.005485823265717579
84,84,104525.8917570812,1298.1883391463102,12.357928441981048,104622.03546610262,-3993.8632580992994,10.142048272227749,104653.0103503622,33634.39032716508,10.520545310827604,104677.45203459916,-6737.077826781599,7.041847992831925,104926.12171416292,6693.57626080693,36.894982398310184,0.9933504277032086,101.0,66.0,78.0,283.0,361.0,35.0,990.0,988.0,35.0,17.0,18.0,0.4857142857142857,33.509650612185,1229.4402783580044,18.0,12.0,6.0,0.6666666666666666,522.8026627434105,1796.4006421280487,25.0,13.0,12.0,0.52,1551.2607892625056,32361.55120259769,14.0,3.0,11.0,0.2142857142857142,1066.508468638594,15936.816638272594,90.0,44.0,46.0,0.4888888888888889,36.61248337767184,6952.030666474633,0.0,0.0,0.0,0.0,104509.0,104544.0,104610.0,104628.0,104640.0,104665.0,104674.0,104688.0,104883.0,104971.0,0.025812626413068057,-0.1309014928548693,0.046121269753167424,-0.15830431175946216,0.005469794016100162
85,85,105474.4406183598,1301.4843598386472,14.073779948133378,105571.21118645044,-4009.158730614108,9.558235921150445,105602.76841651589,34090.017334661774,10.49069818513218,105627.45203459916,-6867.456198926123,6.8608586428434055,105874.80986898414,6720.155835603364,37.35323165660365,0.992095178170885,103.0,64.0,78.0,283.0,361.0,39.0,949.0,950.0,39.0,18.0,21.0,0.4615384615384615,30.623962051085396,1284.0136198424002,19.0,12.0,7.0,0.631578947368421,496.62900157536075,1244.2859007966,25.0,13.0,12.0,0.52,1563.7395677691025,32236.403494864902,14.0,3.0,11.0,0.2142857142857142,1075.5702632866391,16044.990018880517,91.0,45.0,46.0,0.4945054945054945,40.861862233382666,7101.289735264316,0.0,0.0,0.0,0.0,105456.0,105495.0,105559.0,105578.0,105590.0,105615.0,105624.0,105637.0,105831.0,105920.0,0.02353002694160845,-0.12387361911691856,0.04587089388714202,-0.15661843805495668,0.0060804932553642065
86,86,106512.79859095853,1450.7630624658134,14.395641562996987,106609.22921000078,-4064.7210741067342,8.940056870112988,106640.44506357724,34442.974882794646,10.54510756866673,106664.87669549928,-6578.428657499163,6.743068014280187,106914.9079581457,7031.306402863718,37.54189048256004,0.993782782232262,104.0,63.0,77.0,285.0,362.0,41.0,1035.0,1038.0,41.0,19.0,22.0,0.4634146341463415,29.541029769337403,1396.3045088631743,18.0,12.0,6.0,0.6666666666666666,526.6780691272345,1673.5747318031522,25.0,12.0,13.0,0.48,1555.518234885778,33938.952343060286,13.0,3.0,10.0,0.2307692307692307,1046.8941209269717,15424.681362351625,92.0,46.0,46.0,0.5,39.98843751085042,7304.307156393604,0.0,0.0,0.0,0.0,106494.0,106535.0,106598.0,106615.0,106628.0,106653.0,106662.0,106675.0,106871.0,106960.0,0.020362408261985595,-0.1295729914857633,0.04516213364783448,-0.15914045366039678,0.005687198824753802
87,87,107621.56751188316,1434.9870258488795,13.48380384011464,107719.7321353719,-4368.42582196751,9.837176738747628,107750.99864073706,34711.448758711005,10.585220812660651,107775.87669549928,-6534.711486719851,6.805522334744151,108026.76238300292,7271.42225818064,36.967366381136465,0.9910742186199712,103.0,66.0,78.0,286.0,364.0,37.0,1108.0,1110.0,39.0,18.0,21.0,0.4615384615384615,38.260379203423305,1338.2705769778695,19.0,13.0,6.0,0.6842105263157895,561.4086613058716,1845.9108435212863,25.0,13.0,12.0,0.52,1567.8980563694547,33539.98688120616,14.0,4.0,10.0,0.2857142857142857,1026.2770036579643,15247.3766700901,91.0,45.0,46.0,0.4945054945054945,40.364632383056474,7561.5840538438515,0.0,0.0,0.0,0.0,107605.0,107642.0,107708.0,107726.0,107738.0,107763.0,107773.0,107786.0,107983.0,108072.0,0.026662526220953137,-0.1285150954109636,0.04516947901737991,-0.15705008641064153,0.00555113304520923
88,88,108729.63970363,1623.6754753332289,15.19275941810218,108828.4859541774,-4146.999191445368,8.935300225331765,108859.80164881016,35031.75393691984,10.486434156279032,108884.87669549928,-6064.087691683092,6.438860173336665,109135.00882576888,7739.03818328998,38.77475490195854,0.9912560310999944,106.0,65.0,77.0,288.0,365.0,41.0,1109.0,1109.0,43.0,20.0,23.0,0.4651162790697674,39.58110789295972,1481.703603047109,18.0,11.0,7.0,0.6111111111111112,512.1573291536286,1260.5340401784852,25.0,13.0,12.0,0.52,1570.6520431394893,33495.73070212084,14.0,4.0,10.0,0.2857142857142857,1009.0399966494264,14702.232672908438,93.0,46.0,47.0,0.4946236559139785,45.452871433673984,8162.147443256765,0.0,0.0,0.0,0.0,108711.0,108752.0,108817.0,108835.0,108847.0,108872.0,108882.0,108894.0,109090.0,109182.0,0.024377474744352128,-0.12350070629628568,0.04483509578103609,-0.16639601007639232,0.005873193846208844
89,89,109800.8466390549,1763.1059231133356,15.990083477770735,109900.64990720684,-4096.7313453257675,8.602478820509212,109931.8399714454,34850.490573017574,10.453748155167943,109956.87669549928,-6002.977500390819,6.3290356166877775,110205.7709840496,7756.848676917251,39.73436286302727,0.9913398505281144,107.0,66.0,77.0,287.0,364.0,41.0,1070.0,1072.0,42.0,19.0,23.0,0.4523809523809524,43.00032402372577,1714.3635601583924,18.0,12.0,6.0,0.6666666666666666,564.0461190182684,2251.571354325234,25.0,13.0,12.0,0.52,1562.8195556907672,33394.36977114348,12.0,3.0,9.0,0.25,1006.0327594888214,14565.904515306716,95.0,47.0,48.0,0.4947368421052631,40.19166347117516,8105.108101029143,0.0,0.0,0.0,0.0,109782.0,109823.0,109889.0,109907.0,109919.0,109944.0,109954.0,109966.0,110160.0,110253.0,0.024388962376006736,-0.13768198875472418,0.04484354538471705,-0.1675889605488817,0.005181442251255602
90,90,110889.52059170186,1645.8045787685496,16.29901054833554,110987.67871440414,-3950.359751024493,8.683307929496529,111018.8281536961,34737.42828327153,10.431207052022785,111043.87669549928,-5871.548614561972,6.269080376815623,111293.44929183568,7533.655944426245,39.2984758608639,0.9917632151005684,105.0,62.0,77.0,288.0,365.0,43.0,1088.0,1087.0,45.0,20.0,25.0,0.4444444444444444,35.30946178174184,1553.3797994503138,18.0,12.0,6.0,0.6666666666666666,551.686639730326,2322.0834111861145,25.0,13.0,12.0,0.52,1560.8617383762364,33321.72056164587,12.0,3.0,9.0,0.25,998.5577825989473,14395.888830581313,94.0,45.0,49.0,0.4787234042553192,40.568452057770145,7895.036773582684,0.0,0.0,0.0,0.0,110871.0,110914.0,110976.0,110994.0,111006.0,111031.0,111041.0,111053.0,111249.0,111341.0,0.021454225026012293,-0.13965478450089275,0.04493314029029313,-0.170067191493984,0.005384962142820526
91,91,111927.6289102002,814.8130326935094,9.193935883476255,112028.972626301,-4436.57552458381,17.139898418812102,112057.35311854584,34373.635139561455,10.725490721213587,112081.87669549928,-7184.594746736769,7.53696045553117,112331.38345718144,6789.269719835991,35.34104607486284,0.9878553258376208,98.0,73.0,80.0,283.0,363.0,25.0,1040.0,1039.0,27.0,13.0,14.0,0.4814814814814814,34.92064399069973,797.9190697015922,21.0,16.0,5.0,0.7619047619047619,665.6201554955223,3644.693833834255,25.0,12.0,13.0,0.48,1555.7355414681067,33243.458860290775,15.0,4.0,11.0,0.2666666666666666,1039.780942434801,15999.119944650864,88.0,43.0,45.0,0.4886363636363636,42.613855533275576,7063.2699841586345,0.0,0.0,0.0,0.0,111915.0,111940.0,112013.0,112033.0,112045.0,112070.0,112079.0,112093.0,112289.0,112376.0,0.04285724772376717,-0.15003016443813685,0.04525955823850509,-0.1447236732325185,0.006276647900549899
92,92,112936.51299662434,1286.1719284932542,13.70160952968418,113033.48596929788,-4022.377184787807,10.0622785312014,113064.45352096178,33880.57082705325,10.532487304639858,113088.87669549928,-6684.192594121063,7.109594838802542,113337.35619157166,6602.863495838038,37.36811090914596,0.993034715354878,102.0,64.0,78.0,284.0,362.0,38.0,1009.0,1007.0,39.0,18.0,21.0,0.4615384615384615,29.628800863213215,1179.7179099748455,19.0,12.0,7.0,0.631578947368421,504.3947526981015,1360.296623119452,25.0,12.0,13.0,0.48,1553.537781193033,33396.321272873116,15.0,4.0,11.0,0.2666666666666666,1027.2526295516825,15519.403900057598,92.0,45.0,47.0,0.4891304347826087,31.94210982225474,6846.317116153332,0.0,0.0,0.0,0.0,112919.0,112957.0,113021.0,113040.0,113052.0,113077.0,113086.0,113099.0,113293.0,113383.0,0.023036423208150133,-0.12539717921175259,0.04585335321306189,-0.15368387656202193,0.004837614747357523
93,93,113895.7794129721,1470.3636420539713,14.295363046278556,113992.79432845916,-3776.738471941838,8.982773573216308,114024.221012728,34197.1428680493,10.452366712125514,114048.87669549928,-6489.701089850622,6.6914425500547905,114295.62839986566,6778.443167228815,38.78835994172905,0.9941216077173554,103.0,65.0,78.0,284.0,362.0,38.0,961.0,960.0,38.0,18.0,20.0,0.4736842105263157,33.60812085857408,1438.6914197072056,18.0,12.0,6.0,0.6666666666666666,516.7318336336838,2007.534798164322,26.0,13.0,13.0,0.5,1553.3647345738943,33263.98563663425,14.0,4.0,10.0,0.2857142857142857,1026.3745150740372,15241.331433315396,92.0,45.0,47.0,0.4891304347826087,38.92086855437222,7065.867338052132,0.0,0.0,0.0,0.0,113878.0,113916.0,113981.0,113999.0,114011.0,114037.0,114046.0,114059.0,114251.0,114343.0,0.02285701298464265,-0.13681959645143296,0.045423816269318136,-0.1581543588624144,0.005741859538269755
94,94,114865.8265511632,992.289097336458,12.706080348275238,114964.81390699038,-4287.973650514688,11.096030954500408,114995.97173630651,34444.90891825137,10.712949065764343,115020.45203459916,-7209.178417375305,7.161367745100158,115270.06714268426,6850.97805766774,35.40500896403349,0.9919837917892412,103.0,66.0,79.0,283.0,362.0,37.0,967.0,971.0,39.0,18.0,21.0,0.4615384615384615,25.784169698338868,896.1362378184533,19.0,13.0,6.0,0.6842105263157895,553.363257030836,1864.343864156681,25.0,13.0,12.0,0.52,1572.9741015911611,33067.12263566058,15.0,3.0,12.0,0.2,1103.545361655756,16542.655467136065,87.0,43.0,44.0,0.4942528735632184,38.383363417192534,7110.828929062733,0.0,0.0,0.0,0.0,114849.0,114886.0,114952.0,114971.0,114983.0,115008.0,115017.0,115031.0,115228.0,115314.0,0.02598453391007698,-0.12905006003579697,0.04566637424776836,-0.15307505207473163,0.0056026107650765525
95,95,115876.28165690496,1328.2632546778034,15.257995153842984,115976.77749222136,-4266.637198087025,9.316693587626029,116008.47339159716,35131.9376665557,10.536782620148651,116033.45203459916,-6408.655367142939,6.602864049047415,116281.86223493004,7410.801835564727,37.36970864174833,0.9916711165963188,109.0,65.0,78.0,284.0,362.0,44.0,1011.0,1013.0,45.0,20.0,25.0,0.4444444444444444,30.910395450754972,1254.263240126865,18.0,12.0,6.0,0.6666666666666666,539.1483992380884,1586.3551670551117,25.0,12.0,13.0,0.48,1569.58236545771,34813.99140233187,14.0,3.0,11.0,0.2142857142857142,1067.7296858624732,15646.433109607322,90.0,44.0,46.0,0.4888888888888889,42.0522652272423,7749.901029482348,0.0,0.0,0.0,0.0,115856.0,115900.0,115965.0,115983.0,115996.0,116021.0,116030.0,116043.0,116239.0,116327.0,0.023271287029808636,-0.12636377882793012,0.044676794669139305,-0.1666074433237125,0.005674455498922106
96,96,116982.20658809668,1401.4798992319993,15.144911905735931,117082.07165901655,-4198.081508135675,9.658034858301535,117113.3346133038,34905.53801135075,10.636799397341898,117137.87669549928,-6392.298005535507,6.657150638199635,117387.48318842804,7491.259598575414,37.69005926459652,0.9922055285759204,106.0,64.0,78.0,285.0,363.0,42.0,1105.0,1105.0,43.0,19.0,24.0,0.4418604651162791,35.978083678655565,1330.3969537028356,18.0,12.0,6.0,0.6666666666666666,540.3042345757202,1774.2127149720927,26.0,13.0,13.0,0.5,1562.65687613214,34412.80402962091,13.0,3.0,10.0,0.2307692307692307,1045.2895146909536,15263.596377488013,92.0,45.0,47.0,0.4891304347826087,41.15006652863291,7829.6574410683825,0.0,0.0,0.0,0.0,116964.0,117006.0,117070.0,117088.0,117100.0,117126.0,117135.0,117148.0,117344.0,117433.0,0.025671494609641774,-0.1287026546599053,0.04476816474291237,-0.16352327657217627,0.005493077097002255
97,97,118104.89294303076,1083.8123902667244,10.089074493219192,118207.972626301,-4668.586469187617,16.694146313100475,118236.29595267116,34964.48008143678,10.887248952028491,118261.45203459916,-7043.021643252142,7.552328660728569,118513.08018306729,7631.859242904904,36.52367638605307,0.9862605558885412,101.0,74.0,80.0,286.0,366.0,27.0,1127.0,1123.0,27.0,14.0,13.0,0.5185185185185185,43.10487770839798,1075.573227714441,22.0,18.0,4.0,0.8181818181818182,687.3261075013851,4123.497763627358,25.0,12.0,13.0,0.48,1549.2889844241267,34022.16441976643,15.0,3.0,12.0,0.2,1051.514766634064,16147.920725876693,89.0,44.0,45.0,0.4943820224719101,42.88925188942185,7928.7602414986995,0.0,0.0,0.0,0.0,118091.0,118118.0,118192.0,118212.0,118224.0,118249.0,118258.0,118272.0,118470.0,118558.0,0.03977153065927761,-0.14722360012772498,0.04431036814549032,-0.1492988123416476,0.00561976453238372
98,98,119222.6739719163,1837.4564030868653,18.009375657818833,119321.77736624234,-3988.33422027205,8.789308814358264,119352.95154226948,34459.66239558875,10.428180484537776,119377.87669549928,-6001.428838112368,6.278712965827486,119626.46843550816,7523.133983890339,41.20490721726359,0.9906325039845908,108.0,60.0,77.0,288.0,365.0,48.0,1117.0,1116.0,49.0,22.0,27.0,0.4489795918367347,41.36694310830623,1760.9905677257973,18.0,12.0,6.0,0.6666666666666666,545.2518451696207,2095.72099776724,25.0,13.0,12.0,0.52,1551.454491912203,33222.51124323746,12.0,3.0,9.0,0.25,1006.3917566910784,14523.309642413256,97.0,47.0,50.0,0.4845360824742268,41.74259619685484,8046.679603121689,0.0,0.0,0.0,0.0,119202.0,119250.0,119310.0,119328.0,119340.0,119365.0,119375.0,119387.0,119581.0,119675.0,0.02251315625165917,-0.13671167335931747,0.04502233579951752,-0.1676920253223596,0.005548564771841142
99,99,120293.26989381034,985.1150950073788,9.554958586799044,120393.972626301,-4377.570975068944,15.406959157149933,120421.62183305233,34290.46520776881,10.739158228285994,120446.45203459916,-6830.419780526096,7.248303678017539,120695.12883454922,6685.4374114596585,36.74550129061593,0.9870606603981248,98.0,72.0,79.0,284.0,363.0,26.0,1070.0,1069.0,27.0,13.0,14.0,0.4814814814814814,41.246840532686626,984.72809624169,21.0,17.0,4.0,0.8095238095238095,698.0250570155669,4886.192072736933,25.0,13.0,12.0,0.52,1558.087756573181,32276.742341261353,15.0,3.0,12.0,0.2,1053.8647108559244,15901.651948428109,91.0,45.0,46.0,0.4945054945054945,37.32780648422455,6951.911367550848,0.0,0.0,0.0,0.0,120280.0,120306.0,120378.0,120398.0,120409.0,120434.0,120443.0,120457.0,120651.0,120741.0,0.04187007258515075,-0.15945488056982868,0.04543792996486331,-0.15428988916033404,0.00558345014497333
100,100,121267.56831333038,1513.5045671233304,15.000809683893348,121363.18633763742,-3981.1850640821776,9.713233175438235,121394.67148190083,33697.70124311149,10.431325421480995,121419.45203459916,-6585.353112712002,6.792318667812007,121665.8500578573,6971.116856781893,38.73205169531556,0.9931101627887272,102.0,61.0,78.0,283.0,361.0,41.0,973.0,973.0,42.0,20.0,22.0,0.4761904761904761,29.862733437330625,1395.670044048913,19.0,12.0,7.0,0.631578947368421,488.7523928562947,1228.4671445291112,25.0,13.0,12.0,0.52,1552.3985463133192,31779.571905828336,14.0,3.0,11.0,0.2142857142857142,1050.5715818843385,15613.77126263722,92.0,46.0,46.0,0.5,39.22441399277535,7366.218758425968,0.0,0.0,0.0,0.0,121249.0,121290.0,121351.0,121370.0,121382.0,121407.0,121416.0,121429.0,121621.0,121712.0,0.019730851221737483,-0.12276555472534198,0.04606838119649665,-0.15953154886354887,0.005626704414604044
101,101,122994.19897962509,1933.09301798266,15.961376298832588,123095.11140815014,-3760.367379757097,9.017116176329186,123126.55205383003,34041.98456192133,10.504181700517467,123150.87669549928,-6569.891319556448,6.758318052484023,123395.5148973517,6652.222117209566,38.46265326168203,0.9935242244613536,111.0,65.0,78.0,281.0,359.0,46.0,1725.0,1732.0,46.0,22.0,24.0,0.4782608695652174,34.75568841012183,1795.9378642148515,18.0,12.0,6.0,0.6666666666666666,500.3554247686435,1771.6712419058408,25.0,13.0,12.0,0.52,1559.150779403824,31728.478289607927,13.0,3.0,10.0,0.2307692307692307,1043.281941494646,15414.512598230389,91.0,45.0,46.0,0.4945054945054945,43.249274478903466,7066.893335549712,0.0,0.0,0.0,0.0,122972.0,123018.0,123083.0,123101.0,123114.0,123139.0,123148.0,123161.0,123351.0,123442.0,0.017979315059754454,-0.13306025029952373,0.04580081917867556,-0.15879744287232453,0.006501477809500055
102,102,124138.5881423108,1351.075121355281,13.9457087756392,124235.37831011976,-4082.8007061259423,9.8140758990524,124267.17205656094,34953.193716321315,10.634693914610184,124291.87669549928,-6657.314552204342,6.672668057991376,124544.2958752284,7023.961107522877,37.98370969347424,0.99314123781526,102.0,63.0,79.0,288.0,367.0,39.0,1147.0,1141.0,39.0,18.0,21.0,0.4615384615384615,32.41424710531301,1285.627033892659,19.0,12.0,7.0,0.631578947368421,494.23884362628394,1102.7776474506109,26.0,13.0,13.0,0.5,1565.2664892322996,34047.8717551942,13.0,3.0,10.0,0.2307692307692307,1053.8311540098875,15458.591274847353,92.0,45.0,47.0,0.4891304347826087,41.0309505592361,7378.568101184816,0.0,0.0,0.0,0.0,124121.0,124160.0,124223.0,124242.0,124254.0,124280.0,124289.0,124302.0,124500.0,124590.0,0.023991446954332085,-0.12105387433795504,0.044781787379314694,-0.15829673447846135,0.0058415685866043164
103,103,125322.44930271532,1437.8489502363454,14.307117089216156,125420.66677405142,-4143.060729462528,9.393612671865986,125452.47039903134,34906.339108562854,10.62613492522138,125477.45203459916,-6350.416870406435,6.655110919728209,125728.67621892328,7239.294929820161,36.726662449887435,0.9928807440301768,105.0,64.0,78.0,286.0,364.0,41.0,1182.0,1185.0,42.0,18.0,24.0,0.4285714285714285,35.16197068462579,1376.2457723912237,18.0,12.0,6.0,0.6666666666666666,538.6021188764264,1807.6963357200948,25.0,12.0,13.0,0.48,1547.0951037328334,34582.552309639934,14.0,3.0,11.0,0.2142857142857142,1062.0291214889744,15468.610138281234,89.0,44.0,45.0,0.4943820224719101,38.969989279238995,7526.224119650968,0.0,0.0,0.0,0.0,125304.0,125345.0,125409.0,125427.0,125440.0,125465.0,125474.0,125487.0,125685.0,125773.0,0.02445456504930234,-0.13000101954728005,0.04432132223666264,-0.1672377015811567,0.005383119441468465
104,104,126486.89426997345,1609.6804948297852,15.958036261284269,126584.51094940209,-4009.608667249029,8.868253648833067,126615.99171094246,35041.25288398478,10.542643372025134,126640.87669549928,-5984.864766133783,6.328419099073149,126890.7750469181,7865.319324440004,39.4715015701075,0.9895397403763226,106.0,62.0,77.0,288.0,365.0,44.0,1163.0,1163.0,46.0,21.0,25.0,0.4565217391304347,36.251948276765,1463.346403176483,18.0,12.0,6.0,0.6666666666666666,556.4799750599718,2357.838764555461,26.0,13.0,13.0,0.5,1558.9319861345948,33896.89706680663,13.0,3.0,10.0,0.2307692307692307,1018.8132526544572,14625.979247609306,95.0,47.0,48.0,0.4947368421052631,46.90428060838246,8372.721737907294,0.0,0.0,0.0,0.0,126467.0,126511.0,126573.0,126591.0,126603.0,126629.0,126638.0,126650.0,126846.0,126938.0,0.022521207403086812,-0.13878660518802444,0.044488477375393375,-0.17023162468424657,0.00596342992237279
105,105,127612.94367995748,1852.334655062384,16.66789052747611,127711.61133502355,-3990.8887524113034,8.75530455267693,127742.72056508152,34500.87735547623,10.51726996165541,127767.45203459916,-6097.134323192756,6.542114106648677,128017.32148798108,7543.943577751117,39.2962659884558,0.9928246994775533,106.0,63.0,77.0,288.0,365.0,43.0,1128.0,1127.0,44.0,20.0,24.0,0.4545454545454545,41.01609357924315,1817.1826159941993,18.0,12.0,6.0,0.6666666666666666,561.1982163151955,2469.9348027989895,25.0,13.0,12.0,0.52,1553.3640454543042,32752.602727314443,14.0,3.0,11.0,0.2142857142857142,1053.0581563135106,15245.419388603905,96.0,47.0,49.0,0.4895833333333333,43.45073046217816,7943.197592754963,0.0,0.0,0.0,0.0,127594.0,127637.0,127700.0,127717.0,127730.0,127755.0,127764.0,127777.0,127971.0,128065.0,0.022142917570076873,-0.1406198596681299,0.04502389981128242,-0.17271362257967743,0.005759683912579183
106,106,128684.85563819917,1564.8281632975406,13.887394470934357,128781.19335266609,-4217.886502389972,10.343630113880078,128811.57347219028,33733.598262397325,10.561126273404422,128835.87669549928,-6647.605652118303,7.079024778897933,129085.9568401472,7306.506215167661,37.96911965308142,0.990756758583874,101.0,62.0,78.0,286.0,364.0,39.0,1072.0,1069.0,40.0,19.0,21.0,0.475,34.80669533675526,1473.3435670393656,19.0,13.0,6.0,0.6842105263157895,552.2686282140423,2008.2948948055164,25.0,13.0,12.0,0.52,1563.490324285967,31681.378121564743,14.0,3.0,11.0,0.2142857142857142,1030.7405184709332,15478.297023205285,92.0,45.0,47.0,0.4891304347826087,43.17087269417937,7671.672953339858,0.0,0.0,0.0,0.0,128667.0,128706.0,128768.0,128787.0,128799.0,128824.0,128833.0,128846.0,129043.0,129132.0,0.02224314218847365,-0.13093491915942063,0.04634816339853024,-0.15505440190220687,0.005908552107238403
107,107,129701.7966380586,1423.768641366628,14.15041453625666,129797.396046084,-3940.007217427251,9.026767858123891,129828.96212525896,34731.81775845215,10.47032566859358,129853.87669549928,-6298.978227846427,6.48341232609063,130102.586428792,7504.776776065541,38.33344023284826,0.9906809335739823,103.0,62.0,77.0,286.0,363.0,41.0,1018.0,1017.0,42.0,20.0,22.0,0.4761904761904761,28.927669246077592,1287.5540299073857,18.0,11.0,7.0,0.6111111111111112,492.759834240171,1272.0586941169115,25.0,13.0,12.0,0.52,1564.127194739239,33422.84691238407,14.0,4.0,10.0,0.2857142857142857,1020.6521886429948,14962.324664149364,91.0,45.0,46.0,0.4945054945054945,42.54213916117169,7879.260774676375,0.0,0.0,0.0,0.0,129683.0,129724.0,129786.0,129804.0,129816.0,129841.0,129851.0,129863.0,130058.0,130149.0,0.02031767550260897,-0.12506571867701646,0.0450344178821047,-0.16203456365842178,0.005668674822793978
108,108,130725.40452533268,1533.1384738246495,16.261579740035778,130823.18854201707,-4076.2164085505296,8.53117924802746,130853.81572798332,34064.23312338301,10.37380940576798,130878.45203459916,-6281.3856552589195,6.74887152592079,131125.2545084621,7269.84205662364,39.92476740761305,0.9918589402592308,106.0,64.0,76.0,285.0,361.0,42.0,1024.0,1025.0,43.0,19.0,24.0,0.4418604651162791,33.265181134812416,1517.6884557136489,17.0,11.0,6.0,0.6470588235294118,546.895608866832,1876.4574379993828,25.0,13.0,12.0,0.52,1567.230062161633,32427.989301092624,14.0,3.0,11.0,0.2142857142857142,1046.971321193615,15541.804703325402,95.0,47.0,48.0,0.4947368421052631,41.59703816689113,7698.42043390792,0.0,0.0,0.0,0.0,130706.0,130748.0,130812.0,130829.0,130841.0,130866.0,130875.0,130888.0,131079.0,131173.0,0.02169744070920568,-0.13416746169796803,0.04600808292043496,-0.16667840165442901,0.005721862709381915
109,109,131758.97270601217,1492.9676127651674,16.99323685170169,131855.76099902223,-3658.4085835269343,8.03912460421156,131887.16345060634,34137.64105764721,10.404706760318422,131911.87669549932,-6020.550521196544,6.317075696461327,132158.5625255074,7027.416534968769,40.57626644580273,0.9904118740257402,108.0,60.0,76.0,287.0,363.0,48.0,1033.0,1034.0,49.0,23.0,26.0,0.4693877551020408,24.994326377575725,1356.2076312080603,17.0,11.0,6.0,0.6470588235294118,522.2470912643817,2178.798686115443,26.0,13.0,13.0,0.5,1534.682904162298,33129.790333481,12.0,3.0,9.0,0.25,1009.0875254111178,14567.943680105998,96.0,47.0,49.0,0.4895833333333333,34.15254706678407,7352.989343114151,0.0,0.0,0.0,0.0,131737.0,131785.0,131845.0,131862.0,131874.0,131900.0,131909.0,131921.0,132113.0,132208.0,0.016741372126139447,-0.14275253278596423,0.04495573966492661,-0.16760718506695108,0.004859900775318969
110,110,132766.62052142227,974.893804960326,10.541339284225543,132863.8954034575,-4267.767940281679,10.583039268177156,132895.44674539997,34557.68215607298,10.544907992344037,132920.45203459918,-6834.647529099922,6.803200686481333,133170.33164849476,7115.306541810364,35.4427300958049,0.9917723962920602,100.0,70.0,78.0,284.0,362.0,30.0,1008.0,1008.0,31.0,15.0,16.0,0.4838709677419355,33.45664305760725,917.4021205707796,19.0,12.0,7.0,0.631578947368421,526.5843066039731,1301.3251280421148,25.0,12.0,13.0,0.48,1565.477322467613,34227.55409007224,14.0,3.0,11.0,0.2142857142857142,1070.2351644673874,15950.846657883403,88.0,43.0,45.0,0.4886363636363636,41.41961292660783,7382.489978171898,0.0,0.0,0.0,0.0,132752.0,132782.0,132852.0,132871.0,132883.0,132908.0,132917.0,132930.0,133128.0,133214.0,0.034318243574200165,-0.12338634948581992,0.045300414402720715,-0.15658966463312707,0.0058211986628013
111,111,133858.2855999694,1445.0498769063888,14.828529428258562,133958.0655244219,-4237.059732844587,9.361986020062348,133989.51410690075,34948.98399145468,10.559895399730715,134014.45203459918,-6470.982559126352,6.685805990679922,134265.40941110073,7519.319664495042,37.31686464611654,0.9923573958261236,105.0,67.0,78.0,287.0,365.0,38.0,1093.0,1094.0,38.0,17.0,21.0,0.4473684210526316,42.81761401745769,1493.6955395778627,18.0,12.0,6.0,0.6666666666666666,533.3134807808731,1523.9629314720544,25.0,13.0,12.0,0.52,1578.088376241509,32760.083457146735,14.0,3.0,11.0,0.2142857142857142,1067.4784157095814,15689.681593355635,91.0,45.0,46.0,0.4945054945054945,42.15578578804655,7840.047411975299,0.0,0.0,0.0,0.0,133841.0,133879.0,133946.0,133964.0,133977.0,134002.0,134011.0,134024.0,134221.0,134311.0,0.029630544039852158,-0.12586876617451612,0.04515405588406703,-0.16496388391652564,0.00560632978367698
112,112,135016.53328771426,1428.9033480927394,13.677468043324986,135115.21165154743,-4431.189633252131,10.46342582432091,135146.10924886895,34902.0987400799,10.65324590097656,135170.87669549932,-6548.189538268551,6.906008574255402,135422.60030697336,7609.160438875109,36.2733501692213,0.9924086971665208,104.0,65.0,78.0,286.0,364.0,39.0,1156.0,1157.0,40.0,18.0,22.0,0.45,36.71444295096515,1308.7927983266668,18.0,12.0,6.0,0.6666666666666666,555.1756871923978,1597.4224121757366,26.0,13.0,13.0,0.5,1576.1697373847026,34055.09716015254,13.0,3.0,10.0,0.2307692307692307,1033.6678688587567,15407.7874397745,89.0,44.0,45.0,0.4943820224719101,45.96776110597851,7911.466187581974,0.0,0.0,0.0,0.0,134999.0,135038.0,135103.0,135121.0,135133.0,135159.0,135168.0,135181.0,135380.0,135467.0,0.025694140194975797,-0.1252881806335479,0.045159740940584316,-0.1578555206470208,0.006041108145273133
113,113,136117.5205917018,1628.0211823715968,15.16199121160482,136216.08061322424,-4168.73992882154,9.164584486452467,136247.4131528164,34779.66472264195,10.48961071236602,136272.45203459918,-6045.699959830356,6.348395296438125,136520.62263249946,7823.207344064248,40.013636606839256,0.9878523635744858,105.0,63.0,78.0,286.0,364.0,42.0,1099.0,1101.0,44.0,20.0,24.0,0.4545454545454545,37.39836816106889,1498.2232343235996,18.0,12.0,6.0,0.6666666666666666,531.9735650343623,1569.411003959557,25.0,12.0,13.0,0.48,1552.3273189410463,34488.489906731564,13.0,3.0,10.0,0.2307692307692307,1044.927630888678,15066.887343958586,94.0,46.0,48.0,0.4893617021276595,48.83314005170596,8350.577474985896,0.0,0.0,0.0,0.0,136099.0,136141.0,136204.0,136222.0,136235.0,136260.0,136269.0,136282.0,136476.0,136568.0,0.02297167172394486,-0.12761015897308464,0.044633188137965685,-0.17283815568611166,0.006242086896592028
114,114,137172.4039187161,1402.004206460466,12.521758605315204,137271.7546005326,-4410.835360894475,10.694485250535106,137301.8865791222,33718.30477966537,10.54586785973947,137326.45203459918,-6672.509818816503,7.220691317426725,137575.5656535676,7184.68403000074,36.567784474869114,0.9912645590463804,103.0,68.0,78.0,284.0,362.0,35.0,1058.0,1054.0,36.0,17.0,19.0,0.4722222222222222,39.82606675435647,1347.2334567490332,19.0,13.0,6.0,0.6842105263157895,593.8803691319231,2447.507544173025,25.0,13.0,12.0,0.52,1563.26855645021,32339.479261308257,15.0,3.0,12.0,0.2,1052.6331107653273,15873.961323232625,90.0,45.0,45.0,0.5,43.053805074548535,7448.9090653859075,0.0,0.0,0.0,0.0,137156.0,137191.0,137259.0,137278.0,137289.0,137314.0,137323.0,137337.0,137532.0,137621.0,0.028406524438968926,-0.1346412460544639,0.0463626082825189,-0.15775669715717733,0.005992442380871703
115,115,138171.62113684876,1578.0587357508743,15.17113100767875,138269.90732185295,-4070.0691115175073,9.015877889475188,138301.10912370394,34501.11910765092,10.412847893851604,138325.87669549932,-6469.808160720232,6.508418090582024,138573.84582274788,7069.692999837525,38.95618215029278,0.9932879857115664,106.0,64.0,77.0,285.0,362.0,42.0,996.0,999.0,43.0,20.0,23.0,0.4651162790697674,31.08479929101457,1448.072883887492,18.0,12.0,6.0,0.6666666666666666,536.8818639824339,1814.754716733731,25.0,13.0,12.0,0.52,1569.396372308967,33451.84227388173,14.0,4.0,10.0,0.2857142857142857,1033.003233033312,15123.03845413365,94.0,47.0,47.0,0.5,39.3515240808328,7445.683096707684,0.0,0.0,0.0,0.0,138152.0,138194.0,138258.0,138276.0,138288.0,138313.0,138323.0,138335.0,138528.0,138620.0,0.01969812566971644,-0.13190976597010654,0.045488274377770546,-0.15966520295067232,0.005566228134904468
116,116,139135.22720938388,1386.0234470730932,14.947524870711748,139233.29544119703,-4073.2272616841474,9.27378034017658,139264.70935400567,33903.907493145365,10.429242014297706,139289.45203459918,-6632.089871296585,6.782775838692146,139537.3807512086,6827.63965923494,36.759190234398794,0.9925764515598584,105.0,64.0,77.0,284.0,361.0,41.0,967.0,964.0,42.0,19.0,23.0,0.4523809523809524,33.6990104839387,1348.143468852658,18.0,11.0,7.0,0.6111111111111112,501.7828104450189,1115.1077594262065,25.0,13.0,12.0,0.52,1559.092662750969,31997.033786137228,14.0,3.0,11.0,0.2142857142857142,1058.3897943168738,15790.067445055029,91.0,44.0,47.0,0.4835164835164835,37.79621692537725,7095.950323522297,0.0,0.0,0.0,0.0,139117.0,139158.0,139222.0,139240.0,139252.0,139277.0,139286.0,139299.0,139493.0,139583.0,0.024313449065455496,-0.1231904772820233,0.04598563345732889,-0.15958616587774868,0.005535766210839024
117,117,140047.03791170852,1386.1819484339574,16.447845203124793,140145.35505461312,-3791.059167388324,8.707779407864509,140176.55990254963,34119.84615078934,10.463057201711475,140200.87669549932,-6632.980814687463,6.6990374530754915,140447.589838891,6929.9060188286085,37.12972835203536,0.9928207166907876,109.0,62.0,77.0,282.0,359.0,47.0,911.0,912.0,47.0,22.0,25.0,0.4680851063829787,23.63157738570909,1295.5569050390022,17.0,11.0,6.0,0.6470588235294118,501.9670143715368,1631.247516130028,25.0,13.0,12.0,0.52,1566.8644884600888,31770.33863971569,13.0,3.0,10.0,0.2307692307692307,1049.585798907077,15487.728459264998,92.0,46.0,46.0,0.5,36.76609033232059,7166.578216757485,0.0,0.0,0.0,0.0,140025.0,140072.0,140134.0,140151.0,140164.0,140189.0,140198.0,140211.0,140404.0,140493.0,0.017047962146965575,-0.1324081192637634,0.04592237847543285,-0.15823742420345477,0.005305424089796721
118,118,140982.20201165738,666.6102718468187,8.764656325222006,141088.39728720114,-4600.359041734805,17.42530045977255,141117.01213004644,35337.935696059954,11.050329501923503,141141.45203459918,-7882.507224508639,7.807081637263963,141392.0240545465,6806.2824341156165,33.32389979039302,0.98913117998875,103.0,78.0,81.0,281.0,362.0,25.0,936.0,941.0,26.0,13.0,13.0,0.5,32.869396847021335,677.3755879372769,22.0,17.0,5.0,0.7727272727272727,659.3357853915654,3606.1333574815103,25.0,12.0,13.0,0.48,1569.6453965121862,33339.16976103214,16.0,3.0,13.0,0.1875,1125.5488355501927,17218.689306451863,83.0,41.0,42.0,0.4939759036144578,38.56411059806821,6991.6078018747485,0.0,0.0,0.0,0.0,140969.0,140994.0,141072.0,141093.0,141105.0,141130.0,141138.0,141153.0,141352.0,141434.0,0.04930826636673015,-0.1433226796886985,0.044418140607098214,-0.142790714108144,0.005665958027949378
119,119,142059.88716568454,1035.6496158799478,12.64319920127152,142159.7900706197,-4501.590777955717,11.787339599346488,142190.6547185047,34425.63430849488,10.80882955568154,142215.45203459918,-6924.617598987938,7.0505815891459935,142465.6674093366,7508.695078463489,36.46678742260209,0.9885839939499232,104.0,67.0,79.0,284.0,363.0,37.0,1076.0,1073.0,39.0,18.0,21.0,0.4615384615384615,32.44307044574967,947.7774098091012,20.0,14.0,6.0,0.7,579.5463723338197,2002.5328895222997,25.0,13.0,12.0,0.52,1557.5417879690322,32696.034573833553,15.0,3.0,12.0,0.2,1077.7958144396823,16036.211461917934,89.0,44.0,45.0,0.4943820224719101,43.86127184595741,7847.230391010136,0.0,0.0,0.0,0.0,142043.0,142080.0,142147.0,142166.0,142178.0,142203.0,142212.0,142226.0,142423.0,142510.0,0.03132629988780922,-0.12874257144204607,0.04524366273142838,-0.15564697963930985,0.005841397391640091
120,120,143161.26213812336,1663.8395174293482,15.623722125007228,143260.8642153605,-4140.101688103247,9.713886396358006,143292.15271549686,34671.18864918656,10.637787664432688,143316.87669549932,-6383.416859718248,6.6941214835945155,143565.76981262228,7675.814263588086,38.22784693045652,0.9914034070640996,106.0,64.0,78.0,285.0,363.0,42.0,1103.0,1101.0,43.0,19.0,24.0,0.4418604651162791,41.059031855357574,1631.8380005117804,18.0,12.0,6.0,0.6666666666666666,546.5608313495344,1962.9367701704991,26.0,13.0,13.0,0.5,1550.5104606492018,33810.274757928826,13.0,3.0,10.0,0.2307692307692307,1030.7660140352607,15116.447431236384,91.0,45.0,46.0,0.4945054945054945,44.603069634325585,8079.859836740101,0.0,0.0,0.0,0.0,143143.0,143185.0,143249.0,143267.0,143279.0,143305.0,143314.0,143327.0,143522.0,143612.0,0.024677278923386954,-0.13201628185126454,0.04472042987443349,-0.16147559162864333,0.005810858379665342
121,121,144261.54433221286,1996.890809858978,18.83669823888424,144361.44667803615,-3891.0861304666146,8.279242925074549,144392.40935294094,34914.406077520405,10.535369299346884,144416.87669549932,-5991.747576340353,6.250135286904113,144665.76671001373,7833.674338175684,40.08013872880487,0.9903331668940828,110.0,63.0,76.0,286.0,362.0,47.0,1099.0,1101.0,47.0,22.0,25.0,0.4680851063829787,38.67833526199221,1958.0941170772592,17.0,11.0,6.0,0.6470588235294118,529.1693429183078,1921.8207541408872,26.0,13.0,13.0,0.5,1554.2432841845423,34512.43362054652,13.0,3.0,10.0,0.2307692307692307,1040.6847020691705,14788.28978408384,94.0,47.0,47.0,0.5,46.631324377292,8368.548030652091,0.0,0.0,0.0,0.0,144240.0,144287.0,144350.0,144367.0,144379.0,144405.0,144414.0,144426.0,144621.0,144712.0,0.01936927901667478,-0.1359952787410672,0.04451581621447772,-0.17368633922071886,0.0059526758918282486
122,122,145337.97772241937,1349.8106779200782,12.082125364301572,145437.97262630097,-4357.900920196499,13.69296302433012,145466.19133864858,34057.21984640977,10.772153803664166,145490.87669549932,-6845.811822007461,7.09254811635747,145739.9116047721,7061.334350451434,37.386086767864,0.9911094233878556,101.0,67.0,78.0,285.0,363.0,34.0,1080.0,1074.0,34.0,16.0,18.0,0.4705882352941176,40.13729966966822,1348.15805356472,20.0,16.0,4.0,0.8,673.971897676634,4368.877285732245,25.0,12.0,13.0,0.48,1549.9811045597196,33368.66803320247,14.0,3.0,11.0,0.2142857142857142,1027.4548732519816,15470.949029825832,91.0,44.0,47.0,0.4835164835164835,41.19822381375537,7328.736533121017,0.0,0.0,0.0,0.0,145322.0,145356.0,145423.0,145442.0,145454.0,145479.0,145488.0,145501.0,145697.0,145786.0,0.02973550315331313,-0.1546551677100186,0.0455110872687136,-0.15008517615821515,0.005834339767684496
123,123,146335.17963615607,1473.321259752982,15.701441357908056,146431.36038653296,-4014.596574195076,9.089087879439916,146462.59768837327,33820.0011888474,10.500275160706186,146486.87669549932,-6520.86847182365,6.873697569581617,146734.97557725137,6934.215156470529,38.70279670437907,0.9933900362007873,105.0,61.0,77.0,285.0,362.0,44.0,994.0,996.0,44.0,20.0,24.0,0.4545454545454545,26.285504952698272,1376.7879719841546,19.0,12.0,7.0,0.631578947368421,505.2912725234312,1363.5602028600613,25.0,13.0,12.0,0.52,1555.269617645817,31632.68583041717,14.0,3.0,11.0,0.2142857142857142,1033.272518089493,15365.569590678631,94.0,46.0,48.0,0.4893617021276595,36.165789388813934,7270.558797406366,0.0,0.0,0.0,0.0,146315.0,146359.0,146420.0,146437.0,146450.0,146475.0,146484.0,146497.0,146691.0,146782.0,0.017840986667840057,-0.12586352406399434,0.045986681341652,-0.15845627350930513,0.005215556277492562
124,124,147230.34173191508,1475.8922155820978,14.069166901084824,147330.35854470258,-3917.70153378904,9.736159306488092,147361.32189348404,33889.78595273358,10.51166162522548,147385.87669549932,-6845.218166427243,6.976605571527339,147632.66961011014,6696.048121056949,36.43730488736055,0.9927003512322377,105.0,67.0,78.0,281.0,359.0,38.0,896.0,899.0,38.0,17.0,21.0,0.4473684210526316,37.18078839554291,1478.7577413714462,18.0,12.0,6.0,0.6666666666666666,508.89762553516965,1619.9102657270264,25.0,12.0,13.0,0.48,1552.0459710056234,33152.517844287075,14.0,4.0,10.0,0.2857142857142857,1034.8840241481455,15590.985181695269,89.0,44.0,45.0,0.4943820224719101,39.44880296633228,6986.402370859745,0.0,0.0,0.0,0.0,147213.0,147251.0,147318.0,147336.0,147349.0,147374.0,147383.0,147396.0,147589.0,147677.0,0.02519207568343916,-0.1298969870844104,0.0457968655561967,-0.1511834975872343,0.0058913559540108885
125,125,148071.5829065413,1882.0854359082475,16.423748367921032,148171.1715829536,-3851.017478574269,9.0737997854376,148202.6606876029,33872.82157814183,10.420054768563896,148227.45203459918,-6763.488441958913,6.836292491043911,148472.52470029885,6837.382473378101,37.22802251784928,0.9939859763194062,111.0,64.0,77.0,281.0,358.0,47.0,841.0,841.0,48.0,23.0,25.0,0.4791666666666667,25.433361894204996,1666.0812009942233,18.0,11.0,7.0,0.6111111111111112,494.2943404460801,1403.7115205431778,25.0,13.0,12.0,0.52,1556.9951132841531,31757.837888078997,14.0,3.0,11.0,0.2142857142857142,1060.8450160828686,15887.899398967773,90.0,45.0,45.0,0.5,38.74674058730549,7080.2033418943065,0.0,0.0,0.0,0.0,148049.0,148096.0,148160.0,148178.0,148190.0,148215.0,148224.0,148237.0,148429.0,148518.0,0.013513393924081608,-0.128354218903488,0.04596591133373087,-0.15684879558626338,0.005666896760298117
126,126,148970.3961562735,1327.8935856495764,13.681916737284338,149069.59592794508,-4083.2866916575176,10.743537708322052,149101.14329779937,34313.20385916524,10.638478436431534,149125.87669549932,-7098.223810777012,6.999611588376384,149373.53777274495,7114.668230581688,37.479146634537166,0.985575749079042,106.0,65.0,79.0,282.0,361.0,41.0,900.0,899.0,43.0,20.0,23.0,0.4651162790697674,27.497231966012976,1198.8363619081429,19.0,13.0,6.0,0.6842105263157895,536.2485981309047,1885.52311057231,26.0,13.0,13.0,0.5,1559.381906262086,33292.242252343516,14.0,4.0,10.0,0.2857142857142857,1051.520485982732,15817.0506114101,91.0,46.0,45.0,0.5054945054945055,39.31781834059793,7459.929787368634,0.0,0.0,0.0,0.0,148951.0,148992.0,149057.0,149076.0,149088.0,149114.0,149123.0,149136.0,149329.0,149418.0,0.020707406273494374,-0.13132768738146738,0.04544553498013176,-0.148138536345704,0.005526303836852748
127,127,150069.84771328515,1206.4125699878116,13.60547034345819,150167.85870788945,-4250.374031309949,10.099792415853187,150199.51226729917,34752.268155884245,10.633114042528836,150224.45203459918,-6448.350240739496,6.6992720104924075,150474.92446281013,7207.317812332552,36.51042812666759,0.9917610548677156,104.0,65.0,78.0,286.0,364.0,39.0,1096.0,1098.0,41.0,18.0,23.0,0.4390243902439024,34.815073684001725,1158.531232704658,18.0,12.0,6.0,0.6666666666666666,535.8717102812316,1522.5694379212844,25.0,13.0,12.0,0.52,1564.1025733230258,32632.28139479609,14.0,3.0,11.0,0.2142857142857142,1061.4322916311942,15586.478448881257,90.0,45.0,45.0,0.5,41.96480639512023,7535.736353093517,0.0,0.0,0.0,0.0,150052.0,150091.0,150156.0,150174.0,150187.0,150212.0,150221.0,150234.0,150431.0,150520.0,0.02885834792350801,-0.12607636559366,0.04500720834413199,-0.1646052481649119,0.005822527532130414
128,128,151186.79549508012,1615.0367003326016,15.878727038440156,151285.10373724546,-4227.472856676746,9.18907522452169,151316.55981493022,34976.64175134627,10.547892770521193,151341.45203459918,-6245.461875243817,6.539218096005935,151590.51455622612,7499.986395693988,38.27141006296995,0.991948122375559,105.0,62.0,78.0,286.0,364.0,43.0,1120.0,1117.0,43.0,19.0,24.0,0.4418604651162791,38.70109757548131,1552.281883414999,18.0,12.0,6.0,0.6666666666666666,531.9051845708875,1488.9243747879636,25.0,13.0,12.0,0.52,1573.6486339253854,32899.50588439105,14.0,3.0,11.0,0.2142857142857142,1064.2426718907443,15392.20121078008,92.0,45.0,47.0,0.4891304347826087,39.01637280361944,7838.980611940295,0.0,0.0,0.0,0.0,151168.0,151211.0,151273.0,151291.0,151304.0,151329.0,151338.0,151351.0,151546.0,151637.0,0.02396298335976587,-0.12582107623253266,0.04499141584582844,-0.1704025567923585,0.005202192476778377
129,129,152337.7496076017,1489.6134677448622,14.403089322476871,152434.2026956256,-4303.304906104497,9.345865163580983,152465.36065363744,34771.4487061227,10.649183718870612,152489.87669549932,-6290.294851072253,6.683179548358132,152740.43390269278,7793.559676292445,38.56170216882704,0.9918803650833232,102.0,62.0,78.0,287.0,365.0,40.0,1148.0,1149.0,41.0,19.0,22.0,0.4634146341463415,35.14862587285568,1407.289899822163,18.0,12.0,6.0,0.6666666666666666,547.9853255189631,1646.128188704124,26.0,13.0,13.0,0.5,1554.5024501852672,34320.74537332709,13.0,3.0,10.0,0.2307692307692307,1036.2778220317557,15157.884143930514,92.0,45.0,47.0,0.4891304347826087,48.17622518552962,8255.49361498714,0.0,0.0,0.0,0.0,152320.0,152360.0,152422.0,152440.0,152452.0,152478.0,152487.0,152500.0,152696.0,152787.0,0.02359580296093017,-0.12734057601672913,0.04470628944233618,-0.164742328708981,0.006181543118490372
130,130,153468.30311996548,1195.4814161377808,11.467608170568752,153569.97262630097,-4467.630606467837,14.403074867937113,153598.2763094298,34582.060571625814,10.808648577589029,153623.45203459918,-6781.061794543967,7.007799898296549,153874.28416596982,7183.041013201086,35.9465583789453,0.989926401191386,101.0,71.0,79.0,286.0,365.0,30.0,1133.0,1133.0,32.0,15.0,17.0,0.46875,42.048324246327915,1170.5474584613812,21.0,17.0,4.0,0.8095238095238095,679.1853774778169,4390.050425656903,25.0,12.0,13.0,0.48,1550.0730228158084,34097.840165769754,14.0,3.0,11.0,0.2142857142857142,1050.8696007629628,15729.211923407112,91.0,45.0,46.0,0.4945054945054945,41.856093250847216,7404.871557532852,0.0,0.0,0.0,0.0,153453.0,153483.0,153554.0,153574.0,153586.0,153611.0,153620.0,153633.0,153831.0,153919.0,0.03517271258149093,-0.15202361996861444,0.04482303822252933,-0.15497124677561425,0.005827071455379908
131,131,154526.5043075775,1482.423974760552,13.264888410170808,154624.46105407976,-4156.947462430408,9.783664100803634,154655.13941760786,33775.2691344093,10.52408836555681,154679.45203459918,-6506.134136508477,6.939002677649438,154928.56440090627,7190.225611620137,38.72083373488613,0.9916559340384749,104.0,65.0,78.0,285.0,363.0,39.0,1059.0,1056.0,40.0,19.0,21.0,0.475,35.825424828131645,1338.4395986317863,18.0,12.0,6.0,0.6666666666666666,525.2340286326637,1518.1155890106445,25.0,13.0,12.0,0.52,1551.4964555520994,32843.5916581101,15.0,3.0,12.0,0.2,1064.9423506808878,15760.581801107946,92.0,45.0,47.0,0.4891304347826087,34.19942851787673,7427.098948591095,0.0,0.0,0.0,0.0,154508.0,154547.0,154612.0,154630.0,154642.0,154667.0,154676.0,154690.0,154885.0,154975.0,0.02416678726065418,-0.12635089410670095,0.04593587246863648,-0.16368281506910184,0.004756377666732317
132,132,155565.75598934884,1271.9849675849116,13.057462953140185,155663.8198242853,-4140.666416241855,10.218145560882451,155694.71632648256,33669.46355448044,10.513313412645918,155719.45203459918,-6498.417109146571,6.966322186668346,155968.6438380129,6853.947721406013,37.352596786271896,0.9917214882113684,103.0,66.0,77.0,286.0,363.0,37.0,1038.0,1040.0,38.0,18.0,20.0,0.4736842105263157,38.34998123773864,1184.438675911341,19.0,13.0,6.0,0.6842105263157895,544.5620479915616,1926.2240147158911,25.0,13.0,12.0,0.52,1547.8384784990296,31928.086924791427,14.0,3.0,11.0,0.2142857142857142,1041.2575115801058,15608.86153807614,91.0,45.0,46.0,0.4945054945054945,41.05239578605627,7219.530486419592,0.0,0.0,0.0,0.0,155549.0,155586.0,155652.0,155670.0,155682.0,155707.0,155716.0,155729.0,155926.0,156015.0,0.03014971262636292,-0.13151555649484464,0.04597158122209098,-0.1602324834019238,0.005989598615968844
133,133,156625.10574065286,1152.0925977168831,12.268950658935756,156724.39728720114,-4064.60834861828,13.135846112276102,156753.95690277228,34027.852337857024,10.804299048554702,156778.45203459918,-6983.964455794651,7.102734647859821,157028.24312810216,6772.797017533601,36.33421796202468,0.9916549998573124,102.0,66.0,79.0,284.0,363.0,36.0,1060.0,1059.0,36.0,17.0,19.0,0.4722222222222222,29.5173189809063,1091.3539161479823,19.0,14.0,5.0,0.7368421052631579,578.7569305706255,2814.899644068825,25.0,13.0,12.0,0.52,1547.0861871549473,32812.941343811224,15.0,3.0,12.0,0.2,1080.5980927021683,16095.175889525568,87.0,42.0,45.0,0.4827586206896552,38.20146264499463,6987.220980745443,0.0,0.0,0.0,0.0,156608.0,156644.0,156710.0,156729.0,156741.0,156766.0,156775.0,156789.0,156987.0,157073.0,0.025620613342539615,-0.1423893474920819,0.04546529036843641,-0.15472560027214735,0.005640426332886936
134,134,157718.50493554233,1817.782788181204,17.176033454350765,157815.16405034033,-3756.4357514420385,8.121882367591603,157846.3697196245,34598.12347149171,10.472923289738596,157870.87669549932,-6298.621354531973,6.388174788190898,158120.87218832722,7170.586521390579,39.134206171661155,0.9946819661686772,107.0,62.0,76.0,288.0,364.0,45.0,1093.0,1093.0,47.0,23.0,24.0,0.4893617021276595,33.08068698340825,1681.3812677321887,17.0,11.0,6.0,0.6470588235294118,524.112438451889,2029.992828430448,26.0,13.0,13.0,0.5,1553.7509691386097,33946.281334562475,13.0,3.0,10.0,0.2307692307692307,1043.3672089421518,15091.936613474936,93.0,45.0,48.0,0.4838709677419355,40.72419687788236,7509.409159462653,0.0,0.0,0.0,0.0,157697.0,157742.0,157804.0,157821.0,157833.0,157859.0,157868.0,157880.0,158076.0,158168.0,0.018198371773839588,-0.13952386600800779,0.044908532985000624,-0.16565009233194022,0.00567933972435839
135,135,158863.48701996906,1431.5522219817883,14.609885163436076,158959.68322990803,-4128.938213682564,9.492718295508942,158991.39178206175,35078.37432565968,10.570316011335777,159016.45203459918,-6240.033878148654,6.461428966937654,159267.55705058147,7537.608788494541,38.16040808916979,0.9915739312745274,104.0,62.0,78.0,288.0,366.0,42.0,1144.0,1145.0,42.0,19.0,23.0,0.4523809523809524,30.338240220563748,1336.345107937594,18.0,12.0,6.0,0.6666666666666666,538.0447651814226,1852.387244096092,26.0,13.0,13.0,0.5,1556.8399833349351,34703.521402968356,13.0,3.0,10.0,0.2307692307692307,1057.059327853133,15366.757267863271,90.0,44.0,46.0,0.4888888888888889,42.72534102475359,7919.983763951684,0.0,0.0,0.0,0.0,158844.0,158886.0,158948.0,158966.0,158978.0,159004.0,159013.0,159026.0,159225.0,159314.0,0.021192548727677292,-0.13031068457223174,0.044381759795410855,-0.16939961360702585,0.0056682884749829215
