Unnamed: 0,cycle,p_center,p_height,p_width,q_center,q_height,q_width,r_center,r_height,r_width,s_center,s_height,s_width,t_center,t_height,t_width,r_squared,pr_interval,pr_segment,qrs_duration,st_segment,qt_interval,p_duration,pp_interval,rr_interval,fwhm_p,rise_time_p,decay_time_p,rise_decay_symmetry_p,sharpness_deriv_p,sharpness_diff_p,fwhm_q,rise_time_q,decay_time_q,rise_decay_symmetry_q,sharpness_deriv_q,sharpness_diff_q,fwhm_r,rise_time_r,decay_time_r,rise_decay_symmetry_r,sharpness_deriv_r,sharpness_diff_r,fwhm_s,rise_time_s,decay_time_s,rise_decay_symmetry_s,sharpness_deriv_s,sharpness_diff_s,fwhm_t,rise_time_t,decay_time_t,rise_decay_symmetry_t,sharpness_deriv_t,sharpness_diff_t,Average_Heart_Rate,SDNN,RMSSD,NN50,p_on,p_off,q_on,q_off,r_on,r_off,s_on,s_off,t_on,t_off,sharpness_deriv_p_norm,sharpness_deriv_q_norm,sharpness_deriv_r_norm,sharpness_deriv_s_norm,sharpness_deriv_t_norm
0,0,0.0,0.0,0.0,0.0,0.0,0.0,0.0,0.0,0.0,0.0,0.0,0.0,0.0,0.0,0.0,0.0,0.0,0.0,0.0,0.0,0.0,0.0,0.0,0.0,0.0,0.0,0.0,0.0,0.0,0.0,0.0,0.0,0.0,0.0,0.0,0.0,0.0,0.0,0.0,0.0,0.0,0.0,0.0,0.0,0.0,0.0,0.0,0.0,0.0,0.0,0.0,0.0,0.0,0.0,70.84134414346538,537.6205189196173,724.1093750924471,464.0,,,,,,,,,,,,,,,
1,1,1614.7425657971562,2761.2260458454043,19.154406913157896,1735.1506781997125,-1127.5204152941376,2.0684525005565284,1762.8766954992802,21056.127207088713,7.829031200681194,1783.453200847734,-4526.209478620957,10.191861603456228,1996.040937693232,3412.4298366230378,55.654120291885846,0.9396737139898322,132.0,89.0,66.0,268.0,334.0,43.0,,,43.0,18.0,25.0,0.4186046511627907,116.4311449796143,3172.3367318243613,9.0,6.0,3.0,0.6666666666666666,274.62172833344056,2027.886194376625,17.0,10.0,7.0,0.5882352941176471,1260.2319191825031,19977.269314485267,15.0,3.0,12.0,0.2,769.6102014367399,12519.688341714202,117.0,47.0,70.0,0.4017094017094017,136.94482182676904,3273.015965719684,0.0,0.0,0.0,0.0,1597.0,1640.0,1729.0,1738.0,1754.0,1770.0,1780.0,1795.0,1954.0,2063.0,0.04216646628942202,-0.2435625329779946,0.059851078348265106,-0.1700341544225709,0.04013117584339566
2,2,2442.9633205345276,3119.100058560182,20.390459324074147,2546.87669549928,-1307.0620931222554,12.739827004320285,2589.625552876838,21757.954005395495,7.484077578296315,2612.0673506593184,-5699.455285428495,6.292202087088339,2838.561529395104,4278.224329069901,43.33626467671191,0.9482936507601776,131.0,73.0,75.0,268.0,343.0,58.0,820.0,826.0,59.0,31.0,28.0,0.5254237288135594,108.38100660686835,3263.1459278391912,20.0,4.0,16.0,0.2,150.5542834694937,1197.845229144898,17.0,9.0,8.0,0.5294117647058824,1298.462810509018,19896.4001279594,14.0,5.0,9.0,0.3571428571428571,758.5752219807362,11392.600801402752,96.0,47.0,49.0,0.4895833333333333,123.44384130442565,5366.117377483441,0.0,0.0,0.0,0.0,2413.0,2471.0,2544.0,2563.0,2581.0,2598.0,2607.0,2619.0,2811.0,2887.0,0.034747524789858285,-0.11518525727408703,0.059677615376290793,-0.13309609146687168,0.028853989835372358
3,3,3213.19427368658,4180.138767149198,22.60807672875579,3316.87669549928,-532.119502397965,7.629049463227383,3359.5297730483812,21233.5126371934,7.374826175491752,3382.5924794094885,-4661.620562425917,4.998525315186065,3620.534155696112,5345.904707306217,47.8261267566556,0.9358016592694824,118.0,76.0,75.0,270.0,345.0,42.0,778.0,770.0,42.0,17.0,25.0,0.4047619047619047,163.47630855293684,5312.075140639127,14.0,4.0,10.0,0.2857142857142857,120.1483697688992,312.96294007359495,16.0,9.0,7.0,0.5625,1246.8316874661314,20209.489139523324,14.0,6.0,8.0,0.4285714285714285,638.3215636750299,8093.091401252161,97.0,57.0,40.0,0.5876288659793815,150.35342159104113,6357.941684012851,0.0,0.0,0.0,0.0,3196.0,3238.0,3314.0,3327.0,3351.0,3367.0,3377.0,3389.0,3578.0,3659.0,0.03910786642722524,-0.22579208096575618,0.05871999177762681,-0.1369312570868801,0.028124972258774833
4,4,4689.794574402304,3896.1059654048818,25.557484601139535,4814.261184852896,-347.3061265397479,1.037481929415175,4843.876695499281,20800.769039513307,7.416796803540164,4865.582007807229,-5287.550439152047,7.047795811507895,5097.835512095537,5209.273147188929,43.964913111158566,0.9523188288161608,146.0,94.0,60.0,269.0,329.0,52.0,1470.0,1485.0,61.0,29.0,32.0,0.4754098360655737,142.38854706482556,4067.056552325693,3.0,1.0,2.0,0.3333333333333333,185.99491786245628,1565.6117123685897,16.0,9.0,7.0,0.5625,1234.4981651310077,19042.91307759906,12.0,5.0,7.0,0.4166666666666667,737.3049113351686,11232.301850870515,97.0,51.0,46.0,0.5257731958762887,75.72667320327004,5753.308525306589,0.0,0.0,0.0,0.0,4667.0,4719.0,4813.0,4816.0,4835.0,4851.0,4861.0,4873.0,5052.0,5142.0,0.036546374336106795,-0.5355359541610903,0.05934867902172007,-0.1394416790572325,0.014536898155193548
5,5,6164.359843545111,3779.70796244147,20.8241784739284,6263.7807646975525,-988.0447365913012,43.31541181468896,6313.876695499281,20954.386896270636,7.535678502250131,6337.260277494829,-4895.048439359128,7.384285691020026,6570.2601729956805,4472.745539291067,42.87994127418689,0.953762807665242,76.0,28.0,129.0,267.0,396.0,48.0,1485.0,1470.0,55.0,29.0,26.0,0.5272727272727272,113.71972480637618,3517.6505388411874,79.0,54.0,25.0,0.6835443037974683,83.1393708496019,945.0008423235888,16.0,9.0,7.0,0.5625,1210.1795181098685,19364.97373186708,15.0,6.0,9.0,0.4,589.5920239792848,9556.130543787192,114.0,67.0,47.0,0.5877192982456141,110.01095273212168,4496.908332085426,0.0,0.0,0.0,0.0,6141.0,6189.0,6217.0,6288.0,6305.0,6321.0,6332.0,6346.0,6530.0,6613.0,0.030086907754883766,-0.08414535068161798,0.05775303873602002,-0.12044661687892831,0.024595844267402363
6,6,7229.947209271103,3671.0720113243074,19.568183524928177,7330.876695499281,-637.2125906407922,9.679543134530167,7380.876695499281,21483.823692315433,7.506750664709591,7402.031129251029,-5283.107503814708,5.7791400777649065,7640.060671333367,4176.524505529128,46.357798258281285,0.964877676847724,111.0,62.0,93.0,282.0,375.0,49.0,1062.0,1067.0,49.0,25.0,24.0,0.5102040816326531,127.73255562771828,4091.2484273821337,22.0,15.0,7.0,0.6818181818181818,131.0970030544546,270.3610986766404,17.0,9.0,8.0,0.5294117647058824,1305.8912178958155,19505.42369811227,12.0,5.0,7.0,0.4166666666666667,819.767459103667,12269.749255754075,115.0,55.0,60.0,0.4782608695652174,110.70302818989322,4725.213211226603,0.0,0.0,0.0,0.0,7205.0,7254.0,7316.0,7338.0,7372.0,7388.0,7397.0,7409.0,7604.0,7691.0,0.03479434760029125,-0.20573511098175437,0.06078486011607519,-0.15516766571790325,0.026506016675668504
7,7,8175.837435629996,2210.8343992587156,13.576077367235907,8283.027373698993,-1541.158579578494,17.8357578060484,8327.876695499283,20687.022213845852,7.650252015430448,8349.001092254217,-4646.366245066081,10.191861603442796,8599.780764697554,3172.225035777882,33.772012532445736,0.9422970593187237,116.0,91.0,81.0,264.0,345.0,25.0,948.0,947.0,31.0,18.0,13.0,0.5806451612903226,110.31999816148978,2274.030277305804,17.0,5.0,12.0,0.2941176470588235,149.58906198613914,954.5943345399525,16.0,9.0,7.0,0.5625,1252.1112654984047,19296.08086961707,15.0,4.0,11.0,0.2666666666666666,657.1125893508645,11121.831922401874,74.0,49.0,25.0,0.6621621621621622,132.69653453502295,3690.101042023816,0.0,0.0,0.0,0.0,8163.0,8188.0,8279.0,8294.0,8319.0,8335.0,8345.0,8360.0,8559.0,8624.0,0.049899711257649894,-0.09706273187477675,0.06052641373683859,-0.14142505232957997,0.041830744363469646
8,8,9114.424808434507,2686.834784209154,15.63786603431244,9219.301356399426,-1143.03680240111,10.191861603456228,9263.741748321054,21470.053975095056,7.14504148259706,9286.380778143865,-5686.80376550209,5.002020876631617,9514.23373297441,4554.810155920593,45.60257551828066,0.9471109173578752,121.0,90.0,76.0,279.0,355.0,31.0,939.0,936.0,34.0,19.0,15.0,0.5588235294117647,112.98701834033665,2503.551657328115,34.0,22.0,12.0,0.6470588235294118,120.400265265674,813.2744799305551,17.0,9.0,8.0,0.5294117647058824,1271.1585173230872,20045.92190567465,12.0,5.0,7.0,0.4166666666666667,724.4521791571915,11510.92701867008,108.0,49.0,59.0,0.4537037037037037,94.33707028063633,5082.172184551449,0.0,0.0,0.0,0.0,9096.0,9127.0,9217.0,9227.0,9255.0,9272.0,9281.0,9293.0,9471.0,9572.0,0.04205209006686036,-0.1053336734326981,0.05920611651920448,-0.1273918019735343,0.020711526287876522
9,9,10035.482384812109,2531.0099136863582,15.109147073189826,10144.150678199714,-924.7013153571806,5.095930801728113,10183.301356399426,21077.426942003345,8.072944615799441,10202.301356399426,-4918.776597793951,9.385381813440793,10423.91752079427,3632.949917422193,53.62378045668849,0.9290497566111432,120.0,77.0,79.0,273.0,352.0,43.0,916.0,919.0,45.0,21.0,24.0,0.4666666666666667,77.02633232668846,2396.591750005315,10.0,8.0,2.0,0.8,139.6283432259682,108.19033126651266,17.0,10.0,7.0,0.5882352941176471,1286.2972469191343,19911.56487412175,14.0,2.0,12.0,0.1428571428571428,881.2168738201221,12643.911898064724,114.0,47.0,67.0,0.4122807017543859,137.41751717812787,4177.702092097783,0.0,0.0,0.0,0.0,10015.0,10058.0,10135.0,10147.0,10173.0,10189.0,10200.0,10214.0,10399.0,10487.0,0.030433042521947836,-0.1509983179509532,0.061027242578447084,-0.17915366886460019,0.03782532660831016
10,10,10866.76663657114,2855.7733542002034,16.874063156901947,10972.45203459914,-2094.5786884116387,15.28779240518434,11015.876695499284,21462.5227829542,7.152804548974483,11037.909162271231,-5667.564901366864,9.241293144537588,11278.383477496402,3586.526812368161,30.258222868940106,0.9448667950018677,121.0,90.0,78.0,267.0,345.0,31.0,836.0,833.0,34.0,21.0,13.0,0.6176470588235294,168.73629740393773,2178.697056119254,62.0,43.0,19.0,0.6935483870967742,162.34984884872168,2268.9168007646704,16.0,9.0,7.0,0.5625,1356.9815865775083,19531.577363228964,14.0,5.0,9.0,0.3571428571428571,692.2424658414983,11563.811948894292,83.0,46.0,37.0,0.5542168674698795,75.93911929453186,3536.89635263392,0.0,0.0,0.0,0.0,10848.0,10879.0,10969.0,10991.0,11007.0,11023.0,11033.0,11047.0,11242.0,11314.0,0.059086025561434836,-0.07750954869680014,0.06322563289974653,-0.12214107432180406,0.02117344251621243
11,11,11665.406558594166,2757.969231452546,16.902447403029427,11769.47940829813,-1681.9122483285992,33.12355021123273,11814.876695499284,22263.5712892381,7.890428998377793,11834.163439030772,-5651.429169610172,10.527189434474126,12068.684833895826,4074.9121797648536,34.10011464803565,0.9442947187044896,93.0,48.0,106.0,264.0,370.0,45.0,791.0,799.0,46.0,18.0,28.0,0.391304347826087,139.66949794066494,2752.8918812858674,82.0,62.0,20.0,0.7560975609756098,99.84279987276652,1111.158069148331,16.0,9.0,7.0,0.5625,1336.8806724872347,19209.27065059339,16.0,3.0,13.0,0.1875,946.7691527702776,15434.64609112922,85.0,43.0,42.0,0.5058823529411764,94.05516151334356,4699.8385742222,0.0,0.0,0.0,0.0,11647.0,11692.0,11740.0,11788.0,11806.0,11822.0,11831.0,11846.0,12027.0,12110.0,0.05064215232999713,-0.059362668874066014,0.06004789865557033,-0.1675273854375467,0.023081518659568045
12,12,12371.90459380331,4538.394003123723,26.58058172340435,12480.297897440469,-214.72554096072903,0.6101345175107661,12522.876695499284,21542.056012114914,8.073957168620582,12543.645976087771,-4117.295352529986,7.64389620259217,12773.13686849496,5118.371122788872,77.61230298996657,0.9035668556904508,136.0,78.0,75.0,269.0,344.0,58.0,719.0,708.0,60.0,30.0,30.0,0.5,133.51825674402605,4734.955365259906,3.0,1.0,2.0,0.3333333333333333,86.05456465273546,259.84532235155916,16.0,9.0,7.0,0.5625,1225.9958374827138,20691.8762720659,13.0,3.0,10.0,0.2307692307692307,749.7318435922393,10961.822329228744,119.0,69.0,50.0,0.5798319327731093,99.80078489746738,7021.736198366059,0.0,0.0,0.0,0.0,12343.0,12401.0,12479.0,12482.0,12514.0,12530.0,12541.0,12554.0,12704.0,12823.0,0.029419714694697507,-0.400765387609264,0.056911737523717934,-0.18209328683004142,0.019498544068662305
13,13,13259.933060360532,3507.5072714238586,19.909122669592907,13365.60271279885,-1193.6920011188906,11.885157159605798,13411.840734290316,21743.94742635544,7.329930030990058,13434.049430464283,-5378.384961626179,5.990718363818664,13674.10949479597,5119.18667915088,41.09477619594366,0.9570321698275516,114.0,60.0,94.0,273.0,367.0,54.0,882.0,889.0,54.0,27.0,27.0,0.5,102.70089644196774,3369.6968711737604,69.0,57.0,12.0,0.8260869565217391,107.86706660946838,803.8247081102832,17.0,9.0,8.0,0.5294117647058824,1291.668768749402,19760.822540109773,12.0,5.0,7.0,0.4166666666666667,765.2275807712566,11603.910959819605,99.0,54.0,45.0,0.5454545454545454,77.91208598462696,5319.978028966864,0.0,0.0,0.0,0.0,13233.0,13287.0,13347.0,13377.0,13403.0,13420.0,13429.0,13441.0,13626.0,13714.0,0.02928030891872584,-0.09036423676154375,0.0594036006168684,-0.14227832076562377,0.01521962195712508
14,14,14301.994598452888,1768.1929290539424,9.269202108981844,14412.47940829813,-2310.2240206236797,33.12355021123273,14456.301356399426,21873.814276727688,8.496034360962987,14474.56524394222,-6705.405287600741,10.191861603456228,14725.297743456736,1943.2273977018076,21.66761482032736,0.9432653804721778,47.0,27.0,149.0,263.0,412.0,20.0,1044.0,1044.0,27.0,15.0,12.0,0.5555555555555556,140.54775911575817,982.5777257196507,90.0,71.0,19.0,0.7888888888888889,90.36641132459825,1939.0899933295675,15.0,9.0,6.0,0.6,1319.190890814637,19115.80079265222,17.0,3.0,14.0,0.1764705882352941,907.3630795673326,15228.29075842664,44.0,17.0,27.0,0.3863636363636363,105.15800873438693,2467.767243230081,0.0,0.0,0.0,0.0,14293.0,14313.0,14340.0,14431.0,14447.0,14462.0,14472.0,14489.0,14708.0,14752.0,0.07948666506146314,-0.03911586517925758,0.06030913832061609,-0.135318156121775,0.05411513282426643
15,15,15224.503989416631,2236.9589036743164,15.920487740411586,15321.780764697554,-1470.551651717039,43.31541181435587,15374.894352000025,22630.49568073325,8.114025670143432,15393.876695499284,-5669.906330337374,9.866833946426384,15629.732572321296,4061.70222669286,35.6492125649173,0.950774985614576,64.0,37.0,136.0,267.0,403.0,27.0,919.0,919.0,28.0,21.0,7.0,0.75,137.3343430740455,2467.2831251159387,80.0,54.0,26.0,0.675,117.36952703342288,1312.2989372895704,17.0,10.0,7.0,0.5882352941176471,1336.0735848283864,19534.85056752176,15.0,3.0,12.0,0.2,993.208048651054,16043.150580992278,84.0,41.0,43.0,0.4880952380952381,93.7651601788904,4485.462214096347,0.0,0.0,0.0,0.0,15205.0,15232.0,15269.0,15346.0,15366.0,15382.0,15391.0,15405.0,15589.0,15672.0,0.06139332414577085,-0.07981326388391757,0.059038635462407,-0.1751718618942256,0.023085188166350724
16,16,16182.477897250485,3006.2690563176648,19.50601997885516,16288.681403658064,-357.3125178389238,2.419906842432472,16334.876695499284,21621.262154412176,8.557559211013785,16353.72601729957,-5938.489036683258,7.643896202477859,16586.71220759482,4923.095308565931,50.54209617989865,0.9485502452625496,124.0,90.0,78.0,275.0,353.0,34.0,960.0,960.0,48.0,22.0,26.0,0.4583333333333333,148.69530025108867,2768.1392211512057,7.0,4.0,3.0,0.5714285714285714,94.2160325366468,73.88600599888213,17.0,10.0,7.0,0.5882352941176471,1321.872310263193,19837.841405258496,13.0,3.0,10.0,0.2307692307692307,960.4760846984976,13936.070421031956,113.0,55.0,58.0,0.4867256637168141,78.34613738201035,5727.895356805731,0.0,0.0,0.0,0.0,16161.0,16195.0,16285.0,16292.0,16325.0,16342.0,16352.0,16363.0,16542.0,16638.0,0.049461740604556326,-0.2636796301077795,0.061137610784365935,-0.16173745186114533,0.015913999724054117
17,17,17090.663169171006,2381.986269503283,13.643876415420772,17197.30135639943,-1269.0443810485044,10.191861603456228,17238.876695499283,21097.530650869783,7.417594638884962,17260.27398270043,-4765.528163696591,7.643896202497884,17496.136868494963,3754.457899474043,43.222386757570455,0.9433031157014056,116.0,91.0,76.0,276.0,352.0,25.0,907.0,904.0,25.0,13.0,12.0,0.52,148.22951565974552,2970.012050640152,11.0,4.0,7.0,0.3636363636363636,144.9281747899866,709.172858339022,17.0,10.0,7.0,0.5882352941176471,1301.4128017514745,19691.172343632526,15.0,4.0,11.0,0.2666666666666666,706.9527272499447,11450.629026269731,109.0,58.0,51.0,0.5321100917431193,80.20153872766633,4055.295306111026,0.0,0.0,0.0,0.0,17078.0,17103.0,17194.0,17203.0,17230.0,17246.0,17256.0,17270.0,17440.0,17546.0,0.062229374517199,-0.11420260548354082,0.06168555094374618,-0.14834719321049314,0.021361682798174846
18,18,17963.47680973269,2757.551717893147,16.61312371695133,18068.32873009842,-973.8948901723082,28.02761940926718,18111.876695499283,21867.37148093486,8.040237674925867,18130.876695499283,-5766.263245672495,8.231540190710458,18362.68568006403,4969.4182087486115,43.0333355694791,0.9508724861270056,119.0,79.0,79.0,272.0,351.0,40.0,867.0,873.0,42.0,21.0,21.0,0.5,110.52154384049572,2677.3694043904434,25.0,8.0,17.0,0.32,102.830329581865,586.2634618473394,17.0,10.0,7.0,0.5882352941176471,1320.0505281095986,19467.041841706978,13.0,3.0,10.0,0.2307692307692307,1010.25936888867,15393.893663276198,96.0,46.0,50.0,0.4791666666666667,122.76825638489808,5394.944929599895,0.0,0.0,0.0,0.0,17942.0,17982.0,18061.0,18084.0,18103.0,18119.0,18128.0,18140.0,18325.0,18412.0,0.040079590574256765,-0.10558668149873088,0.06036621864957519,-0.17520174259245905,0.02470475440540822
19,19,18856.233855854683,2563.174408049473,14.18787934676064,18960.602712798853,-1047.8331282963634,20.383723206912453,19004.876695499283,21172.58521406689,8.15374418623735,19026.374080760015,-5009.927595712277,8.958503113841877,19269.95881659626,4097.460396772199,36.35961609589395,0.9379398752473924,116.0,85.0,81.0,270.0,351.0,31.0,895.0,893.0,43.0,19.0,24.0,0.4418604651162791,125.97174148372434,2136.354077963308,24.0,6.0,18.0,0.25,110.30517551404564,926.7483399901462,17.0,10.0,7.0,0.5882352941176471,1266.3883654753336,20366.797105441903,15.0,4.0,11.0,0.2666666666666666,733.7110132065128,12244.313505680697,85.0,48.0,37.0,0.5647058823529412,83.11722686752043,4536.521091108374,0.0,0.0,0.0,0.0,18840.0,18871.0,18956.0,18978.0,18996.0,19012.0,19022.0,19037.0,19223.0,19307.0,0.04914676936852941,-0.10526979204540624,0.05981264699947721,-0.1464514205423759,0.020285059236447182
20,20,19670.43170825065,2110.1994899701813,12.113035075954857,19780.904069198277,-1699.1911592936474,30.57558481036868,19823.079361144017,21425.95942673294,7.331695698644369,19846.69864360057,-5025.38549650752,8.840466831855144,20079.95881659626,3798.9931605767406,31.528109916982075,0.940284547260015,64.0,35.0,140.0,261.0,401.0,29.0,815.0,818.0,30.0,18.0,12.0,0.6,116.90892412285388,1663.384849432312,84.0,66.0,18.0,0.7857142857142857,77.8752925866135,1409.6035847156347,16.0,8.0,8.0,0.5,1268.698749203022,19641.5330778906,17.0,7.0,10.0,0.4117647058823529,571.136097911234,8775.380905642503,75.0,35.0,40.0,0.4666666666666667,116.1814855852664,4357.579276639179,0.0,0.0,0.0,0.0,19652.0,19681.0,19716.0,19798.0,19815.0,19830.0,19841.0,19856.0,20046.0,20117.0,0.05540183507697933,-0.04583080141435423,0.059213159323921814,-0.11365020619973434,0.030582178138912054
21,21,20564.996901391143,2930.7971432285926,18.9848273848878,20676.27398270043,-352.49205914746193,4.25511386663204,20715.876695499417,21908.09617429472,8.046069372325723,20734.876695499323,-5177.253175824075,7.855874410894172,20974.83551209554,5380.839748738027,44.657833815143725,0.9314543374559416,129.0,84.0,73.0,274.0,347.0,45.0,899.0,893.0,46.0,23.0,23.0,0.5,137.10407751197582,3282.509736645241,11.0,4.0,7.0,0.3636363636363636,122.41350643498046,584.2994663932973,17.0,10.0,7.0,0.5882352941176471,1328.490036387311,20001.74449634675,14.0,3.0,11.0,0.2142857142857142,980.5574843237736,14234.12301468067,118.0,66.0,52.0,0.559322033898305,104.63526582498103,5385.491536879361,0.0,0.0,0.0,0.0,20543.0,20588.0,20672.0,20683.0,20706.0,20723.0,20732.0,20745.0,20925.0,21019.0,0.04678047330186105,-0.34728018194523314,0.06063922788261535,-0.1893972442573655,0.019445898913737623
22,22,21480.876695499283,1787.764946959653,10.101093374014797,21582.35610379741,-2773.1817730098937,45.86337721555302,21631.911555372106,21479.478253915186,7.646586808891337,21654.69864360057,-5025.497099622077,10.191861603431692,21899.506781997123,2848.8414022366205,23.796735642166556,0.91263749130546,46.0,27.0,150.0,263.0,413.0,19.0,916.0,916.0,19.0,12.0,7.0,0.631578947368421,101.23022061082872,1333.676121726951,98.0,72.0,26.0,0.7346938775510204,79.09985757979766,2046.5988517707945,16.0,9.0,7.0,0.5625,1288.550712959494,18965.603331212184,16.0,6.0,10.0,0.375,602.2361546557203,10351.104169326483,65.0,37.0,28.0,0.5692307692307692,106.56697118636912,2851.3005986458325,0.0,0.0,0.0,0.0,21469.0,21488.0,21515.0,21608.0,21624.0,21639.0,21649.0,21665.0,21869.0,21928.0,0.05662389833908816,-0.028523142027558485,0.05998985160287227,-0.11983613615079175,0.03740712666654717
23,23,22301.972626301005,1276.3157048962585,7.118072437645066,22403.35610379741,-3099.831644999106,45.86337721555302,22452.779640495253,22714.88399921162,7.661406822196381,22475.37571045051,-5551.435144906474,15.287792405170542,22715.679892366876,3208.776787416498,22.476450635313416,0.8970601798885232,52.0,33.0,142.0,260.0,402.0,19.0,816.0,820.0,19.0,10.0,9.0,0.5263157894736842,124.06026951389669,760.5909413635673,87.0,61.0,26.0,0.7011494252873564,96.1185999946118,2854.6152828577074,16.0,9.0,7.0,0.5625,1263.3482394814278,17585.639166259338,17.0,6.0,11.0,0.3529411764705882,678.7944277251264,13212.395012090285,59.0,28.0,31.0,0.4745762711864407,70.10481028052509,3157.9812758226817,0.0,0.0,0.0,0.0,22292.0,22311.0,22344.0,22429.0,22444.0,22460.0,22469.0,22486.0,22688.0,22746.0,0.09720186709132483,-0.03100768396557211,0.055617639937112405,-0.12227368419280384,0.02184783016239936
24,24,23060.55474911894,2828.7814715568124,19.09305962755963,23167.123304500717,-518.8871237809161,5.692427294268495,23208.03094473849,20644.6261675488,7.398398463419302,23231.454702052335,-4901.59761309347,4.837277267194732,23458.136868494963,5185.877466235694,44.93241969565243,0.9504907503948038,124.0,76.0,78.0,270.0,348.0,48.0,757.0,756.0,48.0,25.0,23.0,0.5208333333333334,104.05460757396143,2958.159113245851,16.0,7.0,9.0,0.4375,67.20338930601834,396.8908296481292,17.0,9.0,8.0,0.5294117647058824,1135.688348454111,19425.880103037,12.0,5.0,7.0,0.4166666666666667,646.7891967252382,9480.349011434875,103.0,47.0,56.0,0.4563106796116505,120.10320454164903,5831.26314177574,0.0,0.0,0.0,0.0,23036.0,23084.0,23160.0,23176.0,23199.0,23216.0,23226.0,23238.0,23415.0,23508.0,0.03678425096467252,-0.12951446707009223,0.0550113302724413,-0.13195477225578298,0.023159668797348026
25,25,23911.795519568583,2301.012809105667,12.25440698502326,24021.32873009842,-1513.8842499628006,28.027619409504627,24062.876695499283,20841.32465406775,8.255822598126464,24083.330353534784,-5304.254525658063,10.191861596536947,24322.032727966896,3905.433490204141,32.74401388768483,0.9452856118774624,54.0,35.0,139.0,265.0,404.0,19.0,856.0,855.0,19.0,10.0,9.0,0.5263157894736842,130.43187578315732,2632.804471185907,82.0,66.0,16.0,0.8048780487804879,87.32693490757629,1098.1787623038554,17.0,10.0,7.0,0.5882352941176471,1218.3394416487756,19451.33245907593,15.0,3.0,12.0,0.2,791.8624943423157,13051.83003126146,83.0,39.0,44.0,0.4698795180722891,92.2085449454517,3828.979460283431,0.0,0.0,0.0,0.0,23902.0,23921.0,23956.0,24037.0,24053.0,24070.0,24080.0,24095.0,24286.0,24360.0,0.05668455006726024,-0.05768402366939355,0.05845786973099062,-0.14928817810530587,0.023610322689334
26,26,24785.39422956094,2673.9199058890445,14.79688432347739,24893.178051898707,-1348.4942234943271,22.93168860777651,24939.876695499283,21266.270229912818,7.621729429372093,24962.053101294692,-5322.125798600982,8.357258640465886,25197.684833895823,4036.6204205408662,37.86886841125809,0.9534287415386246,75.0,43.0,130.0,268.0,398.0,32.0,876.0,877.0,32.0,19.0,13.0,0.59375,125.25745696878673,2318.5639900849324,83.0,61.0,22.0,0.7349397590361446,97.76497732976355,681.5552252259591,16.0,9.0,7.0,0.5625,1285.7399876872034,19700.7423645096,14.0,5.0,9.0,0.3571428571428571,703.4164244342475,11367.480192054698,83.0,39.0,44.0,0.4698795180722891,73.66047418297113,4209.4256464867485,0.0,0.0,0.0,0.0,24766.0,24798.0,24841.0,24906.0,24931.0,24947.0,24957.0,24971.0,25160.0,25239.0,0.04684413197752092,-0.07249936679478466,0.06045912018359951,-0.1321683197753712,0.018248055677501967
27,27,25750.613581333495,3322.4043091739177,18.90873643255616,25869.150678199716,-1166.6599461630942,5.095930800711799,25904.85736985925,21650.405890656795,7.157358286788283,25927.698643600223,-5630.4400126534165,4.94225388072787,26172.684833895823,4485.247607690773,42.20906874170754,0.9484274883967038,139.0,98.0,69.0,280.0,349.0,41.0,965.0,965.0,47.0,25.0,22.0,0.5319148936170213,113.25759207991292,3115.496508228164,9.0,6.0,3.0,0.6666666666666666,189.1981295866796,29.07435181023635,17.0,9.0,8.0,0.5294117647058824,1250.5184190054754,20354.994675811344,13.0,6.0,7.0,0.4615384615384615,697.0281292748773,9490.558366538717,90.0,48.0,42.0,0.5333333333333333,92.20178192833586,4961.154518334803,0.0,0.0,0.0,0.0,25726.0,25767.0,25865.0,25872.0,25896.0,25913.0,25922.0,25934.0,26125.0,26214.0,0.03408904562493578,-0.16217075953358434,0.05775958313766002,-0.12379638673148637,0.0205566760172257
28,28,26679.539822915816,2541.9049764527404,16.858891299009514,26783.30135639943,-762.6275258557799,10.191861603456228,26827.876695499283,20558.161986238018,7.440921354569968,26850.69864360057,-4481.262160341174,6.133767479341013,27083.98619029525,3316.5537701540993,49.24676620466493,0.9433431253000104,116.0,82.0,78.0,272.0,350.0,34.0,926.0,923.0,38.0,19.0,19.0,0.5,124.59449437622152,3182.577501942577,71.0,60.0,11.0,0.8450704225352113,100.52362377898226,254.8595466661925,16.0,9.0,7.0,0.5625,1217.4108442132392,20275.153371416825,14.0,6.0,8.0,0.4285714285714285,556.8823992692998,8348.18738814936,120.0,71.0,49.0,0.5916666666666667,69.22068468027028,3978.988326446757,0.0,0.0,0.0,0.0,26665.0,26699.0,26781.0,26792.0,26819.0,26835.0,26845.0,26859.0,27045.0,27131.0,0.04901618885458679,-0.13181221549298264,0.059217883633186405,-0.12426909637147904,0.02087126863529007
29,29,27534.799350410503,3596.1833339080786,29.549915655619763,27645.369913502156,770.742389238894,22.68419452981259,27682.653934218728,21996.855711193075,7.499655397126345,27705.27398270043,-4294.69065765581,5.722720681787962,27942.410851195396,4167.171764486688,67.7220678777848,0.932486315574694,116.0,60.0,90.0,274.0,364.0,56.0,858.0,855.0,57.0,27.0,30.0,0.4736842105263157,161.57876800825173,4005.0602111384687,61.0,6.0,55.0,0.0983606557377049,142.01079543677176,1274.8863147090692,17.0,9.0,8.0,0.5294117647058824,1266.9270797402912,21048.668676404566,13.0,4.0,9.0,0.3076923076923077,688.5253871728717,10141.78746628132,165.0,111.0,54.0,0.6727272727272727,94.03347140165654,4736.932526709454,0.0,0.0,0.0,0.0,27508.0,27564.0,27624.0,28022.0,27674.0,27691.0,27701.0,27714.0,27884.0,27988.0,0.044930625890159864,0.18425195943485997,0.05759582625691438,-0.16032013526876288,0.02256529769255614
30,30,0.0,0.0,0.0,0.0,0.0,0.0,0.0,0.0,0.0,0.0,0.0,0.0,0.0,0.0,0.0,0.0,0.0,0.0,0.0,0.0,0.0,0.0,0.0,0.0,0.0,0.0,0.0,0.0,0.0,0.0,0.0,0.0,0.0,0.0,0.0,0.0,0.0,0.0,0.0,0.0,0.0,0.0,0.0,0.0,0.0,0.0,0.0,0.0,0.0,0.0,0.0,0.0,0.0,0.0,0.0,0.0,0.0,0.0,,28194.0,28458.0,28560.0,28575.0,28589.0,28598.0,28615.0,28824.0,28880.0,,,,,
31,31,29316.47976704398,2414.2401672953347,14.797579004574771,29414.35610379741,-1520.4708433712713,45.86337721555302,29464.876695499283,21246.724641592085,8.034703693039937,29485.777702167892,-4685.236767445995,10.04704588241332,29723.117357348194,3422.6492871424352,36.07367089492914,0.9401320146698042,56.0,35.0,139.0,268.0,407.0,21.0,1780.0,1782.0,22.0,15.0,7.0,0.6818181818181818,119.82500489062838,2518.421626706565,83.0,57.0,26.0,0.6867469879518072,103.6134470958422,1015.5618018693922,17.0,10.0,7.0,0.5882352941176471,1265.9394252392688,19407.895310637025,15.0,4.0,11.0,0.2666666666666666,690.6042946317363,11638.35989896195,94.0,46.0,48.0,0.4893617021276595,111.0774686100821,4098.423985877256,0.0,0.0,0.0,0.0,29302.0,29323.0,29358.0,29440.0,29456.0,29472.0,29482.0,29497.0,29693.0,29765.0,0.049632595179984904,-0.06814563235300507,0.05958280377772185,-0.14740008433089216,0.03245365192027037
32,32,30151.629489786177,2167.593949610852,14.941159891406212,30248.35610379741,-1525.6499116300745,45.86337721553903,30299.876695499283,21193.08158799557,7.617321710008026,30322.67434467588,-4636.13589353388,8.171543900655292,30559.83551209554,3768.877534639131,35.91646938182179,0.9428994097608931,58.0,33.0,137.0,272.0,409.0,25.0,833.0,835.0,26.0,15.0,11.0,0.5769230769230769,108.07376214897282,2261.4810214985832,81.0,54.0,27.0,0.6666666666666666,95.63368100937278,1122.230362926657,16.0,9.0,7.0,0.5625,1252.6415885122358,19320.104230385536,15.0,6.0,9.0,0.4,599.3681252114554,9199.169673591108,107.0,60.0,47.0,0.5607476635514018,91.5041555654604,3955.63092091986,0.0,0.0,0.0,0.0,30137.0,30162.0,30195.0,30274.0,30291.0,30307.0,30317.0,30332.0,30520.0,30604.0,0.04985885948259603,-0.06268389640398783,0.059106156096797716,-0.12928182843980204,0.02427888800430919
33,33,31006.102265186993,2627.974388507009,17.164450781032865,31107.780764697556,-1168.4085503583387,43.31541181468496,31156.876695499283,20714.0368909792,7.444757185798856,31179.69864360057,-5054.466658972874,6.695931556041153,31420.53415569611,4349.485559310448,32.09650871474812,0.951406212209141,69.0,33.0,135.0,271.0,406.0,36.0,858.0,857.0,36.0,22.0,14.0,0.6111111111111112,102.49519309850398,2704.196443450036,80.0,56.0,24.0,0.7,89.63838202333015,855.5685674109475,17.0,9.0,8.0,0.5294117647058824,1227.5559025412228,19045.295602995968,14.0,6.0,8.0,0.4285714285714285,637.0352206526065,9682.748987118348,84.0,42.0,42.0,0.5,109.56896876185844,5022.359971308817,0.0,0.0,0.0,0.0,30984.0,31020.0,31053.0,31132.0,31148.0,31164.0,31174.0,31188.0,31380.0,31459.0,0.039001595124651504,-0.0767183550615399,0.05926203129800419,-0.12603411272319273,0.025191247853971293
34,34,31817.173363218142,2882.57847263669,17.513441719601786,31925.493058134933,-479.02747010323577,3.047867327522931,31966.876695499283,21177.90010809082,7.464970116175024,31990.27398270043,-3523.059049453557,5.3358024404466615,32218.5889030941,4013.6846617941537,64.77647601124073,0.911342499910809,121.0,93.0,77.0,278.0,355.0,28.0,810.0,810.0,28.0,16.0,12.0,0.5714285714285714,129.2578488420325,3428.133102473301,9.0,4.0,5.0,0.4444444444444444,91.23622230696614,101.57971621021623,16.0,9.0,7.0,0.5625,1228.2816682314754,20799.565168674795,13.0,4.0,9.0,0.3076923076923077,538.3099219118792,7229.844669614293,151.0,91.0,60.0,0.6026490066225165,68.94952664371743,4507.897117815971,0.0,0.0,0.0,0.0,31801.0,31829.0,31922.0,31930.0,31958.0,31974.0,31986.0,31999.0,32130.0,32277.0,0.04484105118699528,-0.1904613576488708,0.057998274709125754,-0.15279616786308864,0.01717861079123649
35,35,32640.027373698995,1751.9872892624585,10.477859878452325,32722.189518593517,-2212.940220330676,28.533198343367665,32793.40650125168,20866.490385520945,7.178506367344226,32816.293668326514,-5404.633885367556,8.513366020774665,33053.10280142705,4243.586503420857,30.44550819916841,0.9397508494261936,55.0,33.0,142.0,268.0,410.0,22.0,825.0,826.0,28.0,17.0,11.0,0.6071428571428571,117.50527552785933,1152.0323834369244,87.0,40.0,47.0,0.4597701149425287,78.61057002289895,1749.3189012569796,16.0,8.0,8.0,0.5,1257.430409154284,19386.947014077297,15.0,6.0,9.0,0.4,670.5990220077686,10858.006010265904,73.0,33.0,40.0,0.4520547945205479,95.44870535628888,4574.648473973875,0.0,0.0,0.0,0.0,32628.0,32650.0,32683.0,32768.0,32785.0,32801.0,32810.0,32825.0,33020.0,33093.0,0.06706970778157073,-0.035523133115250766,0.060260752331729096,-0.12407852894963721,0.02249246133650048
36,36,33567.424990112966,3188.6270198812895,19.891237116353192,33675.55142623564,-689.6325946258204,1.71770683515112,33719.9143723593,21315.572330369043,7.541405774941744,33742.68177869256,-4845.263971121494,4.868618449991577,33977.13686849497,4861.189349409148,46.19294602947657,0.947603395659854,129.0,81.0,77.0,277.0,354.0,48.0,923.0,927.0,48.0,23.0,25.0,0.4791666666666667,128.50864628070457,3436.0263838324126,5.0,3.0,2.0,0.6,113.62425592497785,620.1118368395666,17.0,9.0,8.0,0.5294117647058824,1209.2280831820074,20172.796998913633,14.0,6.0,8.0,0.4285714285714285,661.412008783432,8497.836270204567,105.0,49.0,56.0,0.4666666666666667,89.4872639050704,6047.072025397473,0.0,0.0,0.0,0.0,33544.0,33592.0,33673.0,33678.0,33711.0,33728.0,33737.0,33750.0,33936.0,34027.0,0.04030218820810496,-0.1647605649884166,0.056729796621936245,-0.1365069091644021,0.01840851229461924
37,37,34525.759820305575,2768.6830486497993,16.22041394567891,34634.849321800284,-483.70568911254554,5.095930801728113,34680.87669549929,21198.385659622465,7.685622361185075,34703.273982700426,-4366.839401882353,7.296997348723165,34927.89025949353,3860.299219949368,59.802201770839496,0.9400412831330504,125.0,92.0,83.0,279.0,362.0,33.0,959.0,961.0,33.0,21.0,12.0,0.6363636363636364,146.7329892243458,3167.0292907209955,12.0,6.0,6.0,0.5,124.01545454593337,131.22909544610002,17.0,10.0,7.0,0.5882352941176471,1273.5129359093032,20664.634734434232,15.0,5.0,10.0,0.3333333333333333,642.028077205632,9040.513566280537,119.0,54.0,65.0,0.453781512605042,89.58488725948834,4415.952316933552,0.0,0.0,0.0,0.0,34505.0,34538.0,34630.0,34636.0,34672.0,34688.0,34699.0,34713.0,34875.0,34992.0,0.0529973950235665,-0.256386181385347,0.06007593957189965,-0.1470235147481911,0.023206721073985387
38,38,35459.42943587976,1528.608733633055,7.906868776811858,35576.753390998565,-2669.302229097804,25.47965400864057,35616.30135639943,21869.410701996625,8.30943156912858,35634.30135639943,-7475.5227696657075,10.191861603456228,35879.777418719605,3458.1846776981834,27.600838647770477,0.9207284265301608,58.0,38.0,139.0,270.0,409.0,20.0,937.0,935.0,21.0,10.0,11.0,0.4761904761904761,101.89401748752144,1037.9945133996864,91.0,77.0,14.0,0.8461538461538461,153.1282729893533,1410.5964960535882,16.0,10.0,6.0,0.625,1342.771784847101,18212.02077072509,17.0,3.0,14.0,0.1764705882352941,1028.7059171133,16787.755032965582,81.0,42.0,39.0,0.5185185185185185,96.078135456161,3237.5400376946764,0.0,0.0,0.0,0.0,35450.0,35470.0,35508.0,35591.0,35607.0,35622.0,35632.0,35647.0,35849.0,35917.0,0.06665801080787313,-0.05736640509273056,0.06139954126539445,-0.1376098968339176,0.02778282376755887
39,39,36441.60271279886,2562.000006903783,15.213879759622618,36553.32873009842,-1096.4244412802266,28.027619409504627,36596.30135639943,20666.314851998595,8.75678232099868,36614.726017299574,-6798.4819120175525,7.64389620259217,36861.10949479597,4052.549224751609,36.66617561845505,0.947021820327858,115.0,93.0,80.0,275.0,355.0,22.0,983.0,980.0,33.0,21.0,12.0,0.6363636363636364,139.74000421075263,2328.181176133363,83.0,67.0,16.0,0.8072289156626506,89.42651289138873,637.2983778079101,17.0,10.0,7.0,0.5882352941176471,1325.2953759464074,19350.442614253738,15.0,3.0,12.0,0.2,887.8214156376556,13788.353354035624,89.0,44.0,45.0,0.4943820224719101,73.65779582505436,3854.421705578726,0.0,0.0,0.0,0.0,36431.0,36453.0,36546.0,36569.0,36586.0,36602.0,36613.0,36626.0,36819.0,36901.0,0.05454332702349623,-0.081561947658674,0.06412828728476673,-0.13059112712622944,0.018175669619304634
40,40,37370.45203459914,2477.5785681157404,14.310697895532954,37479.30135639943,-766.401133994527,10.191861603456228,37520.90379344947,21417.523526766792,7.404523309862321,37543.273982700426,-4313.650644865853,6.947954564466409,37777.71220759482,3784.182564484542,44.256342954776166,0.9475549951602212,126.0,98.0,75.0,277.0,352.0,28.0,928.0,925.0,30.0,20.0,10.0,0.6666666666666666,126.8918008119257,2130.3831299122853,81.0,64.0,17.0,0.7901234567901234,85.85586275157729,670.3768883234698,17.0,9.0,8.0,0.5294117647058824,1288.862721851426,20558.39298070044,13.0,4.0,9.0,0.3076923076923077,682.274802619581,10045.222626469931,115.0,59.0,56.0,0.5130434782608696,72.52086187392679,4075.41091602266,0.0,0.0,0.0,0.0,37351.0,37379.0,37477.0,37485.0,37512.0,37528.0,37539.0,37552.0,37741.0,37829.0,0.051216055242369184,-0.11202470735408698,0.0601779528917363,-0.15816644851191897,0.01916420802594262
41,41,38301.67667176118,3595.947304583775,21.353239117643184,38418.91787890302,1034.384255768632,53.50727341814519,38451.87669549929,21362.045119585204,7.756111294521067,38471.301356399534,-4399.62132884501,7.504185525753626,38704.5889030941,4798.435868725036,53.89666610954259,0.9391432720654678,109.0,63.0,91.0,283.0,374.0,46.0,930.0,931.0,46.0,22.0,24.0,0.4782608695652174,117.68651794103508,3831.3206546742526,55.0,6.0,49.0,0.109090909090909,156.60849651741228,2147.3077875346517,17.0,10.0,7.0,0.5882352941176471,1288.2641956465293,20786.956665947393,12.0,2.0,10.0,0.1666666666666666,947.4885766615124,12936.65155365363,115.0,56.0,59.0,0.4869565217391304,104.65088849135893,5565.6758291957685,0.0,0.0,0.0,0.0,38280.0,38326.0,38389.0,38468.0,38442.0,38459.0,38469.0,38480.0,38651.0,38763.0,0.032727542417270515,0.15140262977131197,0.06030622014113338,-0.21535684683805445,0.021809375253600105
42,42,39148.87669549929,1841.6653487497988,11.161977909519376,39254.47940829813,-2123.126243441876,33.12355021123273,39298.30135639943,20666.733767652924,8.167525984226712,39317.30135639943,-6149.340954626467,10.191861603456228,39564.95881659626,3302.958402939506,34.30339422280528,0.8843320961866297,53.0,34.0,140.0,272.0,412.0,19.0,848.0,846.0,20.0,13.0,7.0,0.65,123.1605761579223,1942.8218347962568,82.0,63.0,19.0,0.7682926829268293,79.6884571622964,1927.1996333245752,15.0,9.0,6.0,0.6,1273.3716338520176,18714.484943175983,17.0,3.0,14.0,0.1764705882352941,815.0181446110905,13445.116389015917,99.0,62.0,37.0,0.6262626262626263,101.32834388110813,3495.6126566574676,0.0,0.0,0.0,0.0,39137.0,39156.0,39190.0,39273.0,39289.0,39304.0,39315.0,39330.0,39503.0,39602.0,0.06687456884690206,-0.037533546301566405,0.0616145564252184,-0.13253747850782455,0.030678056311859634
43,43,39974.69864360057,2749.3413670835394,10.191861603456228,40084.28779240518,-3130.288037943896,91.72675443110604,40127.472971416275,21709.86048349098,7.333235794356538,40150.67900274929,-5168.136755354051,5.801153437512358,40389.86252565542,3627.470023287716,26.75056725871624,0.9024471698032928,48.0,32.0,143.0,269.0,412.0,16.0,822.0,829.0,16.0,6.0,10.0,0.375,132.6059595812937,1042.380502813271,94.0,73.0,21.0,0.776595744680851,68.55350147560945,2652.8796487054515,16.0,8.0,8.0,0.5,1231.7194560611488,18080.40952448766,17.0,7.0,10.0,0.4117647058823529,631.3642543769492,11398.193414284076,78.0,38.0,40.0,0.4871794871794871,57.330882912951,3392.4731984671803,0.0,0.0,0.0,0.0,39969.0,39985.0,40017.0,40105.0,40119.0,40135.0,40144.0,40160.0,40354.0,40429.0,0.048231900617695986,-0.021900061797711833,0.0567354846429251,-0.12216477315985742,0.015804646915039095
44,44,40826.31451911472,2304.9627619469943,14.50621717258098,40935.753390998565,-1279.3848875954318,25.479654008588145,40976.87669549929,21343.199441238845,8.401726348503193,40996.30135639943,-5277.495876521987,9.763881259551631,41237.383477496405,4029.304861559932,32.85576756775907,0.9281712212230558,62.0,29.0,132.0,266.0,398.0,33.0,855.0,850.0,48.0,24.0,24.0,0.5,123.11645640431294,2143.4624331025216,78.0,63.0,15.0,0.8076923076923077,95.59290804788384,519.1583211042813,17.0,10.0,7.0,0.5882352941176471,1277.853510966856,19721.470874099818,14.0,2.0,12.0,0.1428571428571428,884.6195058701672,13454.069595755362,95.0,55.0,40.0,0.5789473684210527,78.66122730833581,4002.9367949497505,0.0,0.0,0.0,0.0,40813.0,40846.0,40875.0,40950.0,40967.0,40984.0,40994.0,41007.0,41193.0,41273.0,0.053413642266531405,-0.07471786557331316,0.05987169423614233,-0.1676210700240576,0.019522282381453357
45,45,41632.318079240744,1380.1856506097224,8.429613765724866,41739.47940829813,-2328.912197072897,33.12355021123273,41783.30135639943,20850.02620424337,7.920832234008416,41802.991874429674,-6404.0273475151835,10.191861603456228,42044.26017299569,3336.3404841602623,32.27947833253396,0.9120457802632224,53.0,36.0,138.0,272.0,410.0,17.0,806.0,806.0,20.0,11.0,9.0,0.55,134.0408592606138,1370.4381524799328,87.0,67.0,20.0,0.7701149425287356,115.59480855111173,1614.4918232137036,15.0,9.0,6.0,0.6,1282.836625227474,18369.308082145435,16.0,3.0,13.0,0.1875,788.2590411771947,13900.531001497591,87.0,43.0,44.0,0.4942528735632184,96.47083581681748,3495.684786033742,0.0,0.0,0.0,0.0,41624.0,41641.0,41677.0,41758.0,41774.0,41789.0,41800.0,41815.0,42004.0,42087.0,0.09711799220735179,-0.04963467866946532,0.061526859134900885,-0.1230880192107621,0.028915165066283288
46,46,42509.82928254292,2565.870094620497,15.276598514502458,42615.63008649785,-1354.9362996194689,38.21948101294108,42661.87669549929,21247.990918619387,7.282302061642046,42684.67017557829,-5609.128161323055,6.720291755708694,42921.84034020361,4726.337813741464,37.741059408625496,0.9458484745847272,65.0,30.0,139.0,276.0,415.0,35.0,879.0,879.0,43.0,22.0,21.0,0.5116279069767442,100.87227643456735,2187.785741701867,86.0,64.0,22.0,0.7441860465116279,78.51893076183744,659.5540614111153,17.0,9.0,8.0,0.5294117647058824,1254.811643933174,19180.68075878675,14.0,6.0,8.0,0.4285714285714285,670.0154471937561,10194.841448739347,95.0,47.0,48.0,0.4947368421052631,83.87871956376534,4635.014580743879,0.0,0.0,0.0,0.0,42488.0,42523.0,42553.0,42637.0,42653.0,42669.0,42679.0,42692.0,42876.0,42968.0,0.0393130878472968,-0.057950274698441044,0.059055543121189685,-0.11945090715055369,0.017747085136380732
47,47,43434.027373699,2077.836928951108,9.207697104592125,43557.30135639943,-2116.9921165270775,10.191861603456228,43588.34105711988,19890.637542849523,7.461937532137581,43610.69864360057,-5595.365471400417,10.19186160316157,43852.95881659626,3328.1000217430233,28.722344739415124,0.934339819514098,56.0,37.0,141.0,268.0,409.0,19.0,924.0,926.0,22.0,11.0,11.0,0.5,127.09116931130896,1677.4363434491895,84.0,77.0,7.0,0.9166666666666666,187.0480561730696,15.306963848187706,16.0,9.0,7.0,0.5625,1226.0253083675614,18880.904298912737,18.0,6.0,12.0,0.3333333333333333,604.1205694079819,10271.41941321823,79.0,40.0,39.0,0.5063291139240507,67.67852468787481,3211.250615181626,0.0,0.0,0.0,0.0,43425.0,43444.0,43481.0,43563.0,43580.0,43595.0,43605.0,43622.0,43814.0,43890.0,0.061165131652301793,-0.08835557521107903,0.06163831127717194,-0.1079680268421826,0.020335483983570178
48,48,44324.96278759308,2164.133833181261,14.39700958247815,44414.45305283639,-1681.1753383883904,24.318456818919778,44477.960204553165,21133.84580908149,7.083304966481395,44500.69864360057,-5556.633966921619,7.17735783735392,44738.205320342306,4284.599696106091,35.0177750380891,0.9480664058907972,74.0,50.0,121.0,272.0,393.0,24.0,889.0,889.0,24.0,12.0,12.0,0.5,126.59116709915452,1843.3369674346316,79.0,40.0,39.0,0.5063291139240507,117.743131192192,1298.9856266292727,17.0,9.0,8.0,0.5294117647058824,1257.1541943369994,19661.257467361065,14.0,6.0,8.0,0.4285714285714285,649.177728902942,10392.51991073542,81.0,36.0,45.0,0.4444444444444444,85.40451569399787,4641.299339623103,0.0,0.0,0.0,0.0,44313.0,44337.0,44387.0,44453.0,44469.0,44486.0,44495.0,44508.0,44705.0,44780.0,0.05849507325203933,-0.07003619938004979,0.05948534903177839,-0.11682931299190599,0.019932904297130672
49,49,45273.3836583488,2649.387553650647,16.281154647845227,45384.87669549929,-1295.861426788971,12.739827004320285,45426.87669549929,19974.13469461917,7.824265211436048,45446.81793212141,-5211.154515875835,8.657887556281445,45692.95881659626,4284.144707700807,32.923884071303135,0.9523539683321488,70.0,25.0,135.0,274.0,409.0,45.0,950.0,950.0,45.0,22.0,23.0,0.4888888888888889,88.76105501624087,2413.955590932037,78.0,65.0,13.0,0.8333333333333334,99.62455953194215,1042.427917052828,17.0,10.0,7.0,0.5882352941176471,1201.194512303835,18139.97702307008,13.0,3.0,10.0,0.2307692307692307,820.3457798866501,12730.83050827876,88.0,46.0,42.0,0.5227272727272727,92.8395818411918,4145.905391831788,0.0,0.0,0.0,0.0,45251.0,45296.0,45321.0,45392.0,45418.0,45434.0,45444.0,45456.0,45649.0,45730.0,0.03350248056156795,-0.0768790223031817,0.06013749935447389,-0.15742111990489982,0.021670505591071986
50,50,46214.996800603585,2949.3375072309395,18.43727719693402,46316.30135639943,-799.9717518491542,10.191861603456228,46364.87669549929,21132.73641073249,7.594816642923568,46387.273982700426,-3763.7770682627606,5.529322660437174,46624.986190295254,4340.372184136196,51.63919564539813,0.9244600377670144,123.0,77.0,81.0,277.0,358.0,46.0,938.0,938.0,46.0,24.0,22.0,0.5217391304347826,111.78538264845312,3349.8139985106377,18.0,3.0,15.0,0.1666666666666666,86.77891630073982,361.29645206733096,18.0,10.0,8.0,0.5555555555555556,1241.6653804468122,20358.52028482969,13.0,4.0,9.0,0.3076923076923077,628.5221360566495,8934.543653508046,134.0,83.0,51.0,0.6194029850746269,63.32436240933269,4933.061848646804,0.0,0.0,0.0,0.0,46191.0,46237.0,46314.0,46330.0,46356.0,46372.0,46383.0,46395.0,46565.0,46672.0,0.03790186181621705,-0.10847747573604723,0.05875554193806245,-0.16699239212559294,0.014589615757095555
51,51,47172.44652829097,2994.857833745972,20.383723206912453,47280.25115835574,-240.01454597039387,0.4866544286415672,47322.87669549929,21619.22706731134,8.55470965946109,47341.726017299574,-4646.968755116385,7.345647486260321,47567.7669549928,4930.876538465031,67.64459328674035,0.9275965062941426,129.0,98.0,72.0,288.0,360.0,31.0,959.0,958.0,32.0,22.0,10.0,0.6875,135.72412672717454,3320.536357587786,2.0,1.0,1.0,0.5,117.1940821668533,58.856882379081185,17.0,10.0,7.0,0.5882352941176471,1272.8796277760844,20705.671591830636,11.0,2.0,9.0,0.1818181818181818,943.2649719637672,12816.803825381894,139.0,64.0,75.0,0.460431654676259,95.0910442759435,5660.196795733661,0.0,0.0,0.0,0.0,47150.0,47181.0,47279.0,47281.0,47313.0,47330.0,47340.0,47351.0,47510.0,47639.0,0.04531905494739649,-0.4882790819740957,0.058877203325215136,-0.20298500413311746,0.01928481549561269
52,52,48080.68879999604,1565.247737991594,9.24304162360506,48186.05474739799,-2817.707573952467,35.6715156120968,48230.30135639943,21551.426032638745,8.2446456408717,48249.87669554414,-5927.892281550622,12.739827004320285,48509.63008649785,2275.7981644375363,20.457668254981037,0.9205374433393626,50.0,34.0,143.0,267.0,410.0,16.0,909.0,907.0,16.0,10.0,6.0,0.625,134.39844419597043,1738.162944959403,83.0,64.0,19.0,0.7710843373493976,86.64766819940127,2743.150649199996,15.0,9.0,6.0,0.6,1255.3010649957075,18228.44014478825,21.0,3.0,18.0,0.1428571428571428,704.6502744480204,12865.242332498305,61.0,38.0,23.0,0.6229508196721312,105.2344286090634,2085.5338733848776,0.0,0.0,0.0,0.0,48071.0,48087.0,48121.0,48206.0,48221.0,48236.0,48247.0,48264.0,48491.0,48531.0,0.0858640079355235,-0.030751121585643634,0.0582467750901776,-0.11887028997492131,0.046240668550267545
53,53,0.0,0.0,0.0,0.0,0.0,0.0,0.0,0.0,0.0,0.0,0.0,0.0,0.0,0.0,0.0,0.0,0.0,0.0,0.0,0.0,0.0,0.0,0.0,0.0,0.0,0.0,0.0,0.0,0.0,0.0,0.0,0.0,0.0,0.0,0.0,0.0,0.0,0.0,0.0,0.0,0.0,0.0,0.0,0.0,0.0,0.0,0.0,0.0,0.0,0.0,0.0,0.0,0.0,0.0,0.0,0.0,0.0,0.0,,48681.0,48957.0,49044.0,49060.0,49075.0,49084.0,49102.0,49313.0,49363.0,,,,,
54,54,49810.54767334091,3408.556619860112,24.617984205959896,49899.575339099865,-141.32555994143885,1.5217103125121254,49957.69558693806,21726.403672233864,7.793394008401819,49980.09757224064,-4328.614592587041,3.7819472097988336,50200.19161589295,5162.383895305911,61.869143908546114,0.9328588321289908,116.0,63.0,87.0,284.0,371.0,53.0,1727.0,1728.0,54.0,28.0,26.0,0.5185185185185185,114.41304080224948,3521.0640907872375,2.0,1.0,1.0,0.5,80.67567438693611,332.83839519373214,17.0,9.0,8.0,0.5294117647058824,1204.4735326912546,21277.915472783356,10.0,4.0,6.0,0.4,692.5964293297753,9463.978666293777,133.0,62.0,71.0,0.4661654135338345,100.10720904134388,6280.084653331911,0.0,0.0,0.0,0.0,49783.0,49836.0,49899.0,49901.0,49949.0,49966.0,49976.0,49986.0,50156.0,50270.0,0.03356641932705962,-0.570849847829124,0.055438237771056435,-0.1600041802095016,0.019391663051709515
55,55,50726.45203459914,1885.9324153096795,9.270814867495908,50837.32873009842,-3024.539337406621,28.027619409504627,50877.30135639943,20290.939804870646,8.545707479986447,50897.21511169532,-6825.827481206998,10.191861603456228,51141.86266723319,2987.9565311272986,27.509659201087935,0.9224273312600808,50.0,29.0,147.0,261.0,408.0,21.0,920.0,919.0,22.0,12.0,10.0,0.5454545454545454,116.24317632564788,1556.054483181119,86.0,71.0,15.0,0.8255813953488372,126.67647619252608,2137.7633791463736,16.0,10.0,6.0,0.625,1255.3496129043751,18173.903986126832,17.0,3.0,14.0,0.1764705882352941,724.7079213547081,13072.73867145144,62.0,28.0,34.0,0.4516129032258064,108.55647231101564,3046.9958210378763,0.0,0.0,0.0,0.0,50714.0,50735.0,50764.0,50853.0,50868.0,50883.0,50894.0,50911.0,51115.0,51172.0,0.06163697881324139,-0.04188289919917005,0.061867494801943104,-0.10617143831278891,0.03633134256811272
56,56,51672.499924941265,3136.4683111605423,21.43459726032999,51797.31404403087,-759.6873499308632,1.5045435797574176,51824.87669549929,21504.295852618205,7.464906673486928,51846.727578904254,-4953.0387834177645,5.364805340966661,52077.79286056426,5168.775531301617,53.02289353894762,0.9408645657085384,147.0,109.0,58.0,285.0,343.0,38.0,946.0,948.0,57.0,26.0,31.0,0.4561403508771929,120.84436162940942,2451.293307363724,5.0,2.0,3.0,0.4,234.7477972003733,1680.0535245444537,17.0,9.0,8.0,0.5294117647058824,1247.3459879591417,20042.094663755448,12.0,5.0,7.0,0.4166666666666667,711.9468448546266,10275.75674111256,120.0,58.0,62.0,0.4833333333333333,90.9719733604327,5991.141393748105,0.0,0.0,0.0,0.0,51648.0,51686.0,51795.0,51800.0,51816.0,51832.0,51842.0,51853.0,52037.0,52138.0,0.03852880043436342,-0.30900579984876275,0.05800450275181989,-0.14373940443150723,0.017600294849237506
57,57,52678.60271279886,2580.439566313077,14.64597496734038,52779.356103797414,-1504.4851010115356,45.86337721555302,52831.98482464262,21322.0959601355,7.8021545996355774,52854.69864360057,-4597.01780457849,8.330043898627787,53107.08212109698,3959.008139907952,32.46028644818999,0.9496570553204224,65.0,41.0,133.0,273.0,406.0,24.0,1007.0,1007.0,36.0,24.0,12.0,0.6666666666666666,149.08902132502996,2264.229464723394,96.0,67.0,29.0,0.6979166666666666,94.20297991403088,1511.9676279784876,17.0,9.0,8.0,0.5294117647058824,1252.548111357513,19994.737412755825,16.0,6.0,10.0,0.375,601.5874189661448,9776.537322496506,85.0,55.0,30.0,0.6470588235294118,72.23264002324817,3799.2285565084703,0.0,0.0,0.0,0.0,52666.0,52690.0,52731.0,52805.0,52823.0,52839.0,52849.0,52864.0,53053.0,53137.0,0.05777659871261694,-0.06261476424771094,0.05874413630345341,-0.13086471372092187,0.018245135516424472
58,58,53658.86317087389,2826.6631466418035,15.934713032072354,53748.753390998565,-1493.2570719680346,24.915947004224535,53811.23753212207,21512.44588864724,6.9397069551710695,53834.69864360048,-5520.067363069657,5.92112008286211,54076.4108511954,4950.804175088848,42.399143609685645,0.9507944823663228,95.0,69.0,102.0,280.0,382.0,26.0,978.0,979.0,27.0,15.0,12.0,0.5555555555555556,147.53815305008675,3071.182776597564,23.0,9.0,14.0,0.391304347826087,119.762458098045,1481.3005076073955,16.0,8.0,8.0,0.5,1273.8905854045358,20286.098130240833,15.0,7.0,8.0,0.4666666666666667,617.5340918998443,8659.940859566332,108.0,59.0,49.0,0.5462962962962963,94.56929161599524,4861.09555447294,0.0,0.0,0.0,0.0,53645.0,53671.0,53740.0,53763.0,53803.0,53819.0,53829.0,53842.0,54019.0,54122.0,0.052195166313102566,-0.08020217037392254,0.05921644577276106,-0.11187075288813855,0.019101804125447576
59,59,54662.792669693874,2326.076231771247,14.590325238130806,54768.205425597705,-1796.8008377421936,40.767446413824906,54816.87669549929,21578.07626267484,7.755731777465582,54837.191819037806,-4891.164058277771,9.681153974642903,55095.93144289727,3608.679348732157,29.63166310515582,0.9444865231266252,64.0,33.0,140.0,275.0,415.0,31.0,1006.0,1006.0,37.0,22.0,15.0,0.5945945945945946,127.79239978631392,1561.19096117184,86.0,62.0,24.0,0.7209302325581395,83.06164348907684,1329.597099765815,16.0,9.0,7.0,0.5625,1332.2509543659078,19430.43282854803,15.0,4.0,11.0,0.2666666666666666,818.1171716913267,13411.63385696284,87.0,54.0,33.0,0.6206896551724138,78.24689618708744,3275.555546884048,0.0,0.0,0.0,0.0,54644.0,54675.0,54708.0,54791.0,54808.0,54824.0,54833.0,54848.0,55043.0,55123.0,0.05493904199734818,-0.04622751823371233,0.06174095123903138,-0.16726430803455694,0.021682972806818662
60,60,55601.290407400986,2471.317819294916,17.69551139335467,55707.87669549929,-1168.5790509843478,11.668316029034017,55749.87669549929,21544.45496361152,7.630945114286262,55770.00171933562,-4530.359101798531,9.54103999429872,56020.383477496405,4353.247521500319,36.094640277874085,0.9488258793111622,122.0,77.0,80.0,275.0,355.0,45.0,935.0,933.0,45.0,22.0,23.0,0.4888888888888889,150.822968249543,3097.370955822005,20.0,8.0,12.0,0.4,108.11376290475911,1304.187743977737,16.0,9.0,7.0,0.5625,1260.272971583341,19508.35813304913,14.0,3.0,11.0,0.2142857142857142,847.4565344771988,13366.564852348314,89.0,51.0,38.0,0.5730337078651685,114.1509331014916,4579.478544611742,0.0,0.0,0.0,0.0,55579.0,55624.0,55701.0,55715.0,55741.0,55757.0,55767.0,55781.0,55986.0,56056.0,0.061029369461097424,-0.09251728654017025,0.05849639611268588,-0.18706166893939216,0.026222017594384393
61,61,56552.33155520122,3417.6379729332684,23.078615848832367,56660.344927476865,-381.3227997773066,1.102247201473595,56701.452034599286,22181.921225576036,7.590555434598882,56723.750587087416,-4561.530998260687,4.411280291315239,56967.56152939511,5096.395632728609,45.9877319917135,0.9460671644313776,129.0,78.0,72.0,286.0,358.0,51.0,953.0,952.0,51.0,23.0,28.0,0.4509803921568627,123.15905675666872,4007.961940545175,4.0,2.0,2.0,0.5,99.869532129469,93.87686302366927,18.0,9.0,9.0,0.5,1221.1023347581424,21584.250351967865,11.0,5.0,6.0,0.4545454545454545,697.23240767427,9606.64443969524,110.0,62.0,48.0,0.5636363636363636,72.01477654450825,5421.424514157476,0.0,0.0,0.0,0.0,56529.0,56580.0,56658.0,56662.0,56693.0,56710.0,56719.0,56730.0,56910.0,57016.0,0.03603630862369093,-0.26190286074631003,0.05504943969191433,-0.15285052495316265,0.014130531013337276
62,62,57482.30135639943,1858.1774565423077,10.191861603456228,57600.726017299574,-1481.7385365507184,7.64389620259217,57631.30135639943,19912.583682576747,7.81930834644221,57651.58189111422,-5617.705323102259,7.64389620259217,57904.95881659626,3742.979967892301,33.1948785852282,0.908851885908873,53.0,35.0,141.0,278.0,419.0,18.0,930.0,929.0,18.0,12.0,6.0,0.6666666666666666,153.6608075907512,2356.98262175178,82.0,78.0,4.0,0.951219512195122,200.57042478895892,600.0940788261358,16.0,10.0,6.0,0.625,1286.338797782843,19601.816287096,16.0,4.0,12.0,0.25,655.9010962278563,10302.53464723822,90.0,53.0,37.0,0.5888888888888889,109.93492311629711,3529.480201632563,0.0,0.0,0.0,0.0,57470.0,57488.0,57523.0,57605.0,57621.0,57637.0,57648.0,57664.0,57854.0,57942.0,0.08269436648783958,-0.13536154985606233,0.06459929149768609,-0.11675605224975538,0.02937096219037535
63,63,58426.418486645,1892.642240720785,11.38914596912094,58537.32873009842,-2089.6695969293573,28.027619409504627,58578.876695499304,21505.11631951256,7.780560446451506,58599.11418476997,-5286.862736979555,9.296116576352192,58847.10949479597,4619.045923381744,36.09019906786182,0.9283737613596122,54.0,35.0,137.0,278.0,415.0,19.0,944.0,948.0,28.0,17.0,11.0,0.6071428571428571,122.3684280785838,1604.7318818718718,81.0,65.0,16.0,0.8024691358024691,100.16146353891828,1798.2940097725611,16.0,9.0,7.0,0.5625,1303.1306173248086,19565.775912138444,14.0,4.0,10.0,0.2857142857142857,847.0653465832198,13952.164680352278,105.0,64.0,41.0,0.6095238095238096,76.48474359597904,4655.603338463983,0.0,0.0,0.0,0.0,58418.0,58437.0,58472.0,58553.0,58570.0,58586.0,58595.0,58609.0,58802.0,58887.0,0.06465481190569941,-0.047931722644622615,0.06059630638418912,-0.1602207942071819,0.01655855881596913
64,64,59419.3393889501,2705.6580638881433,16.828418820202472,59530.47940829813,-1256.7380254647546,33.12355020874932,59574.87669549929,22008.90021547557,7.961598184596437,59594.34758321906,-4435.5826962244755,10.191861603454692,59834.30950605845,3936.47735456596,40.60853959349054,0.9559895112296548,109.0,74.0,99.0,279.0,378.0,35.0,995.0,996.0,50.0,23.0,27.0,0.46,123.3930673038877,2181.0149366212945,41.0,22.0,19.0,0.5365853658536586,74.06542926478546,1355.1456621345917,17.0,10.0,7.0,0.5882352941176471,1312.2014635431117,20335.96877946183,15.0,2.0,13.0,0.1333333333333333,871.648472532763,13818.116212604931,112.0,55.0,57.0,0.4910714285714285,92.52923610806964,4076.0419502024456,0.0,0.0,0.0,0.0,59399.0,59434.0,59508.0,59549.0,59566.0,59582.0,59592.0,59607.0,59791.0,59886.0,0.04560556596222907,-0.05893466081556282,0.05962140091945333,-0.1965127317487963,0.023505593395766404
65,65,60367.69715997654,2752.137271464653,14.852909770993971,60477.60271279886,-992.9678496841708,20.383723206912453,60521.87669549929,21577.270817996487,7.713657564510704,60542.12080460737,-4473.2710082609565,8.915894541742386,60799.65746019684,4693.183542966002,39.99880707018784,0.92035662988723,80.0,46.0,125.0,279.0,404.0,34.0,947.0,947.0,35.0,21.0,14.0,0.6,104.74771975930132,2414.8454748030385,86.0,68.0,18.0,0.7906976744186046,90.79123832658811,521.1153858636123,16.0,9.0,7.0,0.5625,1295.370637206847,20019.9049750243,13.0,3.0,10.0,0.2307692307692307,833.1649422897773,13002.753697274748,96.0,63.0,33.0,0.65625,97.733036993746,4417.864212847622,0.0,0.0,0.0,0.0,60347.0,60381.0,60427.0,60489.0,60513.0,60529.0,60539.0,60552.0,60739.0,60831.0,0.03806049968705082,-0.09143421748797377,0.06003403526485126,-0.18625407241169617,0.020824465120318006
66,66,61305.427392897014,2870.1022872754065,15.337914759757837,61405.205425597705,-1199.9821763961868,40.76744641381031,61453.87669549935,21049.120965151305,7.627705617977766,61476.69864360057,-4925.174286019432,7.836157286220248,61716.26017299569,4472.675949697171,36.569177237513664,0.9575961617447808,61.0,37.0,132.0,273.0,405.0,24.0,937.0,932.0,24.0,12.0,12.0,0.5,174.37917324474603,3028.2407926915625,78.0,54.0,24.0,0.6923076923076923,98.98586795707593,549.3366905352419,16.0,9.0,7.0,0.5625,1263.604232846586,19674.781626430045,15.0,6.0,9.0,0.4,595.4906496474367,9608.456456054628,90.0,44.0,46.0,0.4888888888888889,69.53504620369922,4522.1847532070915,0.0,0.0,0.0,0.0,61293.0,61317.0,61354.0,61428.0,61445.0,61461.0,61471.0,61486.0,61678.0,61759.0,0.06075712841937926,-0.08248944851360417,0.060031211514181296,-0.12090752835646704,0.015546631811859116
67,67,62192.877405130486,1970.950185017089,10.191861603456228,62291.356103797414,-2516.105134995016,45.86337721555302,62340.87669549929,21734.741278715443,7.583815066839298,62364.27407088271,-4587.677369795476,12.739827004320285,62606.59791866291,3211.084368357052,28.35616195317298,0.9220016037209334,51.0,35.0,142.0,270.0,412.0,16.0,887.0,887.0,16.0,11.0,5.0,0.6875,115.68286570388956,1814.4083731648927,88.0,62.0,26.0,0.7045454545454546,128.4048952971269,1715.3758885003526,16.0,9.0,7.0,0.5625,1259.4000011749597,18862.54585561343,17.0,6.0,11.0,0.3529411764705882,567.0880213144881,10054.89136015472,71.0,29.0,42.0,0.4084507042253521,95.61773138919348,3047.6276391505735,0.0,0.0,0.0,0.0,62182.0,62198.0,62233.0,62317.0,62332.0,62348.0,62358.0,62375.0,62581.0,62645.0,0.058693957149853856,-0.051033199492032055,0.05794409903596479,-0.12361113818685325,0.029777396175397347
68,68,63120.12330450071,1860.5154385360051,9.983911605665222,63232.90406919828,-2392.5060584039024,30.57558481036868,63274.98002853112,20698.29758068733,7.558975414120011,63297.520964397714,-5943.121651827452,8.400317413024124,63542.691539815096,4088.0452561015863,31.352085575508404,0.93779764309777,54.0,33.0,139.0,277.0,416.0,21.0,924.0,934.0,22.0,8.0,14.0,0.3636363636363636,129.16089143077076,1644.2010825619063,84.0,67.0,17.0,0.7976190476190477,116.91799144539588,1957.8024130397569,17.0,9.0,8.0,0.5294117647058824,1240.759585769875,18378.241941224107,15.0,7.0,8.0,0.4666666666666667,657.1165170283891,11090.08261406238,85.0,42.0,43.0,0.4941176470588235,115.61004165954782,4046.497937710736,0.0,0.0,0.0,0.0,63113.0,63134.0,63167.0,63250.0,63266.0,63282.0,63292.0,63306.0,63502.0,63583.0,0.06942210140024657,-0.04886842022184665,0.05994500663318191,-0.11056756962501889,0.028280029798347945
69,69,64017.54796540086,2341.0556880046834,15.287792404845067,64119.93144289727,-1484.6340235233706,41.531144749477214,64171.87669549929,21057.5947720553,7.444327728661365,64195.69864360057,-4329.289776475959,7.27637166163715,64454.356103797414,3281.213510794847,32.12727861710196,0.935998331682999,54.0,29.0,142.0,275.0,417.0,25.0,897.0,897.0,32.0,10.0,22.0,0.3125,148.26508338103474,2170.4277531966063,86.0,58.0,28.0,0.6744186046511628,74.1470297613642,1087.7765202115747,16.0,9.0,7.0,0.5625,1260.8129387056567,20129.549171534352,17.0,7.0,10.0,0.4117647058823529,558.1233762745222,8223.98893577417,89.0,60.0,29.0,0.6741573033707865,87.03255933822096,2840.03012783062,0.0,0.0,0.0,0.0,64009.0,64034.0,64063.0,64147.0,64163.0,64179.0,64190.0,64205.0,64395.0,64480.0,0.06333257433418993,-0.04994296815682333,0.05987449907521402,-0.12891799927720118,0.02652450352648281
70,70,64884.178051898714,2544.0109732433734,15.059421185720057,64989.05474739799,-1395.9136957867488,35.6715156120968,65035.080396391175,21649.651432144063,7.295432417232904,65058.4004928891,-5397.148856248891,6.242990098167859,65295.5098046752,4379.552972131265,37.713471896260515,0.9579518956785006,64.0,33.0,135.0,280.0,415.0,31.0,873.0,863.0,33.0,19.0,14.0,0.5757575757575758,120.97327765095989,2175.180583682613,82.0,60.0,22.0,0.7317073170731707,86.02642853945132,773.9860753983404,16.0,8.0,8.0,0.5,1261.2079991923883,19893.599526349914,14.0,6.0,8.0,0.4285714285714285,685.2484929135935,10746.141086718671,99.0,49.0,50.0,0.494949494949495,93.96938961644902,4555.565666912137,0.0,0.0,0.0,0.0,64866.0,64897.0,64930.0,65009.0,65027.0,65043.0,65053.0,65065.0,65258.0,65345.0,0.04755218390301611,-0.061627326101250185,0.05825534896695033,-0.12696490520549636,0.021456388406399334
71,71,65778.89594061546,1979.632458210938,10.349618022313557,65876.93144289727,-2542.9105614439286,48.411342616416945,65927.87669549929,20875.10656289188,7.813728799367118,65950.24722445714,-5529.413222470117,10.191861602962192,66210.78076469757,3843.1242976951257,28.04798837228253,0.8917289171091716,49.0,33.0,142.0,275.0,417.0,16.0,891.0,893.0,16.0,10.0,6.0,0.625,127.33125147713068,2046.773427625667,87.0,60.0,27.0,0.6896551724137931,74.8345065487613,2295.558918691097,16.0,9.0,7.0,0.5625,1242.394625228299,18163.944813067665,16.0,6.0,10.0,0.375,665.2415439000256,12069.231893799468,85.0,61.0,24.0,0.7176470588235294,98.10886701787084,3523.482637914149,0.0,0.0,0.0,0.0,65769.0,65785.0,65818.0,65904.0,65919.0,65935.0,65945.0,65960.0,66151.0,66235.0,0.06432065252769412,-0.029428682110733923,0.05951560637476271,-0.1203096091998794,0.02552841371191419
72,72,66604.60493528497,1875.7753822911056,9.18401060963998,66711.47940829814,-1926.8800544078467,33.12355021120537,66755.30135639943,21155.02236763268,8.49472261976057,66774.30135639943,-5996.5777654382855,10.191861603456198,67019.10949479598,3510.2720006695913,32.44835551904125,0.9159001880365556,51.0,35.0,140.0,272.0,412.0,16.0,827.0,827.0,16.0,9.0,7.0,0.5625,135.41472304264053,2342.205549484016,83.0,64.0,19.0,0.7710843373493976,73.46989750750481,1823.8762500165155,16.0,10.0,6.0,0.625,1288.0276029416189,19445.923384234884,16.0,2.0,14.0,0.125,849.9143387499303,13676.13824140732,96.0,55.0,41.0,0.5729166666666666,71.23440484194334,3652.484888117611,0.0,0.0,0.0,0.0,66596.0,66612.0,66647.0,66730.0,66745.0,66761.0,66772.0,66787.0,66976.0,67059.0,0.07219133181993388,-0.03812894182979282,0.06088519220439632,-0.1417332305183256,0.02029312965729016
73,73,67457.0080068404,2145.5062148467605,14.44600685614236,67554.93144289727,-1772.16129348578,48.41134261641708,67606.90020291311,21221.766615654353,7.779942449787804,67628.27398270041,-5295.375566467921,7.643896199854832,67874.53415569612,4611.6656549775425,35.82727360615323,0.9335899336403998,58.0,34.0,137.0,275.0,412.0,24.0,852.0,851.0,34.0,21.0,13.0,0.6176470588235294,110.33812383499692,1815.0182057594411,85.0,57.0,28.0,0.6705882352941176,105.77061378056302,1455.4775122719195,16.0,9.0,7.0,0.5625,1265.4973748827383,19127.14975091564,14.0,4.0,10.0,0.2857142857142857,770.0547839332235,12780.149480610586,96.0,51.0,45.0,0.53125,88.08314918292814,4743.5700047240225,0.0,0.0,0.0,0.0,67443.0,67467.0,67501.0,67582.0,67598.0,67614.0,67624.0,67638.0,67834.0,67913.0,0.05142754799378554,-0.05968452994056533,0.059632046558708136,-0.1454202396539098,0.019100072679348885
74,74,68328.20156242857,1939.8639150370584,8.527063189303606,68441.32873009844,-2527.2139523035744,28.027619409504627,68482.30135639943,20615.073074292646,8.24702340046002,68501.92632258956,-6230.486396532981,10.191861603456228,68756.65746019685,3596.8820035522203,27.959438233344855,0.8986290435109493,55.0,32.0,143.0,274.0,417.0,23.0,870.0,876.0,23.0,12.0,11.0,0.5217391304347826,111.22664090665758,1579.1701334427655,85.0,70.0,15.0,0.8235294117647058,86.70779310528947,1673.3108822217582,16.0,9.0,7.0,0.5625,1264.737995093741,18765.25272112547,15.0,3.0,12.0,0.2,801.2321678813863,13521.28273727938,77.0,44.0,33.0,0.5714285714285714,92.73535088758248,3605.0973479277873,0.0,0.0,0.0,0.0,68316.0,68339.0,68371.0,68457.0,68473.0,68488.0,68499.0,68514.0,68715.0,68788.0,0.057337342091098566,-0.03430963691311322,0.06135015823304993,-0.12859865456527442,0.025782149872027663
75,75,69134.62907043513,2809.0128133007033,13.083431635357844,69226.87669549929,-1680.4918589228637,12.739827004320285,69286.20076020609,21212.788829288525,6.961026527826417,69309.69864360057,-4903.458457494948,6.245048759246219,69543.74186308736,4206.699297649441,39.91628299405419,0.9549738477525724,92.0,67.0,104.0,278.0,382.0,25.0,808.0,804.0,25.0,13.0,12.0,0.52,142.97441307307028,3175.26640712482,64.0,42.0,22.0,0.65625,108.05413819492416,1642.1149468539836,16.0,8.0,8.0,0.5,1238.3442357890174,20402.952426784,15.0,6.0,9.0,0.4,576.6626740107225,8315.073614069841,97.0,44.0,53.0,0.4536082474226804,117.82102222009529,4228.342566165722,0.0,0.0,0.0,0.0,69122.0,69147.0,69214.0,69234.0,69278.0,69294.0,69304.0,69318.0,69504.0,69596.0,0.05089845528510409,-0.06429911434630994,0.05837724807212684,-0.11760325472509965,0.028007949673495708
76,76,70007.61478624197,2178.5511670221,15.290106586758938,70094.32873009844,-1858.3479100117052,23.50407640245822,70156.83445447288,20309.62075811009,7.149260068233272,70179.69864360057,-5767.796462822751,7.128739860011996,70436.93144289727,3946.85074526162,30.615672507594724,0.942811480492298,94.0,70.0,100.0,276.0,376.0,24.0,873.0,870.0,26.0,16.0,10.0,0.6153846153846154,124.15954850320954,2477.7319307927273,50.0,23.0,27.0,0.46,130.75428942969944,2293.336041412609,16.0,9.0,7.0,0.5625,1228.2524850046982,18885.68897261631,15.0,7.0,8.0,0.4666666666666667,648.8229799375755,10066.610559525265,81.0,53.0,28.0,0.654320987654321,98.29881415245735,3284.5023239526868,0.0,0.0,0.0,0.0,69994.0,70018.0,70088.0,70121.0,70148.0,70164.0,70174.0,70188.0,70384.0,70464.0,0.056991798210975886,-0.07036050070348553,0.06047638701053683,-0.11249061649794113,0.024905632489515776
77,77,70821.60271279886,2119.422168410116,10.53355273507706,70932.90406919828,-2140.6670445348173,30.57558481036868,70976.30135639943,20383.75135947519,8.756085314799558,70995.30135639943,-6783.422847511586,10.191861603456228,71238.96361258626,3387.191189247164,29.841284689862377,0.914441244153044,66.0,38.0,138.0,267.0,405.0,28.0,816.0,820.0,28.0,17.0,11.0,0.6071428571428571,105.76770082025266,1497.0458368135687,80.0,63.0,17.0,0.7875,98.41766051374796,1881.1592062084835,16.0,10.0,6.0,0.625,1232.780585792734,18530.98473692128,18.0,3.0,15.0,0.1666666666666666,818.388473867965,13481.72327065282,78.0,41.0,37.0,0.5256410256410257,96.37764637365152,3805.243118151274,0.0,0.0,0.0,0.0,70805.0,70833.0,70871.0,70950.0,70966.0,70982.0,70993.0,71009.0,71198.0,71276.0,0.049904026860110785,-0.04597523036803458,0.06047859219101433,-0.12064535740510125,0.028453559598173254
78,78,71604.39400138326,2616.1161554295295,15.601651396880811,71710.027373699,-1117.536741870339,17.8357578060484,71752.93734240136,21077.73715332988,7.069657434629211,71776.69864360057,-5138.489421998079,6.267154044383913,72010.96318716052,4339.293167928272,38.149124904691746,0.9376135080338284,117.0,86.0,79.0,267.0,346.0,31.0,781.0,777.0,37.0,16.0,21.0,0.4324324324324324,126.0386189069349,2952.098479360522,83.0,64.0,19.0,0.7710843373493976,85.52362980332204,672.40893653488,16.0,8.0,8.0,0.5,1231.548329109604,19945.60023924766,15.0,6.0,9.0,0.4,585.5409695897771,8407.159970595076,79.0,35.0,44.0,0.4430379746835443,116.18644126634888,5035.170453072509,0.0,0.0,0.0,0.0,71589.0,71620.0,71706.0,71726.0,71745.0,71761.0,71771.0,71785.0,71977.0,72052.0,0.048177761008566966,-0.07652869619318953,0.05842886834344279,-0.11395196554906832,0.026775430184133028
79,79,74556.67873789933,3113.8130830880596,18.28773257030586,74653.93144289727,-1721.7665194831222,48.411342616402415,74706.87669549929,21161.070893229193,7.633928085530133,74728.91041505388,-5681.0861911191105,7.3473373119062915,74969.29313338119,4181.916338319399,35.790444411936946,0.9507173019116392,73.0,26.0,133.0,275.0,408.0,47.0,2955.0,2954.0,47.0,25.0,22.0,0.5319148936170213,89.56276803421314,2355.136524505326,83.0,55.0,28.0,0.6626506024096386,90.92737693667942,1519.33313051337,16.0,9.0,7.0,0.5625,1273.9975718560947,18860.3976400044,14.0,5.0,9.0,0.3571428571428571,735.3614474297215,12195.44225265632,86.0,41.0,45.0,0.4767441860465116,134.2899091405862,4869.8600985307585,0.0,0.0,0.0,0.0,74532.0,74579.0,74605.0,74681.0,74698.0,74714.0,74724.0,74738.0,74929.0,75013.0,0.028763052130730698,-0.052810515193416584,0.060204777833986166,-0.1294402905872589,0.03211205061901208
80,80,75501.12330450071,1931.7636019236031,12.739827004320285,75602.35610379743,-3171.8412179185966,45.863377215551665,75651.97889668541,20746.84810632656,7.831549597233881,75674.69864360057,-5702.13245234099,10.191861603402833,75931.78076469757,2038.8653189858,23.30392393406161,0.903743702258668,50.0,26.0,141.0,271.0,412.0,24.0,938.0,945.0,30.0,8.0,22.0,0.2666666666666666,101.48964893918028,1937.064893931992,90.0,63.0,27.0,0.7,91.5977325785233,2452.143946172287,16.0,9.0,7.0,0.5625,1227.8961415688375,17897.16181423962,17.0,6.0,11.0,0.3529411764705882,599.68892322571,10978.376854858185,67.0,41.0,26.0,0.6119402985074627,100.10653184177926,1164.1207100141096,0.0,0.0,0.0,0.0,75494.0,75518.0,75544.0,75628.0,75643.0,75659.0,75669.0,75685.0,75896.0,75956.0,0.05253730261721432,-0.028878410451652726,0.05918470773372086,-0.1051692376909817,0.04909913906994877
81,81,76326.43346475283,2899.048823958083,16.255572597829037,76421.35610379743,-1967.110422903914,45.86337721555299,76471.87669549929,20517.335716119196,7.622183324020444,76494.69864360057,-5304.210055442495,7.870610177342136,76731.14672786299,3687.186481226744,34.46025700681201,0.9404480408555226,61.0,19.0,139.0,273.0,412.0,42.0,823.0,820.0,44.0,23.0,21.0,0.5227272727272727,93.09938604696076,2381.1746717682604,84.0,57.0,27.0,0.6785714285714286,80.06601436109142,1681.79744183736,16.0,9.0,7.0,0.5625,1226.619140964246,18479.49860051055,16.0,6.0,10.0,0.375,627.2775179099049,9891.232819989427,91.0,44.0,47.0,0.4835164835164835,92.22096655565208,3762.352950756891,0.0,0.0,0.0,0.0,76304.0,76346.0,76365.0,76447.0,76463.0,76479.0,76489.0,76504.0,76688.0,76777.0,0.0321137696190476,-0.04070234869829793,0.059784523582200176,-0.11826030857625515,0.025011202179546325
82,82,77219.95971119044,3116.6061737219343,19.592540736082448,77320.20542559771,-1341.6735651494175,40.767446413824906,77367.87669549929,20230.74142579989,7.435475506010002,77390.29963219461,-5306.318075622409,7.333274178516793,77627.42777314,3843.151547717795,40.8143889198731,0.951936138706132,75.0,21.0,134.0,279.0,413.0,54.0,894.0,896.0,55.0,31.0,24.0,0.5636363636363636,92.84825312130388,2881.5903390562553,79.0,56.0,23.0,0.7088607594936709,106.23739358957292,972.78472586769,16.0,9.0,7.0,0.5625,1224.5000680017035,18443.85610558979,14.0,5.0,9.0,0.3571428571428571,662.2160771304018,10982.205004186882,115.0,60.0,55.0,0.5217391304347826,92.9134866617946,3800.936464526521,0.0,0.0,0.0,0.0,77190.0,77244.0,77265.0,77343.0,77359.0,77375.0,77385.0,77399.0,77587.0,77678.0,0.029791461591832123,-0.07918274336555303,0.060526702518184594,-0.12479765963760599,0.024176378554983096
83,83,78151.89240596392,2968.3771816626345,17.1324921760092,78259.32873009844,-1307.3772333927395,28.027619409504627,78302.30135639943,19540.08793915792,8.545475742897846,78320.72601729959,-6135.4153527086655,7.64389620259217,78552.97960129163,2701.8029399209963,47.701850667937585,0.9467480664251776,73.0,23.0,134.0,277.0,411.0,50.0,936.0,934.0,50.0,26.0,24.0,0.52,105.56412564175656,3193.764569085738,77.0,61.0,16.0,0.7922077922077922,83.37599117983251,1096.7674392187014,16.0,10.0,6.0,0.625,1240.0705838583535,18669.898737879743,15.0,2.0,13.0,0.1333333333333333,819.2488654134576,13339.845244040382,116.0,57.0,59.0,0.4913793103448275,103.1278950250368,3254.507852668018,0.0,0.0,0.0,0.0,78126.0,78176.0,78199.0,78275.0,78292.0,78308.0,78319.0,78333.0,78529.0,78610.0,0.03556290834395528,-0.06377347643072055,0.06346289677505897,-0.13352785725448485,0.038170028428517584
84,84,78966.25367001019,2688.9831567377355,15.817341274932645,79071.47940829814,-1835.560741089852,33.12355021123273,79115.30135639943,21358.21244960504,8.237491869236946,79133.87669549929,-6350.695698134676,10.319031004095253,79377.2601729957,3716.4999339618334,34.95020293223916,0.9385947016226468,62.0,22.0,135.0,275.0,410.0,40.0,814.0,813.0,40.0,18.0,22.0,0.45,80.32828393043987,2818.009072893324,80.0,61.0,19.0,0.7625,96.7398818440783,1528.6604743975872,16.0,10.0,6.0,0.625,1260.2633519550282,18376.840422505516,15.0,3.0,12.0,0.2,917.3690328336744,14638.708725909324,106.0,62.0,44.0,0.5849056603773585,96.0233223240974,3340.848608883499,0.0,0.0,0.0,0.0,78948.0,78988.0,79010.0,79090.0,79105.0,79121.0,79131.0,79145.0,79334.0,79420.0,0.02987310788063613,-0.052703176570795277,0.0590060312832188,-0.1444517382722532,0.025837030547646318
85,85,79822.52059170186,2655.323930096112,17.19606561164197,79906.2975599794,-2005.2885532363616,27.92738590723648,79971.89558669885,20180.782780838916,7.0712629053947325,79995.7392679706,-5298.398269005135,6.207600641967425,80247.65746019685,3745.253811526147,33.20374532936446,0.9362860764712148,75.0,31.0,124.0,276.0,400.0,44.0,851.0,856.0,46.0,20.0,26.0,0.4347826086956521,106.76851415579992,2419.580751135989,80.0,39.0,41.0,0.4875,74.22384290694974,1691.395597107657,17.0,9.0,8.0,0.5294117647058824,1190.5166308871237,19148.9175268684,15.0,7.0,8.0,0.4666666666666667,570.2709099193219,8829.492751794873,93.0,60.0,33.0,0.6451612903225806,109.34611157507814,3737.100844946145,0.0,0.0,0.0,0.0,79804.0,79848.0,79879.0,79946.0,79963.0,79980.0,79989.0,80003.0,80194.0,80279.0,0.04020922379588367,-0.03701404607688948,0.05899258932698516,-0.10763081236367683,0.02919591490396772
86,86,80658.21923530243,3288.9584927287697,16.970776565519436,80760.63008649785,-1317.1496445494945,38.21948101296085,80806.87669549929,20209.231458058603,7.624193582374851,80829.69864360057,-4120.555638610564,8.30159780486362,81086.78076469757,2875.711831971653,37.89912622218431,0.9259446142977452,67.0,20.0,138.0,272.0,410.0,47.0,834.0,836.0,51.0,28.0,23.0,0.5490196078431373,99.87456460807324,3187.052750168039,82.0,61.0,21.0,0.7439024390243902,106.40848329188138,620.3896691248682,16.0,9.0,7.0,0.5625,1234.671099012827,19675.135610385783,16.0,6.0,10.0,0.375,566.5150344743794,8280.641899542547,98.0,69.0,29.0,0.7040816326530612,111.2702047596849,2822.8253764414776,0.0,0.0,0.0,0.0,80634.0,80681.0,80701.0,80782.0,80798.0,80814.0,80824.0,80839.0,81029.0,81111.0,0.030366623607101143,-0.08078693543456586,0.061094411312731606,-0.13748510738843128,0.03869309974754861
87,87,82223.98174148222,2412.8392760060237,18.709775226563252,82302.95881659626,-2233.893029453722,28.054624184444062,82372.43843502928,19907.937933358127,7.044911243607845,82395.69864360057,-5680.407359539316,5.837482421062126,82631.41085119541,4107.474473485054,39.1291269961921,0.9288812728785888,73.0,18.0,138.0,273.0,411.0,55.0,1575.0,1565.0,55.0,31.0,24.0,0.5636363636363636,93.83985720120508,2149.035452031193,84.0,39.0,45.0,0.4642857142857143,98.64941888564545,1615.5316087848803,16.0,8.0,8.0,0.5,1155.3054698979424,19470.724761865684,14.0,6.0,8.0,0.4285714285714285,614.4259371056595,9159.236268457777,95.0,41.0,54.0,0.431578947368421,90.47003710678878,3908.906575590296,0.0,0.0,0.0,0.0,82193.0,82248.0,82266.0,82340.0,82364.0,82380.0,82390.0,82404.0,82591.0,82677.0,0.038891880671197594,-0.04416031456518276,0.05803240264086268,-0.10816582301511028,0.022025708909647345
88,88,83098.25931647774,2613.3556295294406,16.915148708356977,83200.63008649785,-1703.6581274619966,38.21948101296085,83246.87669549929,19794.34404849182,7.973284044789913,83268.97750401626,-4704.12374544347,10.04976941206554,83505.34124279438,2555.389766778771,39.253482699704406,0.947310543893335,71.0,20.0,138.0,278.0,416.0,51.0,873.0,875.0,51.0,28.0,23.0,0.5490196078431373,109.37177939219356,2657.9028449366187,83.0,62.0,21.0,0.7469879518072289,68.6425992985951,950.50180365474,16.0,9.0,7.0,0.5625,1137.596677471714,18391.988573376013,15.0,5.0,10.0,0.3333333333333333,593.7711999610448,10202.66967368609,102.0,48.0,54.0,0.4705882352941176,91.78193608622192,2453.632631419285,0.0,0.0,0.0,0.0,83070.0,83121.0,83141.0,83222.0,83238.0,83254.0,83264.0,83279.0,83470.0,83557.0,0.04185108913473325,-0.04029129917095195,0.057470794419095195,-0.12622355024911625,0.03591700071724041
89,89,84894.02066701809,4029.0249524287897,27.17304203188623,84979.6157835602,-332.7835733549095,0.7156455140287986,85043.3684345204,21021.727219398712,7.760543865391548,85066.08096427128,-4696.349901328259,4.060740742015987,85317.10949479598,3892.3139186343,71.34303122419354,0.9146248150613008,115.0,55.0,94.0,285.0,379.0,60.0,1802.0,1795.0,62.0,33.0,29.0,0.532258064516129,102.50485701230085,4274.701849076198,3.0,2.0,1.0,0.6666666666666666,125.00007077226898,314.14254284863165,16.0,8.0,8.0,0.5,1120.8271006945915,20978.497508517692,11.0,5.0,6.0,0.4545454545454545,682.9783998836823,9075.337237377653,117.0,76.0,41.0,0.6495726495726496,79.79250637797044,5027.521725359704,0.0,0.0,0.0,0.0,84863.0,84923.0,84978.0,84981.0,85035.0,85051.0,85062.0,85072.0,85241.0,85357.0,0.025441603917222836,-0.37561971437501807,0.053317555165509886,-0.14542749459330467,0.0205000182528873
90,90,100454.80726340148,2779.0933122614324,18.44676053801707,100540.90406919828,-1881.3777568698004,29.518086032012768,100604.72416786788,20016.000860118653,6.819239654930965,100628.89648639786,-5634.266784499007,5.856793912909689,100862.85390471284,3594.263846100414,39.66523390792587,0.95109566133041,102.0,54.0,102.0,276.0,378.0,48.0,15553.0,15562.0,48.0,23.0,25.0,0.4791666666666667,102.9077776142604,2987.827111754954,43.0,4.0,39.0,0.0930232558139534,148.78065310420013,2265.134813432869,16.0,9.0,7.0,0.5625,1190.245818735555,18889.529178188,15.0,7.0,8.0,0.4666666666666667,566.7438989452077,8639.142298445186,110.0,59.0,51.0,0.5363636363636364,118.57953719780964,3785.178046375062,0.0,0.0,0.0,0.0,100432.0,100480.0,100534.0,100580.0,100596.0,100612.0,100622.0,100636.0,100830.0,100912.0,0.037029263162999454,-0.0790806910313102,0.05946471660615723,-0.10058875815118185,0.03299132792559516
91,91,102209.2951254792,2324.6343592176354,14.17680791879755,102310.78076469756,-2371.343199853471,43.31541181468896,102358.87669549928,20560.53078169497,7.362765380864127,102380.89751866292,-5506.092475411611,9.632501271506271,102621.83551209555,3169.7294087830196,32.22534697795033,0.9291955600300518,60.0,26.0,139.0,275.0,414.0,34.0,1752.0,1755.0,38.0,19.0,19.0,0.5,88.38491743282742,1717.7519704092488,83.0,59.0,24.0,0.7108433734939759,96.83202713767078,1677.473909780556,16.0,9.0,7.0,0.5625,1241.901956272445,17480.673790531204,16.0,6.0,10.0,0.375,672.0813291267291,11664.79702366788,89.0,43.0,46.0,0.4831460674157303,112.4599553355374,3303.7971803625865,0.0,0.0,0.0,0.0,102192.0,102226.0,102252.0,102335.0,102350.0,102366.0,102375.0,102391.0,102581.0,102666.0,0.03802099761726559,-0.04083425256354887,0.06040223228955303,-0.12206139510515344,0.03547935512221376
92,92,103071.93751383256,2637.274302147956,12.767973828736798,103190.45203459916,-1639.6771920756737,7.372439561597202,103226.30135639945,20105.872795454816,7.704156908418222,103245.30135639945,-5439.837456608628,10.051724876142035,103482.543108036,3581.554151837397,38.53384248655242,0.9356090932096514,79.0,50.0,121.0,280.0,401.0,29.0,863.0,867.0,31.0,18.0,13.0,0.5806451612903226,120.19616424612046,2111.2488385021816,84.0,74.0,10.0,0.8809523809523809,194.24767938806573,307.6855803814992,16.0,10.0,6.0,0.625,1229.096694885763,17716.43806306709,14.0,3.0,11.0,0.2142857142857142,910.6292554631297,13581.58715988098,107.0,55.0,52.0,0.514018691588785,81.75033787001651,3752.546824992394,0.0,0.0,0.0,0.0,103055.0,103084.0,103134.0,103199.0,103216.0,103232.0,103243.0,103255.0,103438.0,103535.0,0.0455759054521653,-0.11846702529426957,0.06113122804415712,-0.16740008552219604,0.022825380939187314
93,93,103892.13567291811,2454.707353777214,12.31349252049171,104014.30135639945,-1194.4577103766303,10.191861603386396,104045.30135639945,19899.29352015195,7.785640014019893,104064.30135639945,-5103.765051768694,10.191861603456225,104303.56152939513,2990.8129886052957,40.37327626540756,0.908999610985304,50.0,33.0,142.0,275.0,417.0,17.0,823.0,819.0,17.0,7.0,10.0,0.4117647058823529,143.12030190094282,2624.8348762067126,85.0,79.0,6.0,0.9294117647058824,189.24959633019145,661.8369891882132,15.0,9.0,6.0,0.6,1212.728446534944,18880.067030973,16.0,2.0,14.0,0.125,844.4370987646141,12886.51512504255,116.0,67.0,49.0,0.5775862068965517,102.95389686292069,3150.243484088399,0.0,0.0,0.0,0.0,103885.0,103902.0,103935.0,104020.0,104036.0,104051.0,104062.0,104077.0,104260.0,104352.0,0.0583044254463631,-0.15843976281966335,0.06094329154483891,-0.16545375623667805,0.03442338162070478
94,94,104718.027373699,2272.3710861855902,12.409160538864262,104804.2327992967,-2114.504420796232,27.472738351727017,104870.48059165852,20008.93870300933,6.709622869712948,104894.65050640012,-5514.429796036977,6.653304141227619,105144.082121097,3862.521569289911,32.040557470954774,0.9258545606864416,63.0,39.0,135.0,272.0,407.0,24.0,829.0,825.0,24.0,14.0,10.0,0.5833333333333334,116.18970561621845,2125.5043302726003,71.0,38.0,33.0,0.5352112676056338,94.4533762914952,1989.432492561402,16.0,8.0,8.0,0.5,1180.5782911417712,18963.43957001096,15.0,7.0,8.0,0.4666666666666667,529.3183959956181,8477.205504148107,87.0,56.0,31.0,0.6436781609195402,99.63687038427332,3794.1509598473585,0.0,0.0,0.0,0.0,104704.0,104728.0,104767.0,104837.0,104862.0,104878.0,104888.0,104902.0,105089.0,105174.0,0.051131483903562105,-0.04466927350094076,0.05900254424609802,-0.09598787464408745,0.025795809446467543
95,95,105583.96712420296,2301.616560455251,14.027220370464429,105685.35610379744,-1527.0559227920232,45.86337721555302,105736.87669549928,20553.257337223025,8.062085286660519,105756.30135639945,-5191.962245368099,10.046100741923125,105994.59347003997,3300.797788791611,35.46130448812826,0.9355226828499318,52.0,32.0,141.0,271.0,412.0,20.0,863.0,867.0,20.0,10.0,10.0,0.5,122.04702953623288,2312.8253601096694,86.0,60.0,26.0,0.6976744186046512,84.08667494399758,1297.411509471023,16.0,9.0,7.0,0.5625,1196.6347944986703,18288.38282699633,15.0,3.0,12.0,0.2,908.4563914484723,14356.770251472331,78.0,34.0,44.0,0.4358974358974359,105.90613042316748,3915.679412080406,0.0,0.0,0.0,0.0,105574.0,105594.0,105626.0,105711.0,105728.0,105744.0,105754.0,105767.0,105961.0,106038.0,0.053026655974395855,-0.055064568159531466,0.058221175109382885,-0.17497361277211385,0.03208501010961313
96,96,106446.07686788954,2282.305972701751,13.671127911517958,106559.15067819972,-1488.4244364951714,5.095930801728113,106598.30135639945,20304.536233437462,7.880578595649294,106617.3013563996,-5036.250272149748,10.191861603456054,106872.65746019685,3255.737873864545,33.75616266744197,0.9067845351216648,59.0,39.0,138.0,274.0,412.0,20.0,863.0,861.0,20.0,13.0,7.0,0.65,148.06654792095998,2750.7889181957803,70.0,67.0,3.0,0.9571428571428572,155.72701924674408,627.6703936855778,15.0,9.0,6.0,0.6,1218.4817945512136,18885.2421513403,16.0,2.0,14.0,0.125,861.3568295165481,13325.465994048252,90.0,58.0,32.0,0.6444444444444445,64.39442641413429,3336.766095605969,0.0,0.0,0.0,0.0,106433.0,106453.0,106492.0,106562.0,106589.0,106604.0,106615.0,106630.0,106821.0,106904.0,0.06487585349727738,-0.10462541156166329,0.06001032382825965,-0.17103137909563693,0.019778750289162077
97,97,107312.75339100392,2805.7844529091185,15.97615175665635,107404.45203459916,-1144.7524953914374,15.287792405180012,107465.00182124456,20953.786353482377,6.829447841146016,107488.21402350544,-5030.722782411761,5.057943082268136,107719.86288579882,4245.885167149711,45.36449475699422,0.9437022495230446,107.0,71.0,97.0,279.0,376.0,36.0,870.0,867.0,37.0,22.0,15.0,0.5945945945945946,127.60019524714352,2688.1187662183565,52.0,42.0,10.0,0.8076923076923077,97.28626293367115,969.1829866687503,16.0,8.0,8.0,0.5,1213.1002893919165,19552.493507127743,13.0,6.0,7.0,0.4615384615384615,629.1714957249384,9053.976282102998,116.0,59.0,57.0,0.5086206896551724,91.4096833197457,4409.294420700336,0.0,0.0,0.0,0.0,107291.0,107327.0,107398.0,107413.0,107457.0,107473.0,107482.0,107495.0,107664.0,107774.0,0.045477547327216795,-0.08498453886349033,0.05789408505591198,-0.12506582511853487,0.02152900507695774
98,98,108164.7307705166,1626.345437588635,9.031311258412051,108287.87669549928,-2018.2841746040435,12.739827004320285,108319.30135639945,18474.801083956416,8.185879450467093,108339.19884047976,-6533.234198067393,7.64389620259217,108590.65746019685,2930.9122234778956,27.887936275995713,0.8851511826262398,56.0,37.0,140.0,271.0,411.0,19.0,847.0,854.0,19.0,10.0,9.0,0.5263157894736842,129.40828471297408,1824.8187650711163,87.0,80.0,7.0,0.9195402298850576,198.26544103341095,353.33929773184104,15.0,9.0,6.0,0.6,1187.3644794586503,18251.20576174832,15.0,3.0,12.0,0.2,734.8988116690954,13002.560358613642,85.0,51.0,34.0,0.6,82.37238793304181,3129.8916460997275,0.0,0.0,0.0,0.0,108155.0,108174.0,108211.0,108295.0,108310.0,108325.0,108336.0,108351.0,108541.0,108622.0,0.07956998662279667,-0.09823465076334337,0.06426940534097343,-0.11248621882963986,0.028104692891586024
99,99,108973.50249215636,2290.989778306951,13.836853558078904,109081.054747398,-1654.2604551049656,35.671515612094716,109125.87669549928,19767.13674233965,7.607765221871529,109148.27398270038,-5031.558227410835,7.643896202592169,109380.07895463464,3444.6582125568248,38.53440286599626,0.9359998818829656,66.0,33.0,138.0,270.0,408.0,33.0,808.0,807.0,33.0,20.0,13.0,0.6060606060606061,100.34774020895728,2063.351241099466,81.0,61.0,20.0,0.7530864197530864,98.86380949917042,1283.9270587618537,16.0,9.0,7.0,0.5625,1146.2746543536568,18035.705900948466,14.0,4.0,10.0,0.2857142857142857,625.7297429911997,10426.914945928564,99.0,47.0,52.0,0.4747474747474747,101.02122873317708,3382.407552747636,0.0,0.0,0.0,0.0,108954.0,108987.0,109020.0,109101.0,109117.0,109133.0,109144.0,109158.0,109336.0,109428.0,0.04380104230893365,-0.05976314624101762,0.057988907007377896,-0.12436102589101726,0.02932692374672298
100,100,109820.027373699,2364.5393371156447,15.427825476406978,109905.38347749642,-1432.841579408169,25.084928032149104,109971.61398590112,20708.932772198685,6.844327865572003,109994.69864360055,-5518.498403093279,5.030752796545388,110236.53415569612,4062.160023756923,37.48391983953601,0.9410089705409602,79.0,47.0,124.0,274.0,398.0,32.0,851.0,845.0,35.0,23.0,12.0,0.6571428571428571,131.9761732785837,1980.654742403069,70.0,28.0,42.0,0.4,84.83720185072012,1314.3605407510304,16.0,9.0,7.0,0.5625,1208.233385049968,19157.287580676777,13.0,6.0,7.0,0.4615384615384615,631.1643335305092,9164.63988917892,94.0,51.0,43.0,0.5425531914893617,109.29793309230732,4154.933270935139,0.0,0.0,0.0,0.0,109798.0,109830.0,109877.0,109941.0,109963.0,109979.0,109989.0,110001.0,110193.0,110275.0,0.055814750554995324,-0.059209059166025785,0.05834358527021714,-0.11437247733490749,0.026906358305210785
101,101,110666.43953202912,2137.352199176377,14.162963312204962,110774.47940829814,-1729.6394949000255,33.12355021123273,110818.30135639945,20222.043367136877,8.317293746648058,110837.30135639945,-5791.7031820166185,10.191861603456228,111072.98619029528,3112.0632283880573,38.44523042782217,0.9309827100633264,55.0,20.0,140.0,271.0,411.0,35.0,846.0,847.0,43.0,19.0,24.0,0.4418604651162791,148.53395001519303,1812.3937902819905,84.0,65.0,19.0,0.7738095238095238,94.83207402597806,1172.9677759020133,15.0,9.0,6.0,0.6,1188.7393895650791,18330.409814792183,15.0,2.0,13.0,0.1333333333333333,869.615513951322,13639.6591095297,101.0,54.0,47.0,0.5346534653465347,79.1317565110488,3548.9169411626212,0.0,0.0,0.0,0.0,110654.0,110689.0,110709.0,110793.0,110809.0,110824.0,110835.0,110849.0,111034.0,111120.0,0.06949437255704989,-0.05482765299104102,0.05878433588451877,-0.15014849460025845,0.025427425699199677
102,102,111523.2012506294,2838.027999705585,12.901702912545185,111632.054747398,-1262.6098307337988,35.67151561208809,111676.15857810432,20432.767160613144,6.952675535695496,111700.6540566663,-5122.536519355348,6.073345779015646,111937.83551209555,3671.31906587247,36.15114786331728,0.9440607709776372,101.0,74.0,99.0,274.0,373.0,27.0,856.0,858.0,29.0,17.0,12.0,0.5862068965517241,126.81698120224264,2832.120837380585,84.0,64.0,20.0,0.7619047619047619,105.8348386823599,911.129071379136,16.0,8.0,8.0,0.5,1170.0961971042964,19054.778304359665,15.0,7.0,8.0,0.4666666666666667,541.7536059203727,7422.189779247366,93.0,45.0,48.0,0.4838709677419355,73.41656062060747,3897.211207902851,0.0,0.0,0.0,0.0,111508.0,111535.0,111609.0,111652.0,111668.0,111684.0,111694.0,111708.0,111898.0,111982.0,0.04468489430527061,-0.08382228310455274,0.057265674683545126,-0.10575885674477346,0.01999732502224249
103,103,112441.51680111908,2999.358624350828,18.17140325641691,112535.7260172996,-1108.8125853320237,3.0405930021970335,112594.95028658149,20565.34904045032,7.3517718555329745,112618.04348613977,-4766.9288395391695,4.65239624090356,112860.68483389584,4408.133641052551,44.37909257406246,0.9353743234155664,112.0,74.0,94.0,278.0,372.0,38.0,918.0,919.0,51.0,24.0,27.0,0.4705882352941176,116.6704591963414,3094.135451359951,10.0,6.0,4.0,0.6,109.29859212024598,1055.5505950489114,17.0,9.0,8.0,0.5294117647058824,1153.7982451523571,19631.650296829845,12.0,5.0,7.0,0.4166666666666667,621.5968443867459,8842.40993531362,111.0,65.0,46.0,0.5855855855855856,104.09597993690836,4380.51792458182,0.0,0.0,0.0,0.0,112418.0,112456.0,112530.0,112540.0,112586.0,112603.0,112613.0,112624.0,112806.0,112902.0,0.03889846924243452,-0.098572647502479,0.056103995263242674,-0.13039776034224107,0.023614524516106294
104,104,113339.027373699,2626.0495542358985,12.65201842472363,113448.75339099858,-1313.1243199262724,25.47965400864057,113492.87669549928,20292.216971324644,7.829101011558085,113513.57266783091,-4332.260587927654,10.191861603456143,113747.13686849496,3278.126061403001,44.30654347590779,0.9404590099173336,121.0,94.0,82.0,272.0,354.0,27.0,899.0,898.0,27.0,17.0,10.0,0.6296296296296297,147.35694003645966,2474.891840031304,25.0,7.0,18.0,0.28,87.07816907126693,1065.7947449936348,16.0,9.0,7.0,0.5625,1221.4918145200456,18627.43755943269,15.0,4.0,11.0,0.2666666666666666,627.2107840103986,10550.837768148738,109.0,52.0,57.0,0.4770642201834862,98.98986783055533,3525.233306302834,0.0,0.0,0.0,0.0,113322.0,113349.0,113443.0,113466.0,113484.0,113500.0,113510.0,113525.0,113705.0,113797.0,0.05611354126915404,-0.06631372806815129,0.060195089390487067,-0.1447767906109328,0.030197090037528566
105,105,114211.83905211516,2105.429160109473,14.445243121480578,114308.50678199712,-2007.515446564935,50.95930801728114,114361.09514585162,20557.788201514188,7.098342052047607,114384.332457599,-5204.016075297052,7.533227954983899,114634.082121097,3752.022394407086,29.22092683879874,0.9300169988373675,57.0,34.0,142.0,272.0,414.0,23.0,868.0,868.0,25.0,20.0,5.0,0.8,114.19990461138478,1718.4477753823674,88.0,59.0,29.0,0.6704545454545454,96.47362957474591,1856.3141962798863,16.0,8.0,8.0,0.5,1205.544234393868,18314.690094350062,14.0,6.0,8.0,0.4285714285714285,649.0180241615161,11133.926132248254,83.0,53.0,30.0,0.6385542168674698,102.1074778937646,3842.2863078413775,0.0,0.0,0.0,0.0,114193.0,114216.0,114250.0,114337.0,114353.0,114369.0,114378.0,114392.0,114584.0,114664.0,0.05424067775590555,-0.048056232762653056,0.05864172850584546,-0.12471483845761742,0.02721398412919125
106,106,115069.86114731176,1913.2365980098705,11.780013435767192,115167.63008649784,-2107.7865628344575,38.21948101296085,115219.87669549928,19914.73325416268,7.358653836354983,115243.77708991908,-5131.714944802278,8.352337698504428,115489.2327992967,3871.92078091115,29.76424523075013,0.9215539613906998,51.0,32.0,142.0,270.0,412.0,19.0,860.0,859.0,19.0,11.0,8.0,0.5789473684210527,135.65094248498417,2224.3725209987733,87.0,60.0,27.0,0.6896551724137931,91.49864619495484,1699.9769223667995,16.0,9.0,7.0,0.5625,1162.8905086097373,18087.00148541635,16.0,7.0,9.0,0.4375,544.8399151486674,8648.308022100522,78.0,45.0,33.0,0.5769230769230769,108.16124381585682,4044.381633199665,0.0,0.0,0.0,0.0,115059.0,115078.0,115110.0,115189.0,115211.0,115227.0,115237.0,115252.0,115444.0,115522.0,0.0709012897966132,-0.043409825173148245,0.05839347651652146,-0.10617111842903809,0.02793477706183959
107,107,115863.77826236944,2718.467420178298,14.39093183834487,115972.45203459916,-1101.6287832455098,15.287792405183708,116014.66301521976,20679.007085419555,7.025223847804683,116038.69864360055,-4557.565575511086,5.78126685945179,116273.4108511954,3900.512649996097,43.439535804510115,0.9284601862217072,60.0,35.0,136.0,272.0,408.0,25.0,797.0,794.0,26.0,14.0,12.0,0.5384615384615384,144.82472058527836,2767.9085232956113,74.0,63.0,11.0,0.8513513513513513,103.65468144788156,704.0487745354842,16.0,9.0,7.0,0.5625,1213.7647717117402,20151.301738218823,15.0,6.0,9.0,0.4,536.3681465521337,7535.048646411802,112.0,60.0,52.0,0.5357142857142857,93.97209118000984,4556.272133801903,0.0,0.0,0.0,0.0,115851.0,115876.0,115911.0,115981.0,116006.0,116022.0,116033.0,116047.0,116229.0,116319.0,0.053274399946930256,-0.09409220512785113,0.05869550538369644,-0.11768742274037063,0.024092241100693232
108,108,116654.42421873283,2279.282153962779,16.41393622971037,116729.31643064594,-1507.9738426339404,25.474034017121383,116802.80625495526,21021.168689822924,7.14321576915528,116825.69864360055,-5270.810220541059,5.292708217541382,117064.2601729957,4971.035257542477,41.0797244924906,0.933753128185618,58.0,37.0,134.0,274.0,408.0,21.0,786.0,788.0,22.0,13.0,9.0,0.5909090909090909,148.6465708623597,2919.9302872904664,72.0,31.0,41.0,0.4305555555555556,88.87223408143285,1292.1855554967542,17.0,9.0,8.0,0.5294117647058824,1235.1111900447188,20132.089794205705,13.0,6.0,7.0,0.4615384615384615,630.0532623374795,9557.427469132304,104.0,59.0,45.0,0.5673076923076923,99.79270674768792,5025.589886650822,0.0,0.0,0.0,0.0,116641.0,116662.0,116699.0,116750.0,116794.0,116811.0,116820.0,116833.0,117009.0,117107.0,0.06521639745387448,-0.05893486449751802,0.05875559100777679,-0.11953632097814429,0.020074833827877996
109,109,117450.15506113788,2497.52187650544,14.5803373852099,117560.47940829814,-1542.3363515946771,33.12355021123273,117604.87669549928,20714.360043632172,8.240677642083313,117624.38687696612,-4723.038813851189,10.191861603455829,117859.08695294024,3918.4654045881152,36.35780153362815,0.9373025580268964,86.0,54.0,119.0,270.0,389.0,32.0,796.0,803.0,32.0,20.0,12.0,0.625,102.81146469556325,2351.746041532835,86.0,67.0,19.0,0.7790697674418605,84.15688515147976,1133.471009119187,17.0,10.0,7.0,0.5882352941176471,1180.601944646294,19069.206940317883,16.0,2.0,14.0,0.125,886.0616410529342,13616.458423104164,86.0,39.0,47.0,0.4534883720930232,69.3863483942051,4264.466062204212,0.0,0.0,0.0,0.0,117430.0,117462.0,117516.0,117579.0,117596.0,117612.0,117622.0,117635.0,117820.0,117905.0,0.041165391047312136,-0.05456454752198956,0.05699437212443473,-0.18760414131139339,0.01770753119651405
110,110,119099.027373699,2144.440805989704,13.155425532967628,119209.17805189872,-1484.3611036548175,22.93168860777525,119254.18125853552,20816.11545335904,7.195275091537811,119277.88257456532,-5742.244760817047,5.9694665656650265,119513.95562955488,3965.479543571615,35.231130566905925,0.938139577862142,66.0,38.0,138.0,272.0,410.0,28.0,1653.0,1649.0,31.0,19.0,12.0,0.6129032258064516,132.50794381166205,1487.7279209707754,89.0,68.0,21.0,0.7640449438202247,102.8570406082888,598.0759854800444,16.0,8.0,8.0,0.5,1205.2169059679254,19913.71101602834,15.0,7.0,8.0,0.4666666666666667,607.2454941528124,9452.395994789322,92.0,43.0,49.0,0.4673913043478261,69.58752557141422,4154.337471938529,0.0,0.0,0.0,0.0,119081.0,119109.0,119147.0,119222.0,119246.0,119262.0,119271.0,119285.0,119472.0,119557.0,0.06179137397570033,-0.06929381291050578,0.057898261982085746,-0.10575054172131967,0.0175483254438222
111,111,119992.9738309336,2591.9361622089305,13.613517169993084,120096.47940829814,-1428.228088006114,33.12355021122724,120146.87669549936,20514.102953070833,7.672531270264734,120169.69864360055,-4548.911617602153,8.450882528745188,120413.38347749642,3194.567633055478,38.15280113965313,0.9332215813808624,57.0,35.0,143.0,269.0,412.0,22.0,891.0,893.0,22.0,13.0,9.0,0.5909090909090909,164.76805368948442,3253.1470462960574,85.0,59.0,26.0,0.6941176470588235,106.34824806469886,1217.3853590593842,16.0,9.0,7.0,0.5625,1224.699814713308,19597.856210408223,16.0,6.0,10.0,0.375,559.4226692079841,8668.486953108833,116.0,79.0,37.0,0.6810344827586207,76.87637630755869,3202.0204969522447,0.0,0.0,0.0,0.0,119980.0,120002.0,120037.0,120115.0,120138.0,120154.0,120164.0,120180.0,120365.0,120449.0,0.06356948758686395,-0.07446166964351397,0.05970038356125038,-0.12297945447945856,0.024064720218187858
112,112,120837.40707836272,1891.321985840147,11.626622108563016,120947.054747398,-2232.798580915364,35.6715156120968,120991.68350145155,22125.11957303276,7.985723454670173,121010.94307645551,-5641.073502396058,11.430328478964542,121256.95881659626,3864.419372925417,33.369684409692226,0.9305397600927332,63.0,32.0,140.0,272.0,412.0,31.0,847.0,844.0,35.0,19.0,16.0,0.5428571428571428,120.24755208609209,1218.450024153448,86.0,66.0,20.0,0.7674418604651163,89.44933750970128,1937.7043422537972,17.0,10.0,7.0,0.5882352941176471,1285.628449905094,18343.053218623285,15.0,3.0,12.0,0.2,960.0528935381572,15570.391431858843,82.0,44.0,38.0,0.5365853658536586,80.67946163133372,4017.893851009221,0.0,0.0,0.0,0.0,120819.0,120850.0,120882.0,120967.0,120983.0,120998.0,121008.0,121022.0,121214.0,121294.0,0.06357857254679813,-0.04006153455768966,0.058107186524410215,-0.17018975078597587,0.02087751194825894
113,113,121700.45203459916,1993.916292289212,11.399127037543389,121811.47940829814,-1861.9182707146365,33.12355021123273,121855.30135639945,21437.754120298916,8.684310539581796,121873.30135639945,-6763.296647068474,10.191861603453782,122111.9278965908,3764.5470376713265,33.60080236152363,0.930718060423936,63.0,38.0,139.0,268.0,407.0,25.0,863.0,864.0,28.0,18.0,10.0,0.6428571428571429,161.58353005548815,1446.8349549374643,75.0,62.0,13.0,0.8266666666666667,90.89091959221004,1573.6261722523805,16.0,10.0,6.0,0.625,1269.1610856699738,18754.90670708487,16.0,2.0,14.0,0.125,976.415065881935,14972.245838325867,83.0,37.0,46.0,0.4457831325301205,90.26552870108904,3988.4045647776056,0.0,0.0,0.0,0.0,121684.0,121709.0,121747.0,121830.0,121845.0,121861.0,121871.0,121886.0,122076.0,122154.0,0.08103827160666528,-0.048815740745336005,0.0592021476945775,-0.1443696937802009,0.02397779275907932
114,114,122507.96636459698,2883.772907452596,15.7770552621996,122599.87669549928,-994.5973553198804,12.739827004320285,122658.04182038976,20913.62568115749,7.270309944264822,122681.2739827004,-4145.735859335085,5.79470089335499,122912.98619029528,3909.183552805345,45.25687285157863,0.9339472929349322,79.0,51.0,117.0,270.0,387.0,28.0,806.0,803.0,35.0,14.0,21.0,0.4,134.0320892142723,3484.0201764848016,35.0,28.0,7.0,0.8,93.33750506522976,655.092099121462,17.0,9.0,8.0,0.5294117647058824,1193.663165396604,20491.284001701,14.0,4.0,10.0,0.2857142857142857,597.9516817478251,8528.91181737393,88.0,39.0,49.0,0.4431818181818182,88.73289960952087,4308.12173468341,0.0,0.0,0.0,0.0,122494.0,122522.0,122573.0,122607.0,122650.0,122666.0,122677.0,122690.0,122875.0,122960.0,0.04647803191017237,-0.09384451362753798,0.05707585970958907,-0.1442329424826713,0.0226985759074535
115,115,123342.85316661496,2666.4109198932165,14.89843042736712,123437.45203459916,-1234.1025649507133,15.28779240518434,123495.25214661405,21765.16814628132,7.140484075237235,123517.9356383694,-5324.61118010301,4.661250439277027,123752.71220759484,4542.380382844891,45.688724456617635,0.9216900961086189,104.0,69.0,98.0,280.0,378.0,35.0,837.0,837.0,47.0,22.0,25.0,0.4680851063829787,128.71957294853124,2064.2677329619396,78.0,49.0,29.0,0.6282051282051282,94.33522060446025,1262.769426587001,17.0,9.0,8.0,0.5294117647058824,1234.435093836262,21049.57709474582,11.0,5.0,6.0,0.4545454545454545,691.9653202553303,10122.360526228396,112.0,61.0,51.0,0.5446428571428571,131.72161692283055,5373.130094387667,0.0,0.0,0.0,0.0,123322.0,123357.0,123426.0,123446.0,123487.0,123503.0,123513.0,123524.0,123693.0,123804.0,0.048274469620641275,-0.07644034076554063,0.05671608349357829,-0.12995602812108875,0.02899836777657387
116,116,124187.56060014867,1504.1716009520346,6.453335336067139,124297.32873009844,-2753.7560408578056,28.027619409504627,124338.87669549928,21597.948178769144,7.496531136727695,124362.06281160656,-4644.177371885765,12.739827004320285,124601.10949479598,2508.007679461682,26.73064020517848,0.9213610260062328,50.0,35.0,142.0,269.0,411.0,15.0,842.0,844.0,15.0,8.0,7.0,0.5333333333333333,124.44814498607444,1387.9790189676048,85.0,68.0,17.0,0.8,103.68326503558926,2209.7376536219426,16.0,9.0,7.0,0.5625,1270.760207898603,19075.84400378972,17.0,6.0,11.0,0.3529411764705882,552.3606933788574,9622.676467563271,82.0,42.0,40.0,0.5121951219512195,72.79585681221285,2291.8204966539843,0.0,0.0,0.0,0.0,124180.0,124195.0,124230.0,124313.0,124330.0,124346.0,124356.0,124372.0,124579.0,124641.0,0.08273533744907,-0.03765157969596011,0.05883708014207408,-0.11893617516046157,0.02902537237359565
117,117,124978.60271279886,2950.9805651341535,18.763190737913572,125099.15067819972,-840.7693781235799,2.5906074662731364,125130.30135639945,19873.269383459978,8.226304303769995,125148.7260172996,-5949.559509049032,7.64389620259217,125395.95881659626,4444.201364243051,41.238663288399046,0.9179208579799284,128.0,92.0,78.0,273.0,351.0,36.0,794.0,791.0,36.0,25.0,11.0,0.6944444444444444,159.04513023500672,3184.6882185303775,20.0,17.0,3.0,0.85,197.9428620020926,1621.0554530715565,16.0,10.0,6.0,0.625,1238.6990465814508,18809.419285908723,13.0,2.0,11.0,0.1538461538461538,882.8229046951253,13257.45997780137,100.0,63.0,37.0,0.63,76.63550021938575,4651.40768848669,0.0,0.0,0.0,0.0,124954.0,124990.0,125082.0,125102.0,125120.0,125136.0,125147.0,125160.0,125333.0,125433.0,0.053895688814126916,-0.23543062717609833,0.06232990771072569,-0.14838458264891516,0.017243930672443442
118,118,125812.9998278079,2590.429711561046,14.715423256114637,125924.87669549928,-1196.782719184287,12.73982700327834,125964.10281001602,20763.42353738503,7.01724945806706,125987.66418911536,-5578.64564406002,5.622049025357455,126230.38347749642,4303.119456339434,31.982171861408226,0.9390211359902434,57.0,31.0,139.0,271.0,410.0,26.0,832.0,834.0,26.0,14.0,12.0,0.5384615384615384,110.8207601265255,2822.5359557275474,77.0,69.0,8.0,0.8961038961038961,93.28156994244726,842.3383619962545,16.0,8.0,8.0,0.5,1195.7174527208838,19543.580869270303,15.0,7.0,8.0,0.4666666666666667,621.8397195081583,8791.005875796156,77.0,40.0,37.0,0.5194805194805194,91.75481797212912,4496.181814470021,0.0,0.0,0.0,0.0,125799.0,125825.0,125856.0,125932.0,125956.0,125972.0,125982.0,125995.0,126196.0,126266.0,0.04278084042656484,-0.07794361369624962,0.05758768300265929,-0.11146786499520277,0.021322860985640138
119,119,126647.72554731458,2740.952086484614,14.432796509253873,126754.60271279886,-1225.2307033656443,20.383723206912453,126799.87669549928,20352.39661019633,7.183329084793939,126823.69864360055,-4970.939221774722,5.9261995105716165,127055.4108511954,3209.037775630571,40.89640626508362,0.9444906495424762,78.0,54.0,119.0,269.0,388.0,24.0,835.0,836.0,24.0,13.0,11.0,0.5416666666666666,137.36134474224133,3032.6159275101263,77.0,64.0,13.0,0.8311688311688312,101.50916204251013,480.85319724748825,17.0,9.0,8.0,0.5294117647058824,1193.790456945139,19707.134119188428,15.0,6.0,9.0,0.4,550.7673254818202,8171.0318778748915,105.0,53.0,52.0,0.5047619047619047,109.59818442936056,3193.0709350340694,0.0,0.0,0.0,0.0,126635.0,126659.0,126713.0,126766.0,126791.0,126807.0,126818.0,126832.0,127015.0,127101.0,0.05011446402859709,-0.082849019179547,0.05865601382527417,-0.11079743704554601,0.03415297422225722
120,120,127470.3896249972,2206.5753921652336,16.8508834955681,127565.082121097,-1531.585722423307,53.50727341574375,127619.87669549928,21004.21666938835,7.485193997317752,127642.5965298776,-4878.297940658055,8.837074557483026,127887.80813839656,3856.005272082607,32.035240444279424,0.9393469048839914,65.0,35.0,140.0,270.0,410.0,30.0,818.0,820.0,30.0,23.0,7.0,0.7666666666666667,128.1054310259332,1991.89806561044,55.0,51.0,4.0,0.9272727272727272,113.61758285084598,2194.319990710831,16.0,9.0,7.0,0.5625,1253.388773654641,18799.68903568577,16.0,6.0,10.0,0.375,606.4433988164261,9904.576643560658,86.0,52.0,34.0,0.6046511627906976,91.8251368124353,4079.26837291844,0.0,0.0,0.0,0.0,127447.0,127477.0,127512.0,127595.0,127611.0,127627.0,127637.0,127652.0,127844.0,127922.0,0.05805622209002699,-0.07418297336376174,0.05967319769088728,-0.12431454703945784,0.023813540265944982
121,121,128365.88461173692,2823.557807124403,18.307518737611066,128460.60271279886,-871.2484501922804,20.38372320393036,128519.4703361346,21352.721713932307,6.973182773080883,128542.23479502436,-5815.460076417851,4.6060957525648645,128789.65746019685,4196.741066151579,36.11703651537107,0.9481832737204748,107.0,59.0,98.0,272.0,370.0,48.0,901.0,899.0,48.0,22.0,26.0,0.4583333333333333,97.31215443630737,2307.7270681099963,61.0,28.0,33.0,0.4590163934426229,123.13307269794674,588.1068216468694,16.0,8.0,8.0,0.5,1233.068711059752,20449.886616309028,12.0,5.0,7.0,0.4166666666666667,710.1492466475858,10368.947452735694,105.0,65.0,40.0,0.6190476190476191,142.27524936758405,3906.7095932803654,0.0,0.0,0.0,0.0,128344.0,128392.0,128451.0,128472.0,128511.0,128527.0,128537.0,128549.0,128743.0,128821.0,0.03446437476532949,-0.14132945966305233,0.05774761304809188,-0.12211402663175298,0.033901364683919084
122,122,129236.45203459916,2321.266095151253,12.91375123259989,129350.17805189872,-1383.9415479474865,22.93168860777627,129390.30135639945,20405.864977444573,8.412019345955093,129409.30135639945,-5685.2024506192665,10.191861603456228,129664.80813839656,3114.143455661986,36.14476506972419,0.9096442806683166,116.0,95.0,83.0,276.0,359.0,21.0,871.0,871.0,29.0,19.0,10.0,0.6551724137931034,158.34143745568053,2055.3421257263212,77.0,64.0,13.0,0.8311688311688312,144.6107422889785,861.6522905360397,16.0,10.0,6.0,0.625,1210.0447956573416,19069.1411849118,17.0,2.0,15.0,0.1176470588235294,834.1624379859319,13215.301519406945,92.0,57.0,35.0,0.6195652173913043,80.22762382610605,3240.261747060325,0.0,0.0,0.0,0.0,129224.0,129245.0,129340.0,129363.0,129381.0,129396.0,129407.0,129423.0,129608.0,129699.0,0.06821339345214666,-0.10449194368320659,0.05929887299533017,-0.14672519496558473,0.025762340421485737
123,123,130104.43810598896,2288.2456558731474,14.97674887223743,130197.78076469756,-1368.4310335677394,25.442365450187054,130256.97255577716,20853.71825564468,7.136756121738832,130279.2739827004,-5159.642981951663,6.984123634670172,130508.74053157482,3951.785575608055,45.74584491419626,0.9353688313517596,68.0,36.0,137.0,277.0,414.0,32.0,864.0,867.0,32.0,21.0,11.0,0.65625,122.01179234218804,2018.8445482306256,57.0,47.0,10.0,0.8245614035087719,121.9145518392,1823.9893795193923,17.0,9.0,8.0,0.5294117647058824,1231.1558455551462,19271.61993031405,13.0,4.0,9.0,0.3076923076923077,716.0205739369359,11549.061153096927,131.0,69.0,62.0,0.5267175572519084,139.86031719702186,3842.8288070740537,0.0,0.0,0.0,0.0,130083.0,130115.0,130151.0,130222.0,130248.0,130265.0,130275.0,130288.0,130479.0,130565.0,0.05332110738592481,-0.08909075346044106,0.05903771358481346,-0.13877327877947424,0.0353916766284825
124,124,130988.6720648089,2016.5171920634573,12.969564625394096,131090.35610379744,-1818.7257433751197,45.86337721555302,131140.89129890525,20771.53034312995,7.716009199853405,131163.69864360054,-4625.669027837771,8.776710812936537,131400.31117808094,3243.3710682149813,34.48472014189895,0.9351791890375312,79.0,51.0,124.0,267.0,391.0,28.0,887.0,884.0,28.0,19.0,9.0,0.6785714285714286,113.075140235661,1641.4771005026478,88.0,61.0,27.0,0.6931818181818182,118.5543582358734,1838.6832432433048,16.0,9.0,7.0,0.5625,1208.1364865288404,19077.855834540944,15.0,6.0,9.0,0.4,588.6242754915155,9695.176584372011,90.0,46.0,44.0,0.5111111111111111,85.22212152670913,3412.82950922441,0.0,0.0,0.0,0.0,130970.0,130998.0,131049.0,131116.0,131132.0,131148.0,131158.0,131173.0,131367.0,131440.0,0.056074473691917155,-0.06518539624114238,0.05816309470565435,-0.1272517060665412,0.026275785204439128
125,125,131814.22166146128,2311.255496230384,12.667118545386876,131909.50678199716,-1494.0293167308632,37.91648507621003,131963.87669549932,20600.24755812172,7.787369692855147,131984.64083382697,-4648.313720023439,10.731083409620105,132221.87655446012,3223.178479396962,33.64207507142095,0.9319820214561708,57.0,36.0,139.0,266.0,405.0,21.0,824.0,823.0,21.0,14.0,7.0,0.6666666666666666,152.4166157311982,2756.857095855511,82.0,54.0,28.0,0.6585365853658537,95.35868136929383,1181.453017201399,16.0,9.0,7.0,0.5625,1214.9021005752927,18532.532825910617,15.0,4.0,11.0,0.2666666666666666,660.8761580048168,11279.303200830913,78.0,33.0,45.0,0.4230769230769231,80.42583562646138,3175.723958550411,0.0,0.0,0.0,0.0,131800.0,131821.0,131857.0,131938.0,131955.0,131971.0,131981.0,131996.0,132190.0,132262.0,0.06594537729809057,-0.06382651284109433,0.058975121398301515,-0.14217546357896954,0.0249523369991936
126,126,132659.147603532,2237.0437616549057,16.83301126763414,132764.75339099858,-889.6510164141032,25.47965400863754,132808.52996447732,21028.48548799773,7.261259172356571,132831.69864359652,-5267.935249838925,5.222288377034066,133064.54099781823,4138.629930477659,40.70351057562642,0.9449965517274964,111.0,93.0,79.0,277.0,356.0,18.0,845.0,844.0,18.0,11.0,7.0,0.6111111111111112,129.67813022662833,2916.285421203951,65.0,47.0,18.0,0.7230769230769231,87.14778478580878,862.0222734557694,16.0,9.0,7.0,0.5625,1233.9622745116053,19821.710096605813,13.0,6.0,7.0,0.4615384615384615,613.5812306910931,8892.596169739069,123.0,68.0,55.0,0.5528455284552846,133.6976574947349,3838.7484216146654,0.0,0.0,0.0,0.0,132648.0,132666.0,132759.0,132782.0,132800.0,132816.0,132826.0,132838.0,133024.0,133115.0,0.05796852634241535,-0.09795726996083638,0.05868051102471953,-0.11647471003176324,0.03230481094967198
127,127,133487.87669549932,2118.395838563095,10.430602187465183,133607.87669549932,-1772.983383390014,12.739827004320285,133639.30135639946,19657.507047757117,7.659129567080517,133660.34539957737,-5772.59329675196,10.191861603456228,133900.78152946013,2301.5355907061444,29.89251624872864,0.9180951693801558,56.0,35.0,142.0,268.0,410.0,21.0,831.0,831.0,22.0,15.0,7.0,0.6818181818181818,152.76689286903445,2069.4936847862173,90.0,83.0,7.0,0.9222222222222224,180.51811214033376,29.290058770239852,15.0,9.0,6.0,0.6,1249.5532873184825,18756.059595726256,16.0,4.0,12.0,0.25,660.3318402859451,11592.867221937717,86.0,42.0,44.0,0.4883720930232558,89.10554198020964,2334.566658011008,0.0,0.0,0.0,0.0,133474.0,133495.0,133530.0,133615.0,133630.0,133645.0,133656.0,133672.0,133868.0,133940.0,0.07211442266269558,-0.10181602029184053,0.06356621336992241,-0.11439084763818215,0.03871569153222209
128,128,134279.66116849732,1938.896441044115,14.299334299850598,134377.35610379744,-1728.8331986061653,34.69507108281136,134430.87669549932,21084.48926129996,7.684279384762499,134452.04602154912,-5251.776082830084,10.191861603456228,134688.6244297671,3710.97376189444,33.94916268014008,0.955151246055748,70.0,42.0,133.0,266.0,399.0,28.0,790.0,792.0,28.0,20.0,8.0,0.7142857142857143,110.45125808198736,2121.18009255779,78.0,49.0,29.0,0.6282051282051282,101.95449055291326,1450.344861100304,16.0,9.0,7.0,0.5625,1243.2801915505709,18669.94088117753,15.0,4.0,11.0,0.2666666666666666,754.4124540587413,12724.02682276914,84.0,41.0,43.0,0.4880952380952381,79.33121779733759,3763.501147851139,0.0,0.0,0.0,0.0,134260.0,134288.0,134330.0,134403.0,134422.0,134438.0,134448.0,134463.0,134656.0,134729.0,0.05696604302523154,-0.058973005976002704,0.058966578518578575,-0.14364901362135046,0.021377466640141174
129,129,135144.29731721725,2394.0022704545586,16.843004800800927,135226.37670153333,-1655.6751586311116,24.510166194219966,135296.0508278686,20882.81469842515,6.921925697501861,135319.42122210073,-5674.951910164135,5.7331479390502205,135570.38347749642,4183.6180286249555,34.10376418569835,0.9447325575032374,80.0,48.0,123.0,279.0,402.0,32.0,867.0,863.0,52.0,25.0,27.0,0.4807692307692308,136.93115484385308,1802.8094077130615,82.0,37.0,45.0,0.4512195121951219,68.19923159093841,1473.1409601528771,17.0,9.0,8.0,0.5294117647058824,1214.3023992255114,19606.91040120989,14.0,6.0,8.0,0.4285714285714285,674.5799139995323,9845.663968372848,92.0,56.0,36.0,0.6086956521739131,80.30658188642539,4085.84993137224,0.0,0.0,0.0,0.0,135124.0,135156.0,135204.0,135262.0,135287.0,135304.0,135313.0,135327.0,135514.0,135606.0,0.057197587710663876,-0.041191190938278346,0.05814840656116565,-0.11886971461226384,0.019195486140693403
130,130,135995.96876829458,2109.840140806787,11.255545118242082,136105.9040691983,-1926.4320579962057,30.57558481036868,136149.30135639946,20905.74174932759,8.342629919144287,136168.30135639946,-6123.7973650926915,10.191861603456228,136420.63008649787,2931.659136156753,33.60899832598066,0.9200220387864017,48.0,25.0,150.0,260.0,410.0,23.0,850.0,855.0,23.0,12.0,11.0,0.5217391304347826,119.81912029524396,2273.99145477634,91.0,74.0,17.0,0.8131868131868132,96.89274222697335,1216.9346105087834,15.0,9.0,6.0,0.6,1254.896402676453,18593.497961940386,16.0,2.0,14.0,0.125,876.7007807197396,14000.777023783548,86.0,52.0,34.0,0.6046511627906976,109.6020139247284,2863.697698652929,0.0,0.0,0.0,0.0,135984.0,136007.0,136032.0,136123.0,136140.0,136155.0,136166.0,136182.0,136371.0,136442.0,0.056790615543709407,-0.05029647519869304,0.06002639933676667,-0.14316293117684986,0.03738566075877795
131,131,136834.87669549935,1927.388582973068,12.739826953270107,136940.63008649787,-1910.9145293417648,38.21948101295413,136986.87669550063,21379.169668873543,7.5912822743046915,137008.96264771908,-4935.723341099133,8.53665887719248,137246.6848339377,3893.041761086862,35.3017234057264,0.940262892320364,62.0,42.0,134.0,270.0,404.0,20.0,840.0,838.0,21.0,13.0,8.0,0.6190476190476191,159.58326731309657,2014.2503053698736,82.0,61.0,21.0,0.7439024390243902,95.54208458052206,1378.17370666918,16.0,9.0,7.0,0.5625,1249.872553762213,19134.21176592323,14.0,5.0,9.0,0.3571428571428571,710.9617211730579,11766.236736811068,94.0,46.0,48.0,0.4893617021276595,78.93078855320076,3752.542086689284,0.0,0.0,0.0,0.0,136822.0,136842.0,136884.0,136962.0,136978.0,136994.0,137004.0,137018.0,137214.0,137288.0,0.08279766141757128,-0.04999809416564149,0.05846216542179059,-0.144044078656713,0.02027483736294799
132,132,137715.738926711,2450.693911024164,13.624208829957595,137823.47940829815,-1604.482251602638,33.12355021123273,137867.87669549932,20686.8463811863,7.767589693679149,137889.85397205048,-5045.125657946109,9.106898683418542,138127.4498885445,3552.7884737059867,36.74584883702355,0.9458384568635426,95.0,67.0,105.0,273.0,378.0,28.0,881.0,881.0,32.0,20.0,12.0,0.625,146.54429564437075,2157.438947568172,85.0,65.0,20.0,0.7647058823529411,99.4785781864878,1152.6388299819723,16.0,9.0,7.0,0.5625,1222.005286851448,18906.0416685187,15.0,5.0,10.0,0.3333333333333333,651.494596732283,10453.08869166838,90.0,40.0,50.0,0.4444444444444444,91.78497923549229,3981.444183336726,0.0,0.0,0.0,0.0,137700.0,137728.0,137795.0,137842.0,137859.0,137875.0,137885.0,137900.0,138089.0,138173.0,0.05979706196076063,-0.06200042293214747,0.05907160832222371,-0.12913347276220452,0.02583463099894306
133,133,138578.48365243367,2098.4043579694253,12.726419746053772,138686.63008649787,-1506.6782992334065,38.21948101296085,138731.87669549932,20825.862973142022,7.443632954169409,138755.69864360054,-4491.262435496327,7.909714251118869,138984.38336268812,2983.3894349180077,44.42197351198694,0.9426758247025914,66.0,38.0,139.0,278.0,417.0,28.0,857.0,864.0,28.0,18.0,10.0,0.6428571428571429,114.1115360858176,1695.181574056579,89.0,68.0,21.0,0.7640449438202247,71.2069259720848,990.3134793609274,16.0,9.0,7.0,0.5625,1225.3792340027346,19285.054487014044,15.0,6.0,9.0,0.4,542.0453680700466,8091.345433640932,101.0,40.0,61.0,0.396039603960396,81.31330868640407,3082.710190216857,0.0,0.0,0.0,0.0,138560.0,138588.0,138626.0,138708.0,138723.0,138739.0,138750.0,138765.0,138947.0,139043.0,0.05438014634902901,-0.04726086916385182,0.0588393016694213,-0.1206888655149686,0.027255345123469877
134,134,139452.24645632773,2999.2969865249006,16.494740196871774,139583.7948201128,2225.7952970305705,158.2546101352512,139603.84469572495,21374.782379638786,7.122950406736647,139627.2322677439,-5665.088562888674,5.226233666420442,139851.61627679312,5063.476761071122,65.4706428871132,0.9618582989991796,-106.0,-158.0,306.0,288.0,594.0,52.0,880.0,872.0,57.0,24.0,33.0,0.4210526315789473,126.41332428527468,4340.884298631931,40.0,4.0,36.0,0.1,613.750062365833,13645.190235590357,17.0,9.0,8.0,0.5294117647058824,1228.544383237228,22316.482770663737,11.0,5.0,6.0,0.4545454545454545,691.5251385639491,7626.016142545549,196.0,127.0,69.0,0.6479591836734694,95.85420530793296,5880.796206239646,0.0,0.0,0.0,0.0,139432.0,139484.0,139326.0,139635.0,139595.0,139612.0,139622.0,139632.0,139745.0,139920.0,0.04214765155075288,0.27574416352871073,0.05747634578995837,-0.1220678425213065,0.0189305115498656
135,135,141156.63293543932,2275.546816561452,10.817638821011794,141258.9040691983,-2178.543066872358,30.57558481036868,141308.5274308769,20927.044383929944,7.453319974156054,141331.69864360054,-5180.442323719768,10.156280078977682,141583.35610379744,3183.735089351277,25.206199034294016,0.9430115235612302,61.0,39.0,135.0,268.0,403.0,22.0,1704.0,1704.0,23.0,13.0,10.0,0.5652173913043478,140.51744545975544,2155.741831304038,87.0,62.0,25.0,0.7126436781609196,109.49982861109162,1205.2228684771876,16.0,9.0,7.0,0.5625,1231.1275905457828,18424.30455533114,16.0,6.0,10.0,0.375,574.0959431783434,9577.474300731594,80.0,49.0,31.0,0.6125,117.0589921327482,2687.2905571274687,0.0,0.0,0.0,0.0,141145.0,141167.0,141206.0,141276.0,141300.0,141316.0,141326.0,141341.0,141550.0,141609.0,0.06175106767176491,-0.05026287075806855,0.05882950157506123,-0.11081986967593903,0.03676781793946315
136,136,142042.92191375152,2575.726732227772,14.634625784821417,142145.7807646976,-1289.0195918012664,36.53187804369424,142195.87669549932,21691.282197286306,7.976361162023995,142215.30135639946,-4866.777476586162,9.07918085693616,142475.35610379744,4161.789157660538,35.22584373234535,0.909038408244966,67.0,39.0,135.0,275.0,410.0,28.0,885.0,888.0,28.0,19.0,9.0,0.6785714285714286,134.705948450019,2391.887715223218,80.0,56.0,24.0,0.7,89.49289038742045,844.4607531043855,17.0,10.0,7.0,0.5882352941176471,1299.5622598887558,19829.367977243142,14.0,3.0,11.0,0.2142857142857142,935.8088966147342,14338.102835797265,91.0,60.0,31.0,0.6593406593406593,127.26244676272071,4255.124170077744,0.0,0.0,0.0,0.0,142024.0,142052.0,142091.0,142170.0,142186.0,142203.0,142213.0,142226.0,142421.0,142501.0,0.052298229763492986,-0.06942709866989977,0.05991173080821095,-0.19228512113341256,0.03057878281230821
