Unnamed: 0,cycle,p_center,p_height,p_width,q_center,q_height,q_width,r_center,r_height,r_width,s_center,s_height,s_width,t_center,t_height,t_width,r_squared,pr_interval,pr_segment,qrs_duration,st_segment,qt_interval,p_duration,pp_interval,rr_interval,fwhm_p,rise_time_p,decay_time_p,rise_decay_symmetry_p,sharpness_deriv_p,sharpness_diff_p,fwhm_q,rise_time_q,decay_time_q,rise_decay_symmetry_q,sharpness_deriv_q,sharpness_diff_q,fwhm_r,rise_time_r,decay_time_r,rise_decay_symmetry_r,sharpness_deriv_r,sharpness_diff_r,fwhm_s,rise_time_s,decay_time_s,rise_decay_symmetry_s,sharpness_deriv_s,sharpness_diff_s,fwhm_t,rise_time_t,decay_time_t,rise_decay_symmetry_t,sharpness_deriv_t,sharpness_diff_t,Average_Heart_Rate,SDNN,RMSSD,NN50,p_on,p_off,q_on,q_off,r_on,r_off,s_on,s_off,t_on,t_off,sharpness_deriv_p_norm,sharpness_deriv_q_norm,sharpness_deriv_r_norm,sharpness_deriv_s_norm,sharpness_deriv_t_norm
0,0,0.0,0.0,0.0,0.0,0.0,0.0,0.0,0.0,0.0,0.0,0.0,0.0,0.0,0.0,0.0,0.0,0.0,0.0,0.0,0.0,0.0,0.0,0.0,0.0,0.0,0.0,0.0,0.0,0.0,0.0,0.0,0.0,0.0,0.0,0.0,0.0,0.0,0.0,0.0,0.0,0.0,0.0,0.0,0.0,0.0,0.0,0.0,0.0,0.0,0.0,0.0,0.0,0.0,0.0,55.58381549770177,580.1736780471236,752.3150844390333,625.0,,,,,,,,,,,,,,,
1,1,1707.000142282777,3974.7792689359103,15.225869485798423,1836.972626301008,-8300.549672906607,13.981566270412465,1860.0730216693685,43957.078346524184,9.03337431435328,1941.821948101296,-2210.1996395510837,22.93168860777651,2129.650041529502,14851.336978824542,31.870770026356148,0.9634174834098658,132.0,98.0,125.0,221.0,346.0,34.0,,,34.0,17.0,17.0,0.5,172.4474702206989,4041.3323836917266,22.0,17.0,5.0,0.7727272727272727,1201.2266345479068,7319.884815315904,20.0,9.0,11.0,0.45,2415.77274610143,49766.28165880115,58.0,31.0,27.0,0.5344827586206896,147.1794532725555,2104.0368392183523,78.0,40.0,38.0,0.5128205128205128,225.0103090884668,16443.058354999117,0.0,0.0,0.0,0.0,1690.0,1724.0,1822.0,1841.0,1851.0,1871.0,1915.0,1947.0,2090.0,2168.0,0.0433854205611938,-0.14471651660236046,0.054957536691981994,-0.06659102220397126,0.015150845301624555
2,2,2775.7633904334434,4053.5852223312672,16.704836193143244,2905.9726263010075,-8124.229262936648,13.884737612833922,2928.47948013243,43848.09399493618,8.894192998665199,2955.9737381062905,-2655.1379592353887,2.015797014972073,3198.534155696112,14759.8552578964,31.936130980106597,0.9642884460084772,137.0,101.0,65.0,278.0,343.0,36.0,1067.0,1069.0,41.0,19.0,22.0,0.4634146341463415,165.47969955118077,4082.023425234041,22.0,17.0,5.0,0.7727272727272727,1270.8386517371464,8217.297807915464,19.0,8.0,11.0,0.4210526315789473,2422.1796108040376,49348.46183779683,5.0,2.0,3.0,0.4,773.487112276461,10765.91319520943,80.0,42.0,38.0,0.525,188.37114684985912,15845.094984163065,0.0,0.0,0.0,0.0,2757.0,2793.0,2894.0,2910.0,2920.0,2939.0,2954.0,2959.0,3157.0,3237.0,0.04082304687700913,-0.15642574952122645,0.055240248551824495,-0.2913171082451796,0.012762397974674048
3,3,3855.118968136377,5382.446477514282,19.89623874572182,3985.397287201152,-7350.480468087768,9.439369150002005,4008.379859053835,45083.63470671253,8.921490506557403,4035.008301841427,-1418.8550241143996,1.0470625563556804,4272.359959445721,16362.013350558189,39.41665914728493,0.9581222548948876,138.0,94.0,63.0,281.0,344.0,44.0,1082.0,1080.0,44.0,19.0,25.0,0.4318181818181818,166.55005051526354,5611.135797980913,16.0,11.0,5.0,0.6875,1197.7485287511793,7819.5437098354205,20.0,9.0,11.0,0.45,2550.069194029248,51811.91768216294,3.0,1.0,2.0,0.3333333333333333,783.7061868785263,9550.796259431574,91.0,44.0,47.0,0.4835164835164835,207.77281636076987,17535.720213259312,0.0,0.0,0.0,0.0,3836.0,3880.0,3974.0,3990.0,3999.0,4019.0,4034.0,4037.0,4232.0,4318.0,0.030943187491235317,-0.1629483316024339,0.056563079055592796,-0.5523511377546756,0.012698487154924715
4,4,5001.486622066677,4436.032420655795,16.335075433373422,5131.547965400863,-8421.163135391886,10.576596558816222,5154.429411598351,43492.62189598646,9.04507140529508,5233.726017299569,-1809.7023134857136,7.64389620259217,5423.951697228133,15497.039578251935,32.895778516390486,0.9670086578571112,137.0,98.0,118.0,225.0,343.0,39.0,1144.0,1145.0,42.0,18.0,24.0,0.4285714285714285,183.06521047882495,4357.271818178338,17.0,13.0,4.0,0.7647058823529411,1378.0481445816904,8513.330594195957,20.0,9.0,11.0,0.45,2435.6937834851433,50488.29701281639,13.0,9.0,4.0,0.6923076923076923,147.79178418630465,1746.599510008566,77.0,38.0,39.0,0.4935064935064935,195.53418613487125,17472.377191140855,0.0,0.0,0.0,0.0,4983.0,5022.0,5120.0,5135.0,5145.0,5165.0,5225.0,5238.0,5386.0,5463.0,0.04126778010602586,-0.16364106981731827,0.05600245920584318,-0.08166635091582501,0.01261751866526029
5,5,6152.790664470509,4504.799806186798,17.43441989614708,6282.972626301007,-8575.805295727238,11.255692386073529,6305.582124570416,43438.249697066705,9.065067040870307,6332.883054100453,-2229.5572605142215,1.8493329121072932,6575.317191071708,15716.476512917992,33.423320611816735,0.96643518055657,134.0,96.0,65.0,282.0,347.0,38.0,1154.0,1152.0,39.0,18.0,21.0,0.4615384615384615,178.370576148689,4813.235066555606,19.0,15.0,4.0,0.7894736842105263,1298.0174093643504,8023.901304310115,21.0,10.0,11.0,0.4761904761904761,2431.196197989187,48769.10958101111,4.0,2.0,2.0,0.5,759.652690693282,9905.112839460178,84.0,41.0,43.0,0.4880952380952381,206.2645531483905,16810.1596238123,0.0,0.0,0.0,0.0,6136.0,6174.0,6270.0,6287.0,6296.0,6317.0,6331.0,6335.0,6536.0,6617.0,0.039595672132581465,-0.1513580782916174,0.055969018432926426,-0.3407190764493202,0.013124096420648325
6,6,7277.020158995975,4701.8619697620625,16.40648131809838,7407.547965400863,-7766.3558886955425,15.287792404798116,7430.175124908715,45818.17513343823,8.822757923709858,7509.671269901583,-1518.144452301358,25.43648199459907,7699.865587536573,15257.822886763222,33.071425208120885,0.966961770565716,134.0,94.0,121.0,224.0,345.0,40.0,1123.0,1124.0,42.0,17.0,25.0,0.4047619047619047,205.31697667229977,4964.1173212841,20.0,16.0,4.0,0.8,1358.1081212437668,9379.071239267496,20.0,9.0,11.0,0.45,2470.442786234242,50193.35276814194,39.0,26.0,13.0,0.6666666666666666,134.8302808355414,1593.603597144463,80.0,39.0,41.0,0.4875,194.92522297700336,16581.12995806486,0.0,0.0,0.0,0.0,7261.0,7301.0,7395.0,7411.0,7421.0,7441.0,7484.0,7516.0,7664.0,7740.0,0.04366716377314025,-0.1748707039321473,0.053918402010544195,-0.08881255049949426,0.012775428344112506
7,7,8399.246609001439,4302.030865148245,18.5283501575805,8533.547965400861,-9365.571804291298,11.285422464005958,8555.228486172608,44376.50205605174,9.393563187758565,8634.273982698536,-1437.6057873992625,7.6438962025918835,8824.811107512067,15781.523864541778,33.15041859420956,0.965276223850262,134.0,92.0,123.0,223.0,346.0,42.0,1120.0,1125.0,47.0,15.0,32.0,0.3191489361702128,234.9647172395701,4916.077902872081,20.0,17.0,3.0,0.85,1473.952047336246,12096.517956734537,20.0,9.0,11.0,0.45,2417.100551642849,51343.01674639629,16.0,8.0,8.0,0.5,162.58843590744678,1475.6530711425185,82.0,41.0,41.0,0.5,211.1297334684874,16363.98180011513,0.0,0.0,0.0,0.0,8385.0,8427.0,8519.0,8537.0,8546.0,8566.0,8630.0,8642.0,8785.0,8865.0,0.05461716212756028,-0.15737982454641825,0.05446802788984633,-0.11309667596816061,0.013378285600344186
8,8,9482.14633645603,4248.194080593763,17.417994357371633,9611.972626301009,-8838.728852566002,11.37901289912886,9634.363305015146,43826.97781981683,8.928083242001764,9712.698643600574,-1966.6037641303485,10.191861603456228,9904.534155696114,15586.097070797356,32.796700759412104,0.9652612810157948,136.0,94.0,115.0,228.0,343.0,42.0,1083.0,1079.0,45.0,19.0,26.0,0.4222222222222222,176.96953035004643,4101.434319007494,17.0,13.0,4.0,0.7647058823529411,1333.1578861669768,7765.582358142362,20.0,9.0,11.0,0.45,2461.6200901474745,50438.885231076754,37.0,9.0,28.0,0.2432432432432432,191.205233073347,1609.0784099210057,77.0,39.0,38.0,0.5064935064935064,182.45858737369568,16644.34582134686,0.0,0.0,0.0,0.0,9464.0,9506.0,9600.0,9616.0,9625.0,9645.0,9705.0,9715.0,9867.0,9943.0,0.04165759072977939,-0.15083140442530296,0.056166777008165664,-0.09722610958079796,0.011706496279659154
9,9,10533.671269901582,3781.530380820793,15.49536450161,10664.54796540086,-8082.687778666395,14.125068839628444,10687.62963362838,44751.1354784501,8.860427059371926,10759.945252602014,-1742.9328813725974,35.40865438595307,10957.039748953694,15284.841047085953,31.197642104129223,0.9578595421334466,134.0,96.0,127.0,217.0,344.0,38.0,1051.0,1054.0,40.0,17.0,23.0,0.425,191.78492325913248,4083.0239243818746,20.0,16.0,4.0,0.8,1302.8117445052528,7819.454848797338,19.0,9.0,10.0,0.4736842105263157,2433.3704718466443,48119.623441008494,76.0,21.0,55.0,0.2763157894736842,140.7558409080483,1465.1768959664173,76.0,36.0,40.0,0.4736842105263157,198.34322608402923,16000.744889623946,0.0,0.0,0.0,0.0,10518.0,10556.0,10652.0,10668.0,10679.0,10698.0,10740.0,10779.0,10922.0,10996.0,0.05071621908204925,-0.16118545961207603,0.054375614067232625,-0.08075803859825056,0.012976466387384726
10,10,11639.706497273455,3426.9214589460903,14.363178424156994,11771.972626301009,-8288.114033640872,17.835757792740534,11793.948494276055,46249.87343244476,9.01412574250465,11874.945252602014,-2123.4515450204376,34.775183154607674,12064.70272996253,14853.13839187434,30.792897486625208,0.9570807321703922,132.0,103.0,145.0,199.0,344.0,29.0,1109.0,1106.0,30.0,15.0,15.0,0.5,229.0168362633968,3736.8202206952137,21.0,17.0,4.0,0.8095238095238095,1415.6021349130158,9665.749070519629,20.0,9.0,11.0,0.45,2443.3726365338393,49284.64394208674,64.0,21.0,43.0,0.328125,155.71887424665414,2845.907493621745,76.0,39.0,37.0,0.5131578947368421,172.27382584369758,15992.327376098305,0.0,0.0,0.0,0.0,11626.0,11655.0,11758.0,11776.0,11785.0,11805.0,11855.0,11903.0,12029.0,12102.0,0.06682873798159011,-0.17079906588726776,0.0528298232016304,-0.07333290680063782,0.01159847981608674
11,11,12758.24660900144,3882.0390579611417,15.211592661456123,12888.54796540086,-8349.079100335432,15.130646890336548,12910.348804748595,44959.23690936631,8.75994752136154,12937.26678812424,-3139.322987701535,2.421610249717499,13181.089766462936,15450.91820756048,32.14546240501231,0.9625536328985608,132.0,108.0,65.0,279.0,344.0,24.0,1116.0,1117.0,28.0,17.0,11.0,0.6071428571428571,199.929146819875,4132.101299623119,19.0,16.0,3.0,0.8421052631578947,1429.9303297234003,9478.259063001506,19.0,8.0,11.0,0.4210526315789473,2461.194907226815,49231.2862316334,6.0,2.0,4.0,0.3333333333333333,904.808077748766,12405.881897293084,79.0,40.0,39.0,0.5063291139240507,203.1284079309357,16509.57238664474,0.0,0.0,0.0,0.0,12744.0,12768.0,12876.0,12892.0,12902.0,12921.0,12935.0,12941.0,13141.0,13220.0,0.0515010652481375,-0.17126802998739724,0.05474280874002283,-0.2882175810814624,0.013146688449333737
12,12,13857.091249147785,4199.69701909203,16.84509247402312,13986.972626301009,-8016.814277395991,12.916930152125666,14009.788344528495,44852.92898400626,8.885553099273503,14091.821948101297,-1368.976270175367,22.93168860777651,14279.864932581211,15345.308614618927,32.76117630534741,0.9619950005743,133.0,89.0,124.0,223.0,347.0,44.0,1098.0,1099.0,45.0,17.0,28.0,0.3777777777777777,207.02337932718763,4217.583374317269,18.0,14.0,4.0,0.7777777777777778,1265.8916301325744,7499.236983122772,19.0,9.0,10.0,0.4736842105263157,2505.153006466058,50132.04372967948,70.0,30.0,40.0,0.4285714285714285,147.14847274962003,1476.6703667114302,83.0,41.0,42.0,0.4939759036144578,138.16544843446718,15962.670781574614,0.0,0.0,0.0,0.0,13840.0,13884.0,13973.0,13991.0,14001.0,14020.0,14078.0,14097.0,14240.0,14320.0,0.04929483683847885,-0.1579045723563599,0.055852606802096465,-0.10748796451436676,0.009003758210691305
13,13,14971.676199633675,3948.2658683349655,15.93395103687678,15100.972626301009,-8536.735912712707,13.220467491188712,15123.914364394435,44363.65699921488,9.066440659120412,15203.52059170187,-1604.7118062464178,21.47857302022345,15394.19942169462,15243.306419129576,32.79959503304382,0.961687869465377,134.0,99.0,122.0,225.0,347.0,35.0,1117.0,1114.0,36.0,17.0,19.0,0.4722222222222222,169.10421697916365,3932.5030983667257,19.0,15.0,4.0,0.7894736842105263,1284.5549854424012,7072.038545592132,20.0,9.0,11.0,0.45,2406.4407479326387,49608.00309263572,58.0,28.0,30.0,0.4827586206896552,147.79985914986585,1332.209016112923,84.0,41.0,43.0,0.4880952380952381,147.45905897571296,15682.03218140282,0.0,0.0,0.0,0.0,14955.0,14990.0,15089.0,15105.0,15115.0,15135.0,15185.0,15211.0,15354.0,15436.0,0.04282999742630733,-0.15047378747296986,0.05424351621813383,-0.09210367779095772,0.009673692499591777
14,14,16045.698643600574,3498.2503159789376,10.191861603456228,16184.54796540086,-9037.05464863326,15.287792405180904,16207.075861461804,44998.88794163478,9.039694732076551,16268.972626301009,-2197.414792982925,17.8357578060484,16478.257772070057,15025.79857368815,31.241158460175388,0.9569737812658264,131.0,105.0,140.0,206.0,346.0,26.0,1075.0,1083.0,35.0,8.0,27.0,0.2285714285714285,230.5483631363234,3516.351238333292,25.0,21.0,4.0,0.84,1386.8376134732164,8524.695231264996,20.0,9.0,11.0,0.45,2384.563134764321,49511.50242835424,77.0,11.0,66.0,0.1428571428571428,143.74179896822554,2919.119953021772,76.0,37.0,39.0,0.4868421052631579,155.39965589431236,15798.01853496732,0.0,0.0,0.0,0.0,16040.0,16066.0,16171.0,16188.0,16198.0,16218.0,16259.0,16311.0,16442.0,16517.0,0.06590390689975757,-0.15346124012683246,0.05299160143373294,-0.06541404901215775,0.010342189477132651
15,15,17107.630396048964,4079.6564321145233,15.231531817813917,17234.972626301005,-8307.778500922333,13.007038848726998,17257.928450362084,43909.69485444785,8.937395941829875,17285.014534303747,-2299.1972501557034,1.837484267208258,17528.11735778316,15273.379705886822,31.88414073367245,0.9647635088954072,130.0,97.0,65.0,281.0,346.0,33.0,1059.0,1051.0,39.0,17.0,22.0,0.4358974358974359,191.42624085408977,4281.178729782954,21.0,16.0,5.0,0.7619047619047619,1242.351726812405,7558.991140620659,20.0,9.0,11.0,0.45,2395.58045656667,48395.237844491145,4.0,2.0,2.0,0.5,809.2365058063937,10928.465101625012,77.0,37.0,40.0,0.4805194805194805,206.6953805397783,16643.170816963626,0.0,0.0,0.0,0.0,17092.0,17125.0,17222.0,17239.0,17249.0,17269.0,17283.0,17287.0,17492.0,17568.0,0.046922147499286304,-0.14954078598442155,0.0545569825640455,-0.35196480238987393,0.013533047990688772
16,16,18131.92487301025,4257.435607058182,15.214498038840665,18260.972626301005,-8672.072237749613,12.564014984929056,18283.408063131687,44192.70563618506,8.852755417970197,18311.31881962098,-2618.7801171168767,2.790126059484609,18553.029984214343,15030.384960689136,32.82039852325177,0.96444660408299,132.0,96.0,66.0,280.0,346.0,36.0,1031.0,1025.0,43.0,20.0,23.0,0.4651162790697674,238.08799055771823,4106.208047688308,19.0,14.0,5.0,0.7368421052631579,1319.9151983285171,7869.05031005787,20.0,9.0,11.0,0.45,2491.074510894037,50205.047278581784,6.0,3.0,3.0,0.5,749.4400683717254,10704.9927466936,82.0,40.0,42.0,0.4878048780487805,214.5057815263577,16487.55121805652,0.0,0.0,0.0,0.0,18116.0,18152.0,18248.0,18265.0,18274.0,18294.0,18308.0,18314.0,18514.0,18594.0,0.055922863557349996,-0.152202975499087,0.05636845436443115,-0.2861790737883007,0.014271476218831505
17,17,19112.246609001435,4074.731445507323,15.040781520377411,19242.972626301005,-7891.503615962712,17.835757789192503,19265.174878317797,46001.84033011963,8.556749155899709,19292.423625907675,-2947.47359437432,2.402799899830391,19534.098937421535,15000.241445613909,31.684140449664778,0.9602701305794514,130.0,94.0,67.0,278.0,345.0,36.0,974.0,982.0,38.0,16.0,22.0,0.4210526315789473,157.1098962032937,4548.45360652813,20.0,16.0,4.0,0.8,1317.7298799096918,7643.109543419837,20.0,9.0,11.0,0.45,2512.0168397285224,48846.47769543607,5.0,2.0,3.0,0.4,795.9493935381726,11675.524196579749,78.0,38.0,40.0,0.4871794871794871,187.0035558581291,15327.438125772012,0.0,0.0,0.0,0.0,19098.0,19134.0,19228.0,19247.0,19256.0,19276.0,19290.0,19295.0,19498.0,19573.0,0.038557116782878625,-0.1669808371175583,0.054606877066259094,-0.27004462230208176,0.012466703055157102
18,18,20103.46475141316,3996.512019376243,15.186435052164173,20236.54796540086,-9180.905519870195,13.633387359858885,20258.331959868323,44602.92218854756,9.084374056051413,20341.246609001435,-1673.2785953621924,25.47965400864057,20527.06019360414,14832.684431880176,31.460295857848244,0.9594214698280152,133.0,104.0,126.0,221.0,347.0,29.0,993.0,993.0,34.0,15.0,19.0,0.4411764705882353,188.17825512537968,4082.10103472012,20.0,17.0,3.0,0.85,1426.7335222923743,10682.446399678867,20.0,9.0,11.0,0.45,2425.248610262723,50583.14586682205,65.0,21.0,44.0,0.3230769230769231,160.85308509922444,1488.6626397651498,78.0,37.0,41.0,0.4743589743589743,160.4137521046541,15982.5966601562,0.0,0.0,0.0,0.0,20088.0,20117.0,20221.0,20240.0,20249.0,20269.0,20321.0,20347.0,20490.0,20568.0,0.047085622215831506,-0.1554022660623727,0.05437420893659385,-0.0961304863069779,0.010814883363922561
19,19,21117.921528254337,3184.2823773550226,11.819146761876487,21250.972626300507,-8995.550923910901,17.835757806044573,21273.207057974527,45434.045930916654,8.906995117954887,21357.246608967627,-3146.4360921383154,25.47965400864057,21542.932100931055,14748.981131500255,29.519257786623264,0.951196122012041,130.0,104.0,128.0,217.0,345.0,26.0,1014.0,1015.0,30.0,15.0,15.0,0.5,172.10104395013224,2968.573263145814,23.0,19.0,4.0,0.8260869565217391,1342.8574112171625,7914.83159806096,20.0,9.0,11.0,0.45,2397.085307087744,48356.418460537185,101.0,41.0,60.0,0.4059405940594059,155.39665666360375,2376.6104550188843,73.0,36.0,37.0,0.4931506849315068,169.45059893224013,15805.375384106052,0.0,0.0,0.0,0.0,21105.0,21131.0,21235.0,21255.0,21264.0,21284.0,21319.0,21363.0,21508.0,21580.0,0.054047042176292616,-0.1492801744524328,0.05275967081453759,-0.04938814967571654,0.011488969808926981
20,20,22154.059853713556,4453.509591773425,16.68127791582915,22285.972626301005,-8351.159615589273,12.180346545735466,22308.428371108326,43371.55017951492,8.822291682312242,22335.57713473741,-2610.483795496196,2.1792302034383715,22577.04767518813,15303.08514608122,33.60732809982145,0.9645781180463254,138.0,101.0,65.0,280.0,345.0,37.0,1039.0,1036.0,37.0,19.0,18.0,0.5135135135135135,174.1105181501512,4824.2787332579865,19.0,15.0,4.0,0.7894736842105263,1267.2418851557848,7717.596805818464,19.0,8.0,11.0,0.4210526315789473,2481.543256425718,49525.87160970301,5.0,3.0,2.0,0.6,721.7914387439703,10622.949646573945,80.0,39.0,41.0,0.4875,201.6956453929389,16606.305734921712,0.0,0.0,0.0,0.0,22135.0,22172.0,22273.0,22290.0,22300.0,22319.0,22333.0,22338.0,22540.0,22618.0,0.03909512589167208,-0.1517444215519722,0.05721592256109377,-0.27649719181910243,0.01318006424636464
21,21,23096.821948101293,2934.640229627705,11.261604815838831,23226.78391910109,-8182.652770157737,17.8357578060484,23252.580413949243,45072.589006545546,8.337677298698805,23281.27398270043,-3615.509156267237,5.040588635573003,23520.9382344168,14610.622140302028,29.264951842950676,0.9476896648972544,130.0,104.0,76.0,267.0,343.0,26.0,939.0,944.0,28.0,14.0,14.0,0.5,159.16002632842972,2996.9898855995502,20.0,13.0,7.0,0.65,939.9669697182338,119.46536764627626,19.0,9.0,10.0,0.4736842105263157,2515.1492806540873,47446.18480113977,17.0,5.0,12.0,0.2941176470588235,712.0713358264089,10144.246284833716,72.0,35.0,37.0,0.4861111111111111,217.12840294896225,15718.282878789216,0.0,0.0,0.0,0.0,23084.0,23110.0,23214.0,23234.0,23244.0,23263.0,23277.0,23290.0,23487.0,23557.0,0.05423493644010363,-0.11487313419265548,0.055802192332213965,-0.1969491169983852,0.014860996394536407
22,22,24079.294002194772,4646.369540252214,18.15447109905781,24212.54796540086,-8223.904048713115,10.92345615685194,24235.13198360203,43779.47372783912,9.076730775284773,24312.27398270043,-1481.6372848592048,7.643896202586677,24502.805966556847,15459.34905885687,32.8361071618451,0.9726210413625987,138.0,101.0,114.0,228.0,342.0,37.0,984.0,982.0,46.0,19.0,27.0,0.4130434782608695,194.7231614095841,4597.040066530159,20.0,16.0,4.0,0.8,1357.0720131572646,10434.80632756202,20.0,9.0,11.0,0.45,2444.9554314534844,50078.887635302846,14.0,5.0,9.0,0.3571428571428571,199.1178556268001,2013.094793624203,82.0,41.0,41.0,0.5,147.9222610852276,16474.116869245725,0.0,0.0,0.0,0.0,24062.0,24099.0,24200.0,24216.0,24226.0,24246.0,24307.0,24314.0,24466.0,24542.0,0.04190866863314839,-0.16501554555097472,0.055847072229622326,-0.13439041907326302,0.009568466338528073
23,23,25125.32442857725,4096.538327136132,14.798798204523171,25255.972626301005,-8552.762470598538,14.675454923194426,25278.59710884348,44737.092779562765,8.973863102759696,25359.336244872164,-1820.5491804273556,20.383723206912453,25547.061458798904,15150.33693409847,32.47156799761387,0.9642952344501426,134.0,101.0,122.0,220.0,342.0,33.0,1046.0,1043.0,41.0,17.0,24.0,0.4146341463414634,177.58132857444696,4204.688795455351,20.0,16.0,4.0,0.8,1337.844892892389,7616.687066219908,19.0,9.0,10.0,0.4736842105263157,2379.002346767697,48551.18870965072,35.0,28.0,7.0,0.8,155.90513397536944,1877.5154993541623,79.0,40.0,39.0,0.5063291139240507,184.9148092780559,16295.846584951983,0.0,0.0,0.0,0.0,25109.0,25142.0,25243.0,25260.0,25270.0,25289.0,25331.0,25365.0,25509.0,25585.0,0.0433491192791044,-0.1564225473923122,0.05317740154663103,-0.08563632098022876,0.012205326527218873
24,24,26218.104588914302,4416.590727080588,16.17183776396876,26349.397287201147,-8637.672990830692,13.61710870354221,26372.074101016377,44135.99098795329,8.978107164638477,26432.69864360057,-1550.54792805166,10.191861603456228,26642.53415569611,15151.261306422666,32.31484529532121,0.9643094555895472,132.0,100.0,138.0,207.0,345.0,32.0,1096.0,1094.0,32.0,14.0,18.0,0.4375,191.3004858196197,5282.417291372365,18.0,13.0,5.0,0.7222222222222222,1240.478538833368,5881.442338250958,20.0,9.0,11.0,0.45,2402.886373906047,49153.19054404257,52.0,6.0,46.0,0.1153846153846153,173.5013344364732,2557.0183261864195,85.0,46.0,39.0,0.5411764705882353,192.45064702815677,16120.859291116883,0.0,0.0,0.0,0.0,26204.0,26236.0,26336.0,26354.0,26363.0,26383.0,26427.0,26474.0,26605.0,26681.0,0.04331406228035788,-0.14361258410108788,0.05444278739684135,-0.11189678906248722,0.012701955509577038
25,25,27323.308178133368,4595.582166129952,17.799413701765985,27452.972626301005,-8860.521437005062,10.385272449874284,27475.682844420822,42776.682521955154,9.161500650807849,27553.27398270043,-1353.3615981339196,7.64389620259217,27745.290780533716,15369.180200603168,33.5069450763971,0.9668897180105492,132.0,105.0,120.0,224.0,344.0,27.0,1102.0,1103.0,38.0,18.0,20.0,0.4736842105263157,209.7468690427204,5321.606166172543,17.0,13.0,4.0,0.7647058823529411,1308.6854527572425,7556.853978034032,20.0,9.0,11.0,0.45,2393.5808488726466,48394.464636066565,35.0,7.0,28.0,0.2,152.4683666963198,1218.6502694361056,83.0,41.0,42.0,0.4939759036144578,244.1592750150405,16654.963426552855,0.0,0.0,0.0,0.0,27309.0,27336.0,27441.0,27457.0,27467.0,27487.0,27549.0,27561.0,27708.0,27785.0,0.04564097897946043,-0.14769846922232494,0.05595527066981269,-0.11265900178234003,0.015886291384979555
26,26,28400.837777229543,4581.3381368160135,15.640161032575774,28529.54796540086,-8300.161972801418,11.4728889898713,28552.066061107904,44057.34653009916,8.81803438998283,28579.36858686447,-2289.4198423495427,2.124043018147604,28822.08477537747,15321.08265094255,33.69473867303251,0.9626728228808356,132.0,96.0,64.0,280.0,344.0,36.0,1076.0,1077.0,38.0,16.0,22.0,0.4210526315789473,196.5122883086937,4713.121366595166,18.0,14.0,4.0,0.7777777777777778,1355.0561190938292,9121.205734720508,20.0,9.0,11.0,0.45,2498.0264504897978,49866.74511746242,5.0,2.0,3.0,0.4,817.1749800127807,10981.897165888182,87.0,44.0,43.0,0.5057471264367817,215.36486521586423,16598.926101966037,0.0,0.0,0.0,0.0,28386.0,28422.0,28518.0,28533.0,28543.0,28563.0,28577.0,28582.0,28782.0,28862.0,0.04289408082095156,-0.16325658746590452,0.05669943033866537,-0.356935396862004,0.014056765446834466
27,27,29450.259138373553,3996.2795599120936,16.14558112185876,29579.54796540086,-7598.382339756822,15.287792404282593,29602.307801591207,44834.245372674304,8.837149849489423,29684.124878402057,-1780.0600634595323,22.93168860777651,29872.03020200842,15272.867770383978,32.29700931715854,0.9607015295144894,131.0,97.0,126.0,222.0,348.0,34.0,1050.0,1050.0,44.0,20.0,24.0,0.4545454545454545,146.07418231128224,4170.38325405068,20.0,16.0,4.0,0.8,1274.5650773004584,8907.426390716631,20.0,9.0,11.0,0.45,2438.4268000073525,49688.68646186885,34.0,12.0,22.0,0.3529411764705882,243.0547576372979,1786.0646989470513,79.0,38.0,41.0,0.4810126582278481,160.82060815965937,16248.929583587043,0.0,0.0,0.0,0.0,29434.0,29468.0,29565.0,29583.0,29593.0,29613.0,29672.0,29691.0,29834.0,29913.0,0.03655254346482593,-0.1677416350361292,0.0543875954583041,-0.13654300920887072,0.010529823905862058
28,28,30526.914443837253,4130.853748251529,16.20227803340248,30657.397287201147,-8211.439154062551,14.058334740135084,30680.767198523077,44221.58335020944,9.07306951009216,30765.246609001435,-1543.2679488092192,24.202750876944545,30950.3446526894,15065.749848098318,32.38823518981994,0.961626330730935,136.0,98.0,140.0,206.0,346.0,38.0,1076.0,1079.0,40.0,19.0,21.0,0.475,166.34050936242514,3883.875174092107,18.0,13.0,5.0,0.7222222222222222,1177.3031364600183,5024.9739606050125,21.0,10.0,11.0,0.4761904761904761,2335.023760956773,48257.693184730866,38.0,14.0,24.0,0.3684210526315789,149.47876310833615,1795.6711759959724,78.0,37.0,41.0,0.4743589743589743,173.30272727437494,16371.364846517348,0.0,0.0,0.0,0.0,30509.0,30547.0,30645.0,30662.0,30671.0,30692.0,30751.0,30785.0,30913.0,30991.0,0.04026782827468347,-0.14337354443862085,0.05280280768023911,-0.09685859362508857,0.011503093375485069
29,29,31629.428681257305,4418.912786498732,15.37481183324964,31761.54796540086,-8591.204915180191,15.050287778948515,31783.42648056059,44747.064872211886,8.888255561882854,31810.640298912214,-3063.1842970050548,2.118580044593885,32053.979624203068,15325.671571511532,32.699371149350796,0.962720027305292,133.0,100.0,67.0,279.0,346.0,33.0,1106.0,1103.0,33.0,16.0,17.0,0.4848484848484848,172.94572688336046,4848.693758198646,23.0,19.0,4.0,0.8260869565217391,1391.718144479704,10397.879120022182,19.0,8.0,11.0,0.4210526315789473,2447.4682033972517,49398.938734406736,5.0,3.0,2.0,0.6,808.8172146101427,11180.271705603767,77.0,39.0,38.0,0.5064935064935064,189.69145626501185,17006.68798211431,0.0,0.0,0.0,0.0,31613.0,31646.0,31746.0,31765.0,31775.0,31794.0,31808.0,31813.0,32015.0,32092.0,0.03913761941891407,-0.16199335928079353,0.05469561434669964,-0.264044581124597,0.012377366654367308
30,30,32690.108652457264,4122.808058008383,15.226738682104504,32821.972626301,-8112.273437561993,17.83575780604118,32844.66154036186,45837.79885364021,8.835249655405201,32931.44266041571,-2057.68033163112,31.567711009066628,33116.95881659626,15169.008635758477,31.010240826753844,0.9601336262035004,132.0,100.0,140.0,205.0,345.0,32.0,1059.0,1061.0,37.0,17.0,20.0,0.4594594594594595,206.9667279996121,3985.565968255427,19.0,15.0,4.0,0.7894736842105263,1306.677225446506,6861.92702260991,19.0,9.0,10.0,0.4736842105263157,2421.609061539764,48002.43160033165,71.0,35.0,36.0,0.4929577464788732,152.5137032982285,1751.4653993672289,77.0,39.0,38.0,0.5064935064935064,155.6162747502749,15831.00707440639,0.0,0.0,0.0,0.0,32677.0,32709.0,32809.0,32826.0,32836.0,32855.0,32897.0,32949.0,33079.0,33154.0,0.05020042773943546,-0.16107411017437376,0.05282995959888793,-0.07411924046400886,0.010258829597040033
31,31,33754.87534932937,4196.9877489537375,16.423214555983176,33885.972626301,-9022.4081857671,11.823338436436362,33908.61737998206,43379.53667439119,9.21280555151185,33987.821948101286,-1590.3483859610096,22.93168860777651,34178.58083889133,15440.028477859258,32.272770829389536,0.9641486624271196,132.0,104.0,126.0,218.0,344.0,28.0,1066.0,1063.0,29.0,15.0,14.0,0.5172413793103449,201.9272515605214,4598.8472740256275,20.0,15.0,5.0,0.75,1317.4556828549016,8334.856947379232,21.0,10.0,11.0,0.4761904761904761,2378.7360363637467,48271.628921652984,73.0,27.0,46.0,0.3698630136986301,154.3756339240561,1447.4064438338582,80.0,41.0,39.0,0.5125,191.0623046454121,16257.675541750195,0.0,0.0,0.0,0.0,33741.0,33769.0,33873.0,33890.0,33899.0,33920.0,33975.0,33999.0,34141.0,34217.0,0.048112423394816826,-0.14602040339221134,0.05483544128695172,-0.09707032451934774,0.012374478772457722
32,32,34814.59494794374,4468.03526293824,17.074915956197348,34944.972626301,-8904.048557446376,11.249368085231522,34967.259068577805,43144.85496874075,9.035294092522756,35051.27398264528,-1586.3036263825222,7.64389620259217,35236.524510864554,15480.003825082693,33.404527914145085,0.9661463897390236,136.0,104.0,120.0,223.0,343.0,32.0,1059.0,1059.0,46.0,20.0,26.0,0.4347826086956521,224.16351251122973,3736.143698631566,21.0,17.0,4.0,0.8095238095238095,1328.6928699577195,8696.550680140515,20.0,9.0,11.0,0.45,2442.123061271362,50146.01604562009,14.0,12.0,2.0,0.8571428571428571,177.8300767412822,1410.9544253437557,83.0,43.0,40.0,0.5180722891566265,198.6792815711663,16188.34690388404,0.0,0.0,0.0,0.0,34797.0,34829.0,34933.0,34949.0,34958.0,34978.0,35039.0,35053.0,35196.0,35276.0,0.050170488664365825,-0.14922345283556945,0.05660288029802686,-0.11210342949717253,0.012834575741463357
33,33,35796.866928379284,4562.246404018578,17.144616299280724,35927.972626301,-9144.962682866691,11.591878268234634,35950.4812087065,43986.91481592295,8.802512085962261,35977.26744413408,-2710.6046994216467,2.0494957662217965,36218.53581798523,15470.598834724044,33.06788657806054,0.9632827946717816,135.0,101.0,65.0,278.0,343.0,34.0,985.0,984.0,35.0,18.0,17.0,0.5142857142857142,231.42584611613017,5098.79696918461,18.0,14.0,4.0,0.7777777777777778,1313.6637456020949,6469.494469976609,19.0,8.0,11.0,0.4210526315789473,2512.7370261851815,50771.764346002936,6.0,2.0,4.0,0.3333333333333333,931.6001169590068,11414.084167627463,80.0,40.0,40.0,0.5,196.4220147334437,16832.93742932607,0.0,0.0,0.0,0.0,35780.0,35814.0,35915.0,35932.0,35942.0,35961.0,35975.0,35980.0,36180.0,36258.0,0.05072629262467775,-0.14364889077822873,0.057124648016359365,-0.3436871917021982,0.012696471341016927
34,34,36798.091190478655,3861.542521395114,15.413185997723716,36931.39728720114,-8135.543834464956,14.178553841516084,36954.93150961537,44606.86131886692,8.950214584567995,37037.184189585896,-1710.1311002280895,20.383723206912453,37224.95881659626,15322.960595408138,30.964284875093348,0.9606993037077436,137.0,106.0,124.0,219.0,343.0,31.0,998.0,1004.0,35.0,19.0,16.0,0.5428571428571428,235.67892018856128,3801.7658284151858,19.0,13.0,6.0,0.6842105263157895,1161.1046438873086,5040.874924009489,20.0,9.0,11.0,0.45,2410.1195344922426,49211.2499207941,37.0,31.0,6.0,0.8378378378378378,213.34695741674872,1497.342502302307,76.0,38.0,38.0,0.5,188.10603866337564,16085.593630747686,0.0,0.0,0.0,0.0,36782.0,36813.0,36919.0,36936.0,36946.0,36966.0,37019.0,37043.0,37187.0,37262.0,0.06103232552348387,-0.14271997883761267,0.05403024250605273,-0.12475473803633738,0.01227608969507797
35,35,37896.32873009842,4107.596043439126,15.143087959232002,38028.972626301,-8251.224537931603,12.422860532901364,38052.52648795243,43446.8822156983,9.105703907029602,38132.30135639943,-1729.0642126082985,10.191861603456228,38321.31663324344,15276.093088219495,32.24008175757602,0.9632787833733416,136.0,104.0,122.0,222.0,344.0,32.0,1105.0,1097.0,43.0,18.0,25.0,0.4186046511627907,201.518002777966,3871.6610506841344,18.0,13.0,5.0,0.7222222222222222,1207.1520924277795,6089.545903769304,21.0,10.0,11.0,0.4761904761904761,2361.1882316207416,47871.45053977912,14.0,8.0,6.0,0.5714285714285714,159.82242126369874,1706.7954719813351,76.0,36.0,40.0,0.4736842105263157,190.48607380135817,16734.780698050155,0.0,0.0,0.0,0.0,37880.0,37912.0,38016.0,38033.0,38043.0,38063.0,38124.0,38138.0,38286.0,38360.0,0.049059839537980224,-0.14629975064651257,0.054346551724892084,-0.0924329010445518,0.012469554401200646
36,36,39068.42564264889,4810.486365557806,17.289351269702255,39202.972626301,-8096.869865508467,10.68501076557692,39226.264515402385,43344.75939432701,9.069066939562182,39301.87669549929,-1205.1842432858894,12.739827004319393,39495.92167783408,15403.68579011089,33.112134559742806,0.9669858637971196,138.0,106.0,118.0,226.0,344.0,32.0,1166.0,1174.0,36.0,16.0,20.0,0.4444444444444444,201.7575485408956,5604.122560475216,18.0,14.0,4.0,0.7777777777777778,1207.1855600770618,7275.971507454091,20.0,9.0,11.0,0.45,2421.4393226005664,50161.263880694605,30.0,20.0,10.0,0.6666666666666666,140.10286795217235,851.7628014517816,80.0,40.0,40.0,0.5,187.3802010241484,16328.754964888809,0.0,0.0,0.0,0.0,39053.0,39085.0,39191.0,39207.0,39217.0,39237.0,39297.0,39309.0,39457.0,39535.0,0.04194119538212236,-0.14909286923574053,0.05586463868841975,-0.11625016567606888,0.012164634073777705
37,37,40299.462258507134,4386.723816509076,17.311804121569807,40433.54796540086,-9077.838464699267,11.71959661806313,40455.66254984062,43614.83803324654,9.11363960185747,40536.36991350215,-1516.6106027844446,21.871368429778073,40728.53415569612,15551.251112643646,32.7825361194112,0.9625562567317072,138.0,103.0,124.0,222.0,346.0,35.0,1230.0,1230.0,43.0,19.0,24.0,0.4418604651162791,208.59992027236555,4633.37004699733,19.0,15.0,4.0,0.7894736842105263,1401.6742784414312,9858.916829130914,20.0,9.0,11.0,0.45,2403.5491262358005,48973.822377597855,52.0,27.0,25.0,0.5192307692307693,168.73215982810385,1373.9058953504818,81.0,42.0,39.0,0.5185185185185185,192.97864759108307,16092.875753705412,0.0,0.0,0.0,0.0,40283.0,40318.0,40421.0,40437.0,40447.0,40467.0,40510.0,40545.0,40689.0,40767.0,0.047552553795914124,-0.15440617101660073,0.055108518903672944,-0.11125608611618397,0.012409204005083906
38,38,41475.19825491341,4595.220001217314,17.487984767624067,41606.39728720114,-8497.892876842103,10.628879537809432,41629.59032675255,43218.14838207269,8.79272379171666,41709.84932180029,-1411.763309807047,5.095930801721557,41901.43742335072,15567.475533878496,33.505689598123766,0.9614740209001876,137.0,94.0,120.0,226.0,346.0,43.0,1174.0,1174.0,44.0,18.0,26.0,0.4090909090909091,171.25166893056303,4676.777833291755,18.0,13.0,5.0,0.7222222222222222,1205.718896846266,5173.689521242475,20.0,10.0,10.0,0.5,2462.992141282179,48249.99198946048,10.0,4.0,6.0,0.4,228.13373153601728,1460.174287691665,79.0,38.0,41.0,0.4810126582278481,180.78804725471664,16672.575549627196,0.0,0.0,0.0,0.0,41458.0,41501.0,41595.0,41611.0,41620.0,41640.0,41707.0,41715.0,41865.0,41941.0,0.03726734930758417,-0.14188445469017522,0.05698976549175466,-0.16159488630370872,0.011613189746871883
39,39,42561.16116389837,3770.696563028051,13.905634543963895,42693.972626301,-8174.167335292668,17.835757806047805,42716.21301363837,45835.587373484654,8.643236733378831,42744.273982662235,-2711.674284981004,3.697855281726702,42988.33270389725,15016.704987145988,30.621429053871076,0.9547816979938404,135.0,100.0,68.0,280.0,348.0,35.0,1088.0,1086.0,38.0,19.0,19.0,0.5,164.97494551493207,3223.1057364573117,21.0,17.0,4.0,0.8095238095238095,1307.8268546329512,7859.029826544767,20.0,9.0,11.0,0.45,2494.7854919118645,48760.1444018777,7.0,4.0,3.0,0.5714285714285714,749.4702856603469,10710.616197377174,76.0,37.0,39.0,0.4868421052631579,183.6101736552119,15945.27025575121,0.0,0.0,0.0,0.0,42544.0,42579.0,42679.0,42698.0,42707.0,42727.0,42740.0,42747.0,42952.0,43027.0,0.04375184869886461,-0.1599951164427839,0.054429006692626535,-0.2763865445829521,0.012227061383464528
40,40,43628.553255186845,4305.131241300663,15.75325314339176,43757.972626301,-8124.35812878155,15.023476019918215,43780.93596171993,44502.83931007156,9.086717730827017,43841.54796540086,-1631.2134932365077,15.28779240518434,44053.06832089792,15505.266303618297,32.14221914879601,0.964973113614823,134.0,95.0,108.0,238.0,346.0,39.0,1066.0,1065.0,42.0,18.0,24.0,0.4285714285714285,146.5568552920696,4529.936504267915,18.0,14.0,4.0,0.7777777777777778,1255.3976166678426,6885.154556809486,20.0,9.0,11.0,0.45,2374.222929444392,49193.41273125504,36.0,9.0,27.0,0.25,151.53206503182494,2411.4062181953213,75.0,37.0,38.0,0.4933333333333333,179.41026440414836,16923.98584180174,0.0,0.0,0.0,0.0,43611.0,43650.0,43745.0,43762.0,43772.0,43792.0,43833.0,43853.0,44016.0,44091.0,0.03404236644079449,-0.15452268311762873,0.05334992028041399,-0.09289529890484696,0.011570924413099653
41,41,44644.18811393642,4455.800056871129,17.11573382183095,44772.972626301,-8269.666982164863,11.506543483020518,44796.41430080219,43373.107941536895,9.194579443695517,44859.69864360057,-1144.860228593201,10.191861602135114,45066.37462749542,15244.345973539805,33.2682673125008,0.9667430920311968,134.0,96.0,102.0,244.0,346.0,38.0,1015.0,1015.0,40.0,18.0,22.0,0.45,192.26718586510137,4763.462432779885,18.0,13.0,5.0,0.7222222222222222,1188.5481715447909,6743.372638951643,20.0,9.0,11.0,0.45,2402.362740347027,50029.83698888828,43.0,7.0,36.0,0.1627906976744186,168.1422508177031,1805.0338860487589,81.0,40.0,41.0,0.4938271604938271,173.8017655582861,16668.776609495253,0.0,0.0,0.0,0.0,44627.0,44665.0,44761.0,44777.0,44787.0,44807.0,44854.0,44863.0,45029.0,45107.0,0.04314986835385782,-0.14372382516830787,0.055388300593658145,-0.146867055574387,0.011401064096810744
42,42,45614.42780061612,4337.179684910554,15.925015038399131,45744.972626301,-9070.382949097491,12.429152961698044,45767.66501840227,43325.28306168181,9.092612294203596,45853.09593080172,-1669.901843214156,28.607732247081668,46037.77982860302,15075.828738269567,31.955848823455547,0.9656075504364128,133.0,102.0,142.0,202.0,344.0,31.0,971.0,972.0,33.0,16.0,17.0,0.4848484848484848,201.1983557198201,4633.80050104433,19.0,15.0,4.0,0.7894736842105263,1290.779456050563,6968.329827280977,20.0,9.0,11.0,0.45,2381.0078636979733,48187.871702918834,40.0,18.0,22.0,0.45,165.4047778628877,1559.0395259877512,76.0,38.0,38.0,0.5,185.66979167746436,16489.42975200901,0.0,0.0,0.0,0.0,45599.0,45630.0,45732.0,45749.0,45759.0,45779.0,45836.0,45874.0,46001.0,46076.0,0.04638921380633771,-0.14230705178539307,0.05495654489569414,-0.09905059901276808,0.012315727042331465
43,43,46557.39642540574,5059.3585095625995,19.2291091632072,46689.54796540086,-8136.296153343829,10.939612671994142,46711.69783066048,44160.585262190536,8.67124953395665,46738.453121615086,-2226.500152527112,2.067167003855859,46979.14089084964,15635.225990277202,34.67892415575681,0.9622840938784591,138.0,95.0,64.0,278.0,342.0,43.0,944.0,944.0,45.0,17.0,28.0,0.3777777777777777,224.43586209419496,5280.414455152281,19.0,15.0,4.0,0.7894736842105263,1365.3060853891068,9743.933322412711,19.0,9.0,10.0,0.4736842105263157,2538.729997666492,49158.702655114845,6.0,2.0,4.0,0.3333333333333333,871.6797856158485,10759.801389622393,84.0,42.0,42.0,0.5,222.77831631008883,16932.468754283043,0.0,0.0,0.0,0.0,46540.0,46583.0,46678.0,46693.0,46703.0,46722.0,46736.0,46742.0,46944.0,47020.0,0.04436053734282576,-0.16780437433167886,0.05748859492222593,-0.39150223485342167,0.014248487130830344
44,44,47425.448732362835,4126.401237483364,12.635050751898286,47559.972626301,-8588.419444905467,17.835757806044533,47582.0428148428,45788.628998378794,8.376887446679843,47609.318708459934,-3709.0963276020784,3.0833535607369096,47849.325413130966,14611.962408697382,29.757679563409653,0.9574292630333132,137.0,107.0,66.0,273.0,339.0,30.0,873.0,870.0,32.0,16.0,16.0,0.5,208.75681994275655,3847.614295911795,23.0,18.0,5.0,0.782608695652174,1311.0603511452657,6852.130248752243,19.0,9.0,10.0,0.4736842105263157,2521.7537933416015,48144.07701871573,8.0,4.0,4.0,0.5,811.1015234056657,12318.705795155338,73.0,34.0,39.0,0.4657534246575342,186.84351602414748,14945.76043403644,0.0,0.0,0.0,0.0,47410.0,47440.0,47547.0,47564.0,47573.0,47592.0,47605.0,47613.0,47816.0,47886.0,0.05059052862975451,-0.1526544388703522,0.05507379994781865,-0.21867901282845378,0.012787024138040065
45,45,48397.97870127419,3998.7210080880864,16.866847303160927,48533.972626301,-7487.46463200351,14.440361550436336,48556.45856067792,45269.25521313545,8.490181646128978,48636.972626301,-1863.4326094249232,17.8357578060484,48824.34507072258,14752.6362321763,31.419637293396995,0.9588465291456424,140.0,107.0,138.0,204.0,342.0,33.0,968.0,975.0,34.0,18.0,16.0,0.5294117647058824,204.23285031483212,3935.3629135983447,18.0,14.0,4.0,0.7777777777777778,1277.8721137046948,7355.885582498813,19.0,8.0,11.0,0.4210526315789473,2549.1761487541726,50114.00107540068,35.0,10.0,25.0,0.2857142857142857,197.3518847029838,1894.923969668561,82.0,41.0,41.0,0.5,166.32334682744477,14836.748810293584,0.0,0.0,0.0,0.0,48381.0,48414.0,48521.0,48538.0,48548.0,48567.0,48627.0,48659.0,48786.0,48863.0,0.05107454356073775,-0.1706682003201342,0.0563114223274099,-0.10590771230728267,0.011274144106168938
46,46,49602.745742795465,4654.515324387627,18.37319839636996,49735.972626301,-8373.667242900547,10.862293522905777,49758.45162503127,43876.323569694905,9.112635336486507,49837.246609001435,-1465.3384061365923,18.31730604584091,50028.92590835651,14960.30143216813,33.192832014284924,0.9706019723265692,139.0,96.0,120.0,226.0,346.0,43.0,1210.0,1202.0,43.0,19.0,24.0,0.4418604651162791,150.18828248371696,4750.528117582497,18.0,14.0,4.0,0.7777777777777778,1349.8731681712927,9414.127834595478,20.0,9.0,11.0,0.45,2450.807194429704,50572.470156586365,37.0,26.0,11.0,0.7027027027027027,157.22066300055548,1450.5822016565696,84.0,42.0,42.0,0.5,169.30238995528015,15791.069118850844,0.0,0.0,0.0,0.0,49584.0,49627.0,49723.0,49740.0,49749.0,49769.0,49815.0,49843.0,49992.0,50069.0,0.032267222689502384,-0.1612045390645009,0.055857168400555345,-0.1072930746523408,0.011316776652055995
47,47,50787.56722323614,4383.140114871896,17.752929139463625,50920.972626301,-8336.128352586464,11.202963442187349,50944.04329402082,43601.115977179674,9.184120299099408,51024.12138329892,-1219.3323741395436,12.739827004320285,51214.90945140448,15541.612523792714,33.41459890541867,0.960383889230665,136.0,97.0,119.0,228.0,347.0,39.0,1181.0,1185.0,39.0,16.0,23.0,0.4102564102564102,179.53226016101215,4748.009431191545,19.0,15.0,4.0,0.7894736842105263,1259.701279290894,8289.587422835584,20.0,9.0,11.0,0.45,2406.487231177161,49634.559563750045,18.0,14.0,4.0,0.7777777777777778,164.8018844386985,1766.426096406502,77.0,36.0,41.0,0.4675324675324675,180.16707926939804,16992.72630106188,0.0,0.0,0.0,0.0,50772.0,50811.0,50908.0,50925.0,50935.0,50955.0,51010.0,51027.0,51180.0,51255.0,0.040959735590441936,-0.15111346970803832,0.05519324854980063,-0.13515747464262615,0.011592560231030054
48,48,51932.27306006078,4780.810622782425,17.77003305404489,52062.39728720114,-8508.371689116766,10.41572407399746,52085.41205090708,43574.87353738524,8.866660135291042,52162.726017299574,-1138.633425347822,7.64389620259217,52355.9658728764,15287.969714858576,34.276280695037165,0.9605954685293554,133.0,100.0,117.0,230.0,347.0,33.0,1145.0,1141.0,33.0,15.0,18.0,0.4545454545454545,214.04213006193683,5646.4376802872675,18.0,13.0,5.0,0.7222222222222222,1190.0915418808556,6143.122180984921,20.0,9.0,11.0,0.45,2490.7050626220907,50456.7498214426,22.0,17.0,5.0,0.7727272727272727,155.32116699847302,984.2602641201318,86.0,45.0,41.0,0.5232558139534884,218.50805803144715,16244.399913388736,0.0,0.0,0.0,0.0,51917.0,51950.0,52050.0,52067.0,52076.0,52096.0,52148.0,52167.0,52317.0,52397.0,0.04477109573049029,-0.13987300806370817,0.057159203468145015,-0.13641015935486575,0.014292810759500415
49,49,53014.47633654683,4134.983100607029,16.458209849751256,53145.54796540086,-9058.79888020327,12.077082191513044,53167.71126670445,44222.62838684602,8.964388589419995,53252.34253980316,-1637.402543973746,27.27349173563564,53439.71092465789,15137.698708398642,32.12276734182888,0.9656702899536952,139.0,95.0,139.0,207.0,346.0,44.0,1081.0,1082.0,45.0,19.0,26.0,0.4222222222222222,250.4373816175116,3961.488122418979,19.0,15.0,4.0,0.7894736842105263,1438.8385565173114,9812.849616378531,20.0,9.0,11.0,0.45,2450.5079487264525,48878.48514596741,55.0,33.0,22.0,0.6,130.51921168998018,1519.36957178288,80.0,39.0,41.0,0.4875,195.47845202145515,15655.310999217128,0.0,0.0,0.0,0.0,52995.0,53039.0,53134.0,53149.0,53159.0,53179.0,53221.0,53273.0,53404.0,53480.0,0.0605655151482352,-0.15883325985541974,0.05541298738035556,-0.07971113283678452,0.012913353329789852
50,50,54097.510874835054,3317.980716209535,12.742204473138615,54226.972626301,-8646.40941397091,17.8357578060484,54249.602306256806,45320.52125525341,9.060113825654652,54336.045118583024,-2237.1256354297275,32.028080252661866,54521.46109221807,14616.545493369338,31.10615037541108,0.9544499608238776,128.0,101.0,144.0,203.0,347.0,27.0,1083.0,1082.0,27.0,14.0,13.0,0.5185185185185185,167.1821442964284,3212.393516062111,21.0,17.0,4.0,0.8095238095238095,1290.871861831169,7162.996928593177,21.0,10.0,11.0,0.4761904761904761,2341.882759269495,47772.39580524353,80.0,40.0,40.0,0.5,152.92475149404706,1621.924275358527,78.0,38.0,40.0,0.4871794871794871,200.33402730647975,15852.220180181655,0.0,0.0,0.0,0.0,54084.0,54111.0,54212.0,54231.0,54240.0,54261.0,54303.0,54356.0,54487.0,54559.0,0.050386713665839945,-0.14929571340276485,0.051673782525129976,-0.06835769483490446,0.013705976381174297
51,51,55130.70581751428,4280.037978644666,15.454142275542967,55259.972626301,-8836.363174621421,12.710546018359214,55282.70676393312,43658.24259836087,9.20366408831888,55363.87669549929,-1454.0601923741865,12.739827004320285,55553.87903326159,15186.767644150224,32.67662216308327,0.9631295159826856,132.0,97.0,125.0,223.0,348.0,35.0,1033.0,1034.0,35.0,17.0,18.0,0.4857142857142857,178.04904996883215,4817.310907215152,19.0,15.0,4.0,0.7894736842105263,1294.083228586394,7491.346848882698,20.0,9.0,11.0,0.45,2367.6917044186794,48839.234077048866,49.0,25.0,24.0,0.5102040816326531,106.57107057631298,908.0456802956936,82.0,41.0,41.0,0.5,167.51623398666123,16137.645293421092,0.0,0.0,0.0,0.0,55114.0,55149.0,55246.0,55264.0,55274.0,55294.0,55344.0,55371.0,55514.0,55594.0,0.041599876182690766,-0.1464497557437522,0.05423240981549664,-0.07329206255368559,0.011030407385681352
52,52,56119.99470316082,3636.655122816432,14.639577909447324,56249.972626301,-8750.216425121678,16.56271019841136,56272.845305034345,44645.629543942116,9.093948538921682,56352.21923530245,-1989.2777485904132,31.273718522560134,56543.04179467243,14586.743641176134,31.592643470541645,0.9582669433363944,130.0,92.0,126.0,220.0,346.0,38.0,988.0,990.0,45.0,20.0,25.0,0.4444444444444444,180.64216555322184,3370.4470961457073,21.0,16.0,5.0,0.7619047619047619,1271.9144204731226,6544.297938517544,20.0,9.0,11.0,0.45,2353.1613245132776,47937.536172173146,38.0,28.0,10.0,0.7368421052631579,168.14833532597592,2007.3104661954776,77.0,38.0,39.0,0.4935064935064935,174.71963547126245,15903.702577642334,0.0,0.0,0.0,0.0,56106.0,56144.0,56236.0,56254.0,56264.0,56284.0,56324.0,56362.0,56505.0,56582.0,0.04967261383128414,-0.14535805272444283,0.05270754043679005,-0.08452732930086033,0.011977973958358725
53,53,57065.911413438735,4266.427852297676,15.203380975056046,57198.972626301,-8752.700054333323,12.968239896531555,57221.62881835707,43588.40935151961,8.909348843281105,57249.24347487549,-2447.341754845223,2.2513329663188855,57490.84607933784,14762.28115714042,32.448226954833245,0.960458282037522,134.0,105.0,66.0,278.0,344.0,29.0,948.0,949.0,29.0,14.0,15.0,0.4827586206896552,216.57495028003228,4762.639081599827,20.0,15.0,5.0,0.75,1276.3852354456435,6897.4886555053035,19.0,9.0,10.0,0.4736842105263157,2451.1349917805433,48579.54474167884,5.0,2.0,3.0,0.4,774.0450410030858,10828.190611617014,79.0,40.0,39.0,0.5063291139240507,168.8794637909581,15630.279673154488,0.0,0.0,0.0,0.0,57052.0,57081.0,57186.0,57203.0,57213.0,57232.0,57247.0,57252.0,57452.0,57530.0,0.05076259526184096,-0.14582759920051475,0.05623364165490224,-0.31627991451158755,0.011439930048295565
54,54,57987.26481871453,3992.557129610838,16.077202527467602,58119.972626301,-8132.742592231839,17.83575780604822,58142.36595486019,45359.142783451454,8.788792366850934,58169.952152248494,-2819.592701952843,2.8368153042705506,58411.11881700887,14461.945752578373,31.350822389886247,0.9606119591111864,137.0,104.0,66.0,276.0,342.0,33.0,923.0,920.0,44.0,17.0,27.0,0.3863636363636363,163.26417238477953,4157.136606560151,22.0,18.0,4.0,0.8181818181818182,1324.5354550462318,7493.207928650529,20.0,9.0,11.0,0.45,2434.783444788748,48807.907950991954,6.0,3.0,3.0,0.5,753.604119667521,10845.66563002706,80.0,41.0,39.0,0.5125,176.89197540054246,14883.367421654832,0.0,0.0,0.0,0.0,57970.0,58003.0,58107.0,58124.0,58133.0,58153.0,58167.0,58173.0,58374.0,58449.0,0.04089213180543598,-0.16286454907737888,0.053677898112242085,-0.26727410634364906,0.012231547429847396
55,55,58930.63326117066,3956.4712393348177,16.76987628863275,59064.54796540086,-8611.59671358416,14.58254272647865,59086.717102835246,44711.49481015804,8.955432528383692,59143.273982700426,-1697.4090781045093,7.64389620259217,59353.71355161493,14561.992398217137,32.25594530528836,0.9634626619943568,141.0,109.0,124.0,218.0,342.0,32.0,939.0,945.0,32.0,21.0,11.0,0.65625,181.54118586384644,4159.793782061817,22.0,18.0,4.0,0.8181818181818182,1403.0999252548318,10337.127739424986,20.0,9.0,11.0,0.45,2424.5500144065863,48639.85771079513,53.0,4.0,49.0,0.0754716981132075,121.4363795752493,2406.433333936264,80.0,40.0,40.0,0.5,179.6641289702411,15510.097202695366,0.0,0.0,0.0,0.0,58910.0,58942.0,59051.0,59068.0,59078.0,59098.0,59139.0,59175.0,59316.0,59393.0,0.045884621644404544,-0.16293144836213067,0.05422654788664661,-0.0715421998984811,0.01233788097514993
56,56,59910.52595445648,3823.955935674125,16.72903219336996,60044.972626301,-8444.680517131379,13.813317090097083,60068.041485301095,43516.081244888985,9.065885772939358,60150.821948101286,-2028.070033123877,22.93168860777651,60335.75105870968,14628.529917150878,31.993420160759857,0.959764892913909,141.0,101.0,125.0,217.0,342.0,40.0,982.0,981.0,40.0,19.0,21.0,0.475,170.6223525794623,3755.936832324801,19.0,14.0,5.0,0.7368421052631579,1260.027916204198,6300.061326263069,20.0,9.0,11.0,0.45,2360.5880600963874,48762.44942161751,40.0,32.0,8.0,0.8,156.97599968557063,2250.8530789126444,78.0,39.0,39.0,0.5,212.66641391310307,15510.373536334477,0.0,0.0,0.0,0.0,59892.0,59932.0,60033.0,60049.0,60059.0,60079.0,60138.0,60158.0,60298.0,60375.0,0.044619330204019016,-0.14920966088036494,0.054246338194196685,-0.07740166617608236,0.014537784392385684
57,57,60976.03271737395,3876.532046203899,15.322447001524583,61108.972626301,-8222.731610568311,16.461165769331807,61131.31900918802,45104.44672329402,8.898039738606544,61216.7672007033,-1819.3828367972503,33.80114446158447,61400.98872014441,14444.715814546114,31.05094309413364,0.9620597535104132,135.0,95.0,138.0,205.0,343.0,40.0,1064.0,1063.0,40.0,16.0,24.0,0.4,155.37211367520294,3867.835075450036,22.0,17.0,5.0,0.7727272727272727,1325.8262555179526,8628.491319208882,20.0,9.0,11.0,0.45,2421.706644954823,49375.46472686458,53.0,35.0,18.0,0.660377358490566,148.44976338303658,1787.5988205061144,78.0,40.0,38.0,0.5128205128205128,177.764512661767,15232.78206736077,0.0,0.0,0.0,0.0,60960.0,61000.0,61095.0,61113.0,61122.0,61142.0,61184.0,61233.0,61363.0,61438.0,0.04008018296336577,-0.16123914999413663,0.05369108415876303,-0.08159347245704486,0.012306542748508393
58,58,62058.968603415815,4339.861277112108,16.554273989612682,62190.972626301,-8596.118091515604,11.935679619974358,62213.07781577409,42851.32471121648,8.844431302637911,62240.086457895675,-2847.03311382066,2.106526268058131,62483.53415569612,14892.370631083071,32.62733296616828,0.9623038504382232,135.0,99.0,66.0,279.0,345.0,36.0,1083.0,1082.0,38.0,19.0,19.0,0.5,164.80271019088477,4269.496502274018,19.0,15.0,4.0,0.7894736842105263,1311.3988437531395,8122.2446714748,20.0,9.0,11.0,0.45,2437.4651138666686,48605.6810608712,5.0,2.0,3.0,0.4,807.9352904650916,11011.06964004482,77.0,39.0,38.0,0.5064935064935064,185.20811352366857,15665.459368430864,0.0,0.0,0.0,0.0,62042.0,62078.0,62177.0,62195.0,62204.0,62224.0,62238.0,62243.0,62446.0,62522.0,0.0379741884976909,-0.1525570995874864,0.05688190809253217,-0.2837814869602479,0.012436442666629969
59,59,63127.49462193837,4233.052160370925,16.207797269215504,63258.54796540086,-8073.80843906196,15.287792405164533,63281.034876806334,44695.38997955972,8.821572314609112,63366.34253980316,-1726.7714342405,28.84333254959684,63551.16360181559,14727.192412926835,32.13562915350462,0.9614893688740694,131.0,102.0,147.0,199.0,346.0,29.0,1071.0,1068.0,29.0,13.0,16.0,0.4482758620689655,218.4117710884646,5384.077586884339,21.0,17.0,4.0,0.8095238095238095,1331.4568334465428,9005.153780689365,20.0,9.0,11.0,0.45,2444.2641925759535,48869.5754006037,80.0,36.0,44.0,0.45,103.73208532363,1433.0871155531177,81.0,41.0,40.0,0.5061728395061729,149.10281077759973,15926.122890490147,0.0,0.0,0.0,0.0,63114.0,63143.0,63245.0,63262.0,63272.0,63292.0,63335.0,63392.0,63512.0,63591.0,0.051596758748497465,-0.1649106296608191,0.05468716558226194,-0.06007285229921315,0.010124320141748423
60,60,64197.6820548154,4220.462685600603,16.64742906356013,64326.972626301,-8295.315181921125,12.042019691577208,64350.04111811921,43192.33504349663,9.230323995231515,64431.39728720114,-1030.8923572125943,16.602102220494118,64621.10949479597,15107.234040223912,33.15181846458906,0.9633533589975176,135.0,98.0,123.0,224.0,347.0,37.0,1067.0,1069.0,37.0,19.0,18.0,0.5135135135135135,123.7946985986674,4535.3228138273025,18.0,14.0,4.0,0.7777777777777778,1238.962655221793,7557.176761071753,20.0,9.0,11.0,0.45,2360.9981484759983,49137.20362120522,17.0,11.0,6.0,0.6470588235294118,124.29928571633306,1416.2509482482371,81.0,41.0,40.0,0.5061728395061729,153.30196942832433,15866.205412553974,0.0,0.0,0.0,0.0,64179.0,64216.0,64314.0,64331.0,64341.0,64361.0,64420.0,64437.0,64582.0,64661.0,0.029332020638644856,-0.14935691146757124,0.05466243364935854,-0.1205744565343592,0.010147586846152558
61,61,65208.28058766745,4081.3120124101742,14.31089983744906,65338.972626301,-7734.844882916545,17.835757801875264,65361.695739902214,44784.81872598232,8.854948431209777,65425.39728720114,-1792.8185134459843,20.383723206912453,65631.30726475372,14544.18434667063,32.14246667152484,0.959343288345366,130.0,99.0,142.0,204.0,346.0,31.0,1013.0,1012.0,31.0,13.0,18.0,0.4193548387096774,166.17240262315016,4436.480333757758,21.0,16.0,5.0,0.7619047619047619,1256.4591285749034,7219.997222386269,20.0,9.0,11.0,0.45,2370.877960180859,47302.289334668414,57.0,12.0,45.0,0.2105263157894736,165.32113321845694,2448.519130256705,80.0,40.0,40.0,0.5,176.9269161556357,15692.062405745844,0.0,0.0,0.0,0.0,65195.0,65226.0,65325.0,65343.0,65353.0,65373.0,65414.0,65467.0,65591.0,65671.0,0.040715437123617235,-0.1624414125420878,0.05293932246744527,-0.0922129774868804,0.012164787789982652
62,62,66149.08570581827,4281.542764572903,15.747068598150374,66277.39728720114,-8037.500770042704,14.764101874873097,66300.10386575336,44747.140011319,8.492222240906857,66328.376198503,-3215.536441654482,2.9148296565235663,66568.82157931972,14786.063546216112,32.47250695225266,0.9650925006782368,135.0,91.0,68.0,275.0,343.0,44.0,940.0,938.0,44.0,20.0,24.0,0.4545454545454545,178.19212001947284,4469.150533896107,19.0,14.0,5.0,0.7368421052631579,1197.046723464741,5836.76012815335,19.0,9.0,10.0,0.4736842105263157,2541.688867986059,48942.56346368293,7.0,3.0,4.0,0.4285714285714285,741.1516668379993,10526.857930776758,80.0,41.0,39.0,0.5125,199.38366951492597,16016.561491566514,0.0,0.0,0.0,0.0,66129.0,66173.0,66264.0,66282.0,66291.0,66310.0,66325.0,66332.0,66533.0,66607.0,0.041618671076673934,-0.14893270404730313,0.05680114678486998,-0.23049083109027255,0.013484567335431888
63,63,67055.2062868028,4149.796043893707,13.142636988410157,67187.972626301,-8416.650275595925,17.835757798025774,67210.5796254362,45530.83574581496,8.708989418383354,67297.42181481715,-1993.2702131071703,27.032814672300443,67478.00738847496,14552.494612324122,30.914950651040183,0.9571756710134212,131.0,102.0,145.0,199.0,344.0,29.0,907.0,911.0,29.0,14.0,15.0,0.4827586206896552,189.11998979219211,4418.931113126697,22.0,17.0,5.0,0.7727272727272727,1260.205015453677,7089.083205445746,19.0,9.0,10.0,0.4736842105263157,2454.629598932077,47787.50627146049,57.0,19.0,38.0,0.3333333333333333,162.79754802933124,1860.5764822759704,76.0,38.0,38.0,0.5,164.439193308921,15185.62359035938,0.0,0.0,0.0,0.0,67041.0,67070.0,67172.0,67192.0,67202.0,67221.0,67280.0,67317.0,67440.0,67516.0,0.045573321626366715,-0.14972762015639896,0.053911367070781216,-0.0816735969658411,0.011299725420936546
64,64,68038.81612978969,3978.622773094393,15.334354050735056,68170.54796540085,-8098.23628325836,15.287792405184256,68193.67161904195,44572.45726536027,9.08671890913925,68273.62285963763,-1540.122270189638,23.360408576029428,68460.86112262384,14870.171044134468,32.080887749627664,0.9620138198954036,136.0,106.0,124.0,218.0,342.0,30.0,982.0,983.0,37.0,19.0,18.0,0.5135135135135135,187.9324450702238,4060.609894196874,20.0,16.0,4.0,0.8,1287.4195097635022,7739.84421539594,21.0,10.0,11.0,0.4761904761904761,2354.3819563534216,48516.27956203581,33.0,25.0,8.0,0.7575757575757576,122.98604958772016,1331.0450457476895,79.0,39.0,40.0,0.4936708860759494,192.44515745467592,15783.304234599776,0.0,0.0,0.0,0.0,68021.0,68051.0,68157.0,68174.0,68184.0,68205.0,68250.0,68281.0,68425.0,68499.0,0.04723555254876763,-0.158975295944996,0.052821452995887266,-0.07985473099650502,0.012941690911523565
65,65,69070.83393443424,3944.7806664550058,15.41844604829811,69203.39728720114,-8661.787070483411,13.587904689637982,69226.1274007367,43218.259051010544,9.04817232697376,69284.12330450071,-1843.7046855294077,12.739827004320285,69494.408881675,14663.694519094388,31.614820038222327,0.96120568406591,132.0,104.0,106.0,238.0,344.0,28.0,1032.0,1032.0,44.0,19.0,25.0,0.4318181818181818,195.91061706366588,3661.4851563437655,19.0,14.0,5.0,0.7368421052631579,1184.3780826328823,5715.8845294008315,20.0,9.0,11.0,0.45,2383.8317444430413,48973.66790762488,71.0,7.0,64.0,0.0985915492957746,152.82096639336297,2472.5175082848227,79.0,40.0,39.0,0.5063291139240507,168.92562545563402,15787.051949975015,0.0,0.0,0.0,0.0,69057.0,69085.0,69189.0,69208.0,69217.0,69237.0,69277.0,69295.0,69458.0,69533.0,0.04966324711779776,-0.13673599604738176,0.05515797713252176,-0.08288798504055514,0.01151999076601513
66,66,70101.75356994252,4292.91542813254,16.95899781615643,70233.39728720114,-8300.484018053612,11.2730452195254,70256.4046990963,43785.33704028323,8.766677287767658,70335.12330450071,-1524.5939525551948,12.73982700431707,70523.79352922074,15077.884191919567,33.6385254587621,0.9647323136260002,137.0,104.0,118.0,225.0,343.0,33.0,1030.0,1031.0,44.0,18.0,26.0,0.4090909090909091,182.1043183515393,3951.3748890111656,18.0,13.0,5.0,0.7222222222222222,1208.4845248966474,5612.278538639277,20.0,9.0,11.0,0.45,2496.3587010456586,50060.9837732025,11.0,7.0,4.0,0.6363636363636364,177.7594723706084,2029.6317933688183,83.0,43.0,40.0,0.5180722891566265,173.80735189174138,16251.53204028917,0.0,0.0,0.0,0.0,70084.0,70117.0,70221.0,70238.0,70247.0,70267.0,70328.0,70339.0,70489.0,70564.0,0.04241973115942711,-0.14559205490525431,0.0570135773706382,-0.11659463299896106,0.011527303809966055
67,67,71189.4941606274,4083.3885527651505,15.474686036075155,71321.54796540085,-8273.492499281956,15.287792401479232,71343.58803614846,44925.07493355098,8.997249379813661,71401.69864360057,-1651.370497476962,10.191861603456228,71612.53415569612,14873.003027015457,31.989809365242557,0.9608872138234892,134.0,99.0,138.0,206.0,344.0,35.0,1088.0,1086.0,45.0,19.0,26.0,0.4222222222222222,149.25718089267272,4060.084672942777,20.0,16.0,4.0,0.8,1408.0068628643126,10388.631481938874,20.0,9.0,11.0,0.45,2403.41373423718,48244.03191653683,54.0,6.0,48.0,0.1111111111111111,169.0249606823637,2534.2312782682875,80.0,41.0,39.0,0.5125,177.52157979350625,15604.588807481252,0.0,0.0,0.0,0.0,71173.0,71208.0,71307.0,71325.0,71335.0,71355.0,71396.0,71445.0,71573.0,71651.0,0.03655228469296662,-0.1701828898722651,0.053498268790694005,-0.1023543541201733,0.011935826239734803
68,68,72305.63820729281,3873.931473533987,16.352740355173133,72435.972626301,-8404.53583872052,14.274397199938424,72458.99263100809,44150.10115640591,9.10832444823817,72541.89168177139,-1741.391814024666,25.388121725055058,72728.78118297459,15023.33934565984,32.62348414491835,0.9623145506369052,134.0,91.0,127.0,219.0,346.0,43.0,1117.0,1116.0,45.0,19.0,26.0,0.4222222222222222,138.13302736118428,3576.4636624446007,21.0,16.0,5.0,0.7619047619047619,1250.478507231806,7371.065640856278,20.0,9.0,11.0,0.45,2385.264335386389,49131.09821584316,53.0,31.0,22.0,0.5849056603773585,130.67309564615258,1782.380515660707,80.0,39.0,41.0,0.4875,152.45486910420556,16231.77829744458,0.0,0.0,0.0,0.0,72288.0,72331.0,72422.0,72440.0,72450.0,72470.0,72512.0,72549.0,72691.0,72768.0,0.035657065259126194,-0.1487861472933138,0.05402624847758252,-0.07503945671143579,0.010147868299882937
69,69,73390.16895251971,3899.2580858116353,15.317101874545283,73521.39728720114,-8678.120770405947,13.552476170380556,73543.91548152051,43615.16801503506,8.888294724305617,73607.54796540085,-2231.3881822280646,15.28779240518434,73814.50175157943,14692.45169989278,31.712716681198323,0.9607533148629483,131.0,102.0,158.0,187.0,345.0,29.0,1085.0,1085.0,38.0,17.0,21.0,0.4473684210526316,185.52379257748177,4081.314573070631,19.0,14.0,5.0,0.7368421052631579,1242.5854177596746,6250.37023881911,20.0,9.0,11.0,0.45,2430.584038462276,48687.37999165783,68.0,9.0,59.0,0.1323529411764706,163.3189681589005,2938.7555647630757,79.0,39.0,40.0,0.4936708860759494,159.6362635574842,15810.44932595038,0.0,0.0,0.0,0.0,73377.0,73406.0,73508.0,73526.0,73535.0,73555.0,73599.0,73666.0,73779.0,73853.0,0.0475792544362615,-0.14318600197373707,0.05572795311998805,-0.07319164341715963,0.010865188929540547
70,70,74405.54425865889,4627.688053611715,18.307892307507668,74536.972626301,-7642.523215323969,10.985976687307556,74559.8577692117,43084.13455714472,9.11746227231584,74639.30135639943,-755.7615094478746,6.189868971140191,74828.0298290565,15958.249959117253,34.3420264485229,0.9610997851222204,137.0,94.0,121.0,225.0,346.0,43.0,1015.0,1016.0,45.0,20.0,25.0,0.4444444444444444,161.55037349324454,4695.796575967832,18.0,14.0,4.0,0.7777777777777778,1229.726317414132,8711.982477506137,20.0,9.0,11.0,0.45,2390.967326910573,48870.74654742061,12.0,5.0,7.0,0.4166666666666667,120.09670224277085,759.7863099424974,85.0,42.0,43.0,0.4941176470588235,183.372500042586,17114.41782805515,0.0,0.0,0.0,0.0,74387.0,74430.0,74524.0,74541.0,74551.0,74571.0,74634.0,74645.0,74789.0,74870.0,0.03490952104413375,-0.16090580071100294,0.055495308226263876,-0.1589082015178414,0.011490764996936385
71,71,75398.7616432189,3139.97365437841,12.41412764288878,75529.19706302266,-9193.609511441233,17.8357578060484,75553.97522025694,44188.99725836993,8.835374037181607,75636.76255640302,-3224.5525873032957,45.20623980828152,75824.93264035184,14382.747257707066,29.22526386304375,0.951053603562784,130.0,105.0,162.0,186.0,348.0,25.0,994.0,994.0,29.0,14.0,15.0,0.4827586206896552,196.7234895662139,3251.422106756592,21.0,14.0,7.0,0.6666666666666666,1034.4772266974005,139.32608968833028,19.0,9.0,10.0,0.4736842105263157,2416.5340245150214,47103.055947859146,81.0,38.0,43.0,0.4691358024691358,162.0957812381795,3317.4614985841267,76.0,38.0,38.0,0.5,171.0556316633542,15249.608799785092,0.0,0.0,0.0,0.0,75385.0,75410.0,75515.0,75536.0,75545.0,75564.0,75601.0,75677.0,75787.0,75863.0,0.06265131852042795,-0.1125213361966285,0.05468632859862645,-0.050269231730452495,0.011893112532565238
72,72,76325.57846931447,4347.89955531934,16.693961691587376,76455.54796540085,-8392.708160621862,12.642048984721091,76477.65256823468,43472.92174029811,8.940057406960195,76504.91323784116,-2419.9108641031776,1.611590920628776,76744.78051773089,15200.97191411423,33.95770036050358,0.9620989025642837,133.0,98.0,66.0,278.0,344.0,35.0,924.0,924.0,46.0,22.0,24.0,0.4782608695652174,216.10705770494343,4313.406132291873,20.0,16.0,4.0,0.8,1370.1959617829923,10173.619368433818,20.0,9.0,11.0,0.45,2446.934197830969,48435.70703649052,4.0,2.0,2.0,0.5,762.2429329561023,10624.088974391969,80.0,39.0,41.0,0.4875,153.67078323294038,16798.371344176565,0.0,0.0,0.0,0.0,76308.0,76343.0,76441.0,76459.0,76469.0,76489.0,76503.0,76507.0,76707.0,76785.0,0.04970378339135091,-0.16326028923677802,0.056286398518338686,-0.314988020535455,0.010109273545216919
73,73,78096.3187095812,4379.561544820502,17.979255939881938,78230.972626301,-8548.579503979603,13.010575212532386,78253.64996701265,44123.80903474578,9.116991432314618,78322.12330450071,-1495.9013742947488,12.739827004320285,78518.5102915719,15123.8727305485,33.038376088467075,0.9648067761730648,137.0,94.0,108.0,233.0,341.0,43.0,1776.0,1776.0,43.0,16.0,27.0,0.3720930232558139,167.2559366787985,4832.151195354978,21.0,17.0,4.0,0.8095238095238095,1273.46077011812,8355.66683580445,21.0,10.0,11.0,0.4761904761904761,2388.6345210867908,48744.05844247471,52.0,16.0,36.0,0.3076923076923077,144.1967116686007,1403.941229504131,78.0,38.0,40.0,0.4871794871794871,184.80676042183063,16317.774570910104,0.0,0.0,0.0,0.0,78080.0,78123.0,78217.0,78235.0,78244.0,78265.0,78313.0,78325.0,78481.0,78558.0,0.03819010989275949,-0.14896752957907083,0.054134821388739,-0.09639453118129733,0.01221953951308662
74,74,79002.24660900142,3624.009150908191,12.22218328943293,79137.972626301,-8266.812290567985,17.835757791396183,79160.63996819996,45177.89003218199,9.137057995055514,79245.09593080172,-1975.227687329338,29.443230885517146,79426.49585468274,14451.548911065907,29.904672902994633,0.9507063925058196,137.0,109.0,136.0,201.0,337.0,28.0,901.0,907.0,29.0,14.0,15.0,0.4827586206896552,201.07531894248368,3862.9639484789327,19.0,15.0,4.0,0.7894736842105263,1319.5129829858604,7520.919126098075,21.0,10.0,11.0,0.4761904761904761,2331.7817677142975,48272.67980734602,78.0,33.0,45.0,0.4230769230769231,135.26659514397852,1408.79900077461,77.0,38.0,39.0,0.4935064935064935,270.191029171964,15659.412893192006,0.0,0.0,0.0,0.0,78988.0,79016.0,79125.0,79142.0,79151.0,79172.0,79228.0,79261.0,79394.0,79462.0,0.05548421942921789,-0.15961569424908292,0.051613339313838644,-0.0684815203896162,0.018696337038659715
75,75,80674.36900271452,5121.464104658185,21.64451955797866,80808.972626301,-7680.91271533778,9.92930839490782,80832.25145183346,42323.894880542925,9.075757922091128,80858.99792513328,-1969.261542428461,1.3029138915538627,81094.46492213961,15211.750836413692,35.22642194219634,0.9634197564966696,142.0,93.0,64.0,274.0,338.0,49.0,1683.0,1671.0,50.0,19.0,31.0,0.38,191.5483393861505,5784.036834275609,17.0,13.0,4.0,0.7647058823529411,1183.6466012392154,6968.291791878482,20.0,9.0,11.0,0.45,2409.090251161967,49207.625401458834,4.0,2.0,2.0,0.5,785.6107276684822,9900.943293258822,80.0,39.0,41.0,0.4875,202.17176529235343,16856.13791274265,0.0,0.0,0.0,0.0,80655.0,80704.0,80797.0,80813.0,80823.0,80843.0,80857.0,80861.0,81058.0,81135.0,0.03740108989769728,-0.15410233719693595,0.056920334434283605,-0.3989367134543642,0.013290499395269956
76,76,81543.72372846762,4372.569288946605,16.126194920609514,81679.972626301,-8018.619601803832,16.960504385479517,81702.14539280262,45259.709723531865,8.516705165439465,81731.27398270041,-2633.4743264962117,3.99790344695893,81967.13426674742,14237.19905534012,31.337054555256447,0.9613249480159524,137.0,105.0,67.0,271.0,338.0,32.0,859.0,870.0,38.0,18.0,20.0,0.4736842105263157,181.7724917276058,4450.099521288415,19.0,15.0,4.0,0.7894736842105263,1303.368902884736,7242.492502611563,19.0,9.0,10.0,0.4736842105263157,2517.2870085058116,48849.48065004888,6.0,4.0,2.0,0.6666666666666666,703.1146962618226,9418.25781220922,75.0,37.0,38.0,0.4933333333333333,182.490024739508,15656.481028363083,0.0,0.0,0.0,0.0,81529.0,81561.0,81666.0,81684.0,81693.0,81712.0,81727.0,81733.0,81931.0,82004.0,0.04157109463927936,-0.16254280257808165,0.055618717483665155,-0.26699128568961733,0.01281783193661672
77,77,82448.89408701309,3550.7518646919248,14.050134370875703,82584.972626301,-8004.125902885755,17.8357578060484,82607.03195513105,45213.81039615257,8.560870844386582,82636.69864360057,-2252.947017789764,4.674540569882458,82872.76878526043,14021.28253233584,30.41995483976678,0.954583635260408,138.0,104.0,75.0,266.0,341.0,34.0,909.0,905.0,34.0,17.0,17.0,0.5,145.83926866226136,3418.042592516663,26.0,21.0,5.0,0.8076923076923077,1290.991686540349,8724.9355742881,19.0,9.0,10.0,0.4736842105263157,2463.407097934569,47557.19364078424,17.0,6.0,11.0,0.3529411764705882,542.8548762355862,7070.331831312423,76.0,37.0,39.0,0.4868421052631579,157.85305327761543,14555.303135757027,0.0,0.0,0.0,0.0,82432.0,82466.0,82570.0,82589.0,82598.0,82617.0,82631.0,82645.0,82837.0,82911.0,0.041072785207116935,-0.16129077705723038,0.05448351015653815,-0.24095323678234998,0.011258103737199161
78,78,83419.972626301,3023.9893580631056,10.726210008459692,83556.52832132988,-8118.515028779222,20.383723206912453,83582.23177573217,44005.5255586634,8.62059821616133,83669.28470662459,-2868.6458935233345,36.0690457719448,83849.5209860567,13766.77822913635,29.2711099057724,0.9410046053197209,134.0,109.0,164.0,178.0,342.0,25.0,968.0,975.0,26.0,11.0,15.0,0.4230769230769231,194.23387827868467,3333.678889148553,20.0,13.0,7.0,0.65,998.1444625117028,72.85433950464812,20.0,9.0,11.0,0.45,2381.3312541031655,46572.95192156875,84.0,41.0,43.0,0.4880952380952381,150.61191507619552,2124.076184466706,71.0,35.0,36.0,0.4929577464788732,178.27203200984937,14835.325949773303,0.0,0.0,0.0,0.0,83410.0,83435.0,83544.0,83564.0,83573.0,83593.0,83632.0,83708.0,83815.0,83886.0,0.06423100589318652,-0.12294667916156996,0.0541143691359539,-0.05250279074745284,0.012949437336947147
79,79,84448.80183205624,4133.279269237914,15.907285443986746,84580.972626301,-7593.992837135784,17.835757796038234,84603.72916032904,43759.75794955546,8.79621951327542,84630.81391250581,-2606.592211788966,2.3435830889111693,84872.17950753578,14397.405356838612,32.2981656783972,0.9602701054127112,133.0,101.0,67.0,279.0,346.0,32.0,1031.0,1022.0,35.0,16.0,19.0,0.4571428571428571,152.49958284515418,4597.484575735089,21.0,16.0,5.0,0.7619047619047619,1215.2337946657112,6631.679197695106,19.0,9.0,10.0,0.4736842105263157,2355.29065485912,46554.257534522025,6.0,3.0,3.0,0.5,717.5408460588482,10634.38118415293,80.0,39.0,41.0,0.4875,163.9618849646528,15830.90495457366,0.0,0.0,0.0,0.0,84434.0,84466.0,84567.0,84585.0,84595.0,84614.0,84628.0,84634.0,84834.0,84913.0,0.036895542960316774,-0.16002567038554902,0.05382321030144196,-0.2752792871909883,0.011388293994707364
80,80,85413.22557561277,4240.915671388508,15.1140032656257,85545.972626301,-8447.359699263077,14.155204326572248,85568.24786029493,43481.72329410719,8.561505478001596,85595.94402159721,-3144.381533189332,3.203234161269676,85836.06719005911,14417.22466899224,31.985873494832216,0.9619286670644314,133.0,105.0,67.0,277.0,344.0,28.0,962.0,965.0,38.0,18.0,20.0,0.4736842105263157,199.6073058254428,4011.252230409967,20.0,15.0,5.0,0.75,1285.241285558294,6678.074423769132,19.0,8.0,11.0,0.4210526315789473,2457.7962907923616,48082.19830979557,6.0,3.0,3.0,0.5,761.9300898379502,10682.97953888758,80.0,40.0,40.0,0.5,187.21463823243351,15424.090105736566,0.0,0.0,0.0,0.0,85399.0,85427.0,85532.0,85550.0,85560.0,85579.0,85593.0,85599.0,85796.0,85876.0,0.04706703016334439,-0.15214710055147937,0.05652481329150658,-0.24231477058228615,0.012985483859115013
81,81,86351.3704657454,4168.708850158033,16.06523192337375,86482.972626301,-7796.445133418142,15.466194538183684,86505.23103939148,44364.82313283041,8.636760784280472,86532.39370514275,-2850.8627058560983,2.3546493695698105,86772.2943783395,14960.67485927418,32.833631564768844,0.9597342382360144,134.0,102.0,66.0,277.0,343.0,32.0,940.0,936.0,35.0,17.0,18.0,0.4857142857142857,202.6157498224264,4100.915998319974,20.0,16.0,4.0,0.8,1273.017038319596,7606.564095202632,20.0,9.0,11.0,0.45,2451.008328481522,48191.43025622108,5.0,2.0,3.0,0.4,802.4063653918028,11677.519158113682,81.0,40.0,41.0,0.4938271604938271,151.0187464171726,16047.748015753496,0.0,0.0,0.0,0.0,86335.0,86367.0,86469.0,86487.0,86496.0,86516.0,86530.0,86535.0,86735.0,86812.0,0.04860395798923338,-0.1632817286000031,0.055246660651459945,-0.28146089383523804,0.010094380623716015
82,82,87298.52851593214,3757.383359047851,14.449523384350847,87430.39728720114,-7640.2639105879825,20.383723206909774,87453.45316046415,45133.30475033097,8.778545987524188,87533.82155976782,-2137.570375729073,22.93168860777651,87719.69050347687,14322.933000753465,31.141436546680648,0.9538666327734548,134.0,105.0,123.0,219.0,342.0,29.0,948.0,948.0,29.0,17.0,12.0,0.5862068965517241,205.7699601775296,3966.510511476589,20.0,15.0,5.0,0.75,1166.4102085774175,4797.339090711001,20.0,9.0,11.0,0.45,2416.0119319800665,48631.05595689884,59.0,30.0,29.0,0.5084745762711864,165.74361497951713,2104.19432893449,77.0,39.0,38.0,0.5064935064935064,172.29418359185402,15331.390608150434,0.0,0.0,0.0,0.0,87282.0,87311.0,87416.0,87435.0,87444.0,87464.0,87506.0,87539.0,87682.0,87758.0,0.05476416445025009,-0.1526662196787457,0.05353057892270451,-0.07753831960876892,0.012029252917875858
83,83,89197.36477326024,4036.6238868239634,14.265261124673309,89330.54796540085,-9112.583851087751,15.28779240518434,89352.22679014596,44563.98021979297,8.662885689883185,89381.27398270041,-2520.4877837911386,3.778082609885131,89618.69700453019,14374.3626376903,31.028188261930012,0.960787979057895,135.0,104.0,68.0,272.0,340.0,31.0,1896.0,1900.0,33.0,16.0,17.0,0.4848484848484848,174.16708029638457,4073.56407038836,22.0,18.0,4.0,0.8181818181818182,1422.9496631211491,9677.598475744977,19.0,8.0,11.0,0.4210526315789473,2477.817497452754,49084.45948551822,9.0,4.0,5.0,0.4444444444444444,682.7929643007046,9598.650245212411,75.0,37.0,38.0,0.4933333333333333,149.0470380786277,15113.383096752445,0.0,0.0,0.0,0.0,89181.0,89212.0,89316.0,89334.0,89344.0,89363.0,89377.0,89384.0,89583.0,89656.0,0.04314671992723606,-0.1561521612721615,0.05560135080466261,-0.2708971528017866,0.010368949346513556
84,84,90148.16608686332,4095.480575767218,16.057788371473187,90281.972626301,-8180.636401564609,16.541225597330566,90304.31054580612,44880.62278215355,8.858761284583506,90385.12472935782,-1865.1709813322552,20.383723206912453,90570.30093661504,14851.10950232159,32.13031873441148,0.9614678713202298,135.0,99.0,126.0,217.0,343.0,36.0,952.0,951.0,38.0,19.0,19.0,0.5,151.36828653629271,4007.1378096112626,21.0,17.0,4.0,0.8095238095238095,1288.584162088642,8308.55869515876,20.0,9.0,11.0,0.45,2422.296733305915,48899.58172333405,36.0,12.0,24.0,0.3333333333333333,150.9082333528718,2124.9699894998384,81.0,40.0,41.0,0.4938271604938271,146.33506829238772,15614.170268191116,0.0,0.0,0.0,0.0,90131.0,90167.0,90266.0,90286.0,90295.0,90315.0,90374.0,90392.0,90531.0,90609.0,0.03695983505133252,-0.15751637144540376,0.05397199466378892,-0.08090852520399014,0.009853477160713952
85,85,91166.16925718634,4230.155464907516,16.817186909690758,91299.972626301,-8869.30041948229,12.45016660134322,91322.25558334864,42875.995919377405,9.15988067880608,91383.54796540084,-1256.5430620387654,15.28779240518434,91588.85800355194,14911.199684531608,32.488486785853866,0.9609807248801764,137.0,99.0,123.0,221.0,344.0,38.0,1017.0,1018.0,45.0,19.0,26.0,0.4222222222222222,184.7569244951382,3879.9093134137697,19.0,15.0,4.0,0.7894736842105263,1315.7520489337724,8326.663181058595,20.0,9.0,11.0,0.45,2372.2450129723557,49095.647128722936,37.0,10.0,27.0,0.2702702702702703,182.7759774793117,2074.006027598291,79.0,39.0,40.0,0.4936708860759494,163.95159042041317,16245.583043514383,0.0,0.0,0.0,0.0,91148.0,91186.0,91285.0,91304.0,91313.0,91333.0,91375.0,91408.0,91550.0,91629.0,0.04367615470113166,-0.14834902266289163,0.05532804456444688,-0.14545938217410087,0.01099519783042616
86,86,92202.03142503688,4297.477481659247,15.901646513260957,92333.972626301,-8649.25430223245,14.695755809230407,92356.01232254512,43738.28791607489,8.91657734614588,92383.82660542431,-2657.835617197381,2.5615055952994132,92624.24660091526,14836.010219247672,31.939163947718708,0.9622965570947348,134.0,100.0,67.0,277.0,344.0,34.0,1038.0,1034.0,39.0,16.0,23.0,0.4102564102564102,178.99359258764076,4357.046899911611,20.0,16.0,4.0,0.8,1308.407827761862,8085.248686512284,20.0,9.0,11.0,0.45,2411.9436101792553,48382.170931044486,6.0,3.0,3.0,0.5,733.2492778972257,10095.921501829776,80.0,40.0,40.0,0.5,149.87915443064304,15766.370691722565,0.0,0.0,0.0,0.0,92186.0,92220.0,92320.0,92338.0,92347.0,92367.0,92381.0,92387.0,92586.0,92664.0,0.04165085060981674,-0.15127406155975207,0.05514490221490373,-0.27588210239669303,0.01010238953840808
87,87,93192.48579707072,4268.037838759644,16.860497385208642,93324.39728720114,-8494.485893410072,14.104714414751395,93347.06572833768,44417.22704137883,8.785721554040412,93427.82194810128,-1425.4352692142293,22.93168860777651,93614.17759309612,14927.309669309216,32.59945766636299,0.9602683895123504,138.0,94.0,122.0,221.0,343.0,44.0,993.0,991.0,45.0,19.0,26.0,0.4222222222222222,231.87153058394557,4263.830613512091,19.0,14.0,5.0,0.7368421052631579,1233.4423204981242,5214.382512321272,20.0,9.0,11.0,0.45,2464.5592330860336,49443.293346866114,36.0,27.0,9.0,0.75,133.50445696051858,1703.9419728183443,82.0,41.0,41.0,0.5,203.90480626954243,16205.598912585065,0.0,0.0,0.0,0.0,93173.0,93217.0,93311.0,93329.0,93338.0,93358.0,93414.0,93433.0,93578.0,93654.0,0.05432743085786019,-0.14520505843149556,0.055486562247347514,-0.09365872996401504,0.013659849684017338
88,88,94240.50234622718,3743.511812659126,15.365148453823137,94372.39728720114,-8398.337628238205,14.604355775484573,94394.9242880512,43856.7770135011,8.923680064990823,94477.0096275534,-1711.4634054680537,27.52068525795024,94662.2944412897,14842.939048576924,31.978486878888138,0.9605091163389488,136.0,102.0,140.0,202.0,342.0,34.0,1047.0,1048.0,34.0,17.0,17.0,0.5,151.23057024656202,3947.517495316767,20.0,15.0,5.0,0.75,1229.4325619084375,6674.8056646162095,20.0,9.0,11.0,0.45,2378.136493094083,47919.07007799248,55.0,31.0,24.0,0.5636363636363636,132.33191844352686,1916.231776951239,79.0,39.0,40.0,0.4936708860759494,188.94112546809825,15172.941103373429,0.0,0.0,0.0,0.0,94224.0,94258.0,94360.0,94377.0,94386.0,94406.0,94461.0,94500.0,94624.0,94702.0,0.04039804809354629,-0.1463899900588239,0.05422506292156364,-0.07732091613570699,0.01272936073170853
89,89,95249.1108397924,4441.291907804031,16.55350225498255,95380.97262630097,-8948.270121557925,11.177415742765742,95403.04617438844,42975.128213974895,8.927167137869557,95429.95018755802,-2725.0115226964126,1.940800764821918,95669.90975745616,15515.831064894215,34.505439836066856,0.9646502148482764,137.0,106.0,65.0,278.0,343.0,31.0,1004.0,1008.0,42.0,18.0,24.0,0.4285714285714285,215.3128573577957,4394.931091069868,18.0,14.0,4.0,0.7777777777777778,1336.0433159491183,8179.504408321476,20.0,9.0,11.0,0.45,2424.047997798486,49042.3397653678,5.0,2.0,3.0,0.4,799.6741681619208,11188.798571808778,84.0,42.0,42.0,0.5,177.23444967181942,16547.294217908493,0.0,0.0,0.0,0.0,95231.0,95262.0,95368.0,95385.0,95394.0,95414.0,95428.0,95433.0,95630.0,95711.0,0.048479780619566565,-0.14930744130425383,0.05640583515490759,-0.2934571694473567,0.011422813829987248
90,90,96176.85872293476,3516.564329413683,14.061737651176914,96309.972626301,-8608.431107469945,17.835757805939572,96331.88103111484,45843.88543789035,8.724874812904298,96359.40718084594,-2700.5535741689973,2.5286665457214483,96598.355447619,14722.654997994254,30.673900955059,0.9576116555787724,134.0,105.0,68.0,272.0,340.0,29.0,934.0,929.0,29.0,16.0,13.0,0.5517241379310345,143.41853290245268,3621.0356946407337,23.0,19.0,4.0,0.8260869565217391,1349.4368944748446,8817.460270710926,19.0,9.0,10.0,0.4736842105263157,2498.3429195668277,48696.08564073293,7.0,3.0,4.0,0.4285714285714285,814.7546195955696,10814.948973176331,75.0,37.0,38.0,0.4933333333333333,140.2839343051888,15633.272169748794,0.0,0.0,0.0,0.0,96161.0,96190.0,96295.0,96314.0,96323.0,96342.0,96356.0,96363.0,96562.0,96635.0,0.04078370803652122,-0.15675758772163187,0.054496753399133284,-0.301699113614616,0.009528439967132317
91,91,97105.84487498396,3527.6391339955917,14.064199161193162,97239.972626301,-8627.08591600053,17.835757805846686,97261.96483194122,45702.979950133915,8.967106905309276,97344.84605547428,-1936.282701135452,30.153718058330615,97527.5612838228,14498.28139301992,30.64175865927421,0.9550208134145656,133.0,104.0,145.0,197.0,342.0,29.0,926.0,930.0,30.0,16.0,14.0,0.5333333333333333,173.2544980011374,3659.4315444793633,22.0,18.0,4.0,0.8181818181818182,1355.5025439868002,8847.755771661174,20.0,9.0,11.0,0.45,2419.00537104733,48916.38189329088,58.0,33.0,25.0,0.5689655172413793,124.05706830468732,2240.696318047814,76.0,37.0,39.0,0.4868421052631579,189.3395328588119,15122.983518788436,0.0,0.0,0.0,0.0,97091.0,97120.0,97224.0,97244.0,97253.0,97273.0,97313.0,97369.0,97492.0,97566.0,0.04911344143211727,-0.1571217160910348,0.05292883251128665,-0.06406970853581413,0.013059446683795769
92,92,98062.91653407684,4400.67436483851,17.890387952955084,98196.972626301,-9059.107836946896,10.654871229134764,98219.44387378222,43006.950152153135,9.31313047777581,98279.84932180028,-1178.5454285626854,5.0959308017280955,98483.73209936716,15603.75798444081,33.684807903277026,0.9626522777161252,138.0,95.0,100.0,240.0,340.0,43.0,957.0,957.0,43.0,17.0,26.0,0.3953488372093023,170.0402446528314,4799.864561447713,19.0,15.0,4.0,0.7894736842105263,1348.8350237213433,8997.503056891193,21.0,9.0,12.0,0.4285714285714285,2383.1649481239274,50164.13247362396,15.0,8.0,7.0,0.5333333333333333,172.29442307336683,2415.3900916688385,82.0,41.0,41.0,0.5,160.9213110913469,16636.27251260418,0.0,0.0,0.0,0.0,98046.0,98089.0,98184.0,98201.0,98210.0,98231.0,98277.0,98284.0,98444.0,98524.0,0.03863958806210632,-0.1488926998109262,0.0554134840925151,-0.1461924325509381,0.010312984298513767
93,93,99020.8265073749,3979.019654588368,15.528261963218926,99154.972626301,-8901.547974905221,14.188941308644594,99176.82483253076,44615.65783930599,8.915545127647174,99204.41784703806,-2578.125505197626,2.387257765023595,99442.10125889596,14591.79542925859,31.96385100586394,0.9622098276956156,137.0,103.0,66.0,275.0,341.0,34.0,959.0,958.0,34.0,17.0,17.0,0.5,157.51567177979558,4191.15165433679,20.0,16.0,4.0,0.8,1373.5884807811433,8617.93475335676,20.0,9.0,11.0,0.45,2440.724480344273,48851.02882217549,5.0,2.0,3.0,0.4,785.775213674195,11260.22646289448,78.0,38.0,40.0,0.4871794871794871,181.8176983163783,15630.83872957461,0.0,0.0,0.0,0.0,99004.0,99038.0,99141.0,99159.0,99168.0,99188.0,99202.0,99207.0,99404.0,99482.0,0.039586552832971786,-0.1543089454388711,0.05470555850896851,-0.3047854777007691,0.012460269142192634
94,94,99993.98415471509,3849.449080107188,15.17815417389168,100127.972626301,-8380.34372091948,15.16972650165162,100150.6344121494,44512.69630700584,8.997738046538768,100210.2739827004,-1406.8559880858722,7.64389620259217,100415.45499370396,15149.950978647968,32.04700148821568,0.9597759816279527,138.0,104.0,100.0,240.0,340.0,34.0,969.0,974.0,34.0,17.0,17.0,0.5,214.50617168480397,3802.2785447611886,21.0,16.0,5.0,0.7619047619047619,1283.3152501587954,7639.019386532158,21.0,10.0,11.0,0.4761904761904761,2385.080024437082,48194.13213148144,13.0,8.0,5.0,0.6153846153846154,198.26684871413585,2389.3071403049685,76.0,36.0,40.0,0.4736842105263157,191.87452796075752,16851.106956760166,0.0,0.0,0.0,0.0,99977.0,100011.0,100115.0,100132.0,100141.0,100162.0,100206.0,100215.0,100379.0,100455.0,0.055723862615382626,-0.15313396358138778,0.05358201642037342,-0.14092902926325246,0.012665026324585575
95,95,101058.11252205708,4237.772404146729,16.9808318343298,101190.972626301,-8806.892795605514,11.180471002458,101214.13418283428,43329.73653956268,9.14086664552356,101294.39728720114,-1191.1802980616546,17.754071276321035,101481.95881659626,15486.18368984142,32.37960442066095,0.9636302092748484,139.0,103.0,120.0,220.0,340.0,36.0,1064.0,1063.0,44.0,18.0,26.0,0.4090909090909091,166.354318777842,4004.534330055031,19.0,14.0,5.0,0.7368421052631579,1258.745360911833,7189.742886396206,20.0,9.0,11.0,0.45,2446.895549506377,50169.914228624126,51.0,27.0,24.0,0.5294117647058824,133.3741992966452,1120.4360775137786,80.0,42.0,38.0,0.525,171.60077333236276,16594.73547353199,0.0,0.0,0.0,0.0,101040.0,101076.0,101179.0,101195.0,101205.0,101225.0,101281.0,101299.0,101443.0,101519.0,0.039255132865337834,-0.14292729457771133,0.0564715076740015,-0.1119681038325416,0.011080894865332697
96,96,102192.83464230783,4610.440731066729,18.278960149748997,102325.972626301,-9425.549212276184,10.327661083137034,102348.44613570592,42935.5041138151,9.250787366343172,102422.2739827004,-1116.9387648438378,7.64389620259217,102616.23839934936,15568.242393314084,33.53103345652783,0.9672386841469692,139.0,95.0,118.0,224.0,342.0,44.0,1138.0,1134.0,45.0,18.0,27.0,0.4,178.40351843793528,4690.190356305501,16.0,12.0,4.0,0.75,1360.3631836705783,8054.241423050196,21.0,9.0,12.0,0.4285714285714285,2411.7740148439775,50349.28415654754,14.0,4.0,10.0,0.2857142857142857,172.21220667946272,677.9506023921972,82.0,40.0,42.0,0.4878048780487805,161.0706103081867,16414.067419911273,0.0,0.0,0.0,0.0,102175.0,102219.0,102314.0,102330.0,102339.0,102360.0,102418.0,102432.0,102578.0,102656.0,0.03869554535985925,-0.14432720608988928,0.05617202044375101,-0.15418231697199639,0.010346101135819921
97,97,103305.12436167304,3667.376942149516,14.615994855039135,103437.972626301,-9278.245954058772,12.85941927899327,103460.3523064012,43668.81365420576,9.093019873078738,103520.54796540084,-1627.6805623677894,15.28779240518434,103729.05985598516,15164.127834257504,31.67243956343078,0.9607020467985512,134.0,106.0,159.0,185.0,344.0,28.0,1112.0,1112.0,31.0,15.0,16.0,0.4838709677419355,214.41031359550556,4436.768804626747,19.0,15.0,4.0,0.7894736842105263,1360.7493300638066,7948.0118587802335,21.0,9.0,12.0,0.4285714285714285,2420.2286900921154,49926.693389020234,82.0,11.0,71.0,0.1341463414634146,179.19737911869626,2158.2172091965685,80.0,40.0,40.0,0.5,198.1461310263544,16199.611362693584,0.0,0.0,0.0,0.0,103290.0,103318.0,103424.0,103442.0,103451.0,103472.0,103512.0,103583.0,103691.0,103768.0,0.05846421488101406,-0.14666019167863797,0.05542235951855363,-0.11009370220531328,0.01306676738629963
98,98,104427.59541477334,4069.627856982299,15.284700908353466,104559.54796540084,-9160.943337775388,13.76365756123155,104581.74289783172,44208.28482416487,9.10416646748897,104671.00684395862,-1658.6186452745712,27.732531497190248,104851.37216141916,15453.2191865075,31.916035192745166,0.9627687118384124,133.0,101.0,151.0,193.0,344.0,32.0,1122.0,1122.0,38.0,18.0,20.0,0.4736842105263157,174.8842870144987,4329.500296501517,21.0,17.0,4.0,0.8095238095238095,1403.675968039283,9514.634489090937,20.0,9.0,11.0,0.45,2424.777279178573,49228.960759402195,92.0,40.0,52.0,0.4347826086956521,116.2557957879208,991.4639524375154,76.0,37.0,39.0,0.4868421052631579,196.6931239616414,17277.113340910353,0.0,0.0,0.0,0.0,104413.0,104445.0,104546.0,104563.0,104573.0,104593.0,104632.0,104697.0,104814.0,104890.0,0.04297304155574031,-0.15322395481382234,0.05484893360651612,-0.07009193832418034,0.012728294447112865
99,99,105506.67535647668,4454.710811647377,17.035969238591257,105637.39728720114,-8749.132318294442,10.296387722420372,105660.36747320349,42462.97030156859,9.118028298868962,105743.82194810128,-1565.8265041396314,22.931688607741354,105930.58082100908,15601.167314492786,32.694457963882535,0.9691009310252032,136.0,100.0,144.0,200.0,344.0,36.0,1079.0,1078.0,38.0,18.0,20.0,0.4736842105263157,200.5943116558033,4725.234684275018,17.0,12.0,5.0,0.7058823529411765,1211.2044957542064,6362.456891197618,21.0,9.0,12.0,0.4285714285714285,2415.1037550233814,49692.43847142342,73.0,13.0,60.0,0.1780821917808219,182.0304127224153,1671.9918683780634,78.0,38.0,40.0,0.4871794871794871,150.24631750871413,16663.23757825957,0.0,0.0,0.0,0.0,105490.0,105526.0,105626.0,105642.0,105651.0,105672.0,105731.0,105770.0,105893.0,105970.0,0.0450297045391421,-0.13843709886768737,0.056875525613764404,-0.11625196804446405,0.009630453573120906
100,100,106486.11829685596,4011.8279388250794,15.305609410942123,106616.972626301,-9341.998114551654,11.68014439814658,106639.56232874047,43387.32290957485,8.841527334102343,106666.75879108012,-2563.822920398288,2.160090263859703,106907.76932935098,15532.397414156238,32.3631559991276,0.9608949022708644,134.0,105.0,65.0,276.0,341.0,29.0,980.0,980.0,29.0,15.0,14.0,0.5172413793103449,206.53381258430193,4396.660342153669,20.0,15.0,5.0,0.75,1291.9824664600862,6229.024275578677,19.0,9.0,10.0,0.4736842105263157,2483.252186184109,48473.319399869986,5.0,2.0,3.0,0.4,741.1885873866686,10578.833587976227,77.0,37.0,40.0,0.4805194805194805,179.8150904289705,16798.280627052296,0.0,0.0,0.0,0.0,106471.0,106500.0,106605.0,106621.0,106631.0,106650.0,106665.0,106670.0,106871.0,106946.0,0.05148122395418291,-0.138298300922114,0.057234510443512465,-0.2890950780920258,0.011576776310467494
101,101,107451.08337630176,3477.5129619096033,13.66361264725738,107582.972626301,-9023.00205615507,17.835757805770125,107605.54517287784,45602.8958439057,8.927431616328457,107693.50057896052,-2387.353782516143,34.56705749955921,107875.80813839656,14633.00420029396,29.293229474906557,0.9528201095509744,132.0,105.0,147.0,195.0,342.0,27.0,964.0,965.0,31.0,17.0,14.0,0.5483870967741935,178.46620849862023,3369.2338755000733,21.0,16.0,5.0,0.7619047619047619,1319.131183275401,6779.465300953789,21.0,10.0,11.0,0.4761904761904761,2408.726119937564,47807.26299420632,79.0,38.0,41.0,0.4810126582278481,152.99699043465336,1836.927365598769,73.0,38.0,35.0,0.5205479452054794,174.34687700900656,15162.63552420758,0.0,0.0,0.0,0.0,107436.0,107463.0,107568.0,107587.0,107596.0,107617.0,107657.0,107715.0,107838.0,107910.0,0.05132006996190153,-0.1461964848357262,0.05281958690041089,-0.06408643392325486,0.01191463315547358
102,102,108408.5808620411,3556.9763180556756,13.698319632763738,108542.39728720114,-8139.483946600134,20.383723206734164,108565.14263785991,45937.45006471529,8.959308614554278,108652.09826895436,-2351.3287554198077,31.27864129882773,108831.60955509562,14826.308402201324,30.964454225824753,0.9527514560590782,134.0,107.0,163.0,178.0,341.0,27.0,959.0,960.0,33.0,17.0,16.0,0.5151515151515151,188.79029500065045,3389.6630518278153,19.0,14.0,5.0,0.7368421052631579,1274.7841820409171,5682.263269516799,20.0,9.0,11.0,0.45,2434.10227573605,49241.86416197888,92.0,38.0,54.0,0.4130434782608695,152.40377434449871,1402.1190200422277,81.0,41.0,40.0,0.5061728395061729,177.13429878567962,15492.57948191074,0.0,0.0,0.0,0.0,108394.0,108421.0,108528.0,108547.0,108556.0,108576.0,108616.0,108691.0,108796.0,108869.0,0.0530760618344087,-0.156617322474528,0.05298731802281059,-0.064816021151108,0.011947296250722786
103,103,109351.5319566149,4051.1703020353034,16.633728481757615,109485.972626301,-8981.071185435814,13.227922051937464,109508.00872945946,43794.882895068215,9.101926075623236,109535.14675569846,-2142.447392871908,1.6149582935604674,109773.702514887,15314.88282171891,32.530227101201014,0.9597199139783424,138.0,105.0,64.0,275.0,339.0,33.0,942.0,943.0,36.0,19.0,17.0,0.5277777777777778,134.47312626423863,4075.260223907532,20.0,16.0,4.0,0.8,1357.4214327961856,8910.142884242468,20.0,9.0,11.0,0.45,2417.719316771178,49153.924486546326,4.0,2.0,2.0,0.5,811.6290163826935,10929.488945298635,80.0,40.0,40.0,0.5,163.58895693359287,16283.434053416358,0.0,0.0,0.0,0.0,109335.0,109368.0,109473.0,109490.0,109499.0,109519.0,109533.0,109537.0,109735.0,109812.0,0.03319364930096359,-0.15114248676677375,0.05520552075830393,-0.37883264675858436,0.010681698243332169
104,104,110331.09593080172,3671.3964946975384,14.826006934232884,110465.972626301,-8252.830639264734,17.835757806045418,110488.45723746713,45092.56995574039,8.601186605770101,110515.84932180028,-2902.98369150888,2.8310245218765404,110755.13101692002,14862.138457911196,31.656157969729392,0.9549708423556074,138.0,104.0,68.0,274.0,342.0,34.0,976.0,981.0,34.0,17.0,17.0,0.5,161.37208644606355,3811.839153555779,20.0,16.0,4.0,0.8,1278.136679079934,6583.6052225221965,19.0,8.0,11.0,0.4210526315789473,2472.1358330842418,48904.599138333666,7.0,3.0,4.0,0.4285714285714285,731.5903382630983,10974.141613032503,80.0,40.0,40.0,0.5,174.62195814481888,16023.846642071065,0.0,0.0,0.0,0.0,110314.0,110348.0,110452.0,110470.0,110480.0,110499.0,110513.0,110520.0,110716.0,110794.0,0.04395387059913775,-0.15487252010224295,0.054823573717592756,-0.2520132443054961,0.011749450366065367
105,105,111352.90096493096,3663.790677107172,13.367100746837435,111489.54796540084,-8832.343170515232,15.287792405130425,111511.12247059126,45128.27078671315,8.784898096392277,111593.9831036934,-2120.1052480011317,31.788768536793448,111778.4285193214,15113.499846962552,31.471817419632085,0.9580012333787504,136.0,107.0,161.0,181.0,342.0,29.0,1024.0,1022.0,36.0,17.0,19.0,0.4722222222222222,235.22675633439485,3182.7276013064193,22.0,18.0,4.0,0.8181818181818182,1441.863946378589,10906.532750039229,20.0,9.0,11.0,0.45,2475.5442798904996,49008.8906298327,73.0,32.0,41.0,0.4383561643835616,169.55928823224693,2469.0018062640224,79.0,39.0,40.0,0.4936708860759494,175.41373279315454,15710.069809981833,0.0,0.0,0.0,0.0,111338.0,111367.0,111474.0,111493.0,111502.0,111522.0,111562.0,111635.0,111741.0,111816.0,0.06420311012967679,-0.163248179847894,0.054855730936168724,-0.07997682586376788,0.011606427006938995
106,106,112526.1827049773,3859.6260812461223,14.99930707291446,112658.972626301,-8597.978366520896,13.383848306240326,112681.46590529715,44120.77038685619,9.020694454038168,112758.45203459916,-1256.5979580167868,15.28779240518434,112950.82893237028,15618.858750389529,32.8039482492885,0.9569707662533982,135.0,103.0,122.0,223.0,345.0,32.0,1174.0,1170.0,37.0,17.0,20.0,0.4594594594594595,178.87354881417295,3329.426792723517,19.0,15.0,4.0,0.7894736842105263,1311.367658435465,7615.395987138392,20.0,9.0,11.0,0.45,2451.9506199481225,50519.591132830465,32.0,22.0,10.0,0.6875,138.5291813664804,1002.4752306277044,81.0,41.0,40.0,0.5061728395061729,194.8177464271433,16860.495576113597,0.0,0.0,0.0,0.0,112510.0,112542.0,112645.0,112663.0,112672.0,112692.0,112736.0,112767.0,112914.0,112990.0,0.046344787046423336,-0.15252046498996946,0.055573613027359366,-0.11024145032442413,0.012473238252589013
107,107,113646.24866176088,3698.4014367772374,13.579667823404138,113780.39728720114,-8653.2516210467,16.397677078377956,113802.86029808846,45791.411220648886,8.592528082170864,113830.75340092192,-2927.226349615279,3.097891791013355,114073.3324623593,15173.730647357292,31.502979385921556,0.9633777174231636,136.0,106.0,67.0,279.0,346.0,30.0,1119.0,1122.0,31.0,15.0,16.0,0.4838709677419355,160.51021482293336,3745.308229194348,18.0,13.0,5.0,0.7222222222222222,1270.0950867118909,4750.269677089309,19.0,9.0,10.0,0.4736842105263157,2561.848024807337,49552.07821133321,7.0,4.0,3.0,0.5714285714285714,733.6872605432659,10364.783010334437,78.0,37.0,41.0,0.4743589743589743,198.93072922968295,16363.56190191346,0.0,0.0,0.0,0.0,113631.0,113661.0,113767.0,113785.0,113794.0,113813.0,113827.0,113834.0,114037.0,114113.0,0.04339988980828455,-0.1467766271377949,0.05594603783803268,-0.25064247615825586,0.013110205647701371
108,108,114718.77874733871,3364.8195138711403,12.62530555449755,114852.972626301,-8373.791321381737,17.835757806047575,114875.31666709788,46325.92942686348,8.815804641964586,114962.70753383858,-2212.2826463238243,34.970335638927715,115145.45735644131,14722.602389078666,30.07159621449779,0.9552365410216368,134.0,107.0,143.0,201.0,344.0,27.0,1074.0,1072.0,28.0,14.0,14.0,0.5,174.6394433550903,3429.7964870466394,20.0,16.0,4.0,0.8,1352.884854238246,8119.072059719452,20.0,9.0,11.0,0.45,2476.065078186023,49582.61437684,97.0,40.0,57.0,0.4123711340206185,129.39761025529734,1848.7581251213985,77.0,38.0,39.0,0.4935064935064935,141.270245896635,15846.327449269224,0.0,0.0,0.0,0.0,114705.0,114732.0,114839.0,114857.0,114866.0,114886.0,114926.0,114982.0,115111.0,115183.0,0.05190157826746909,-0.16156180663157604,0.05344879441857896,-0.05849054164499226,0.009595467035191435
109,109,115806.25077222094,3937.06518112099,16.235741692251906,115937.972626301,-8894.436705063566,12.225604036402103,115960.84023841708,43925.13972759706,9.15368785772968,116040.54796540084,-1320.5847344808778,15.287792405182424,116230.6791174172,15569.631952478636,33.06652993629592,0.9619121129877684,134.0,102.0,123.0,222.0,345.0,32.0,1085.0,1086.0,32.0,15.0,17.0,0.46875,152.88181700573963,4436.168956389469,19.0,15.0,4.0,0.7894736842105263,1284.4334874841295,7619.819520837766,20.0,9.0,11.0,0.45,2426.1035459443037,49686.5796353371,33.0,13.0,20.0,0.3939393939393939,121.47259765042077,1369.3225101128044,80.0,40.0,40.0,0.5,174.07202080078744,16514.94431914136,0.0,0.0,0.0,0.0,115791.0,115823.0,115925.0,115942.0,115952.0,115972.0,116032.0,116048.0,116192.0,116270.0,0.03883141628917863,-0.14440863767717935,0.05523268818243608,-0.09198394807900886,0.011180227081287925
110,110,116830.84675698292,3883.9132353296886,14.227408821243117,116962.39728720114,-9017.948347496827,16.01356456259159,116984.79607833362,44961.96141573336,8.80978832279979,117012.43577519208,-2929.325254201229,2.7675227470111072,117255.1528574914,15310.753821184766,31.89821286486639,0.960542208374906,131.0,101.0,68.0,277.0,345.0,30.0,1026.0,1024.0,32.0,15.0,17.0,0.46875,173.6779014693684,4143.203849562565,20.0,15.0,5.0,0.75,1264.8938354564093,4928.607996756757,20.0,9.0,11.0,0.45,2454.2917591949285,48553.046158573154,7.0,3.0,4.0,0.4285714285714285,793.5010662706792,11664.674673945075,76.0,37.0,39.0,0.4868421052631579,169.80013224357415,16553.239819457398,0.0,0.0,0.0,0.0,116817.0,116847.0,116948.0,116967.0,116976.0,116996.0,117009.0,117016.0,117218.0,117293.0,0.04471724545479597,-0.1402640364210463,0.054585958483922094,-0.2708818575651995,0.011090252918091448
111,111,117795.8028432319,3907.0297118020694,14.127040560828718,117927.972626301,-9008.484769771929,17.835757800956664,117949.3601488029,46844.68971447362,8.726474883921446,117976.84932180028,-2878.935771886738,2.707550099976751,118218.54028035534,15199.00181949044,30.900705915135248,0.9545846586395824,134.0,101.0,67.0,276.0,343.0,33.0,964.0,965.0,35.0,18.0,17.0,0.5142857142857142,151.3871962706144,3747.456005861945,20.0,16.0,4.0,0.8,1454.2791162587969,9710.441668836604,19.0,8.0,11.0,0.4210526315789473,2531.6996800284955,50126.50426773424,6.0,3.0,3.0,0.5,744.8784771230011,11121.017960475589,74.0,37.0,37.0,0.5,167.97865992580196,16261.675141384538,0.0,0.0,0.0,0.0,117779.0,117812.0,117913.0,117932.0,117941.0,117960.0,117974.0,117980.0,118182.0,118256.0,0.038747388025567105,-0.16143437586070486,0.05404453942292365,-0.2587339684326607,0.011051953405939759
112,112,118737.54647810628,4024.201325137497,16.349817473772195,118870.972626301,-8025.463321328093,17.83575780193276,118893.60111099672,46217.529998410944,8.970328066170351,118975.82194810128,-1738.596213889714,22.93168860777651,119160.957663762,15178.497602268417,32.21003709350691,0.960273923870088,136.0,105.0,126.0,217.0,343.0,31.0,945.0,943.0,31.0,17.0,14.0,0.5483870967741935,163.83966308727898,3879.390652797205,21.0,17.0,4.0,0.8095238095238095,1312.4284791824148,8250.43531950598,21.0,10.0,11.0,0.4761904761904761,2415.880669737299,48637.19434909691,53.0,31.0,22.0,0.5849056603773585,148.8335762414378,1573.2118246674056,80.0,40.0,40.0,0.5,179.5677968352365,15806.288424263365,0.0,0.0,0.0,0.0,118721.0,118752.0,118857.0,118875.0,118884.0,118905.0,118963.0,118983.0,119122.0,119200.0,0.040713585094225124,-0.16353304807892732,0.052271955464092565,-0.08560560241210724,0.011830406509297745
113,113,119681.45992463864,4042.2734065229033,15.029299350122852,119814.972626301,-9052.60319768446,13.83981094916706,119837.40002809952,44508.14022934288,9.085331568630576,119904.67126990156,-1616.435983965205,28.027619409504627,120105.0608948329,15144.714226297556,31.230011861502863,0.9630775861698492,138.0,103.0,160.0,181.0,341.0,35.0,941.0,944.0,35.0,17.0,18.0,0.4857142857142857,136.01563879356834,4073.624112361101,20.0,16.0,4.0,0.8,1338.7340295275867,7894.543531799838,20.0,9.0,11.0,0.45,2441.1848293751445,50532.31558344032,78.0,18.0,60.0,0.2307692307692307,131.19521493612535,1488.8738923982448,77.0,38.0,39.0,0.4935064935064935,159.34146181574707,16120.387401627384,0.0,0.0,0.0,0.0,119664.0,119699.0,119802.0,119819.0,119828.0,119848.0,119889.0,119962.0,120069.0,120143.0,0.033648302604688665,-0.14788387387508795,0.054848052890912415,-0.08116326055443061,0.010521259063380917
114,114,120596.4296525521,4092.2659755523982,15.692717320649963,120730.39728720114,-8060.569436155208,16.294396822994152,120753.46154019304,44719.628107222896,8.70485413579677,120780.84932180028,-2783.117035211528,2.460172694945689,121019.13843974966,14866.794831274394,31.653055575348983,0.9601553589078248,137.0,106.0,67.0,274.0,341.0,31.0,919.0,916.0,31.0,16.0,15.0,0.5161290322580645,194.43022404688628,4130.9058013929625,18.0,13.0,5.0,0.7222222222222222,1161.7268394360444,4384.783352647647,19.0,8.0,11.0,0.4210526315789473,2463.823118539652,49737.32745867269,6.0,3.0,3.0,0.5,740.9594204097084,10612.707521458777,80.0,40.0,40.0,0.5,146.77707944125444,15330.390948550204,0.0,0.0,0.0,0.0,120580.0,120611.0,120717.0,120735.0,120745.0,120764.0,120778.0,120784.0,120980.0,121058.0,0.047511629304749906,-0.14412466124603895,0.05509489284285232,-0.26623365493984424,0.00987281260736095
115,115,121538.54796540084,3175.6567689946323,13.11504480957494,121678.972626301,-8981.263726913348,17.83575780604657,121701.40200259292,45104.49276392819,8.821923447019547,121789.03002084066,-2629.5559892838887,37.331917320199736,121968.24093780517,14777.53320449187,29.982738035351733,0.9524272250270134,133.0,105.0,168.0,174.0,342.0,28.0,939.0,948.0,30.0,11.0,19.0,0.3666666666666666,195.86028423490455,3784.679386503036,23.0,18.0,5.0,0.782608695652174,1282.7503757328357,6832.306007583698,19.0,8.0,11.0,0.4210526315789473,2428.9563917401415,48809.793779551765,96.0,40.0,56.0,0.4166666666666667,115.37963605770352,2375.721815139227,76.0,38.0,38.0,0.5,147.92543160019838,15721.77421350574,0.0,0.0,0.0,0.0,121530.0,121558.0,121663.0,121683.0,121693.0,121712.0,121751.0,121831.0,121933.0,122005.0,0.06167552052450276,-0.14282515409150412,0.05385176160727545,-0.043877991770437656,0.010010157280867016
116,116,122781.43097923962,3582.435592002938,14.307312528734569,122912.39728720114,-9022.904691583017,13.92108027183646,122935.1484861222,44116.46151521711,8.915947543976994,123023.28883873428,-2209.7292844548515,32.396841135268154,123206.03781119052,15205.593032220168,32.26669189763626,0.9629460055308432,133.0,102.0,147.0,200.0,347.0,31.0,1244.0,1234.0,31.0,15.0,16.0,0.4838709677419355,155.12543821340878,3996.8945087498814,20.0,14.0,6.0,0.7,1229.5518755480844,5481.878693004618,20.0,9.0,11.0,0.45,2456.3874704201876,49545.464642995,95.0,39.0,56.0,0.4105263157894737,146.03161003181077,1600.970458001378,81.0,40.0,41.0,0.4938271604938271,168.30597154114216,16264.976995337034,0.0,0.0,0.0,0.0,122766.0,122797.0,122899.0,122917.0,122926.0,122946.0,122987.0,123046.0,123167.0,123246.0,0.04330166844023516,-0.13627007239642763,0.05567961223664561,-0.06608574681936087,0.011068688421721347
117,117,123982.67731561244,4197.07316429395,17.770809419289066,124115.972626301,-8720.637234509688,11.281937070326949,124138.32602306407,43989.46474277274,8.883827087746601,124216.84932180028,-1319.4176696553616,5.0959308017273495,124408.11695542818,15643.312325832714,33.89509036466913,0.9624089526648694,137.0,100.0,122.0,224.0,346.0,37.0,1201.0,1203.0,38.0,17.0,21.0,0.4473684210526316,207.92196014138156,4648.882984476997,17.0,13.0,4.0,0.7647058823529411,1314.4153374216116,7647.719473566408,20.0,9.0,11.0,0.45,2519.9357070351266,50777.68388352364,11.0,3.0,8.0,0.2727272727272727,148.5737692569408,1381.528167961996,82.0,40.0,42.0,0.4878048780487805,189.1751220749841,16844.515681551533,0.0,0.0,0.0,0.0,123966.0,124003.0,124103.0,124120.0,124129.0,124149.0,124214.0,124225.0,124371.0,124449.0,0.04953975115569831,-0.15072468927157634,0.05728498225132735,-0.11260556279782809,0.012093034910681172
118,118,125143.67843385974,3815.929108694507,15.472797750444911,125275.39728720114,-8453.032874766675,13.773823232006803,125298.32290391347,44208.329150435544,8.986162496661162,125378.972626301,-1784.8951499932318,17.8357578060484,125568.68644141192,15603.031428614146,32.06574464816247,0.9575652726115932,135.0,101.0,144.0,202.0,346.0,34.0,1159.0,1160.0,35.0,17.0,18.0,0.4857142857142857,180.92852087125553,4002.650446905837,19.0,14.0,5.0,0.7368421052631579,1201.9048839393065,5386.577648918554,20.0,9.0,11.0,0.45,2438.196319659664,50233.41535816357,39.0,10.0,29.0,0.2564102564102564,144.07135767327492,1715.1016575641538,79.0,39.0,40.0,0.4936708860759494,191.63364613785168,16644.422076612034,0.0,0.0,0.0,0.0,125127.0,125161.0,125262.0,125280.0,125289.0,125309.0,125369.0,125406.0,125531.0,125608.0,0.04741401522869333,-0.14218623087662866,0.05515241961221334,-0.0807169864705057,0.01228182145338872
119,119,126274.3426639634,4107.77432979182,15.756007004095087,126404.972626301,-9012.879018775342,12.033744575930571,126427.36008878217,43053.687521127846,8.930085146814312,126454.62277058684,-2606.459652912524,1.92625572676774,126699.07496415946,15527.46896809956,32.5315225343174,0.9640701172086914,134.0,103.0,65.0,283.0,348.0,31.0,1133.0,1129.0,38.0,17.0,21.0,0.4473684210526316,177.3754078046399,4250.137331951842,19.0,14.0,5.0,0.7368421052631579,1307.4608170974536,7523.973056932634,20.0,9.0,11.0,0.45,2450.1459162105384,49405.38958053423,4.0,2.0,2.0,0.5,761.2276230447972,10530.78383298753,78.0,37.0,41.0,0.4743589743589743,197.04981751732703,16783.79098964003,0.0,0.0,0.0,0.0,126258.0,126289.0,126392.0,126409.0,126418.0,126438.0,126453.0,126457.0,126662.0,126740.0,0.04318041683015952,-0.14506583460998343,0.05690908392012117,-0.29205425151860004,0.012690401630951987
120,120,127300.5439906318,3825.0872284947304,14.929955066576728,127431.972626301,-8363.45070909854,17.835757806047667,127453.59756447955,45460.19507493239,8.784833232492764,127540.72811910056,-1849.355533877302,31.062848660779803,127724.2743897132,15476.208938490006,31.89158517762431,0.9542681164324976,131.0,102.0,161.0,187.0,348.0,29.0,1025.0,1027.0,42.0,18.0,24.0,0.4285714285714285,195.52597597348765,3669.5138180651106,24.0,20.0,4.0,0.8333333333333334,1362.0623843535332,9676.485338601027,20.0,9.0,11.0,0.45,2412.2541265222776,47014.95561437581,74.0,37.0,37.0,0.5,149.19876982707976,1617.375902749174,80.0,39.0,41.0,0.4875,192.67373326773824,16591.281598453224,0.0,0.0,0.0,0.0,127285.0,127314.0,127416.0,127436.0,127445.0,127465.0,127506.0,127577.0,127688.0,127764.0,0.05111673650653768,-0.16285890019914326,0.05306299549630486,-0.08067608801768593,0.012449672528557705
121,121,128310.1369699341,4259.772530473336,17.484869480323027,128439.972626301,-8803.714674191626,11.368662065862448,128462.45407175225,42551.10613563329,9.129956556505029,128522.2739827004,-945.2992356624296,7.643896202589958,128733.53415569612,15570.314422937789,33.140822443430864,0.962313453428154,132.0,93.0,105.0,241.0,346.0,39.0,1011.0,1008.0,39.0,16.0,23.0,0.4102564102564102,187.63988952408505,4907.613645178411,18.0,14.0,4.0,0.7777777777777778,1299.486579981914,7677.26734682847,20.0,9.0,11.0,0.45,2396.729043595674,49636.42391684973,13.0,4.0,9.0,0.3076923076923077,177.1456281422129,1729.8411040897092,80.0,41.0,39.0,0.5125,177.7746198333818,16455.17956661924,0.0,0.0,0.0,0.0,128294.0,128333.0,128426.0,128444.0,128453.0,128473.0,128518.0,128531.0,128694.0,128772.0,0.04404927450509545,-0.1476066215311817,0.056325892820647434,-0.1873963518208877,0.011417535638939234
122,122,129325.91636159702,3720.91610994299,15.222888326055074,129456.39728720114,-8622.97482783261,14.10831477006065,129479.1950891494,43122.902200684504,8.918546685390787,129564.24660900142,-1638.1481256595166,25.47965400864057,129748.0785774923,15220.618978390114,32.36359656967081,0.9558579385580874,134.0,96.0,142.0,202.0,344.0,38.0,1013.0,1017.0,43.0,18.0,25.0,0.4186046511627907,176.93417469983646,3759.930759607964,19.0,14.0,5.0,0.7368421052631579,1185.320253186358,5378.643715787764,20.0,9.0,11.0,0.45,2400.3478353322635,48664.14440785996,55.0,14.0,41.0,0.2545454545454545,169.21646195945377,1626.1313868677532,80.0,40.0,40.0,0.5,153.42373756505185,16278.858784204487,0.0,0.0,0.0,0.0,129309.0,129347.0,129443.0,129461.0,129470.0,129490.0,129550.0,129585.0,129709.0,129787.0,0.0475512399290688,-0.13746071128034235,0.055662947362901796,-0.10329741206481398,0.010079993315835535
123,123,130353.047176389,3769.7662306500542,13.4519755024875,130485.972626301,-8714.55182165314,17.83575772066294,130507.7313136806,45409.102697219816,8.610714015003738,130536.2739827004,-2529.0119716066056,3.5585721338815506,130777.15449938193,14993.109213548678,31.33372362145152,0.9559091233124846,131.0,102.0,70.0,275.0,345.0,29.0,1027.0,1029.0,33.0,15.0,18.0,0.4545454545454545,203.8577250249716,4013.658347037468,20.0,16.0,4.0,0.8,1356.7356128150575,7922.128414560908,19.0,9.0,10.0,0.4736842105263157,2497.6050967003157,47863.529631404526,8.0,4.0,4.0,0.5,693.1448070014014,9768.632934226614,78.0,38.0,40.0,0.4871794871794871,202.18002118619304,15767.92766817642,0.0,0.0,0.0,0.0,130339.0,130368.0,130470.0,130490.0,130499.0,130518.0,130532.0,130540.0,130741.0,130815.0,0.05407702031163311,-0.15568621778620467,0.055002300163337785,-0.27407731350558506,0.013484862833086747
124,124,131512.25584836863,3881.5732728749385,15.498383603160828,131647.54796540082,-8754.466861675253,13.57134661224456,131669.39313556338,44137.56574968105,9.068490852004915,131747.97262630097,-2005.6725222190048,17.8357578060484,131940.53156730096,15140.820059880514,31.5798731252437,0.9628366710471364,140.0,104.0,145.0,201.0,346.0,36.0,1160.0,1161.0,36.0,18.0,18.0,0.5,170.48003681759835,4447.4578756847895,23.0,19.0,4.0,0.8260869565217391,1413.381713557824,11252.896078214088,20.0,9.0,11.0,0.45,2432.3746984805093,50117.05389060616,59.0,27.0,32.0,0.4576271186440678,120.98386257567915,1894.6434037777003,77.0,38.0,39.0,0.4935064935064935,186.75574191835372,15869.396241102542,0.0,0.0,0.0,0.0,131494.0,131530.0,131634.0,131651.0,131660.0,131680.0,131738.0,131779.0,131904.0,131980.0,0.043920344878954215,-0.161446920285373,0.05510894534318731,-0.06032084561931721,0.01233458565518594
125,125,132766.22262265932,3914.167078840861,15.242875575152333,132900.39728720114,-8993.394190793984,11.656526452872262,132922.86233073755,43608.49822802247,8.758610766038188,132950.1611188798,-2504.432794946732,2.2837934582962176,133195.7988820799,15462.11029033188,32.68569419146335,0.9555727935181652,137.0,107.0,65.0,283.0,348.0,30.0,1257.0,1254.0,30.0,15.0,15.0,0.5,178.862601718186,4502.630325160002,18.0,13.0,5.0,0.7222222222222222,1262.910129724132,5743.099830533671,20.0,9.0,11.0,0.45,2505.473767811876,49165.87145985375,5.0,2.0,3.0,0.4,769.4594141363741,11132.438618269036,80.0,39.0,41.0,0.4875,163.8822611657925,16427.1896140633,0.0,0.0,0.0,0.0,132751.0,132781.0,132888.0,132905.0,132914.0,132934.0,132948.0,132953.0,133158.0,133236.0,0.045696210232076824,-0.14042641776081602,0.05745379615484852,-0.30723899466934596,0.010598958233292675
126,126,133946.40412337348,3492.4789989326323,13.27747360674272,134080.82194810128,-7794.549054618456,19.27898385349381,134104.1195731254,46056.3508840748,8.829225723300613,134192.77860419266,-2044.014021397321,26.978283019366916,134376.56595512104,15382.4985078113,31.745435812581192,0.9501082709130304,135.0,107.0,146.0,202.0,348.0,28.0,1180.0,1181.0,28.0,14.0,14.0,0.5,179.26250081206555,4009.279125444108,19.0,14.0,5.0,0.7368421052631579,1244.602212053148,5886.544144683418,20.0,9.0,11.0,0.45,2456.6115547366135,49249.40897793831,76.0,39.0,37.0,0.5131578947368421,132.56447446572193,1567.2609000930304,79.0,40.0,39.0,0.5063291139240507,194.61874894717087,16152.538223953068,0.0,0.0,0.0,0.0,133932.0,133960.0,134067.0,134086.0,134095.0,134115.0,134156.0,134213.0,134340.0,134415.0,0.051328154261443396,-0.1596759739828299,0.053339257400569516,-0.06485497314499766,0.012651959553146883
127,127,135123.0483513304,3658.071638089612,13.338181622351632,135256.97262630097,-8669.583782587484,17.10250730672617,135279.131817873,45569.96952800352,9.011418727199528,135341.97262630097,-1836.149045799079,17.8357578060484,135555.38347749642,15302.1738742302,30.754573834522834,0.9531836619261776,133.0,107.0,124.0,225.0,349.0,26.0,1177.0,1175.0,26.0,14.0,12.0,0.5384615384615384,188.85995406790963,4294.687868230602,21.0,17.0,4.0,0.8095238095238095,1356.9063980533983,8658.528339669108,20.0,9.0,11.0,0.45,2417.783377233879,49097.15754292406,34.0,10.0,24.0,0.2941176470588235,151.7254870338932,2362.6803371467386,78.0,41.0,37.0,0.5256410256410257,189.5951457863265,15570.526562855744,0.0,0.0,0.0,0.0,135109.0,135135.0,135242.0,135261.0,135270.0,135290.0,135332.0,135366.0,135515.0,135591.0,0.05162828198917933,-0.15651344194616254,0.05305650634126736,-0.08263244608656664,0.012390079170752095
128,128,136262.00396548127,3919.951796999256,16.23065745658853,136395.54796540082,-9184.059301126055,12.926089257100426,136417.41033455706,43471.8352495736,9.036748682993345,136477.12330450068,-1459.054984837005,12.739827004320285,136692.95881659628,15484.58129019752,31.84956449382142,0.9575637233404212,135.0,104.0,120.0,228.0,348.0,31.0,1140.0,1138.0,31.0,15.0,16.0,0.4838709677419355,179.39901058958057,4642.777896753055,20.0,16.0,4.0,0.8,1427.7421909409634,10207.874503025312,21.0,9.0,12.0,0.4285714285714285,2419.9260173659027,49633.12033309371,33.0,8.0,25.0,0.2424242424242424,160.11710710231625,2178.1748425246005,81.0,43.0,38.0,0.5308641975308642,165.31273336230146,16276.253842614096,0.0,0.0,0.0,0.0,136247.0,136278.0,136382.0,136399.0,136408.0,136429.0,136470.0,136502.0,136654.0,136730.0,0.045765616487149524,-0.15545872953650336,0.05566652531398795,-0.10974028310537137,0.010675957603513135
129,129,137291.94026666318,4036.682775410248,15.47589238013184,137423.97262630097,-8565.870913880002,13.935615178765389,137446.1678133691,44723.933253525494,8.90142615459987,137473.32638044396,-2262.1428569837835,1.8454904812605648,137717.95231804706,15674.779924739589,32.246401694859465,0.9570044073251404,133.0,104.0,66.0,281.0,347.0,29.0,1028.0,1030.0,36.0,16.0,20.0,0.4444444444444444,185.0372434563048,4284.109480111276,20.0,16.0,4.0,0.8,1316.5519604263366,8708.299692052306,20.0,9.0,11.0,0.45,2456.78057925473,49511.648418973586,5.0,2.0,3.0,0.4,793.4343774910666,11082.822968328464,80.0,40.0,40.0,0.5,188.42257000053385,16729.049178342488,0.0,0.0,0.0,0.0,137277.0,137306.0,137410.0,137428.0,137437.0,137457.0,137471.0,137476.0,137681.0,137757.0,0.04583893601535223,-0.15369738508351982,0.05493212247965841,-0.35074459380031736,0.012020747398382641
130,130,138270.5551859314,4014.57164658492,14.421992142416276,138401.97262630097,-8972.180390774934,14.943822934830346,138423.93010140283,44460.92468519844,8.872059843637661,138510.52059170185,-1881.4444481269416,29.36592812473526,138694.64677493655,15422.291253929056,32.0368476595408,0.955142272104133,132.0,103.0,130.0,215.0,345.0,29.0,977.0,977.0,30.0,16.0,14.0,0.5333333333333333,219.04664471410325,4170.814539245337,20.0,16.0,4.0,0.8,1356.3577997800107,7886.769234982493,20.0,9.0,11.0,0.45,2427.926593790451,48612.742202173016,73.0,35.0,38.0,0.4794520547945205,181.15934222207164,1789.117051193196,79.0,39.0,40.0,0.4936708860759494,181.45335902924077,16557.07106254505,0.0,0.0,0.0,0.0,138256.0,138285.0,138388.0,138406.0,138415.0,138435.0,138478.0,138518.0,138657.0,138733.0,0.054562893378784234,-0.15117371036973332,0.05460809938122443,-0.09628737239753399,0.011765655053558456
131,131,139201.45612108122,3874.074073445531,15.405917458844756,139332.97262630097,-8985.553031482552,15.949397795449466,139354.41171878402,45534.02159617151,8.633145714206972,139382.664446297,-2353.9987303822786,3.053326960201523,139623.34779824832,15105.41126511383,32.670875156704064,0.9600878296620778,133.0,94.0,68.0,278.0,346.0,39.0,930.0,931.0,42.0,17.0,25.0,0.4047619047619047,159.68878004506217,3719.9519939219217,21.0,17.0,4.0,0.8095238095238095,1407.7905999143734,9041.959291927758,19.0,8.0,11.0,0.4210526315789473,2523.75162615686,49919.15632870016,7.0,4.0,3.0,0.5714285714285714,654.7363274983246,9169.747520369972,80.0,39.0,41.0,0.4875,186.16076138713797,16344.226918749027,0.0,0.0,0.0,0.0,139185.0,139224.0,139318.0,139337.0,139346.0,139365.0,139379.0,139386.0,139584.0,139664.0,0.04121985718849146,-0.15667267167439977,0.05542562544857792,-0.27813792719930586,0.012324110752090478
132,132,140156.14190491498,3968.80355708369,14.38486322597013,140289.97262630097,-7841.409200250263,16.927131155631375,140312.77530176938,45823.3282899292,8.658485055119632,140339.89334412408,-2263.7293290450066,2.2454197411318133,140581.43180837942,15173.575424765704,31.912723851830275,0.9600370199645154,138.0,106.0,65.0,280.0,345.0,32.0,955.0,958.0,32.0,17.0,15.0,0.53125,178.77656613790649,3566.681922148424,20.0,15.0,5.0,0.75,1253.734160577972,6761.444749475758,19.0,9.0,10.0,0.4736842105263157,2510.876831378453,49050.12042263277,5.0,3.0,2.0,0.6,739.7868076549978,10540.938049858005,78.0,37.0,41.0,0.4743589743589743,198.6577376689414,16543.456613847382,0.0,0.0,0.0,0.0,140139.0,140171.0,140277.0,140294.0,140304.0,140323.0,140337.0,140342.0,140544.0,140622.0,0.04504545603392701,-0.15988633274462433,0.05479472847305768,-0.32680002779620726,0.013092348514292826
133,133,141366.26463479773,4077.504457064645,15.33259743156376,141497.97262630097,-8234.852836898468,12.23768365685404,141521.12907132407,44078.68851798641,8.980998340794446,141600.82194810128,-1692.5132899755636,22.93168860777651,141793.2527396583,14988.670167020666,31.94978230514582,0.966676522187475,134.0,102.0,122.0,226.0,348.0,32.0,1212.0,1208.0,33.0,16.0,17.0,0.4848484848484848,163.7308303217746,4603.21997068732,19.0,14.0,5.0,0.7368421052631579,1215.0996895907572,7148.6981535091845,20.0,9.0,11.0,0.45,2473.454682937085,50356.13473601593,57.0,13.0,44.0,0.2280701754385964,172.7294773231521,1704.5521013616017,76.0,36.0,40.0,0.4736842105263157,208.0051954495221,16472.255082409396,0.0,0.0,0.0,0.0,141351.0,141383.0,141485.0,141502.0,141512.0,141532.0,141588.0,141607.0,141757.0,141833.0,0.040154666180216216,-0.14755572608974588,0.05611452532050236,-0.10205501980173283,0.01387749501001047
134,134,142582.69765031003,4394.451691004185,17.731460885226703,142713.97262630097,-8541.261157198016,10.575808028176132,142737.055587212,43330.989602279566,9.140648648800465,142818.97262630097,-898.3117799235031,13.02891790158738,143008.50824964524,15717.198236169888,34.03921008783131,0.9612327485932266,134.0,98.0,122.0,226.0,348.0,36.0,1215.0,1216.0,43.0,18.0,25.0,0.4186046511627907,175.04323574164337,4723.104848769561,18.0,14.0,4.0,0.7777777777777778,1266.1203375527252,7465.377676113056,20.0,9.0,11.0,0.45,2433.671104477335,50122.16296018588,22.0,12.0,10.0,0.5454545454545454,139.38854148479942,1301.6115534701944,83.0,42.0,41.0,0.5060240963855421,194.8661524103641,16422.765894368535,0.0,0.0,0.0,0.0,142567.0,142603.0,142701.0,142718.0,142728.0,142748.0,142808.0,142823.0,142971.0,143049.0,0.03983278189175949,-0.14823575983105514,0.05616467860104686,-0.15516721988959026,0.012398275410303082
135,135,143731.76066967455,4565.732367934662,18.2329932472389,143863.97262630097,-8631.943034517119,10.762687050155892,143886.2263905008,44243.68171845819,8.870636235368632,143913.46858975367,-2024.951209937728,1.6126202355983648,144158.21412262885,15495.15563058659,34.40482735387324,0.9636345097783154,136.0,99.0,64.0,284.0,348.0,37.0,1150.0,1149.0,41.0,17.0,24.0,0.4146341463414634,176.7773730755305,5002.203858161372,18.0,14.0,4.0,0.7777777777777778,1372.24636562441,8884.880216025109,20.0,9.0,11.0,0.45,2559.915202608237,50723.77833880801,4.0,1.0,3.0,0.25,837.0123549462246,10739.10098932088,82.0,40.0,42.0,0.4878048780487805,168.51542604379222,16679.345517280715,0.0,0.0,0.0,0.0,143716.0,143753.0,143852.0,143868.0,143877.0,143897.0,143912.0,143916.0,144121.0,144200.0,0.03871829507945882,-0.15897305625594585,0.05785945254054787,-0.4133493937229059,0.010875361955781326
