Unnamed: 0,cycle,p_center,p_height,p_width,q_center,q_height,q_width,r_center,r_height,r_width,s_center,s_height,s_width,t_center,t_height,t_width,r_squared,pr_interval,pr_segment,qrs_duration,st_segment,qt_interval,p_duration,pp_interval,rr_interval,fwhm_p,rise_time_p,decay_time_p,rise_decay_symmetry_p,sharpness_deriv_p,sharpness_diff_p,fwhm_q,rise_time_q,decay_time_q,rise_decay_symmetry_q,sharpness_deriv_q,sharpness_diff_q,fwhm_r,rise_time_r,decay_time_r,rise_decay_symmetry_r,sharpness_deriv_r,sharpness_diff_r,fwhm_s,rise_time_s,decay_time_s,rise_decay_symmetry_s,sharpness_deriv_s,sharpness_diff_s,fwhm_t,rise_time_t,decay_time_t,rise_decay_symmetry_t,sharpness_deriv_t,sharpness_diff_t,Average_Heart_Rate,SDNN,RMSSD,NN50,p_on,p_off,q_on,q_off,r_on,r_off,s_on,s_off,t_on,t_off,sharpness_deriv_p_norm,sharpness_deriv_q_norm,sharpness_deriv_r_norm,sharpness_deriv_s_norm,sharpness_deriv_t_norm
0,0,0.0,0.0,0.0,0.0,0.0,0.0,0.0,0.0,0.0,0.0,0.0,0.0,0.0,0.0,0.0,0.0,0.0,0.0,0.0,0.0,0.0,0.0,0.0,0.0,0.0,0.0,0.0,0.0,0.0,0.0,0.0,0.0,0.0,0.0,0.0,0.0,0.0,0.0,0.0,0.0,0.0,0.0,0.0,0.0,0.0,0.0,0.0,0.0,0.0,0.0,0.0,0.0,0.0,0.0,75.1303203047005,425.0635775534668,643.053939973038,289.0,,,,,,,,,,,,,,,
1,1,958.4311797316147,550.8509299341582,1.804142225261327,1311.5888624958195,-6308.656126436226,5.444594426120411,1339.866821645807,46392.13753604393,9.567540848252351,1410.958816596256,-1424.4187147318914,66.24710042246546,1590.4429298360114,11189.95631685041,30.39612263816163,0.9772205601137708,347.0,342.0,169.0,157.0,326.0,5.0,,,5.0,2.0,3.0,0.4,79.64778808089605,696.0363013450572,15.0,9.0,6.0,0.6,1051.1273361924093,5022.423366638652,25.0,13.0,12.0,0.52,2160.031558396283,41730.05572698976,83.0,17.0,66.0,0.2048192771084337,87.52008971264418,1464.4002749702522,78.0,38.0,40.0,0.4871794871794871,112.79130968393916,11328.83987695435,0.0,0.0,0.0,0.0,956.0,961.0,1303.0,1317.0,1327.0,1352.0,1396.0,1472.0,1554.0,1629.0,0.1445904576949995,-0.16661667954728,0.046560293901484216,-0.061442670478474785,0.0100796916887059
2,2,2071.1430559554015,851.9938037404598,2.059504497929066,2229.141254536351,-5726.769577218219,5.723500115832892,2258.3569638600047,45901.12213963633,9.215823291352612,2358.1780518987043,-1856.8712715126833,22.93168860777651,2511.291010375312,11449.49668214645,30.175719933118646,0.9788875661927452,153.0,147.0,150.0,178.0,328.0,6.0,1112.0,919.0,6.0,3.0,3.0,0.5,125.59210914979506,1399.4351271875294,15.0,8.0,7.0,0.5333333333333333,852.1911510509642,3399.178489370721,24.0,12.0,12.0,0.5,2178.3882547958738,42757.03964035264,54.0,38.0,16.0,0.7037037037037037,81.93418077304653,1216.948556143618,77.0,38.0,39.0,0.4935064935064935,120.99550621588102,11782.694908903954,0.0,0.0,0.0,0.0,2068.0,2074.0,2221.0,2236.0,2246.0,2270.0,2321.0,2371.0,2474.0,2549.0,0.14740965086649127,-0.14880835339369747,0.04745827886666853,-0.044124857780959474,0.010567757655631537
3,3,3012.711035642335,936.5619671908136,5.550898939012786,3166.6956879121126,-6178.853693635019,5.671885255971282,3195.45236800531,46003.59474866893,9.345304599424413,3279.588138922527,-1706.8010633883423,22.93168860777651,3448.682535960032,11613.285286333748,31.546748592745644,0.9788645653448304,153.0,140.0,137.0,192.0,329.0,13.0,940.0,937.0,18.0,11.0,7.0,0.6111111111111112,119.98546403161244,1366.9241031570286,14.0,8.0,6.0,0.5714285714285714,967.2451774521346,4790.099745004261,24.0,12.0,12.0,0.5,2167.949748871466,43323.387211570865,23.0,7.0,16.0,0.3043478260869565,89.84856512866561,1742.022808471548,79.0,40.0,39.0,0.5063291139240507,98.36049434261888,12372.39146536698,0.0,0.0,0.0,0.0,3006.0,3019.0,3159.0,3173.0,3183.0,3207.0,3274.0,3296.0,3410.0,3488.0,0.12811268045776494,-0.15654120091053722,0.047125659651503504,-0.052641498213211915,0.008469652808612846
4,4,3815.4246609001434,419.4189930418183,1.0613974777003312,4052.8316383631513,-6526.173323765435,5.378429200019808,4081.296744961199,45339.57791114375,9.594284378395871,4158.314920393665,-2450.8118057721836,112.1104776379221,4331.771061757593,11104.350942014522,32.62627771732233,0.9737160836203216,230.0,226.0,177.0,150.0,327.0,4.0,804.0,886.0,4.0,1.0,3.0,0.25,152.59579812977694,156.23811297541351,15.0,9.0,6.0,0.6,1016.7069414894772,2516.4510169354057,24.0,12.0,12.0,0.5,2094.7931071723015,40715.62629136748,139.0,55.0,84.0,0.39568345323741,61.54217931229329,2159.7041586444957,76.0,36.0,40.0,0.4736842105263157,92.3987841096261,10853.214689142162,0.0,0.0,0.0,0.0,3814.0,3818.0,4044.0,4059.0,4069.0,4093.0,4121.0,4221.0,4297.0,4371.0,0.36382662841060787,-0.15578914182175954,0.04620230720448402,-0.02511093637110298,0.008320953164405606
5,5,4794.21674661563,550.3405760941347,1.381067688450437,4938.131168728195,-6029.332439414536,5.424269349618355,4966.819954677804,46749.69615274822,9.542911386852191,5026.082121096977,-1538.9036628323524,53.50727341814519,5218.924195638797,11565.366308397352,30.15005803792541,0.9763767394433688,138.0,134.0,133.0,192.0,325.0,4.0,979.0,886.0,4.0,2.0,2.0,0.5,102.19478678227452,238.7459637940267,14.0,8.0,6.0,0.5714285714285714,952.97256916994,3961.769536486344,25.0,13.0,12.0,0.52,2148.3663614354564,41512.32406091364,52.0,13.0,39.0,0.25,76.01406582532167,1862.0591313360044,75.0,38.0,37.0,0.5066666666666667,170.07670252783208,12453.4266409531,0.0,0.0,0.0,0.0,4792.0,4796.0,4930.0,4944.0,4954.0,4979.0,5014.0,5063.0,5182.0,5255.0,0.18569371625761116,-0.15805606652906273,0.04595465935042581,-0.04939494762486806,0.014705690939018787
6,6,5719.9282912513645,966.8855206191628,5.299563189596041,5870.61391222137,-6165.811298032168,5.412917518221935,5899.486221823173,45870.60249283406,9.349050252608526,6000.452034599137,-1776.0887031629047,15.28779240518434,6153.176020323847,11613.162632551295,31.128553367653108,0.9778743540931066,151.0,140.0,146.0,182.0,328.0,11.0,926.0,932.0,11.0,8.0,3.0,0.7272727272727273,124.11621694333888,1649.0032285968964,15.0,9.0,6.0,0.6,975.2658286476476,4582.185669285878,24.0,12.0,12.0,0.5,2129.3745649672146,42784.0947047386,70.0,60.0,10.0,0.8571428571428571,109.67427177816458,1569.5184163833817,79.0,41.0,38.0,0.5189873417721519,113.37693208735878,12463.662148351365,0.0,0.0,0.0,0.0,5712.0,5723.0,5863.0,5877.0,5887.0,5911.0,5941.0,6009.0,6112.0,6191.0,0.1283670241166284,-0.15817315540598942,0.046421334127884344,-0.06175044725122895,0.009762795517008187
7,7,6661.452034599137,1032.5112918571433,8.544979415512719,6805.310463218558,-6178.616547113802,5.241099714275606,6833.172311804496,45580.19327374571,9.455242237566932,6895.273982700431,-1255.4005299657197,7.64389620259217,7086.056968798363,12043.686301385636,32.147414422846026,0.9794881599793356,139.0,124.0,115.0,213.0,328.0,15.0,944.0,934.0,29.0,17.0,12.0,0.5862068965517241,100.11274758783068,456.59184649516385,14.0,8.0,6.0,0.5714285714285714,1000.59837741214,4841.601336797112,24.0,12.0,12.0,0.5,2119.0451907132856,42432.14685039168,38.0,4.0,34.0,0.1052631578947368,113.0378592931571,1226.8142581483835,81.0,41.0,40.0,0.5061728395061729,111.23292214356164,12260.33590668935,0.0,0.0,0.0,0.0,6658.0,6673.0,6797.0,6811.0,6821.0,6845.0,6891.0,6912.0,7047.0,7125.0,0.09696043847400569,-0.16194537560022987,0.04649048278463225,-0.09004127096891042,0.009235787063863013
8,8,7291.792858038565,548.3916889835626,2.4554556678081245,7663.723823730487,-6764.026351106444,6.164138393964001,7692.854126399012,45232.89314984022,9.535712302376169,7746.232799296688,-2781.506784214635,58.60320421987331,7945.42529753721,10869.070919802354,28.215226313757736,0.9659273974857068,366.0,359.0,167.0,159.0,326.0,7.0,627.0,859.0,7.0,3.0,4.0,0.4285714285714285,75.08955958261633,1954.3561902746249,16.0,9.0,7.0,0.5625,959.0604717408908,2659.2213236824873,23.0,12.0,11.0,0.5217391304347826,2115.9893680545883,39333.60861637868,128.0,32.0,96.0,0.25,82.28343150958689,2857.4433921425098,75.0,37.0,38.0,0.4933333333333333,147.0114377282629,11057.5827161708,0.0,0.0,0.0,0.0,7289.0,7296.0,7655.0,7671.0,7681.0,7704.0,7733.0,7822.0,7911.0,7981.0,0.13692687378576784,-0.14178839968357157,0.04677988120381954,-0.029582322781506288,0.013525667355838378
9,9,8412.081003590842,1217.9660076363868,8.918632453185275,8554.564290307222,-6116.409377779068,5.099304204625866,8582.837477680578,46727.7381842901,9.354561009883284,8684.452034599139,-1237.8173688758748,15.28779240518434,8835.04323693051,11915.03108865059,31.316268382022084,0.9837555912988968,147.0,127.0,149.0,177.0,326.0,20.0,1122.0,890.0,26.0,13.0,13.0,0.5,96.93662050032238,1030.1408311713187,14.0,9.0,5.0,0.6428571428571429,1040.6609672386446,5334.784801125794,24.0,12.0,12.0,0.5,2195.168536121723,42494.309116627075,25.0,5.0,20.0,0.2,110.58898924190912,930.5944434834907,79.0,40.0,39.0,0.5063291139240507,115.56129863214817,12485.838553405409,0.0,0.0,0.0,0.0,8400.0,8420.0,8547.0,8560.0,8571.0,8595.0,8681.0,8696.0,8796.0,8873.0,0.079588937534012,-0.17014246479631806,0.046977847022344,-0.08934192718780529,0.009698782804035118
10,10,9314.773738335072,785.813674645872,7.440544013884378,9461.123304500716,-6040.189139691333,5.308878477340781,9489.598273718544,47360.43479375148,9.20727044483318,9573.038477901711,-1337.5298580945412,17.8357578060484,9741.243626850885,11788.951636444306,31.78670933212191,0.9822204971517364,150.0,130.0,145.0,183.0,328.0,20.0,904.0,907.0,26.0,12.0,14.0,0.4615384615384615,80.64370477983107,559.2077645286387,14.0,8.0,6.0,0.5714285714285714,950.5232267839006,4418.039805234038,23.0,12.0,11.0,0.5217391304347826,2268.069124323694,42788.15691118026,33.0,6.0,27.0,0.1818181818181818,89.84773854431164,1242.8341415813152,80.0,39.0,41.0,0.4875,99.7367319618764,12077.055050187626,0.0,0.0,0.0,0.0,9304.0,9324.0,9454.0,9467.0,9478.0,9501.0,9568.0,9599.0,9703.0,9782.0,0.10262446096547412,-0.15736646730775625,0.0478895334090753,-0.0671743796974444,0.008460186710203372
11,11,9967.150678199714,462.0881232137585,2.0773925610221835,10337.099900878324,-7069.571570041772,6.578833447389118,10366.318794637087,44095.14231361882,9.120186292144652,10437.24660900144,-3077.51535603992,25.47965400864057,10618.987118519994,10409.627895081683,28.055443610612222,0.9719572433055756,365.0,359.0,169.0,155.0,324.0,6.0,651.0,877.0,9.0,6.0,3.0,0.6666666666666666,91.98007473911646,1517.5288678189668,15.0,8.0,7.0,0.5333333333333333,893.382553409463,1456.9908306586035,24.0,12.0,12.0,0.5,2163.134894655376,41233.95588732759,96.0,34.0,62.0,0.3541666666666667,128.55887016161876,3324.90258287534,73.0,38.0,35.0,0.5205479452054794,117.23977159765704,10991.160762421385,0.0,0.0,0.0,0.0,9964.0,9970.0,10329.0,10344.0,10354.0,10378.0,10423.0,10498.0,10582.0,10653.0,0.19905310290039022,-0.12637011232693188,0.049056081490121195,-0.04177359177406202,0.011262628480029551
12,12,11034.150678199714,606.0954237748955,3.567855192873977,11180.102439834078,-6391.727354349819,5.370238646934295,11208.818918184805,46654.622469671056,9.260708337206848,11288.876695499284,-1818.7267091457952,12.739827004320285,11459.736113065388,11394.48491315434,30.509246840511462,0.9776824822709688,146.0,135.0,128.0,196.0,324.0,11.0,1067.0,842.0,11.0,8.0,3.0,0.7272727272727273,99.215346301448,240.2499803358035,14.0,8.0,6.0,0.5714285714285714,972.66020934572,3839.5252300508073,24.0,12.0,12.0,0.5,2213.600811120937,42198.79606794568,88.0,38.0,50.0,0.4318181818181818,112.89100424257622,1213.4805900024874,78.0,39.0,39.0,0.5,98.85876008967492,11768.02814007791,0.0,0.0,0.0,0.0,11026.0,11037.0,11172.0,11186.0,11197.0,11221.0,11286.0,11300.0,11423.0,11496.0,0.16369591719322515,-0.15217485906744552,0.047446548572115034,-0.06207145013865109,0.008676018340727945
13,13,11917.45203459914,804.5667700216878,5.429212200317702,12056.881857255064,-5432.104202621859,5.612256444297049,12086.078263837488,46254.73302362782,9.334888541412894,12161.904069198274,-1733.241210060036,30.57558481036868,12342.657460196831,11727.470116659551,30.37135992322819,0.9805138493935356,138.0,123.0,130.0,195.0,325.0,15.0,885.0,877.0,18.0,8.0,10.0,0.4444444444444444,107.46000440525538,225.6312687396128,14.0,8.0,6.0,0.5714285714285714,874.7619574352925,4401.775235394822,24.0,12.0,12.0,0.5,2193.9717938409476,42821.29810047395,99.0,37.0,62.0,0.3737373737373737,70.45324586394418,1336.277526496422,73.0,42.0,31.0,0.5753424657534246,88.92459392390343,11684.439681592929,0.0,0.0,0.0,0.0,11911.0,11926.0,12049.0,12063.0,12074.0,12098.0,12126.0,12179.0,12301.0,12374.0,0.1335625685887558,-0.16103556279591985,0.047432373952309356,-0.040648263758685854,0.007582589683821141
14,14,12591.663880874245,499.0955036416251,1.4787703940685604,12960.222472482,-5870.2995837240915,6.007986486845876,12988.982864454198,46801.11256542862,9.512810077622646,13044.23279929669,-2332.5830046085744,58.60320421987331,13241.058033224685,11387.664104163094,29.614789341592576,0.9735149832371246,363.0,358.0,151.0,174.0,325.0,5.0,672.0,903.0,5.0,3.0,2.0,0.6,86.48673292007727,2117.8931877878954,15.0,8.0,7.0,0.5333333333333333,884.6680448972406,3454.5626368673193,24.0,12.0,12.0,0.5,2170.5018624031045,41361.62774444394,75.0,15.0,60.0,0.2,97.83414835735933,2584.5712055854483,79.0,41.0,38.0,0.5189873417721519,166.75858939174103,11267.779388813664,0.0,0.0,0.0,0.0,12589.0,12594.0,12952.0,12967.0,12977.0,13001.0,13031.0,13103.0,13205.0,13277.0,0.17328694065370495,-0.15070236744817225,0.04637714241020899,-0.04194240812183944,0.014643792428929964
15,15,13365.639948414451,416.2592745924767,1.5645096185919187,13864.509874163312,-5210.100366445989,5.369241434923953,13892.056862886666,46453.16506619024,9.886821345881849,13938.465598593377,-6135.757324428163,117.20640843974662,14141.996981552104,8812.47595096913,25.099383295530277,0.926233171311946,488.0,483.0,224.0,102.0,326.0,5.0,773.0,903.0,6.0,3.0,3.0,0.5,72.13011840181785,3038.45168298576,22.0,16.0,6.0,0.7272727272727273,1079.5936612517264,2900.958659390127,24.0,12.0,12.0,0.5,2086.639804467848,37558.91135497777,167.0,26.0,141.0,0.155688622754491,127.28637847678134,5103.58112663821,61.0,25.0,36.0,0.4098360655737705,101.15500382647456,7734.589029816112,0.0,0.0,0.0,0.0,13363.0,13368.0,13851.0,13871.0,13880.0,13904.0,13912.0,14075.0,14119.0,14177.0,0.17328170879179614,-0.20721168217881358,0.044919217054309096,-0.020745015121445356,0.011478613319262481
16,16,14562.884285738906,718.082416596266,2.6137688876863523,14721.412623396109,-6007.396114374114,5.640429854422765,14750.039662404592,47228.12768519799,9.510183869649,14825.10949479597,-1393.5126155235905,71.3430312241936,15000.366485951508,11181.230371360709,31.402582700629083,0.9786154407666796,154.0,147.0,152.0,173.0,325.0,7.0,1198.0,859.0,7.0,4.0,3.0,0.5714285714285714,118.51084262916284,1093.6584380987174,15.0,8.0,7.0,0.5333333333333333,930.0627768804468,3671.8197143582056,24.0,12.0,12.0,0.5,2200.603529752562,42896.161586695096,81.0,39.0,42.0,0.4814814814814814,85.43384535231571,1324.6893455998174,78.0,38.0,40.0,0.4871794871794871,89.77388383941373,11261.64215651251,0.0,0.0,0.0,0.0,14559.0,14566.0,14713.0,14728.0,14738.0,14762.0,14789.0,14865.0,14964.0,15038.0,0.16503793978260614,-0.15481961887864393,0.04659518887601941,-0.06130826832896327,0.008028980788139206
17,17,15248.150678199714,555.6336276324017,2.0752404311466828,15594.123304500716,-5799.511389192835,5.556317212058581,15624.197444882522,47192.18378418774,9.556519798359348,15676.260172995682,-2478.4635184894337,76.4389620259199,15875.610489167482,11422.390012142105,30.332735421049374,0.9722800007506066,342.0,336.0,148.0,179.0,327.0,6.0,686.0,873.0,7.0,4.0,3.0,0.5714285714285714,117.1275506337912,321.1562696512293,15.0,7.0,8.0,0.4666666666666667,855.825452300684,1490.007630082985,24.0,12.0,12.0,0.5,2144.325165836586,41827.53894096425,117.0,18.0,99.0,0.1538461538461538,83.80056781076875,2504.8375047797017,80.0,41.0,39.0,0.5125,95.57719802349833,11396.619132944965,0.0,0.0,0.0,0.0,15245.0,15251.0,15587.0,15602.0,15612.0,15636.0,15659.0,15735.0,15837.0,15914.0,0.21079996747655616,-0.14756854411829962,0.045438142376345504,-0.033811499417124066,0.008367530606282826
18,18,16318.301356399426,738.40645588703,7.648175002755771,16462.741888565055,-6038.367045945898,5.816394160977469,16491.179372509796,45553.72980402264,9.219621865983852,16570.904069198277,-2217.7668644412565,30.57558481036868,16743.32841992174,11271.709342797818,29.69081218749736,0.9790091168260242,153.0,130.0,170.0,155.0,325.0,23.0,1071.0,868.0,23.0,17.0,6.0,0.7391304347826086,68.36888221455732,400.592404799979,15.0,9.0,6.0,0.6,942.8910769716192,4676.206589995295,24.0,12.0,12.0,0.5,2174.8736154495996,42033.96445462156,105.0,42.0,63.0,0.4,104.33348078268568,1443.2105841522637,76.0,40.0,36.0,0.5263157894736842,99.36831389167352,11447.76435253365,0.0,0.0,0.0,0.0,16301.0,16324.0,16454.0,16469.0,16479.0,16503.0,16564.0,16624.0,16704.0,16779.0,0.09258976769430789,-0.15615001039141324,0.047743041564459264,-0.047044386159575624,0.008815727133273357
19,19,0.0,0.0,0.0,0.0,0.0,0.0,0.0,0.0,0.0,0.0,0.0,0.0,0.0,0.0,0.0,0.0,0.0,0.0,0.0,0.0,0.0,0.0,0.0,0.0,0.0,0.0,0.0,0.0,0.0,0.0,0.0,0.0,0.0,0.0,0.0,0.0,0.0,0.0,0.0,0.0,0.0,0.0,0.0,0.0,0.0,0.0,0.0,0.0,0.0,0.0,0.0,0.0,0.0,0.0,0.0,0.0,0.0,0.0,,16950.0,17305.0,17320.0,17330.0,17354.0,17364.0,17377.0,17559.0,17632.0,,,,,
20,20,0.0,0.0,0.0,0.0,0.0,0.0,0.0,0.0,0.0,0.0,0.0,0.0,0.0,0.0,0.0,0.0,0.0,0.0,0.0,0.0,0.0,0.0,0.0,0.0,0.0,0.0,0.0,0.0,0.0,0.0,0.0,0.0,0.0,0.0,0.0,0.0,0.0,0.0,0.0,0.0,0.0,0.0,0.0,0.0,0.0,0.0,0.0,0.0,0.0,0.0,0.0,0.0,0.0,0.0,0.0,0.0,0.0,0.0,,17824.0,18188.0,18203.0,18213.0,18237.0,18274.0,18345.0,18438.0,18515.0,,,,,
21,21,18992.72601729957,869.4969466347974,7.64389620259217,19132.316485763888,-6158.354250565954,5.269916779970223,19160.6436097199,46722.182722594014,9.34962121131176,19225.39390686261,-1520.586509683732,28.027619409504627,19413.109494795972,11982.09660734741,32.00815409836613,0.981518266376292,160.0,128.0,128.0,200.0,328.0,32.0,2674.0,2669.0,32.0,28.0,4.0,0.875,91.34731967954154,499.89919334453344,14.0,8.0,6.0,0.5714285714285714,969.4767291809088,4248.334874875273,24.0,13.0,11.0,0.5416666666666666,2199.0163699385143,41707.70375749388,52.0,22.0,30.0,0.4230769230769231,86.29875235013064,1180.7568526396649,84.0,42.0,42.0,0.5,114.98128363109136,12459.8405515918,0.0,0.0,0.0,0.0,18965.0,18997.0,19125.0,19138.0,19148.0,19172.0,19218.0,19253.0,19373.0,19453.0,0.10505766585274609,-0.15742464459426211,0.04706578849269191,-0.0567535959319276,0.009596090517296025
22,22,19912.182294228827,675.2799453873289,2.014969528098528,20071.788496469104,-6671.473891028847,5.754541098272466,20100.47909176659,45171.163569705015,9.14093953432833,20183.178051898733,-2164.08144849762,22.93168860777651,20354.909589583876,11539.322886931535,29.707879330040676,0.9753293348363632,155.0,149.0,132.0,194.0,326.0,6.0,918.0,940.0,6.0,3.0,3.0,0.5,101.47260267046715,1115.2995026472634,14.0,8.0,6.0,0.5714285714285714,941.6708020690006,3490.579936497046,23.0,11.0,12.0,0.4782608695652174,2152.4219667613675,42687.7889926223,22.0,8.0,14.0,0.3636363636363636,121.1916870832296,1781.2771468278092,76.0,39.0,37.0,0.5131578947368421,100.3417519003612,11742.877743149673,0.0,0.0,0.0,0.0,19909.0,19915.0,20064.0,20078.0,20089.0,20112.0,20177.0,20196.0,20317.0,20390.0,0.1502674607229217,-0.14114884018886267,0.047650354710033066,-0.05600144447768592,0.008695636033722552
23,23,20773.849321800284,874.8893676055582,2.3382907570768956,20930.793390447034,-6557.124024391228,5.493399865704456,20959.13628767864,46436.02730728565,9.416956123704738,21034.684833895823,-1653.8416922236436,73.89099662505764,21210.01091537821,11248.522758576222,30.62008839493644,0.9743498898214338,151.0,143.0,154.0,171.0,325.0,8.0,861.0,859.0,8.0,3.0,5.0,0.375,118.92753044141207,1209.8094553508934,15.0,9.0,6.0,0.6,1022.4336651454812,4004.935271197941,24.0,12.0,12.0,0.5,2167.467957124676,41880.89986233936,80.0,38.0,42.0,0.475,86.1156960456411,1392.577985689813,74.0,37.0,37.0,0.5,119.03352440312956,12035.086194602492,0.0,0.0,0.0,0.0,20771.0,20779.0,20922.0,20937.0,20947.0,20971.0,20999.0,21076.0,21174.0,21247.0,0.13593436478362858,-0.15592715058343057,0.046676429548584746,-0.05207009621933993,0.010582147270171517
24,24,21733.876695499283,605.0572899165531,7.993445401115802,21876.245715360375,-5638.990550724435,5.368295670450816,21904.589439403942,45680.37988906456,9.39054677143184,21976.54796540086,-1496.5459735492532,15.28779240518434,22158.90470369982,12174.849732849512,31.25456743691066,0.9790507961758784,137.0,126.0,148.0,182.0,330.0,11.0,963.0,945.0,18.0,8.0,10.0,0.4444444444444444,84.02685478747414,90.1834295380666,14.0,8.0,6.0,0.5714285714285714,916.811687595134,4972.105753365215,25.0,13.0,12.0,0.52,2139.715538347313,40933.375963069746,49.0,10.0,39.0,0.2040816326530612,91.81841507541442,1853.4021884877943,78.0,39.0,39.0,0.5,113.23962346818736,12969.914315246406,0.0,0.0,0.0,0.0,21731.0,21742.0,21868.0,21882.0,21892.0,21917.0,21968.0,22016.0,22120.0,22198.0,0.13887421271969594,-0.1625843631671545,0.04684101891323238,-0.06135355458386295,0.009301110564235583
25,25,0.0,0.0,0.0,0.0,0.0,0.0,0.0,0.0,0.0,0.0,0.0,0.0,0.0,0.0,0.0,0.0,0.0,0.0,0.0,0.0,0.0,0.0,0.0,0.0,0.0,0.0,0.0,0.0,0.0,0.0,0.0,0.0,0.0,0.0,0.0,0.0,0.0,0.0,0.0,0.0,0.0,0.0,0.0,0.0,0.0,0.0,0.0,0.0,0.0,0.0,0.0,0.0,0.0,0.0,0.0,0.0,0.0,0.0,,22432.0,22794.0,22808.0,22818.0,22842.0,22884.0,22929.0,23045.0,23123.0,,,,,
26,26,23341.424659799777,396.7151248732696,0.5063196334097327,23695.813619537086,-6265.147163913208,5.689780175618103,23724.093452952387,45271.11926296296,9.602023602760022,23780.684833895823,-2324.2774828395236,73.89099662505764,23977.450746938837,11012.171550134386,29.008662451243133,0.9745453690718874,347.0,344.0,166.0,159.0,325.0,3.0,1605.0,1819.0,3.0,1.0,2.0,0.3333333333333333,86.11347369349086,32.469580338249386,15.0,9.0,6.0,0.6,997.2007415145551,3649.431336382035,24.0,12.0,12.0,0.5,2084.7245250451915,40103.081249022885,91.0,18.0,73.0,0.1978021978021978,85.57629374634881,2560.337318646717,74.0,37.0,37.0,0.5,172.2437644386541,11256.166299524608,0.0,0.0,0.0,0.0,23340.0,23343.0,23687.0,23702.0,23712.0,23736.0,23764.0,23853.0,23944.0,24012.0,0.2170662732382582,-0.15916637158315433,0.04604976768822101,-0.03681844976693659,0.01564121696202164
27,27,24211.07515116452,791.681383028066,2.092397863604137,24562.194806676496,-5761.960618092466,5.6178497358727615,24590.090161647313,46841.8725630814,9.587535747436045,24648.98619029525,-1490.4006968859296,84.08285822851387,24843.808138396547,11721.027251670292,29.90461137162645,0.975222802895941,345.0,339.0,152.0,173.0,325.0,6.0,870.0,867.0,6.0,3.0,3.0,0.5,143.581851515262,560.8393323280959,15.0,9.0,6.0,0.6,975.0974610252528,4971.357017207882,24.0,12.0,12.0,0.5,2162.6760468175967,42502.246375331335,111.0,21.0,90.0,0.1891891891891892,88.32119160542022,1421.8392981393172,77.0,40.0,37.0,0.5194805194805194,120.38751879285168,12481.766097420428,0.0,0.0,0.0,0.0,24208.0,24214.0,24553.0,24568.0,24578.0,24602.0,24630.0,24705.0,24806.0,24878.0,0.18136317790634704,-0.16923015023106233,0.0461697179997479,-0.05926003107081212,0.010271072339303366
28,28,25148.10214459779,833.9312117221248,2.592062270425921,25496.017308779752,-6112.239070516691,5.330076611493143,25525.038346143323,46246.368299160706,9.213317638255353,25608.75339099857,-1861.1046499614215,25.47965400864057,25778.16433375855,11669.755210045803,31.27688189075092,0.9765472353536372,343.0,337.0,148.0,180.0,328.0,6.0,937.0,935.0,6.0,3.0,3.0,0.5,109.26774217724191,738.6557070461183,14.0,8.0,6.0,0.5714285714285714,919.1025004055888,3480.5767528453425,24.0,12.0,12.0,0.5,2216.130435882288,42383.28361393011,33.0,6.0,27.0,0.1818181818181818,134.63716956222032,2142.7187461740923,79.0,40.0,39.0,0.5063291139240507,101.07095575837714,12029.027627269528,0.0,0.0,0.0,0.0,25145.0,25151.0,25488.0,25502.0,25513.0,25537.0,25603.0,25636.0,25739.0,25816.0,0.13102728455455767,-0.15037083625197492,0.04792009659107669,-0.072342610913906,0.008660931950943676
29,29,26319.13974615535,1295.321404039753,6.5530995002195835,26468.61513345582,-6166.519075453563,5.346840656643894,26496.8868772525,46265.456135665365,9.345799037550211,26598.027373698995,-1506.756278664666,17.8357578060484,26751.516852620854,12329.429006920762,31.1992017235202,0.9803728578849408,151.0,134.0,147.0,182.0,329.0,17.0,1170.0,971.0,17.0,9.0,8.0,0.5294117647058824,100.74039025885725,1374.167240931983,13.0,8.0,5.0,0.6153846153846154,1018.850940674542,5147.43278180359,24.0,12.0,12.0,0.5,2161.0953890504265,42094.608601887296,23.0,12.0,11.0,0.5217391304347826,141.10803466933552,1511.5246954887,77.0,39.0,38.0,0.5064935064935064,132.38864442104733,12900.556061409738,0.0,0.0,0.0,0.0,26310.0,26327.0,26461.0,26474.0,26485.0,26509.0,26591.0,26608.0,26713.0,26790.0,0.07777250491242987,-0.16522302586076132,0.04671077666917175,-0.0936502051907093,0.01073761358670664
30,30,27277.243985628273,475.46246200129497,1.9364050560637496,27430.028585770007,-6183.59623714192,5.409883730204925,27458.276740309226,46102.86983148151,9.65177363852924,27509.3834774964,-2402.1084191087725,63.69913502160143,27713.03358863892,11431.28132689738,30.060760427114086,0.9753135944212408,147.0,142.0,148.0,181.0,329.0,5.0,959.0,961.0,5.0,2.0,3.0,0.4,92.60055715289742,833.5700122014777,15.0,9.0,6.0,0.6,1008.7932153894244,3856.630099261891,24.0,12.0,12.0,0.5,2111.460846502073,41446.634042505735,116.0,15.0,101.0,0.1293103448275862,105.67752745776328,2426.4225129223732,78.0,39.0,39.0,0.5,103.22528931288495,11617.844328096558,0.0,0.0,0.0,0.0,27275.0,27280.0,27422.0,27436.0,27446.0,27470.0,27495.0,27570.0,27676.0,27751.0,0.19475892326626032,-0.16314021431898862,0.045798902632743575,-0.04399365433179391,0.009030071639475768
31,31,27949.420213468857,811.0790383103384,1.442712737563623,28301.409873464752,-6417.269020556861,5.5774070738483195,28329.946801259262,46020.494427799385,9.22291653394971,28429.47940829813,-1669.9299874534756,33.12355021123273,28583.031622970782,11658.956879669582,29.932283483353288,0.9776857476786742,346.0,341.0,156.0,174.0,330.0,5.0,672.0,872.0,5.0,2.0,3.0,0.4,131.60260981176037,662.0172527039098,15.0,8.0,7.0,0.5333333333333333,938.4908021328548,3080.769930972072,24.0,12.0,12.0,0.5,2202.5054300733045,42570.890613861266,52.0,9.0,43.0,0.173076923076923,104.8028116272615,1446.7054637698675,80.0,39.0,41.0,0.4875,96.60900592690176,11165.837308399708,0.0,0.0,0.0,0.0,27947.0,27952.0,28293.0,28308.0,28318.0,28342.0,28422.0,28449.0,28546.0,28623.0,0.16225620882265487,-0.14624457835981713,0.0478592300551827,-0.06275880570722508,0.00828624781135992
32,32,29060.42358806784,692.4180426629422,6.479885517560044,29206.23040429142,-6277.8937914899625,5.675842483930752,29235.21364471688,46189.221469418895,9.366524695687422,29303.246609001435,-1560.7496865258431,25.479654008639788,29489.21790759321,12004.432411856413,30.786576062951585,0.9798243277108932,148.0,129.0,170.0,159.0,329.0,19.0,1109.0,905.0,20.0,10.0,10.0,0.5,89.33198709407934,1206.396839312149,15.0,8.0,7.0,0.5333333333333333,912.8218824031326,3246.637818617707,24.0,12.0,12.0,0.5,2165.6473551672016,42850.50622979407,92.0,26.0,66.0,0.2826086956521739,78.17214236220325,1627.8715997508425,80.0,42.0,38.0,0.525,102.57883916531846,12749.583787092422,0.0,0.0,0.0,0.0,29050.0,29069.0,29198.0,29213.0,29223.0,29247.0,29289.0,29368.0,29447.0,29527.0,0.12901452820397502,-0.14540256855579714,0.04688642255208913,-0.05008627779141884,0.008545080320832532
33,33,29945.72601729957,882.102900873899,3.7101257506615,30087.70350347988,-6615.279394183833,5.6454727581271085,30116.079366802973,46353.00550466264,9.288502570043416,30184.632985808537,-1748.0907943502011,33.12355021123273,30368.232452145643,11707.77828398932,30.789524694409497,0.9762372436608694,141.0,130.0,114.0,213.0,327.0,11.0,889.0,881.0,11.0,7.0,4.0,0.6363636363636364,114.82642816305923,287.3233864433809,15.0,9.0,6.0,0.6,1030.4231509640065,4748.15375499944,24.0,12.0,12.0,0.5,2209.988628232268,42720.783115753096,34.0,24.0,10.0,0.7058823529411765,93.79324531557664,1138.9594009498612,79.0,39.0,40.0,0.4936708860759494,108.1848964478678,11778.320068051473,0.0,0.0,0.0,0.0,29939.0,29950.0,30080.0,30094.0,30104.0,30128.0,30161.0,30194.0,30331.0,30407.0,0.13017350702429473,-0.1557641166100946,0.04767735347840532,-0.05365467607215527,0.009240429210708008
34,34,30822.849321800284,767.573277393541,2.387134946441722,30979.776782278765,-6277.933163435672,5.5919663088585265,31007.38348455202,44732.004001403366,9.36229764514806,31105.109494795972,-1815.6940099171131,71.3430312241936,31259.761334219547,11084.54991829596,32.18011098060022,0.9687811982221708,151.0,142.0,174.0,154.0,328.0,9.0,875.0,892.0,9.0,3.0,6.0,0.3333333333333333,131.11199496160182,968.97224046182,15.0,9.0,6.0,0.6,1011.015945933561,5215.289518672869,24.0,12.0,12.0,0.5,2111.102310596096,41496.16342934842,132.0,77.0,55.0,0.5833333333333334,100.66636250439034,1486.344866164187,76.0,36.0,40.0,0.4736842105263157,94.20034288286244,11636.128809700567,0.0,0.0,0.0,0.0,30820.0,30829.0,30971.0,30986.0,30995.0,31019.0,31047.0,31145.0,31224.0,31299.0,0.17081365235488732,-0.161042801765075,0.047194449650184794,-0.05544236085737033,0.008498346218584576
35,35,0.0,0.0,0.0,0.0,0.0,0.0,0.0,0.0,0.0,0.0,0.0,0.0,0.0,0.0,0.0,0.0,0.0,0.0,0.0,0.0,0.0,0.0,0.0,0.0,0.0,0.0,0.0,0.0,0.0,0.0,0.0,0.0,0.0,0.0,0.0,0.0,0.0,0.0,0.0,0.0,0.0,0.0,0.0,0.0,0.0,0.0,0.0,0.0,0.0,0.0,0.0,0.0,0.0,0.0,0.0,0.0,0.0,0.0,,31435.0,31805.0,31819.0,31829.0,31853.0,31879.0,31961.0,32056.0,32131.0,,,,,
36,36,32477.876695499283,1441.721389430838,5.959917855998937,32624.88081639408,-6005.68936475821,5.122032891806881,32653.564443710417,47142.14561247083,9.490112398865763,32716.739581293812,-2181.1727683796653,109.56251223715444,32902.806858473734,11487.018828680571,30.45367685075919,0.9708507332370504,141.0,131.0,169.0,154.0,323.0,10.0,1658.0,1646.0,19.0,12.0,7.0,0.631578947368421,156.6886429431137,547.5693125575376,15.0,9.0,6.0,0.6,998.5869957035724,2907.478860915116,23.0,12.0,11.0,0.5217391304347826,2204.2009768965395,40253.47311527667,94.0,26.0,68.0,0.2765957446808511,64.51260314457075,2060.3052083417197,75.0,37.0,38.0,0.4933333333333333,143.56529975380073,11708.14242708858,0.0,0.0,0.0,0.0,32475.0,32485.0,32616.0,32631.0,32642.0,32665.0,32692.0,32785.0,32869.0,32939.0,0.10868163855498542,-0.1662735008512675,0.04675648399663522,-0.02957702575412925,0.012498046873166918
37,37,33315.273982700426,1011.8525518709084,7.64389620259217,33475.56710452994,-6046.46141085457,6.151491093304763,33504.59259870495,46805.38654155809,9.252659927990557,33596.68483389583,-2095.552625865898,73.89099662505764,33754.35208311997,11196.734397339573,30.727518724273644,0.9733005813836472,156.0,134.0,171.0,153.0,324.0,22.0,834.0,851.0,22.0,4.0,18.0,0.1818181818181818,77.33786362745862,1710.987669574734,17.0,10.0,7.0,0.5882352941176471,911.321424179125,3766.3664202558857,23.0,12.0,11.0,0.5217391304347826,2235.1349918991127,40890.19501806615,125.0,71.0,54.0,0.568,100.82514701721776,1644.8117318818413,79.0,39.0,40.0,0.4936708860759494,139.73283266398127,11320.471903661455,0.0,0.0,0.0,0.0,33311.0,33333.0,33467.0,33483.0,33493.0,33516.0,33543.0,33638.0,33721.0,33791.0,0.07643194997577606,-0.15071979497679855,0.04775379837776911,-0.048113870189996334,0.012479784525136439
38,38,34194.01084554855,1390.0608672063502,7.548533106474577,34346.75359028365,-5896.445115103878,5.462125269370584,34374.95089174412,47068.06697365891,9.39386155663872,34429.2327992967,-1943.8507997350468,58.60320421987331,34626.07882968804,11138.33179588523,29.826879597731036,0.9729566974284914,151.0,137.0,138.0,188.0,326.0,14.0,881.0,870.0,15.0,7.0,8.0,0.4666666666666667,114.99495264936616,1381.9099562085917,15.0,9.0,6.0,0.6,989.6569664464192,4482.946012974811,24.0,12.0,12.0,0.5,2225.444652824357,41967.48846511432,98.0,17.0,81.0,0.173469387755102,100.13312531528004,2008.1229714412248,78.0,39.0,39.0,0.5,112.1782077298756,11210.239056812705,0.0,0.0,0.0,0.0,34187.0,34201.0,34338.0,34353.0,34363.0,34387.0,34416.0,34476.0,34588.0,34664.0,0.08272655921929174,-0.16783959608330626,0.047281411706790524,-0.05151276287713466,0.010071365244418104
39,39,35072.273982700426,952.615032125082,3.6182285731524737,35226.90061487627,-7975.029072051085,7.047428831845289,35256.3993852464,44070.667304852555,9.59140906561212,35286.97262630099,-4138.833798164546,17.8357578060484,35510.64098091952,10649.939692577076,27.75240145056737,0.966458005683534,151.0,139.0,189.0,137.0,326.0,12.0,876.0,881.0,12.0,4.0,8.0,0.3333333333333333,119.15246686703172,767.880001046873,15.0,8.0,7.0,0.5333333333333333,965.2426837123488,1171.0526541729969,24.0,12.0,12.0,0.5,2119.780560052651,39925.12948466082,132.0,10.0,122.0,0.0757575757575757,385.0237923418353,7101.494309438342,72.0,38.0,34.0,0.5277777777777778,120.40689714646754,10962.636118193494,0.0,0.0,0.0,0.0,35068.0,35080.0,35219.0,35234.0,35244.0,35268.0,35277.0,35408.0,35474.0,35545.0,0.12507934774158228,-0.12103312414184085,0.04809957937304128,-0.09302712095194117,0.011305875960066722
40,40,35908.67800824188,1295.403233652008,4.522233532643869,36058.62456005236,-6312.789086499327,6.04184670830523,36087.52346192546,46823.43608604134,9.560435925313348,36142.65746019684,-2382.153188811797,56.055238819009254,36339.57230496103,11073.511298019132,29.457225736801533,0.9738110224157388,148.0,134.0,165.0,162.0,327.0,14.0,837.0,832.0,15.0,8.0,7.0,0.5333333333333333,138.07178674120104,418.11669254578754,16.0,9.0,7.0,0.5625,966.6636573118548,4110.131995808573,24.0,13.0,11.0,0.5416666666666666,2181.3384129855317,40584.61558930776,94.0,18.0,76.0,0.1914893617021276,71.83991486088776,2593.5299639270306,74.0,37.0,37.0,0.5,103.16823498928794,11536.607264255485,0.0,0.0,0.0,0.0,35902.0,35916.0,36050.0,36065.0,36075.0,36099.0,36130.0,36215.0,36303.0,36377.0,0.1065859518907856,-0.15312782417825166,0.046586465994874225,-0.0301575546015666,0.009316668598852022
41,41,36749.25260192826,751.3846014090059,3.7289999171246655,36898.101080501765,-7085.309893163013,6.7731224177282146,36927.88088765837,45606.1835965096,9.09095848537866,36980.39728720114,-3279.576150673832,20.383723206912453,37180.34931452365,10777.048867206267,27.893673633070208,0.9671039992625198,146.0,135.0,171.0,154.0,325.0,11.0,840.0,840.0,11.0,5.0,6.0,0.4545454545454545,110.51147956798786,746.5376702512788,16.0,8.0,8.0,0.5,853.0834234866403,1216.3338869845657,23.0,12.0,11.0,0.5217391304347826,2243.893999308729,41154.59752535814,106.0,12.0,94.0,0.1132075471698113,123.91040174849276,3484.889165167405,74.0,39.0,35.0,0.527027027027027,97.55250690975863,11151.827768654806,0.0,0.0,0.0,0.0,36744.0,36755.0,36890.0,36906.0,36916.0,36939.0,36969.0,37061.0,37141.0,37215.0,0.1470771151827644,-0.12040170950177144,0.049201529756602164,-0.0377824438450785,0.009051875714009559
42,42,37595.395159481806,1742.090539704795,8.308493879384558,37745.84824527889,-7096.010867068597,5.682359301478952,37774.264302357034,46331.96130669401,9.310253454089125,37851.808138396555,-1907.6220595204124,54.37407546946036,38028.383477496405,11335.35907924899,30.162324741180697,0.974742006665012,148.0,135.0,148.0,178.0,326.0,13.0,848.0,846.0,13.0,5.0,8.0,0.3846153846153846,123.13506690660616,1889.3556696291928,14.0,8.0,6.0,0.5714285714285714,1035.044403042882,3666.149169269308,24.0,12.0,12.0,0.5,2189.490514431978,42425.34091245972,79.0,40.0,39.0,0.5063291139240507,113.79746391382156,1336.8497058432592,79.0,42.0,37.0,0.5316455696202531,82.59949752342315,11091.671757762417,0.0,0.0,0.0,0.0,37590.0,37603.0,37738.0,37752.0,37762.0,37786.0,37814.0,37886.0,37987.0,38064.0,0.07068235783398029,-0.14586285483951986,0.04725659032516809,-0.05965409308719722,0.007286888482838929
43,43,38399.78156167983,1461.3536429220558,5.114275131006715,38551.040049128205,-6044.791907030219,5.228551932981577,38579.20150475605,45939.05492491832,9.541162222452824,38643.095685091226,-3230.139629458443,155.42588945270745,38827.14248109603,11721.605187988936,33.55634614103262,0.9620681703724624,145.0,137.0,189.0,137.0,326.0,8.0,803.0,805.0,8.0,4.0,4.0,0.5,119.0562227144383,195.92922437479672,17.0,10.0,7.0,0.5882352941176471,1014.7358128122532,2146.8764882122887,24.0,12.0,12.0,0.5,2135.84265099758,39891.77114727462,130.0,43.0,87.0,0.3307692307692307,86.06425676178011,2714.0949503541233,79.0,37.0,42.0,0.4683544303797468,111.92753002650348,10973.536230055826,0.0,0.0,0.0,0.0,38396.0,38404.0,38541.0,38558.0,38567.0,38591.0,38600.0,38730.0,38793.0,38867.0,0.08146982305828378,-0.16786943676788846,0.046492960172740815,-0.026644128933896716,0.009548822727896943
44,44,39208.1057095173,2029.65019829049,7.226712878520027,39357.080519191266,-5865.100533247233,5.300496111569942,39385.38194671627,46897.437776762854,9.549105414099218,39441.26017299569,-1746.9688520967973,76.4389620259217,39636.179457262486,11216.966320900628,31.095748766580904,0.9786137471416416,150.0,130.0,143.0,184.0,327.0,20.0,808.0,807.0,20.0,10.0,10.0,0.5,138.2918432647867,1807.2847543931648,15.0,9.0,6.0,0.6,989.6615382698316,4259.590253120181,24.0,12.0,12.0,0.5,2176.3314533179105,43016.821721989654,113.0,18.0,95.0,0.1592920353982301,118.33189638544756,1684.7885071488845,79.0,40.0,39.0,0.5063291139240507,121.36335707946516,11869.497939687131,0.0,0.0,0.0,0.0,39198.0,39218.0,39348.0,39363.0,39373.0,39397.0,39424.0,39491.0,39597.0,39675.0,0.0681358016180648,-0.1687373528654422,0.04640619096671115,-0.0677355502036684,0.010819623916791853
45,45,40041.726017299574,1407.1888594245288,7.64389620259217,40189.086255824455,-5642.087730170991,5.3907669117448,40217.109537629614,47009.90357425691,9.41813690964234,40282.16424219396,-2239.324861157807,107.01454683629038,40466.58355852517,11617.95215210982,31.46547349823596,0.9724184829221322,154.0,134.0,170.0,155.0,325.0,20.0,836.0,832.0,21.0,17.0,4.0,0.8095238095238095,93.61357304403523,713.1455489171017,15.0,9.0,6.0,0.6,973.1470784915812,3879.651824239456,24.0,12.0,12.0,0.5,2215.87561412363,41943.643175674675,93.0,24.0,69.0,0.2580645161290322,90.23427808705794,2422.8526847927337,76.0,37.0,39.0,0.4868421052631579,122.66956646804849,11630.089622866071,0.0,0.0,0.0,0.0,40026.0,40046.0,40180.0,40195.0,40205.0,40229.0,40258.0,40350.0,40432.0,40505.0,0.06652523747403642,-0.17247996221109604,0.04713635735549701,-0.040295304916323646,0.010558622110160069
46,46,40881.30135639943,1247.6553115672584,5.579377369033257,41028.79756411907,-7259.906376091679,6.892222147595255,41058.00858789759,44119.881741156285,9.13676941947586,41137.05474739799,-2954.1228512415464,35.6715156120968,41310.72062766195,10580.727906573537,28.624086128434367,0.969513467997089,149.0,133.0,137.0,193.0,330.0,16.0,840.0,840.0,19.0,11.0,8.0,0.5789473684210527,143.3425257509617,785.5537782866445,16.0,9.0,7.0,0.5625,907.2305502449092,2129.6268921347605,24.0,12.0,12.0,0.5,2150.886373201739,40489.34406819016,96.0,38.0,58.0,0.3958333333333333,88.59577153840232,2191.2690234169913,77.0,37.0,40.0,0.4805194805194805,101.97904941289926,10539.450146221983,0.0,0.0,0.0,0.0,40871.0,40887.0,41020.0,41036.0,41046.0,41070.0,41101.0,41157.0,41274.0,41350.0,0.11488952471247858,-0.12496449723271921,0.048750955086883895,-0.029990550833445418,0.009638188441604502
47,47,41671.12330450071,1278.764110484719,8.528404770954186,41823.08895136644,-6656.0167927581915,5.577231790945392,41851.156809116845,47026.41724162872,9.440913779584768,41907.68483389583,-2250.3288000922416,73.89099662505764,42100.87920930882,10772.61247612786,29.55461924281259,0.972309462825182,150.0,129.0,153.0,170.0,323.0,21.0,786.0,794.0,23.0,8.0,15.0,0.3478260869565217,130.89569747820548,1295.6350171900958,15.0,9.0,6.0,0.6,1001.3373117352528,3266.9147339572637,24.0,12.0,12.0,0.5,2207.4747507664215,41717.01648073466,110.0,20.0,90.0,0.1818181818181818,108.64808575945617,1751.877545308961,73.0,37.0,36.0,0.5068493150684932,126.79176708394152,11533.973980503066,0.0,0.0,0.0,0.0,41664.0,41685.0,41814.0,41829.0,41839.0,41863.0,41891.0,41967.0,42065.0,42137.0,0.1023610972539643,-0.15044092328984462,0.046941163717067545,-0.0482809826524029,0.01176982531998737
48,48,42485.35944394079,1809.0357062876724,7.371730525749752,42631.534790262194,-5497.478050601802,5.287262946443904,42660.201360866304,46970.41850488402,9.43207068815394,42725.465598593386,-2247.3779480182498,117.20640843974662,42908.383477496405,11343.690252483766,30.67397161753,0.9709121129064748,145.0,129.0,169.0,153.0,322.0,16.0,818.0,809.0,18.0,9.0,9.0,0.5,135.56339080741242,1344.1679485459956,16.0,10.0,6.0,0.625,964.8090669624812,3746.75083288611,24.0,12.0,12.0,0.5,2190.41328754609,41974.37075682025,102.0,30.0,72.0,0.2941176470588235,95.43385435351756,2598.2356727484885,74.0,35.0,39.0,0.4729729729729729,108.70663278331934,11341.017863631672,0.0,0.0,0.0,0.0,42477.0,42493.0,42622.0,42638.0,42648.0,42672.0,42697.0,42791.0,42876.0,42944.0,0.07493682426291212,-0.17550030360864555,0.046633889100186086,-0.04246453269583412,0.00958300432784802
49,49,43307.30135639943,1193.0508122721556,4.645367360978143,43453.54796540086,-5872.610299090612,6.400132647487699,43483.28791484058,46590.73435638061,9.33770448624057,43535.08212109698,-2630.385769571611,53.50727341814519,43733.79740700157,10900.172015127955,28.9016762297842,0.9680116547914364,146.0,132.0,177.0,149.0,326.0,14.0,822.0,822.0,14.0,8.0,6.0,0.5714285714285714,118.56336533323184,935.4649372412794,16.0,9.0,7.0,0.5625,864.8012265981948,2674.5715490617413,24.0,12.0,12.0,0.5,2208.1894815633564,41731.96475217288,126.0,30.0,96.0,0.238095238095238,97.58752384511249,2585.118828734027,75.0,38.0,37.0,0.5066666666666667,107.96322082034754,11472.046319132778,0.0,0.0,0.0,0.0,43299.0,43313.0,43445.0,43461.0,43471.0,43495.0,43523.0,43622.0,43697.0,43771.0,0.0993783031817638,-0.14726010795099267,0.047395464185486576,-0.037100080518229744,0.00990472633555776
50,50,44126.15067819971,1480.296182138825,5.095930801728113,44272.390414873385,-5607.552571203394,5.234424538275888,44300.85906850681,46196.79229997256,9.497915106156292,44345.5889030941,-2121.514830595686,104.46658143542632,44550.95881659626,10756.225648225698,30.61047981633872,0.972121502959398,148.0,135.0,180.0,144.0,324.0,13.0,818.0,818.0,13.0,10.0,3.0,0.7692307692307693,136.97613288784456,1085.6316922508522,15.0,8.0,7.0,0.5333333333333333,962.2292024934774,2557.635617176762,24.0,12.0,12.0,0.5,2170.8377862755024,40646.03951795935,124.0,24.0,100.0,0.1935483870967742,89.05998124552778,1605.1302606443696,78.0,38.0,40.0,0.4871794871794871,120.88853846725252,10866.46829438645,0.0,0.0,0.0,0.0,44116.0,44129.0,44264.0,44279.0,44289.0,44313.0,44322.0,44444.0,44517.0,44588.0,0.09253292316807359,-0.17159521739213596,0.04699109349799578,-0.0419794290198392,0.011238936632683397
51,51,44926.726017299574,1625.7151894705305,3.813252282549668,45075.9636002513,-6496.749361709681,5.652653145475888,45104.34978305444,46001.88343280817,9.481648968875378,45167.616276793095,-2604.9693644815848,122.3023392414742,45353.383477496405,10699.8605679841,30.82324584958943,0.963063760730386,147.0,136.0,177.0,145.0,322.0,11.0,801.0,804.0,11.0,7.0,4.0,0.6363636363636364,155.347837824792,808.8774245750417,16.0,9.0,7.0,0.5625,1006.03884235368,2096.3102536945144,24.0,12.0,12.0,0.5,2169.594837836184,41531.714477465546,132.0,42.0,90.0,0.3181818181818182,72.91039457746804,2583.5427069355715,75.0,36.0,39.0,0.48,110.96126405824783,10505.373859454246,0.0,0.0,0.0,0.0,44920.0,44931.0,45067.0,45083.0,45092.0,45116.0,45140.0,45244.0,45319.0,45389.0,0.09555661337911613,-0.15485264804627333,0.04716317411232007,-0.027988964312437487,0.010370346730523183
52,52,45730.12330450071,1310.2901075447849,6.91359859752863,45884.230159556886,-6847.994290204585,5.76662902041355,45912.62458117683,45919.27728754286,9.259453895810708,45987.905945440434,-1988.795871990436,38.21948101296085,46164.12180318826,11129.496439641633,29.211537896907164,0.9768446862628172,153.0,135.0,132.0,193.0,325.0,18.0,800.0,808.0,18.0,7.0,11.0,0.3888888888888889,114.86037197943452,1046.6969142140135,15.0,8.0,7.0,0.5333333333333333,969.6667050169189,3473.238240694844,24.0,13.0,11.0,0.5416666666666666,2194.7193197389943,40868.04048986901,99.0,36.0,63.0,0.3636363636363636,94.50424597194556,1798.9699445040742,77.0,39.0,38.0,0.5064935064935064,95.8374728379266,11404.290798103502,0.0,0.0,0.0,0.0,45723.0,45741.0,45876.0,45891.0,45900.0,45924.0,45972.0,46008.0,46127.0,46201.0,0.08766026036375968,-0.14159864391299745,0.047795162497785766,-0.047518323676609096,0.00861112390463306
53,53,46578.273982700426,1635.2967634919278,4.22718216681187,46729.030527191746,-5907.135912689325,5.4645490527169,46757.85250524986,47734.51976016864,9.350303015620272,46815.53415569612,-1754.1486388021017,68.79506582332952,47008.81918167537,11449.56180572542,30.806357646646205,0.9806995950553962,146.0,134.0,151.0,175.0,326.0,12.0,849.0,845.0,12.0,4.0,8.0,0.3333333333333333,165.2750617839275,1502.1878223713456,16.0,9.0,7.0,0.5625,938.9858219529056,3360.368439963541,23.0,12.0,11.0,0.5217391304347826,2256.601036086475,42226.93114443176,96.0,17.0,79.0,0.1770833333333333,84.93071734652982,1752.069575511711,77.0,39.0,38.0,0.5064935064935064,125.1448391171376,12084.371343180575,0.0,0.0,0.0,0.0,46574.0,46586.0,46720.0,46736.0,46746.0,46769.0,46800.0,46871.0,46973.0,47046.0,0.10106732030155048,-0.158957883453441,0.047273986360903165,-0.048417058547859736,0.010930098569759954
54,54,47401.55376500579,1840.093113736162,6.983462984326552,47552.626656435175,-5828.695408809103,5.6470776642968294,47581.11393837035,46068.86845727023,9.175523640658149,47651.39728720114,-1568.1290715884415,20.383723206912453,47831.687623354475,10923.574271821351,31.012324085420833,0.9767624173236962,149.0,134.0,112.0,214.0,326.0,15.0,825.0,823.0,15.0,7.0,8.0,0.4666666666666667,138.6688676548275,2087.5030931992956,15.0,9.0,6.0,0.6,951.2508817953204,4980.087912637613,24.0,12.0,12.0,0.5,2191.511860628477,42275.34637383564,32.0,27.0,5.0,0.84375,128.1455807541321,1871.8261234457505,82.0,43.0,39.0,0.524390243902439,115.645757493577,11442.840798740875,0.0,0.0,0.0,0.0,47395.0,47410.0,47544.0,47559.0,47569.0,47593.0,47639.0,47656.0,47790.0,47870.0,0.07535970143014743,-0.16320133667607042,0.04757034270683567,-0.08171877116232953,0.010586805620198772
55,55,47961.83857391399,458.2882424684024,2.5177137424711487,48340.25482026398,-7179.210529759199,17.835757806048385,48367.29656528974,45109.67672137712,9.861078773232974,48396.123304500536,-5153.815760635803,12.739827004320285,48618.933878449185,9733.899723400988,26.582732092984894,0.9582101852013098,369.0,365.0,160.0,165.0,325.0,4.0,560.0,787.0,4.0,2.0,2.0,0.5,114.73487976074502,1731.9262320370372,17.0,11.0,6.0,0.6470588235294118,1027.4488764453697,2362.764251583956,23.0,11.0,12.0,0.4782608695652174,2179.063396024974,41277.86124460574,100.0,7.0,93.0,0.07,585.1898528547683,11213.943458619817,74.0,38.0,36.0,0.5135135135135135,116.70083057918389,9323.780267417324,0.0,0.0,0.0,0.0,47960.0,47964.0,48329.0,48346.0,48356.0,48379.0,48389.0,48489.0,48582.0,48654.0,0.25035527672009966,-0.14311446532824157,0.04830589696938202,-0.11354496940390747,0.011989113705232321
56,56,48957.70118347793,1990.5509440490275,12.972011643790308,49105.65481958167,-6310.809559384033,5.757239945794917,49134.860461871474,45917.692305742436,9.270806911130734,49195.60271279895,-1875.105108889947,20.383723206912453,49384.61631921905,11091.442952560406,31.052770354555943,0.98117659072052,154.0,127.0,130.0,195.0,325.0,27.0,999.0,767.0,37.0,22.0,15.0,0.5945945945945946,96.47245791051256,1696.5286326118062,14.0,8.0,6.0,0.5714285714285714,942.5765416891262,3475.399858926414,24.0,12.0,12.0,0.5,2192.9710806941,41740.407229337725,57.0,24.0,33.0,0.4210526315789473,91.83378203724808,1275.0404278499643,77.0,38.0,39.0,0.4935064935064935,127.39063023131354,11783.990434879248,0.0,0.0,0.0,0.0,48944.0,48971.0,49098.0,49112.0,49123.0,49147.0,49191.0,49228.0,49350.0,49423.0,0.04846520416818653,-0.1493590533543412,0.047758738964759524,-0.048975271627100005,0.011485487575979104
57,57,49761.273982700426,1365.6189507272989,7.64389620259217,49913.97404923632,-5525.2510771311345,5.122692673189941,49942.2615907117,48165.27492683993,9.320680889586784,50007.7669549928,-2382.8695503026756,127.39827004320286,50189.4424230732,11016.543007926202,32.31041874657981,0.9713850831876342,148.0,133.0,189.0,135.0,324.0,15.0,799.0,807.0,15.0,4.0,11.0,0.2666666666666666,108.52980847927688,856.3397552254735,15.0,9.0,6.0,0.6,957.9934612142056,3420.7053674666563,23.0,11.0,12.0,0.4782608695652174,2287.5979015615967,43290.17586461357,121.0,33.0,88.0,0.2727272727272727,76.08790277040302,1918.8551493717648,77.0,36.0,41.0,0.4675324675324675,129.96777735746667,10603.040461562488,0.0,0.0,0.0,0.0,49757.0,49772.0,49905.0,49920.0,49931.0,49954.0,49979.0,50094.0,50156.0,50229.0,0.07947298067405718,-0.17338460240826245,0.04749475436476416,-0.03193120779974641,0.011797510095858313
58,58,50612.30135639943,1388.0099354732774,4.986151494092234,50765.768255890114,-6312.5374114547585,5.61101435143597,50793.94310009734,47135.76036372913,9.311256613815283,50879.16424219396,-2133.4464705659857,107.01454683629038,51041.91149141137,10920.015494719186,31.58489688946533,0.963583978382002,152.0,139.0,182.0,141.0,323.0,13.0,854.0,852.0,13.0,7.0,6.0,0.5384615384615384,131.13940472992118,1281.9440837013906,16.0,10.0,6.0,0.625,1000.896963081407,3840.1575184176822,23.0,12.0,11.0,0.5217391304347826,2248.943033822655,41819.94152745313,114.0,48.0,66.0,0.4210526315789473,106.16809326016248,1968.3605491829403,77.0,36.0,41.0,0.4675324675324675,123.5948758130214,10480.773310539773,0.0,0.0,0.0,0.0,50605.0,50618.0,50757.0,50772.0,50782.0,50805.0,50834.0,50939.0,51011.0,51080.0,0.0944801628420663,-0.1585569950469006,0.04771203469443153,-0.049763654595935077,0.011318196011057923
59,59,52242.77368159291,2503.2182206290136,5.573862427255556,52396.27177404956,-7027.063125083802,5.931459059269486,52425.50314649666,46264.0642647961,9.225122299476077,52494.9079350134,-2088.5897873904983,25.47965400864057,52674.84511338639,10891.54435310713,29.68906821930261,0.9770174004896142,152.0,138.0,137.0,188.0,325.0,14.0,1628.0,1632.0,15.0,8.0,7.0,0.5333333333333333,170.23013438106784,2126.7008889962754,15.0,8.0,7.0,0.5333333333333333,922.1738159334448,1991.321438264185,24.0,13.0,11.0,0.5416666666666666,2225.7434112757796,41349.236913372646,40.0,10.0,30.0,0.25,96.1227988685835,2537.364522328515,78.0,39.0,39.0,0.5,98.22050964853575,10965.440293635413,0.0,0.0,0.0,0.0,52236.0,52250.0,52388.0,52403.0,52413.0,52437.0,52485.0,52525.0,52638.0,52713.0,0.06800451234263231,-0.13123175351046062,0.04810955212530741,-0.0460228233657506,0.009018051661380371
60,60,53084.758894037535,1483.3991295763708,6.1267834632425835,53237.78531400127,-6005.34174427748,5.390745371883721,53265.922998441434,46795.01331305169,9.471708149589125,53322.10949479597,-1918.2440876474516,71.3430312241936,53516.31802498155,10944.27395651146,29.88116307617481,0.97320997771713,150.0,136.0,148.0,176.0,324.0,14.0,843.0,840.0,14.0,6.0,8.0,0.4285714285714285,140.31563116706516,1184.355257613664,15.0,9.0,6.0,0.6,1003.3263011127324,4502.649352213111,24.0,12.0,12.0,0.5,2196.147851445518,41317.51087303453,92.0,17.0,75.0,0.1847826086956521,89.05805758794578,2028.1308801881464,73.0,35.0,38.0,0.4794520547945205,109.53546972404432,11129.77043369738,0.0,0.0,0.0,0.0,53079.0,53093.0,53229.0,53244.0,53254.0,53278.0,53306.0,53377.0,53482.0,53553.0,0.09459061177091058,-0.1670723072619151,0.04693123681264102,-0.04642686411048306,0.010008472938387525
61,61,53987.52145306399,1888.9190107444035,5.574402865746544,54140.76506410751,-6293.897017471937,5.705193495480599,54170.04519259261,46143.32783304023,9.182156813436173,54253.027373699,-1730.9775280214212,17.8357578060484,54421.71688278397,11432.26805804406,31.065212820860385,0.9730345387204652,152.0,138.0,130.0,197.0,327.0,14.0,902.0,905.0,14.0,7.0,7.0,0.5,140.43198582942438,1740.5224393561257,14.0,8.0,6.0,0.5714285714285714,908.5131133729822,3511.75738942231,24.0,12.0,12.0,0.5,2203.3645440452124,42222.42653611964,91.0,42.0,49.0,0.4615384615384615,77.34022349400654,1295.2852062750662,81.0,42.0,39.0,0.5185185185185185,99.04506135381284,11642.926656376563,0.0,0.0,0.0,0.0,53981.0,53995.0,54133.0,54147.0,54158.0,54182.0,54223.0,54263.0,54382.0,54460.0,0.0743451598669027,-0.1443482648112828,0.047750447302318894,-0.0446800852362362,0.008663640569914909
62,62,54885.84932180029,1123.0482013528144,5.095930801728113,55039.772778833445,-6104.8673516638,5.350345437736791,55067.495660620414,45768.21041786719,9.517393077866371,55131.616276793095,-2966.8707548526904,122.30233924147473,55318.95881659626,10863.464961743754,30.76634783606811,0.963937379197256,149.0,143.0,179.0,147.0,326.0,6.0,898.0,897.0,12.0,6.0,6.0,0.5,126.9021927780856,431.09239569581655,16.0,10.0,6.0,0.625,1039.538667604323,3331.8754984827615,23.0,11.0,12.0,0.4782608695652174,2135.5986173532992,41275.35016880746,127.0,43.0,84.0,0.3385826771653543,82.77553479703627,3352.233621463599,76.0,38.0,38.0,0.5,96.57385890028868,10125.835255982429,0.0,0.0,0.0,0.0,54881.0,54887.0,55030.0,55046.0,55056.0,55079.0,55104.0,55209.0,55284.0,55356.0,0.11299799298482495,-0.17028030384984708,0.04666117809403348,-0.027899946319416332,0.008889784174789394
63,63,55755.70627463752,807.3629040198468,3.908714746484329,55908.02566864194,-6331.7505468836835,5.4265538231765635,55936.165700883445,47256.11174539063,9.56302613474777,55989.56152939511,-2907.915259449371,86.63082362937793,56187.00764015906,10766.485584328042,28.797742744177626,0.964669672494832,146.0,136.0,155.0,169.0,324.0,10.0,872.0,868.0,10.0,4.0,6.0,0.4,116.23466710846954,58.59516230756384,16.0,10.0,6.0,0.625,1027.126167831933,3114.7430664244953,24.0,12.0,12.0,0.5,2184.22482826485,41552.42774162778,128.0,33.0,95.0,0.2578125,111.11236194963908,2777.952765565196,72.0,36.0,36.0,0.5,96.4051939727804,10556.975398806637,0.0,0.0,0.0,0.0,55752.0,55762.0,55898.0,55914.0,55924.0,55948.0,55970.0,56053.0,56153.0,56222.0,0.14396830289048335,-0.1622183565550378,0.0462210018469812,-0.038210316338681334,0.008954193382575103
64,64,56638.87669549929,1332.9254744381133,6.259133075001664,56789.62490175188,-6010.522861632459,5.633733494291155,56818.49895206952,47010.64061642737,9.53508893620137,56873.10949479597,-2625.0747949845045,71.3430312241936,57070.64373127436,11057.469527460416,29.340872003875106,0.9724400012875478,151.0,135.0,158.0,167.0,325.0,16.0,884.0,883.0,19.0,10.0,9.0,0.5263157894736842,134.78699554339727,1001.7787850579846,16.0,9.0,7.0,0.5625,966.7085194531986,3316.824135838937,24.0,12.0,12.0,0.5,2155.490747929185,42326.72653672518,117.0,19.0,98.0,0.1623931623931624,101.25673253626984,2479.1576122386623,73.0,35.0,38.0,0.4794520547945205,154.62764485707424,11419.45570913271,0.0,0.0,0.0,0.0,56630.0,56646.0,56781.0,56797.0,56806.0,56830.0,56857.0,56939.0,57039.0,57106.0,0.10112117903682193,-0.16083601072779888,0.045851124759528836,-0.03857289427704384,0.013983999184720139
65,65,57508.60983022045,1474.7099172768278,6.772264280207514,57663.25259195151,-7472.616647852987,5.663618110235142,57691.76490195694,45408.98056527259,9.2515275082203,57762.24660900104,-2171.6265637140086,25.47965400864057,57943.34545066037,11126.316143165172,30.51871399564235,0.9748121200989236,157.0,138.0,150.0,176.0,326.0,19.0,866.0,873.0,20.0,11.0,9.0,0.55,138.90201161447507,1293.4615154977814,15.0,8.0,7.0,0.5333333333333333,1001.6819329137392,2427.4149796395286,23.0,12.0,11.0,0.5217391304347826,2178.998980902606,41661.21434059211,98.0,36.0,62.0,0.3673469387755102,102.40649436535963,2041.1181917438687,79.0,40.0,39.0,0.5063291139240507,100.64091963761815,11405.275013309834,0.0,0.0,0.0,0.0,57498.0,57517.0,57655.0,57670.0,57680.0,57703.0,57748.0,57805.0,57904.0,57981.0,0.0941893792041278,-0.13404701192607543,0.04798608014928744,-0.04715658579448378,0.00904530469408253
66,66,58330.76920728642,1086.5700554651105,3.314965060523296,58482.918164139766,-8034.011584113477,6.896405436152733,58512.21465392131,44986.22167545951,9.214344986394485,58579.541383429365,-3186.5212234526107,43.31541181468896,58763.72647801968,10342.969479071067,27.80251625429344,0.9636210554157824,149.0,138.0,119.0,207.0,326.0,11.0,825.0,820.0,11.0,6.0,5.0,0.5454545454545454,142.81295385713287,1334.0646262886494,17.0,9.0,8.0,0.5294117647058824,954.4305141864096,963.2496150247862,24.0,12.0,12.0,0.5,2194.236746689395,40990.530002041225,110.0,46.0,64.0,0.4181818181818181,102.73916348958214,2672.69867431249,73.0,36.0,37.0,0.4931506849315068,132.94053512249968,10322.775762332489,0.0,0.0,0.0,0.0,58325.0,58336.0,58474.0,58491.0,58500.0,58524.0,58534.0,58593.0,58729.0,58800.0,0.13143464900291332,-0.11879874757384078,0.04877575099591829,-0.03224179482422018,0.012853227053555944
67,67,59150.52809251748,1978.461105416903,7.091407525664569,59300.501239213365,-7069.924770222209,5.970007953326981,59329.11912796986,45526.86678001448,9.21597211366777,59399.246609001435,-2335.2110415945926,25.47965400864057,59579.57717266016,11072.348579713434,28.078341977898443,0.9748869745001136,151.0,132.0,153.0,168.0,321.0,19.0,818.0,818.0,19.0,10.0,9.0,0.5263157894736842,141.25009745673313,2041.08928223282,15.0,9.0,6.0,0.6,999.4777002576426,3669.956464418848,24.0,12.0,12.0,0.5,2175.2617186927614,41815.60395188726,78.0,31.0,47.0,0.3974358974358974,109.83541944699832,2340.9162378769884,69.0,35.0,34.0,0.5072463768115942,136.43061370919276,11113.68303783879,0.0,0.0,0.0,0.0,59141.0,59160.0,59292.0,59307.0,59317.0,59341.0,59385.0,59445.0,59548.0,59613.0,0.07139392180619532,-0.1413703444861732,0.047779736945298946,-0.04703447246977622,0.012321741203050504
68,68,59995.08875760587,2085.5154441137493,7.60832689610443,60149.16504183411,-5456.139798368596,5.513052044709803,60177.3798956967,47096.88139694586,9.428026028561932,60236.4108511954,-1542.6503085823822,81.53489282764981,60425.83799349831,11336.25438284999,30.183609652879827,0.9720188432215549,152.0,136.0,149.0,174.0,323.0,16.0,847.0,848.0,17.0,8.0,9.0,0.4705882352941176,144.47323398322806,1847.275464583652,15.0,9.0,6.0,0.6,936.1290833145562,4511.82167684749,24.0,12.0,12.0,0.5,2213.590864666104,43136.11812098096,99.0,20.0,79.0,0.202020202020202,73.42552371994361,1640.5936140356616,74.0,37.0,37.0,0.5,124.91943182760691,12019.087647967151,0.0,0.0,0.0,0.0,59988.0,60004.0,60140.0,60155.0,60165.0,60189.0,60218.0,60289.0,60389.0,60463.0,0.06927459319037683,-0.17157351495914053,0.047000794936066646,-0.04759699804385218,0.011019462655724347
69,69,60951.109857677155,1761.655407392914,5.004345764948827,61106.01576154271,-5671.121383957697,5.11168434317383,61134.42971719075,46400.11311231919,9.435829947707738,61198.04093769324,-1954.2163578671373,119.75437384061068,61385.27146951696,11248.315623281676,32.106869215359865,0.9738464251487016,152.0,139.0,170.0,157.0,327.0,13.0,954.0,957.0,13.0,6.0,7.0,0.4615384615384615,149.87883759563567,785.9474337447311,15.0,9.0,6.0,0.6,974.6323824676732,3005.481461812058,24.0,12.0,12.0,0.5,2173.107220011255,42146.40358389753,96.0,27.0,69.0,0.28125,87.97112655379738,2471.894617117276,76.0,36.0,40.0,0.4736842105263157,101.91477395287713,10790.622068501634,0.0,0.0,0.0,0.0,60945.0,60958.0,61097.0,61112.0,61122.0,61146.0,61171.0,61267.0,61353.0,61424.0,0.0850784080511196,-0.17185884703943827,0.046834093157292256,-0.045016062934715405,0.009060447569761886
70,70,61814.49225093107,1540.4634568057195,6.778449366814932,61971.28580103438,-6323.300660677432,5.6174989738113945,61999.93974362296,47678.65940770967,9.37119567187106,62054.383477496405,-2014.943635107929,63.69913502160143,62250.33591585727,11174.767962906726,30.197514709658765,0.9736853581927988,158.0,139.0,170.0,153.0,323.0,19.0,864.0,865.0,19.0,9.0,10.0,0.4736842105263157,114.19205921920188,1629.0466152018666,15.0,8.0,7.0,0.5333333333333333,959.2273010062188,2663.918302158613,24.0,12.0,12.0,0.5,2250.4139706612486,42329.83078354677,96.0,16.0,80.0,0.1666666666666666,88.0654191273013,1981.9785374580392,75.0,38.0,37.0,0.5066666666666667,119.60694346962268,11514.948215980932,0.0,0.0,0.0,0.0,61805.0,61824.0,61963.0,61978.0,61988.0,62012.0,62040.0,62133.0,62213.0,62286.0,0.07412837916712982,-0.15169724681468086,0.04719960667135191,-0.043706145220575435,0.010703304432507528
71,71,62682.222307681666,1816.9805065486069,5.082437104358831,62835.54796508603,-6401.910083414969,5.966548690412101,62864.836729171446,46625.17798554158,9.338256812164976,62940.95881659626,-1770.6317007067412,66.24710042246546,63115.314902718645,11232.894144650632,29.743444548986343,0.9754701557327936,152.0,137.0,167.0,159.0,326.0,15.0,867.0,865.0,15.0,7.0,8.0,0.4666666666666667,147.72853800356137,1659.0654190685957,16.0,9.0,7.0,0.5625,934.1872194604642,3059.993827845072,24.0,12.0,12.0,0.5,2211.269912482139,41399.53619889723,86.0,18.0,68.0,0.2093023255813953,92.02196483925373,1990.3160326888735,77.0,37.0,40.0,0.4805194805194805,135.10127109763272,11157.1404867688,0.0,0.0,0.0,0.0,62675.0,62690.0,62827.0,62842.0,62853.0,62877.0,62926.0,62994.0,63079.0,63153.0,0.08130441546903266,-0.14592320218314297,0.047426519490560475,-0.051971262461032126,0.012027289615470213
72,72,63584.20374754193,1333.4934826401122,8.067329322000008,63738.76068164894,-6498.37291219736,5.644421237826719,63767.34992844558,46168.564599645026,9.217730217514616,63851.32873009842,-1749.4666075643192,28.027619409504627,64019.10751022766,11548.560163099695,29.86723714324904,0.9774320547470144,153.0,136.0,149.0,174.0,323.0,17.0,905.0,903.0,24.0,13.0,11.0,0.5416666666666666,129.32972466474743,1026.1218804449338,14.0,8.0,6.0,0.5714285714285714,997.4069139997232,3849.5584652947414,24.0,12.0,12.0,0.5,2198.1749409071144,43011.40923782809,53.0,23.0,30.0,0.4339622641509434,115.22673546764116,1563.319347759978,74.0,38.0,36.0,0.5135135135135135,151.12212177333865,12418.329499316931,0.0,0.0,0.0,0.0,63578.0,63595.0,63731.0,63745.0,63755.0,63779.0,63845.0,63880.0,63983.0,64054.0,0.09698564436077665,-0.1534856382476302,0.0476119402881331,-0.06586392387795538,0.013085797678589282
73,73,64418.471647744846,1642.775812050579,3.810968092337848,64569.86236483222,-7742.118322251583,6.459503555368027,64598.802165607005,44699.5415582222,9.22864891310244,64678.95881659626,-2745.4094811750515,66.24710042246546,64848.81820436335,10624.151833805152,28.867289593763932,0.9635573316705588,149.0,136.0,155.0,170.0,325.0,13.0,832.0,831.0,13.0,6.0,7.0,0.4615384615384615,162.88032732585785,1293.8179678818324,16.0,9.0,7.0,0.5625,990.779114478651,822.90219843774,23.0,12.0,11.0,0.5217391304347826,2175.1182101911304,39381.38676876944,131.0,59.0,72.0,0.4503816793893129,82.06236529598819,2978.734675690165,72.0,35.0,37.0,0.4861111111111111,119.37185898355614,10569.951280236768,0.0,0.0,0.0,0.0,64412.0,64425.0,64561.0,64577.0,64587.0,64610.0,64621.0,64716.0,64816.0,64886.0,0.09914945553194143,-0.12797261333904672,0.04866086170834634,-0.029890756136263144,0.0112358954249623
74,74,65276.87669549929,1564.700900286654,5.882789735370712,65429.07478361181,-5756.684856841041,5.382083150382818,65457.788662872495,47458.13608108654,9.520330205463896,65513.26017299569,-2336.314141776763,76.4389620259217,65709.1429259211,11008.272484695532,29.783780976342644,0.97212086212154,151.0,136.0,151.0,177.0,328.0,15.0,860.0,859.0,16.0,9.0,7.0,0.5625,111.01908916522105,1264.7097408081968,15.0,9.0,6.0,0.6,938.0159966303812,3265.5514102662155,24.0,12.0,12.0,0.5,2199.2187303661317,41088.57075023984,116.0,19.0,97.0,0.1637931034482758,89.46452645043675,2486.5167389193857,78.0,38.0,40.0,0.4871794871794871,104.25090039793623,11240.845429085924,0.0,0.0,0.0,0.0,65269.0,65284.0,65420.0,65435.0,65446.0,65470.0,65496.0,65571.0,65674.0,65748.0,0.07095227538047834,-0.1629437810054299,0.046340183411513816,-0.03829302098150171,0.009470232549464334
75,75,66174.15706386385,1208.2055174574427,6.960851020401766,66328.82162882411,-6135.665103956284,6.5127030696001595,66358.31909798655,45786.44887912478,9.11130912728444,66447.972626301,-2427.777992101512,17.8357578060484,66610.72939267391,11116.160461777852,29.173755399981445,0.9735286632870056,151.0,135.0,173.0,153.0,326.0,16.0,895.0,901.0,16.0,5.0,11.0,0.3125,107.7784178612292,1196.145792476654,16.0,9.0,7.0,0.5625,844.2404937036309,2933.5434186140237,24.0,12.0,12.0,0.5,2199.193745523049,42697.71595156639,56.0,10.0,46.0,0.1785714285714285,87.59415242635593,2503.8399089814225,75.0,39.0,36.0,0.52,134.01622148034093,11765.638915074818,0.0,0.0,0.0,0.0,66169.0,66185.0,66320.0,66336.0,66346.0,66370.0,66438.0,66493.0,66573.0,66646.0,0.08920536804701816,-0.13759559548960124,0.048031542068896246,-0.03607996806599826,0.012055981194329322
76,76,67075.15067819973,1493.049722948433,4.183071998692003,67226.31877708489,-5907.350551902662,5.043333516383107,67254.20468929976,46506.773305819464,9.60239559765263,67319.36966779166,-3256.5949751659523,147.78199325011528,67504.23571977107,11347.107576167837,32.11616735742374,0.9625214256091408,149.0,139.0,185.0,141.0,326.0,10.0,902.0,896.0,10.0,7.0,3.0,0.7,127.68405707597752,612.2845444573412,15.0,9.0,6.0,0.6,1019.4844043382752,1844.8014176606648,24.0,12.0,12.0,0.5,2126.3252358212526,40781.12134551309,141.0,43.0,98.0,0.3049645390070922,83.47848196535607,2908.5791339181883,72.0,32.0,40.0,0.4444444444444444,116.83240781586586,10367.700566783207,0.0,0.0,0.0,0.0,67068.0,67078.0,67217.0,67232.0,67242.0,67266.0,67276.0,67402.0,67473.0,67543.0,0.08551895835312878,-0.17257895826241695,0.04572076462580951,-0.02563367032189875,0.010296228094395373
77,77,67948.54285407797,1737.4149429987824,4.676204478785549,68101.84136329446,-6249.304228013322,5.48174062265524,68130.52793681173,47447.02002513156,9.379648699438771,68187.95881659626,-2027.5791975720124,66.24710042246546,68382.44511867918,11091.26700537448,29.52222903473942,0.9723986243637678,151.0,139.0,152.0,172.0,324.0,12.0,873.0,876.0,12.0,6.0,6.0,0.5,145.15173316103767,1266.1297293752964,14.0,8.0,6.0,0.5714285714285714,981.7781994842276,3671.469960993438,23.0,12.0,11.0,0.5217391304347826,2246.301164335882,41064.48638960927,77.0,18.0,59.0,0.2337662337662337,96.7034162153821,2041.5331740183317,74.0,37.0,37.0,0.5,103.37770902010416,11517.714600278134,0.0,0.0,0.0,0.0,67943.0,67955.0,68094.0,68108.0,68119.0,68142.0,68173.0,68246.0,68346.0,68418.0,0.08354465566556336,-0.15710200106489913,0.04734335608740168,-0.047694026616165036,0.009320640191062983
78,78,68827.30135639943,1435.7546986700054,5.238760927525074,68977.74215689974,-5672.682710777377,5.475509229635468,69006.62582267457,47212.17648553474,9.403837600221978,69073.73958129382,-2162.1323480104647,109.56251223715444,69256.68174016237,11296.464816026864,30.950437595558217,0.9712017923141404,151.0,136.0,171.0,156.0,327.0,15.0,880.0,876.0,15.0,9.0,6.0,0.6,136.3800958676316,627.3566101589067,15.0,9.0,6.0,0.6,944.2689559661056,2890.9267613081065,23.0,12.0,11.0,0.5217391304347826,2226.2167765887393,40841.84083431707,108.0,26.0,82.0,0.2407407407407407,84.4068294691829,2500.3145308276185,76.0,36.0,40.0,0.4736842105263157,111.72288879691745,10943.372340995804,0.0,0.0,0.0,0.0,68818.0,68833.0,68969.0,68984.0,68995.0,69018.0,69049.0,69140.0,69223.0,69296.0,0.09498843778395134,-0.1664589761334817,0.047153445197995185,-0.03903869693585213,0.00989007540114767
79,79,69725.57011981572,1108.3464951394303,6.863856987858173,69877.47380314648,-6628.55971389827,5.485654012973435,69906.23232774992,45752.72009695345,9.423908887859898,69959.53415569612,-2604.4063936124,68.79506582332952,70157.83442344573,11090.93381525447,29.455568171526973,0.9688758909978022,152.0,133.0,154.0,173.0,327.0,19.0,895.0,900.0,20.0,9.0,11.0,0.45,79.23377623376128,951.781775334682,15.0,8.0,7.0,0.5333333333333333,959.0853261541444,1164.9197988906535,24.0,12.0,12.0,0.5,2153.938273517298,40591.43781277827,131.0,33.0,98.0,0.2519083969465648,99.15664847685224,2026.5354137892027,74.0,36.0,38.0,0.4864864864864865,133.98184887480613,11639.465227401692,0.0,0.0,0.0,0.0,69717.0,69736.0,69869.0,69884.0,69894.0,69918.0,69944.0,70023.0,70122.0,70196.0,0.07148827246825339,-0.14468985232843354,0.047077818957057434,-0.03807264823187544,0.01208030370630537
80,80,70400.79293321416,564.7011313260673,1.2657600179400486,70750.34712721567,-7450.815076931704,6.575135955999038,70779.24120950326,44477.25558117876,9.221799616744056,70826.54796540085,-2958.12027825996,15.28779240518434,71030.8896631005,11002.612192478988,28.938626974463027,0.9673781241855808,343.0,339.0,153.0,172.0,325.0,4.0,677.0,872.0,4.0,2.0,2.0,0.5,103.17163170205244,415.774496400346,16.0,8.0,8.0,0.5,925.8195971186605,1830.6196713521365,24.0,12.0,12.0,0.5,2153.3810995667163,41585.92294423373,77.0,9.0,68.0,0.1168831168831168,118.02926209897475,3487.5159796604485,75.0,38.0,37.0,0.5066666666666667,116.05705980742738,11321.007901999816,0.0,0.0,0.0,0.0,70399.0,70403.0,70742.0,70758.0,70767.0,70791.0,70818.0,70895.0,70995.0,71067.0,0.18270130158899844,-0.12425749230913931,0.04841533209342064,-0.03990008890659528,0.01054813691304689
81,81,71515.54796540085,1502.554707935789,6.940695887944192,71669.54796540085,-5581.576030811825,5.105743699931606,71697.93108973526,46879.94278663715,9.537979755854735,71751.38347749642,-2124.4970532674215,63.69913502160143,71949.94640821767,11182.681576399133,29.48279406055373,0.9746912769419214,154.0,135.0,167.0,161.0,328.0,19.0,1112.0,919.0,19.0,9.0,10.0,0.4736842105263157,125.9883348628683,1413.9896608763188,15.0,9.0,6.0,0.6,991.2075300352352,5332.601745060817,24.0,12.0,12.0,0.5,2180.147617229214,41488.144893744975,98.0,16.0,82.0,0.1632653061224489,83.1419344716368,2500.085110066624,80.0,40.0,40.0,0.5,127.47937086910709,10804.549779375488,0.0,0.0,0.0,0.0,71507.0,71526.0,71661.0,71676.0,71686.0,71710.0,71737.0,71828.0,71911.0,71989.0,0.08384941606282754,-0.17758560029703058,0.046504912071920285,-0.039134878696944604,0.011399713923550343
82,82,72384.87669549929,2361.218970434804,6.0920140825018745,72536.64581426926,-5768.09563800224,5.681747614863968,72565.10566080171,47371.52732714326,9.455961509403954,72636.5889030941,-1721.3098741521187,104.46658143542632,72814.60701014438,11612.836075542007,31.309691293034454,0.9746729432134794,151.0,136.0,167.0,158.0,325.0,15.0,874.0,867.0,16.0,9.0,7.0,0.5625,161.91003273674306,1880.53753629348,16.0,10.0,6.0,0.625,976.294717798953,4566.357804768026,24.0,12.0,12.0,0.5,2219.744027456288,42577.75162843712,98.0,33.0,65.0,0.336734693877551,89.85350372292825,1742.5249038074555,76.0,37.0,39.0,0.4868421052631579,127.82180106663589,11559.70015059348,0.0,0.0,0.0,0.0,72377.0,72392.0,72528.0,72543.0,72553.0,72577.0,72607.0,72695.0,72779.0,72853.0,0.06857052851262174,-0.16925772023729643,0.046858189986718125,-0.052200655484642595,0.01100694096042943
83,83,73229.69554574839,1997.6737690357968,4.956308778338841,73383.30659239904,-6052.419958800354,5.113152991016546,73410.90991143438,46245.727474618616,9.585634035315968,73456.16424219396,-3118.35313419346,107.01454683629038,73660.6011087172,10800.7843286368,30.377241572235352,0.9669979468858568,151.0,138.0,173.0,151.0,324.0,13.0,842.0,846.0,13.0,7.0,6.0,0.5384615384615384,157.8056831472557,1668.7439192599552,16.0,9.0,7.0,0.5625,1041.84417058805,3066.5623423501124,24.0,12.0,12.0,0.5,2158.452534267357,39719.126632091735,131.0,24.0,107.0,0.183206106870229,78.41408673180558,2810.3040741193345,76.0,37.0,39.0,0.4868421052631579,104.74456291819088,10755.153772911644,0.0,0.0,0.0,0.0,73223.0,73236.0,73374.0,73389.0,73399.0,73423.0,73432.0,73547.0,73626.0,73698.0,0.07899472155727542,-0.17213679448551572,0.046673555637155806,-0.0251459932077535,0.009697866352212498
84,84,74089.51552274518,2394.477623392771,9.724421358508549,74237.9860554223,-6034.342534028707,5.723224313914723,74267.06981053259,47126.54212385417,9.391016971384722,74334.5889030941,-1605.742894135306,104.46658143541946,74517.1469337419,11815.90344412294,31.155759633461795,0.9749051086553364,151.0,129.0,164.0,162.0,326.0,22.0,861.0,857.0,22.0,12.0,10.0,0.5454545454545454,154.3783665089146,2475.1296038156547,16.0,9.0,7.0,0.5625,930.868493716443,2787.4844714426195,24.0,12.0,12.0,0.5,2207.815983442812,42124.756705307416,87.0,26.0,61.0,0.2988505747126437,79.84525745672633,1767.8009767824592,74.0,35.0,39.0,0.4729729729729729,141.4672761732131,12066.31613089191,0.0,0.0,0.0,0.0,74078.0,74100.0,74229.0,74245.0,74255.0,74279.0,74310.0,74393.0,74483.0,74555.0,0.06447267036480951,-0.154261792145062,0.046848673463892355,-0.049724808217023485,0.011972616130641867
85,85,74905.26105271456,1687.5629051436008,9.079799808647136,75050.16027474307,-5893.047061258109,5.193597749906187,75078.7650115118,47273.51021968651,9.370049729629784,75154.89025949354,-2334.5393616410465,114.65844303888257,75326.98373447717,11188.780750443006,30.853489836887057,0.9724981093898348,150.0,126.0,177.0,144.0,321.0,24.0,813.0,811.0,25.0,13.0,12.0,0.52,130.81747186537393,1470.8365493814708,16.0,9.0,7.0,0.5625,944.2450963674823,2475.8709723143397,23.0,12.0,11.0,0.5217391304347826,2234.371336173914,41120.52591315028,121.0,55.0,66.0,0.4545454545454545,72.96401266824566,2075.426902347774,71.0,34.0,37.0,0.4788732394366197,117.02530984715948,11331.296729194482,0.0,0.0,0.0,0.0,74892.0,74916.0,75042.0,75057.0,75067.0,75090.0,75116.0,75219.0,75296.0,75363.0,0.07751857513971736,-0.1602303675080265,0.047264764680906554,-0.03125413684049266,0.010459165521008713
86,86,75650.1935236513,1934.1087393429716,8.906362773595676,75796.71246132476,-6730.509345366808,6.054009309931119,75825.68598980496,45201.85149814094,9.165947449848684,75905.85186803139,-2502.674965579544,35.6715156120968,76074.4074432261,10770.943612248917,29.02404241260715,0.9747860200528908,149.0,127.0,150.0,174.0,324.0,22.0,746.0,747.0,23.0,11.0,12.0,0.4782608695652174,110.15050573583692,1868.1755484344335,15.0,8.0,7.0,0.5333333333333333,914.5405577294616,3210.87366393892,23.0,12.0,11.0,0.5217391304347826,2199.1164177593946,40419.48508664219,44.0,10.0,34.0,0.2272727272727272,138.46815136705754,3163.9163258562176,77.0,38.0,39.0,0.4935064935064935,111.77820269720628,11075.767408873126,0.0,0.0,0.0,0.0,75640.0,75662.0,75789.0,75804.0,75814.0,75837.0,75897.0,75939.0,76036.0,76113.0,0.05695155783911907,-0.1358798436791443,0.0486510252317837,-0.05532806028408588,0.010377753957423939
87,87,76394.73175024679,2836.857376128302,7.757713410939271,76542.04593151066,-6657.880502489393,6.168973018818616,76571.01563713852,45136.6536162117,9.386758347012092,76629.78076469757,-1828.6694720559856,43.315411814686435,76819.5535001548,11051.387633057197,31.005942172518505,0.9828053494031566,148.0,131.0,146.0,177.0,323.0,17.0,745.0,745.0,17.0,9.0,8.0,0.5294117647058824,187.21029690952184,3035.4482112701157,15.0,8.0,7.0,0.5333333333333333,925.0906705227936,2177.855840867741,24.0,12.0,12.0,0.5,2146.520346008643,40932.272752872195,87.0,36.0,51.0,0.4137931034482758,85.5202713317009,1659.8531911717344,75.0,38.0,37.0,0.5066666666666667,107.3292106848939,11294.862404104268,0.0,0.0,0.0,0.0,76386.0,76403.0,76534.0,76549.0,76559.0,76583.0,76620.0,76680.0,76783.0,76857.0,0.06599214274389201,-0.13894672188497537,0.047556036481128924,-0.04676639088612874,0.009711831151759439
88,88,77192.53320060439,1530.118052514755,6.175443573138636,77345.10350587485,-5981.449913117732,5.350026884763743,77373.40310509017,45774.0037975295,9.650128073092317,77422.04093769325,-3427.791881213528,119.75437384061068,77621.38347749642,10536.258084009549,30.038950104516235,0.959507413482074,145.0,136.0,179.0,143.0,322.0,9.0,799.0,803.0,9.0,3.0,6.0,0.3333333333333333,146.05665440327533,1143.2599314221698,17.0,10.0,7.0,0.5882352941176471,989.2967955644272,1993.4925750442496,24.0,12.0,12.0,0.5,2109.768337306453,40169.10899990913,144.0,28.0,116.0,0.1944444444444444,93.20004430924436,2747.601766842502,70.0,32.0,38.0,0.4571428571428571,126.27621058781166,10126.11113322551,0.0,0.0,0.0,0.0,77190.0,77199.0,77335.0,77352.0,77361.0,77385.0,77395.0,77514.0,77591.0,77657.0,0.09545450049637062,-0.1653941452213503,0.046090972217298604,-0.027189528284969594,0.011984920033370854
89,89,77998.12330450071,2787.6234860721943,8.9651930436654,78156.11469339186,-6211.085511452001,5.889338271863623,78184.88371672649,46445.4666330547,9.33010989966169,78246.83803168903,-1816.8890247678976,43.31541181468896,78434.2778234601,11054.575106542572,29.66643979855214,0.976559907140744,157.0,138.0,146.0,178.0,324.0,19.0,803.0,811.0,20.0,7.0,13.0,0.35,162.19743956904756,2795.9154747660295,14.0,8.0,6.0,0.5714285714285714,899.9835226066155,3328.170848734218,24.0,12.0,12.0,0.5,2211.2372096516756,41697.76041629923,62.0,15.0,47.0,0.2419354838709677,97.11831426409373,2418.6333761193646,76.0,38.0,38.0,0.5,105.7519250793345,11344.139800704885,0.0,0.0,0.0,0.0,77991.0,78010.0,78148.0,78162.0,78173.0,78197.0,78232.0,78294.0,78397.0,78472.0,0.0581848446820149,-0.14489955434476398,0.047609322716503054,-0.053453079929579254,0.00956634914142887
90,90,78819.45203459915,2144.1189611334544,8.65025910746213,78964.87008637119,-5501.326732660312,5.4155026536940625,78993.69536601199,46811.206991777675,9.45732378140771,79061.73958129382,-2028.8028421704144,109.56251223715444,79241.04085870489,10884.029708853624,31.774546804968104,0.9721020478201076,153.0,128.0,167.0,156.0,323.0,25.0,826.0,809.0,25.0,16.0,9.0,0.64,137.04070061631552,1140.216776590679,15.0,9.0,6.0,0.6,915.8165681163864,3483.386175694334,24.0,12.0,12.0,0.5,2184.0094665006586,40408.38264694282,97.0,28.0,69.0,0.2886597938144329,68.59874819856435,2057.213513950073,76.0,37.0,39.0,0.4868421052631579,111.2541409945686,10918.840610086729,0.0,0.0,0.0,0.0,78803.0,78828.0,78956.0,78971.0,78982.0,79006.0,79037.0,79123.0,79206.0,79279.0,0.06391469088257637,-0.16647194624514133,0.046655696506272035,-0.03381242709872063,0.010221778511323689
91,91,79620.12330450071,1805.043398658094,6.877531129937651,79771.65840316616,-6788.514185973506,6.799554529121459,79801.1117538036,44686.19584741821,9.003139552894691,79890.972626301,-2727.1064653937774,17.8357578060484,80051.22678316587,10480.951065738447,29.62777462098778,0.9741273054632829,151.0,136.0,161.0,162.0,323.0,15.0,796.0,807.0,16.0,8.0,8.0,0.5,126.35852643421728,1577.6798983525118,15.0,8.0,7.0,0.5333333333333333,867.1684621835578,2218.844387669934,24.0,12.0,12.0,0.5,2197.93696665045,41549.104608125344,48.0,10.0,38.0,0.2083333333333333,157.49743244171788,3350.4682106502737,75.0,37.0,38.0,0.4933333333333333,83.2506089851918,10355.53930587356,0.0,0.0,0.0,0.0,79613.0,79628.0,79764.0,79779.0,79789.0,79813.0,79881.0,79925.0,80016.0,80087.0,0.07000304066270915,-0.12774053915587447,0.04918603888671445,-0.05775257931449193,0.007943039564160611
92,92,80435.30135639943,1634.850062516281,4.384473759017685,80589.61729637864,-6888.474790827816,6.082169013562948,80618.49977770908,45127.15978650353,9.455107641314028,80675.10949479598,-3146.533219703575,71.3430312241936,80868.68041065107,10262.53539153674,28.964093651309195,0.9669763470150352,153.0,140.0,175.0,149.0,324.0,13.0,819.0,818.0,15.0,8.0,7.0,0.5333333333333333,175.44626707789718,1125.572578038137,16.0,9.0,7.0,0.5625,983.5717660528434,1848.1579558658525,23.0,11.0,12.0,0.4782608695652174,2132.4704439340476,40395.07168472317,129.0,36.0,93.0,0.2790697674418604,117.52704942774302,2728.7537497345043,71.0,35.0,36.0,0.4929577464788732,85.34624804625061,10530.775533901391,0.0,0.0,0.0,0.0,80428.0,80441.0,80581.0,80597.0,80607.0,80630.0,80659.0,80756.0,80834.0,80905.0,0.10731642680910987,-0.142785129643284,0.047254701027557675,-0.03735128194159504,0.00831629268890352
93,93,81245.39672837747,2008.7214719850515,7.037703802342447,81397.42444337696,-6124.067399723951,5.704628262924212,81426.423202117,47011.285312479005,9.563472063995894,81480.10949479598,-2600.235898351873,71.3430312241914,81675.67998510014,10375.540861527588,29.611664657807065,0.9726854945918608,154.0,133.0,169.0,154.0,323.0,21.0,810.0,808.0,21.0,10.0,11.0,0.4761904761904761,127.75773535154768,1890.7635162022425,15.0,8.0,7.0,0.5333333333333333,902.471369319154,2125.596543859803,24.0,12.0,12.0,0.5,2164.6707981148575,42343.122714554,96.0,17.0,79.0,0.1770833333333333,81.55952994265739,2761.29205507787,74.0,37.0,37.0,0.5,108.41457684263514,10863.364810305571,0.0,0.0,0.0,0.0,81235.0,81256.0,81389.0,81404.0,81414.0,81438.0,81464.0,81558.0,81639.0,81712.0,0.06360151824597932,-0.1473647023153001,0.046045769302551956,-0.031366204118000555,0.010449053045960758
94,94,82104.72601729959,1351.405704578464,4.1485105780920515,82256.17239851266,-6718.060802293573,6.26530978905569,82285.38526343102,45405.271160739496,9.143206698744486,82353.67126990156,-2868.282961561946,28.027619409504627,82536.77704648877,10502.830541329104,27.365516450542543,0.9663523388182248,151.0,139.0,155.0,170.0,325.0,12.0,859.0,859.0,13.0,8.0,5.0,0.6153846153846154,119.38149316072445,967.6335807243232,15.0,8.0,7.0,0.5333333333333333,876.8374535721615,2138.2990042380966,24.0,12.0,12.0,0.5,2181.5919992814797,41987.01702694419,116.0,35.0,81.0,0.3017241379310345,114.46158790961468,2651.635910903837,73.0,37.0,36.0,0.5068493150684932,117.99568448106716,10578.716764580871,0.0,0.0,0.0,0.0,82097.0,82109.0,82248.0,82263.0,82273.0,82297.0,82338.0,82403.0,82501.0,82573.0,0.08833875183171763,-0.13051942805769273,0.048047108705912396,-0.039905960968120005,0.011234655649898274
95,95,82994.87669549929,1262.7400021796109,5.2020376917017845,83148.12521253477,-5796.521824358052,5.261495655268287,83176.53160884687,47174.77918578128,9.342672657052878,83243.73958129382,-2068.4883976198894,109.56251223715444,83426.52500672062,11052.51863968688,31.3996181189272,0.970580288042015,151.0,137.0,166.0,161.0,327.0,14.0,891.0,891.0,15.0,8.0,7.0,0.5333333333333333,117.43768741359904,628.3923761032484,15.0,9.0,6.0,0.6,947.0194869485108,3070.318517040693,23.0,12.0,11.0,0.5217391304347826,2241.231115413667,40638.29475075725,87.0,26.0,61.0,0.2988505747126437,72.99589347191667,2399.719399770436,73.0,34.0,39.0,0.4657534246575342,102.51552682703168,11333.2504831972,0.0,0.0,0.0,0.0,82988.0,83002.0,83139.0,83154.0,83165.0,83188.0,83218.0,83305.0,83393.0,83466.0,0.09300227062648707,-0.16337719681636675,0.04750909604870362,-0.035289486542882983,0.009275309109990876
96,96,83832.66234435352,1126.157358445961,3.286506770154515,83986.94811004217,-7205.912513118996,5.578688680078419,84014.94990166182,46206.93230312509,9.39696468516508,84080.16424219396,-2313.0557941842426,107.01454683629038,84263.63652846792,10635.871311165823,30.9280141202994,0.9620941941765476,151.0,140.0,167.0,156.0,323.0,11.0,835.0,838.0,11.0,6.0,5.0,0.5454545454545454,146.39707268311443,732.6369647955376,16.0,9.0,7.0,0.5625,1072.8874091666307,2313.361043056092,24.0,12.0,12.0,0.5,2183.638632625951,40722.16322327613,89.0,24.0,65.0,0.2696629213483146,69.85256822390258,2653.6087405557346,71.0,32.0,39.0,0.4507042253521127,98.22655201320715,10789.327882651713,0.0,0.0,0.0,0.0,83827.0,83838.0,83978.0,83993.0,84003.0,84027.0,84056.0,84145.0,84233.0,84301.0,0.1299969951669408,-0.14888987442094878,0.04725781444006976,-0.03019925779548169,0.009235402454530103
97,97,84655.87669549929,1802.4255251324396,7.624068168247135,84806.58589033902,-6174.701979427783,5.56322485746611,84835.43697239555,47547.992236841324,9.31394848782343,84887.80813839656,-2142.993005803408,61.15116962073736,85085.24229200365,10743.325184517644,29.3527125449222,0.974445901786966,153.0,135.0,150.0,172.0,322.0,18.0,826.0,821.0,21.0,11.0,10.0,0.5238095238095238,138.48578804741618,1630.173464365825,15.0,9.0,6.0,0.6,964.5405295393582,3389.862858620155,23.0,11.0,12.0,0.4782608695652174,2263.2394262280527,43378.53440365313,77.0,15.0,62.0,0.1948051948051948,71.78342490081258,2354.968530551599,75.0,38.0,37.0,0.5066666666666667,142.96785880683663,11271.38290950849,0.0,0.0,0.0,0.0,84645.0,84663.0,84798.0,84813.0,84824.0,84847.0,84874.0,84948.0,85050.0,85120.0,0.07683301535426294,-0.15620843447228902,0.04759905349850799,-0.03349680783204469,0.013307598564815818
98,98,85474.54796540085,1858.663156626984,7.09029599838408,85628.44617851835,-6028.320165307743,5.28611022911075,85656.52102290225,47265.226408311326,9.316485597940735,85722.56152939511,-1880.8275449787393,86.63082362937793,85904.06844021569,11011.777130463546,30.897843278314532,0.9721004659436424,154.0,136.0,151.0,170.0,321.0,18.0,814.0,821.0,18.0,9.0,9.0,0.5,120.01434911410136,1686.6473999677637,15.0,8.0,7.0,0.5333333333333333,954.0938292652284,3565.2909125617266,23.0,12.0,11.0,0.5217391304347826,2244.5099164541507,40854.22533084481,75.0,27.0,48.0,0.36,61.52123148338895,2233.0780696203574,77.0,38.0,39.0,0.4935064935064935,112.99632882028672,11208.682842395763,0.0,0.0,0.0,0.0,85466.0,85484.0,85620.0,85635.0,85645.0,85668.0,85697.0,85771.0,85868.0,85941.0,0.0645702523806938,-0.1582686060299059,0.04748755241463238,-0.032709661046613596,0.01026140717175322
99,99,86330.43247412019,1094.3627982322491,4.050313637596898,86483.21267665307,-7948.460627897458,7.022222765283948,86512.21892617863,44179.31423348282,9.522604845728605,86542.97262630054,-4276.671943816901,17.8357578060484,86763.53767982163,9908.085403147505,27.485071541370097,0.9693225994923172,148.0,140.0,176.0,147.0,323.0,8.0,859.0,855.0,14.0,8.0,6.0,0.5714285714285714,125.73143719681336,911.625155090843,15.0,8.0,7.0,0.5333333333333333,960.0326857431916,1608.1777207847044,24.0,12.0,12.0,0.5,2118.95141694933,39725.17091143004,145.0,11.0,134.0,0.0758620689655172,392.503932352682,6673.987671280521,72.0,38.0,34.0,0.5277777777777778,103.9109854407289,9985.209644600913,0.0,0.0,0.0,0.0,86327.0,86335.0,86475.0,86490.0,86500.0,86524.0,86533.0,86651.0,86728.0,86798.0,0.11489008708986674,-0.1207822156624485,0.047962523948445746,-0.09177789119882196,0.010487493921653063
100,100,87156.30135639943,1940.7743716621576,5.150073268938304,87310.81135304635,-5732.305009395517,5.647587252547161,87339.43372886066,46906.058837411365,9.397089224347049,87407.16424219396,-2191.7517509320646,107.01454683629038,87586.80568579411,10995.71082745398,30.30533367183929,0.9686826774706644,154.0,139.0,173.0,148.0,321.0,15.0,827.0,828.0,16.0,10.0,6.0,0.625,169.5867784061248,1334.0640988983614,17.0,10.0,7.0,0.5882352941176471,939.3449895583744,3307.201295932124,23.0,11.0,12.0,0.4782608695652174,2201.4378927771613,42454.27779624178,91.0,24.0,67.0,0.2637362637362637,80.5449332296741,2214.015452787096,74.0,38.0,36.0,0.5135135135135135,104.5635448581324,11120.309569714733,0.0,0.0,0.0,0.0,87147.0,87162.0,87301.0,87318.0,87328.0,87351.0,87383.0,87474.0,87552.0,87622.0,0.08738098610653222,-0.16386863365064208,0.04693291117055729,-0.03674911321294556,0.009509484789019659
101,101,87998.84704140785,2158.8909166522694,8.345670981067272,88149.32944757497,-5355.406507917645,5.377829349629606,88178.73704762573,47139.081998671594,9.314179412201248,88248.16424219396,-1606.7880036870513,107.01454683623278,88425.60318058985,11275.730266086468,32.02017393729364,0.97097982080537,152.0,133.0,167.0,158.0,325.0,19.0,838.0,839.0,20.0,11.0,9.0,0.55,145.76001700793267,2075.8730679256423,15.0,8.0,7.0,0.5333333333333333,832.3154119444227,2291.5095831133385,23.0,12.0,11.0,0.5217391304347826,2228.998552344316,41176.92706209172,92.0,31.0,61.0,0.3369565217391304,70.41352710349818,1880.0555024659163,80.0,38.0,42.0,0.475,109.85489685213682,10852.97699306664,0.0,0.0,0.0,0.0,87989.0,88008.0,88141.0,88156.0,88167.0,88190.0,88217.0,88308.0,88391.0,88466.0,0.06751615650593341,-0.15541591674019417,0.04728557404675659,-0.04382253722452635,0.00974259708770639
102,102,88833.87669549929,1641.1175480804698,5.505524604921111,88984.93682396617,-6131.643507081041,5.4507556707281,89013.6953489775,46233.39715103868,9.438813470912994,89067.83551209555,-2611.0994683685462,78.98692742678575,89263.80813839656,10158.163050103394,29.34623267773943,0.9711486162143554,150.0,135.0,172.0,150.0,322.0,15.0,840.0,835.0,15.0,8.0,7.0,0.5333333333333333,121.30177267533062,1507.779849110212,16.0,9.0,7.0,0.5625,986.44035105301,2472.7077268556777,23.0,12.0,11.0,0.5217391304347826,2174.4609815577182,39616.54318660513,114.0,34.0,80.0,0.2982456140350877,82.96526558481851,2531.0359984692677,73.0,37.0,36.0,0.5068493150684932,102.61367070089842,10044.529510660272,0.0,0.0,0.0,0.0,88826.0,88841.0,88976.0,88992.0,89002.0,89025.0,89050.0,89148.0,89230.0,89298.0,0.07391412809960568,-0.1608769899805547,0.04703225623793182,-0.03177407317870446,0.01010159712880903
103,103,89681.16732327321,2486.8318076912487,6.3973853600001815,89833.81716148982,-6902.972669700963,6.172734163746891,89863.21073707892,45572.09359199539,9.379546587523686,89914.82194810128,-1885.130029801079,22.93168860777651,90112.77844000333,11195.880174016816,29.614398972539252,0.9764384952552106,152.0,136.0,150.0,175.0,325.0,16.0,846.0,850.0,17.0,8.0,9.0,0.4705882352941176,162.87009627737504,2390.438119355152,16.0,9.0,7.0,0.5625,941.8713372638884,2913.5052608304213,24.0,12.0,12.0,0.5,2146.2082501366235,41817.54082178233,74.0,13.0,61.0,0.1756756756756756,127.94513298488228,2247.1730856653603,75.0,38.0,37.0,0.5066666666666667,109.00230392486203,11595.941281264491,0.0,0.0,0.0,0.0,89673.0,89689.0,89825.0,89841.0,89851.0,89875.0,89902.0,89975.0,90075.0,90150.0,0.06549300832233688,-0.1364443091884196,0.047094791592230005,-0.06787072030165643,0.009735929844786342
104,104,90530.96707051613,1600.415807240137,5.328400225246263,90679.27648320825,-6237.228433332131,5.92437310124032,90708.64132306694,46443.72748293246,9.314286952749908,90796.56152939513,-2238.913166047246,86.63082362937793,90956.27181358312,10745.550082471633,30.08609769730821,0.9668023810271664,148.0,132.0,175.0,149.0,324.0,16.0,851.0,845.0,17.0,9.0,8.0,0.5294117647058824,165.49942008622773,1324.464555244528,17.0,9.0,8.0,0.5294117647058824,867.8582705304248,1683.7856936807048,23.0,12.0,11.0,0.5217391304347826,2199.022289034613,40130.191218728825,99.0,50.0,49.0,0.5050505050505051,81.47608666520645,2605.212388770471,74.0,35.0,39.0,0.4729729729729729,125.1931386865579,11142.13926096908,0.0,0.0,0.0,0.0,90522.0,90538.0,90670.0,90686.0,90697.0,90720.0,90747.0,90845.0,90922.0,90994.0,0.10341026334376557,-0.1391416523872265,0.04734810077082484,-0.03639090961667387,0.011650696123111983
105,105,91382.79595509748,1959.85046020792,9.167563481436504,91532.8031329978,-6660.500018488067,6.231372427098869,91561.92121342248,45516.39742632374,9.061830879788223,91633.24660900142,-2309.790942874449,25.47965400864057,91812.36218760902,10975.764219674224,29.383326098897697,0.9756992817479256,152.0,131.0,161.0,162.0,323.0,21.0,852.0,853.0,21.0,10.0,11.0,0.4761904761904761,115.37720767273422,2236.2196568066115,15.0,8.0,7.0,0.5333333333333333,916.7334475589704,3064.5228213836094,24.0,12.0,12.0,0.5,2213.0284047588098,41111.92217569549,69.0,15.0,54.0,0.217391304347826,104.5403792479066,2610.4719016891413,72.0,36.0,36.0,0.5,115.55191632604595,11570.253637604252,0.0,0.0,0.0,0.0,91373.0,91394.0,91525.0,91540.0,91550.0,91574.0,91619.0,91686.0,91776.0,91848.0,0.05887041384805139,-0.13763733128358563,0.0486204649289519,-0.045259671473908365,0.010527915324467101
106,106,92965.45163156456,1926.3509179789855,10.047005712651108,93113.01881387272,-7015.920783005203,5.849700280119513,93141.9390202182,45981.665018706786,9.191342280746108,93209.82194810128,-2055.023511428531,22.93168860777651,93391.14607896093,10871.33285875202,29.848602656106745,0.9796039667765604,151.0,128.0,110.0,212.0,322.0,23.0,1580.0,1580.0,23.0,11.0,12.0,0.4782608695652174,117.0922577439244,2016.484797123591,15.0,8.0,7.0,0.5333333333333333,944.747039011604,2703.4672720732715,24.0,12.0,12.0,0.5,2213.8918419301963,41987.599993370735,72.0,26.0,46.0,0.3611111111111111,114.71168540023191,1701.616597978574,75.0,38.0,37.0,0.5066666666666667,108.80146158377484,11208.611714819604,0.0,0.0,0.0,0.0,92954.0,92977.0,93105.0,93120.0,93130.0,93154.0,93186.0,93215.0,93354.0,93427.0,0.06078448980976464,-0.1346575978024271,0.04814727437620007,-0.05582013284144429,0.010008106917284177
107,107,93779.57699832165,2157.8751337843746,10.04170782439383,93932.02381630913,-6224.736324502219,5.612612360085296,93960.75549062376,46497.135470570254,9.460361931056166,94015.80813839656,-2145.7422857271517,61.151169620727266,94209.99513590314,10807.088760713375,29.951385663157737,0.9764909385863828,154.0,133.0,159.0,163.0,322.0,21.0,812.0,819.0,23.0,11.0,12.0,0.4782608695652174,135.83646260943013,1866.0941151546872,14.0,8.0,6.0,0.5714285714285714,939.1900290421194,2976.976210207561,23.0,12.0,11.0,0.5217391304347826,2180.805368394743,40889.00630696847,87.0,16.0,71.0,0.1839080459770115,88.73362591379835,2394.8496140020834,77.0,40.0,37.0,0.5194805194805194,130.7323152127107,10888.539814115613,0.0,0.0,0.0,0.0,93770.0,93791.0,93924.0,93938.0,93949.0,93972.0,94002.0,94083.0,94173.0,94246.0,0.06294917647584496,-0.15088029116112395,0.04690192946993594,-0.041353347279413935,0.012096903995825149
108,108,94662.4391462408,2085.8389512081308,6.903527976230943,94812.0438678146,-5988.84357429403,5.643064405708385,94840.471242849,45894.890277455,9.556359932439818,94891.2601729957,-2468.737921207573,76.4389620259217,95091.51610075138,10678.48298186838,30.0821600716051,0.978511903883219,150.0,132.0,152.0,173.0,325.0,18.0,885.0,880.0,18.0,9.0,9.0,0.5,147.64499843435274,2067.75859592293,16.0,9.0,7.0,0.5625,950.60819623686,3180.702017509027,24.0,12.0,12.0,0.5,2136.1566146578016,41453.80123408498,92.0,27.0,65.0,0.2934782608695652,97.97461299979936,2619.800007429075,77.0,39.0,38.0,0.5064935064935064,103.56895440399828,10561.356190832174,0.0,0.0,0.0,0.0,94653.0,94671.0,94803.0,94819.0,94828.0,94852.0,94874.0,94955.0,95055.0,95128.0,0.07078446701210361,-0.15872984232167367,0.0465445412712349,-0.039686113361063244,0.009698845292899194
109,109,95451.97922034597,2255.62948445605,8.577517103039792,95602.7877484038,-6266.892436587573,6.104079734748933,95631.40585746994,46014.546030287245,9.289918727730583,95673.027373699,-1983.882232706242,17.8357578060484,95880.09295096748,11313.457521633249,30.52987889960557,0.980013293393558,153.0,131.0,153.0,169.0,322.0,22.0,791.0,791.0,22.0,11.0,11.0,0.5,148.59215557379267,2102.299149185856,15.0,9.0,6.0,0.6,939.533885574518,4335.4317335277665,24.0,12.0,12.0,0.5,2209.6426043121473,43001.4280228436,107.0,19.0,88.0,0.1775700934579439,96.89944128786958,1058.8640512037548,77.0,40.0,37.0,0.5194805194805194,135.6173242208253,11952.922435795275,0.0,0.0,0.0,0.0,95441.0,95463.0,95594.0,95609.0,95619.0,95643.0,95669.0,95747.0,95841.0,95916.0,0.06587613639463753,-0.149920218845516,0.04802052383300137,-0.048843343465850626,0.011987257119364438
110,110,96254.027373699,2380.7977806868557,11.95595026136368,96397.81976046252,-6406.347752622857,5.774317775120214,96427.27543878302,45196.847357069535,9.166383286490309,96525.90406919828,-1805.225734613183,30.57558481036868,96676.62724676804,11136.752049084302,30.09897171372722,0.9774004030521786,152.0,126.0,153.0,170.0,323.0,26.0,804.0,796.0,26.0,16.0,10.0,0.6153846153846154,121.39760242477122,1985.8134458572692,15.0,8.0,7.0,0.5333333333333333,887.39283647657,2621.820830657791,24.0,12.0,12.0,0.5,2163.671988776311,41913.62489415216,79.0,61.0,18.0,0.7721518987341772,86.29035795136565,1142.92790416757,75.0,38.0,37.0,0.5066666666666667,117.98064682068556,11499.353560524709,0.0,0.0,0.0,0.0,96238.0,96264.0,96390.0,96405.0,96415.0,96439.0,96481.0,96543.0,96642.0,96713.0,0.050990303926504936,-0.13851774376644754,0.04787218833390327,-0.04780031455171761,0.010593811041199063
111,111,97051.1934376743,2349.8648131936443,11.00805417132485,97200.4798628412,-6069.543287726552,5.038713710922295,97228.27123634062,46551.73266352396,9.37264457264556,97293.4655985934,-2038.095062041322,117.20640843974662,97475.14732241788,10901.406531798915,31.858155562890868,0.975808571405977,153.0,129.0,172.0,147.0,319.0,24.0,792.0,800.0,24.0,12.0,12.0,0.5,113.50317011911118,2213.16277203145,15.0,8.0,7.0,0.5333333333333333,1023.309810945914,2979.1189715778055,24.0,12.0,12.0,0.5,2194.493969274836,41634.226265458106,99.0,27.0,72.0,0.2727272727272727,82.42499038364566,2553.1872882127946,73.0,34.0,39.0,0.4657534246575342,131.98265814096467,10769.684512540078,0.0,0.0,0.0,0.0,97039.0,97063.0,97192.0,97206.0,97216.0,97240.0,97267.0,97364.0,97445.0,97511.0,0.04830199996264967,-0.16859749777469857,0.04714097292869084,-0.040442171672350834,0.012106938472203304
112,112,97831.84932180028,1385.0444301147018,4.271225982821344,97984.03390956568,-6387.812909459968,5.5296421690321855,98012.43492335342,45946.698991738966,9.489640813295166,98088.7943286918,-4004.767587729136,145.23402784925125,98260.80813839656,10525.656823969332,32.49997459631412,0.9599192495303128,145.0,139.0,196.0,125.0,321.0,6.0,782.0,785.0,6.0,3.0,3.0,0.5,130.4946596602729,417.5236959558905,17.0,10.0,7.0,0.5882352941176471,1001.0970296527396,1267.2431913311802,23.0,11.0,12.0,0.4782608695652174,2171.9204995857713,39944.01401677713,149.0,57.0,92.0,0.3825503355704698,99.36219698801727,3271.548076904962,71.0,35.0,36.0,0.4929577464788732,90.61138876368916,8648.69869468369,0.0,0.0,0.0,0.0,97829.0,97835.0,97974.0,97991.0,98001.0,98024.0,98033.0,98170.0,98228.0,98295.0,0.09421694844075583,-0.15671984196189825,0.047270436119388554,-0.024810977119488632,0.008608620847047405
113,113,98630.84105654762,1664.3793558824082,10.145425236419127,98778.61163992036,-6810.051253018816,5.914292729519047,98807.81484572122,45625.25912833489,9.271407590725405,98878.24660900142,-2059.134639627962,25.47965400864057,99058.80813839656,11064.28391178615,29.658857324643225,0.9772067117990128,153.0,129.0,113.0,209.0,322.0,24.0,799.0,796.0,24.0,13.0,11.0,0.5416666666666666,97.74222565435842,1848.2696975948136,15.0,9.0,6.0,0.6,946.9618238707316,3524.14184891129,24.0,12.0,12.0,0.5,2169.5943970966828,41211.96883645181,94.0,29.0,65.0,0.3085106382978723,109.36459309757012,1389.3470626809187,75.0,40.0,35.0,0.5333333333333333,110.05369673598508,10620.766460665853,0.0,0.0,0.0,0.0,98618.0,98642.0,98771.0,98785.0,98796.0,98820.0,98851.0,98884.0,99020.0,99093.0,0.05872593006450635,-0.139053553150713,0.047552483833440594,-0.05311191944074613,0.009946752777986036
114,114,99420.17805189872,1741.161255036684,9.968622827397182,99567.2566731734,-6144.139466486886,5.963863545941086,99596.4143673184,45927.74603392191,9.045929260609745,99677.60271279886,-2156.5378504331316,20.383723206912453,99844.84923855374,10838.168910952549,29.831355947128827,0.9777457036469254,152.0,126.0,149.0,174.0,323.0,26.0,794.0,788.0,26.0,13.0,13.0,0.5,110.91423263222585,1698.6629121002932,15.0,8.0,7.0,0.5333333333333333,841.392345674852,2682.564218678396,24.0,12.0,12.0,0.5,2230.2718175640744,42702.92349719412,37.0,6.0,31.0,0.1621621621621621,113.48319265951518,1784.9630231230476,76.0,39.0,37.0,0.5131578947368421,119.22787990530038,11443.791468071942,0.0,0.0,0.0,0.0,99407.0,99433.0,99559.0,99574.0,99584.0,99608.0,99673.0,99708.0,99806.0,99882.0,0.063701298378529,-0.13694226022443234,0.048560445703492855,-0.05262286151700169,0.011000740151301225
115,115,101012.6350663187,2049.2450939557107,7.93060090470835,101163.06089850896,-7206.736963849776,5.484941436694802,101192.12163630764,45455.88637246979,9.222492761290605,101293.60271279886,-1842.2190236376969,20.383723206912453,101440.45724881793,10726.130392581124,30.424494771538917,0.9792520859737714,153.0,132.0,151.0,171.0,322.0,21.0,1591.0,1595.0,21.0,10.0,11.0,0.4761904761904761,127.11087516031375,1845.6775891853672,15.0,8.0,7.0,0.5333333333333333,961.6530894910562,2609.303425311033,24.0,12.0,12.0,0.5,2146.0935421422396,41768.52694770969,23.0,6.0,17.0,0.2608695652173913,115.14809274894456,1609.517327305544,77.0,38.0,39.0,0.4935064935064935,102.6969995024731,10867.812053953165,0.0,0.0,0.0,0.0,101003.0,101024.0,101156.0,101170.0,101180.0,101204.0,101289.0,101307.0,101405.0,101478.0,0.06202814662591108,-0.13343807250283624,0.04721266514433242,-0.0625051045893392,0.009574468680103395
116,116,101800.58931054284,1604.9784533789827,7.733401578588071,101947.57244440365,-7135.707574826024,6.112753761649185,101976.77011571726,45130.21667777543,9.05859433202384,102047.24660900142,-2975.601186303351,25.47965400864057,102226.17080437692,10255.087373199332,27.87287214150924,0.9745670710249892,149.0,128.0,155.0,166.0,321.0,21.0,786.0,785.0,21.0,11.0,10.0,0.5238095238095238,103.24196867871358,1495.6387079943688,16.0,9.0,7.0,0.5625,929.5963341185336,2653.0084324066866,23.0,12.0,11.0,0.5217391304347826,2196.0185092548486,40295.119367855084,96.0,32.0,64.0,0.3333333333333333,125.04551896866556,2716.8975241986436,74.0,39.0,35.0,0.527027027027027,104.3389381416795,10556.416745044306,0.0,0.0,0.0,0.0,101790.0,101811.0,101939.0,101955.0,101965.0,101988.0,102033.0,102094.0,102191.0,102260.0,0.06432607768743366,-0.130273883055136,0.048659604826056316,-0.04202361510818327,0.010174358768932492
117,117,102562.027373699,2181.689830096316,9.543003643108932,102703.67040677497,-6532.881272832569,6.288975825909054,102732.48783013655,45112.78545308041,9.183803184898307,102820.35610379744,-2198.431633285803,45.86337721555302,102980.29687685995,9996.79472754926,30.02487964616573,0.97997433492589,151.0,123.0,151.0,170.0,321.0,28.0,764.0,756.0,29.0,18.0,11.0,0.6206896551724138,133.79665483370368,991.3158367064684,16.0,9.0,7.0,0.5625,922.9015608072668,3485.480969683549,24.0,12.0,12.0,0.5,2182.7060803002128,42207.799795259234,98.0,65.0,33.0,0.6632653061224489,91.90526497188496,2355.0534349690142,77.0,40.0,37.0,0.5194805194805194,108.70432465549712,10056.489052226778,0.0,0.0,0.0,0.0,102544.0,102572.0,102695.0,102711.0,102720.0,102744.0,102767.0,102846.0,102942.0,103016.0,0.06132707454010403,-0.14127021788153654,0.04838331436152037,-0.04180492291885476,0.010873917852482129
118,118,104046.34720661536,2400.2456215353645,12.37391703462341,104193.12330450072,-6971.913983536041,5.322365648001186,104221.834833107,45971.627179154304,9.244628325160589,104308.61248174647,-1189.1131437549905,28.027619409504627,104468.33130720053,10776.071338837146,32.2354435461439,0.9823877783369328,152.0,129.0,133.0,187.0,320.0,23.0,1480.0,1490.0,23.0,12.0,11.0,0.5217391304347826,130.94979993902024,2580.6151927951964,13.0,7.0,6.0,0.5384615384615384,999.0486780100032,2527.2163624690465,24.0,12.0,12.0,0.5,2187.967130391871,41729.21097327943,27.0,17.0,10.0,0.6296296296296297,101.89429534731048,1681.3611590647756,78.0,39.0,39.0,0.5,98.81776453824234,11515.05329024819,0.0,0.0,0.0,0.0,104034.0,104057.0,104186.0,104199.0,104210.0,104234.0,104292.0,104319.0,104431.0,104506.0,0.054556833169121924,-0.14329618528989682,0.04759385874824979,-0.08568931886964759,0.009170110463365385
119,119,104792.60410806052,1717.4835546017391,7.407141901630105,104940.3277217063,-6030.426559185832,5.357402468176238,104968.18633731258,46904.120310004895,9.449646863131596,105020.98619029528,-2524.4327927478344,84.08285822851387,105214.95881659626,10021.834655955434,29.82597304506153,0.9723501009290324,149.0,130.0,145.0,176.0,321.0,19.0,746.0,745.0,19.0,11.0,8.0,0.5789473684210527,119.19862728723794,1738.886832389038,16.0,9.0,7.0,0.5625,992.547699925492,3088.8638104907764,24.0,12.0,12.0,0.5,2201.1969210669267,41652.77375307665,87.0,30.0,57.0,0.3448275862068966,122.39914537259212,2588.639492726299,77.0,40.0,37.0,0.5194805194805194,115.0896102081304,9624.879621540453,0.0,0.0,0.0,0.0,104782.0,104801.0,104931.0,104947.0,104956.0,104980.0,105002.0,105076.0,105176.0,105252.0,0.06940306762639044,-0.16458996559929848,0.046929713349669194,-0.04848580074075221,0.011483886350064544
120,120,105554.55432339084,1737.7566618899964,6.523328374396486,105701.16079068083,-7540.5068223175585,6.368607258420752,105730.30845128746,43656.60961085797,9.101421723197143,105827.50678199712,-2334.277260427717,50.95930801727771,105978.21843394802,9549.853719888244,27.249617211840267,0.9674749935172458,147.0,130.0,163.0,157.0,320.0,17.0,763.0,763.0,18.0,9.0,9.0,0.5,116.77359886496734,1803.9238862487648,15.0,8.0,7.0,0.5333333333333333,912.0351957777756,871.5381362878888,24.0,12.0,12.0,0.5,2127.8715243489337,40414.74019697673,46.0,17.0,29.0,0.3695652173913043,157.98938431609994,2320.016509749419,71.0,35.0,36.0,0.4929577464788732,110.9597930732892,9926.38110667328,0.0,0.0,0.0,0.0,105546.0,105563.0,105693.0,105708.0,105718.0,105742.0,105813.0,105856.0,105943.0,106013.0,0.06719790027331189,-0.12095144494511094,0.04874110800898529,-0.06768235590280781,0.011619004471472438
121,121,106302.08857078906,1970.332172087994,7.485628297978138,106450.6274901054,-6876.127723084126,6.245985236085209,106479.93243323,45303.68854674717,9.26245847668604,106541.33593781866,-2315.5177931000344,40.767446413824906,106725.961973204,9897.016041375478,30.32461814189389,0.978644198062636,151.0,132.0,119.0,200.0,319.0,19.0,748.0,749.0,19.0,10.0,9.0,0.5263157894736842,146.58019672998677,2519.968425250664,16.0,9.0,7.0,0.5625,924.3020418395482,2470.837664006227,24.0,12.0,12.0,0.5,2175.092415375752,40622.483202304145,79.0,25.0,54.0,0.3164556962025316,87.68217758944684,1584.9366781222393,79.0,40.0,39.0,0.5063291139240507,90.00641329902719,9964.74294730421,0.0,0.0,0.0,0.0,106292.0,106311.0,106443.0,106458.0,106468.0,106492.0,106517.0,106562.0,106687.0,106762.0,0.07439364732833514,-0.13442188380773332,0.04801137578745615,-0.03786720095640345,0.009094298010910183
122,122,107079.60271279886,1927.640417568858,13.14978033494139,107228.13896340184,-6834.608007568546,5.778014864713121,107256.94494511644,45384.98650363897,9.23403375163918,107325.54796540084,-2172.975666260207,15.28779240518434,107503.95881659626,10499.893075227052,29.039060808277704,0.9789675521217488,161.0,129.0,109.0,212.0,321.0,32.0,781.0,777.0,32.0,21.0,11.0,0.65625,104.60821767588295,1533.1805473939858,15.0,8.0,7.0,0.5333333333333333,932.4577417090971,2869.0574928714295,24.0,12.0,12.0,0.5,2164.8606930278943,41690.23742243181,84.0,30.0,54.0,0.3571428571428571,120.35383972413932,2265.2647530842455,77.0,39.0,38.0,0.5064935064935064,109.11656060350056,10482.187298241932,0.0,0.0,0.0,0.0,107059.0,107091.0,107220.0,107235.0,107245.0,107269.0,107315.0,107329.0,107467.0,107541.0,0.05426749549473285,-0.1364317808243731,0.047699930303037895,-0.0553866486371078,0.010392159217406221
123,123,107842.55381111654,1619.5003306570486,5.590058728918288,107988.6536350858,-6945.58803656788,6.550581448210404,108018.18607391456,46782.57121599998,9.407459860670135,108074.3283317958,-2721.1534821878154,50.95930801728114,108265.63554674816,9981.074111052589,28.25268622904533,0.9760200631589656,145.0,128.0,156.0,166.0,322.0,17.0,759.0,762.0,17.0,9.0,8.0,0.5294117647058824,124.72382431991969,1426.9383157131233,17.0,10.0,7.0,0.5882352941176471,928.464479580601,1921.9492876599008,24.0,12.0,12.0,0.5,2224.944785156341,41742.93992425183,90.0,13.0,77.0,0.1444444444444444,118.41394309195094,2708.9435476089275,71.0,36.0,35.0,0.5070422535211268,107.106281298462,10487.609045603438,0.0,0.0,0.0,0.0,107834.0,107851.0,107979.0,107996.0,108006.0,108030.0,108062.0,108135.0,108230.0,108301.0,0.07701376897485282,-0.13367687151790766,0.04755926678086034,-0.0435160838471874,0.010730937382766986
124,124,0.0,0.0,0.0,0.0,0.0,0.0,0.0,0.0,0.0,0.0,0.0,0.0,0.0,0.0,0.0,0.0,0.0,0.0,0.0,0.0,0.0,0.0,0.0,0.0,0.0,0.0,0.0,0.0,0.0,0.0,0.0,0.0,0.0,0.0,0.0,0.0,0.0,0.0,0.0,0.0,0.0,0.0,0.0,0.0,0.0,0.0,0.0,0.0,0.0,0.0,0.0,0.0,0.0,0.0,0.0,0.0,0.0,0.0,,108312.0,108684.0,108702.0,108712.0,108735.0,108744.0,108867.0,108940.0,108998.0,,,,,
125,125,109283.972626301,2518.8828432629143,8.317563284525297,109433.50695080288,-6649.713806498912,5.756697487403952,109462.81683755788,45961.311063347486,9.13492288540307,109533.43028693103,-1901.8403713676264,25.47965400864057,109708.83876963776,10688.822589816837,30.937364170734167,0.9804315868619344,152.0,131.0,160.0,158.0,318.0,21.0,1439.0,1444.0,22.0,10.0,12.0,0.4545454545454545,148.0943350065295,2577.3319477002374,14.0,8.0,6.0,0.5714285714285714,938.4392657965016,3124.5048296643527,24.0,12.0,12.0,0.5,2219.7070482015206,41326.72057990823,89.0,30.0,59.0,0.3370786516853932,89.53439878783462,1774.4306533734634,78.0,40.0,38.0,0.5128205128205128,110.51968856820608,11059.03190359081,0.0,0.0,0.0,0.0,109274.0,109295.0,109426.0,109440.0,109451.0,109475.0,109520.0,109586.0,109671.0,109744.0,0.05879365743532987,-0.14112476011814887,0.048295120327227964,-0.04707776748026955,0.01033974393713835
126,126,110091.69864360055,1677.9599487590306,4.547496694148235,110247.74444974885,-7707.601590846775,7.405720263027515,110276.88553202902,43865.100570965915,9.578435555997428,110300.87669549928,-4551.3827516425445,12.739827003663612,110526.85773407274,9430.430768365532,26.678921155366993,0.9705833560436408,153.0,139.0,192.0,129.0,321.0,14.0,809.0,814.0,15.0,6.0,9.0,0.4,134.7173020393666,1451.3841925632005,16.0,9.0,7.0,0.5625,957.207117878332,2144.856248353149,23.0,12.0,11.0,0.5217391304347826,2165.4699690892876,38501.49914403061,134.0,4.0,130.0,0.0298507462686567,1143.4398673651172,18333.96275733046,68.0,35.0,33.0,0.5147058823529411,96.40419114158934,10000.474602296244,0.0,0.0,0.0,0.0,110086.0,110100.0,110239.0,110255.0,110265.0,110288.0,110298.0,110431.0,110495.0,110560.0,0.08028636329430837,-0.12419000990075449,0.04936657937409589,-0.25122911645970936,0.010222671000881327
127,127,110863.61140063306,1521.752828715821,6.891176103811367,111018.08242514911,-6559.668593706212,5.666055625820416,111047.1296018398,46047.86296170215,9.421941190748113,111102.10949479598,-2295.0443792713772,71.34303122419338,111292.8738892522,9911.846646673084,29.20242824123396,0.969991162534134,156.0,138.0,162.0,158.0,320.0,18.0,774.0,770.0,18.0,10.0,8.0,0.5555555555555556,121.03454599262452,1493.4585798453463,15.0,8.0,7.0,0.5333333333333333,944.3538810034108,1733.1588137579574,24.0,12.0,12.0,0.5,2159.011745212856,41080.80995230529,91.0,18.0,73.0,0.1978021978021978,84.02194603329093,2371.9743439408667,77.0,38.0,39.0,0.4935064935064935,107.89879344599622,9944.21661893011,0.0,0.0,0.0,0.0,110854.0,110872.0,111010.0,111025.0,111035.0,111059.0,111086.0,111172.0,111256.0,111330.0,0.07953627140273715,-0.14396365723559382,0.04688625283237354,-0.036610161786921926,0.010885841689470903
128,128,111660.98131262262,1909.2444976754716,10.47235499833413,111813.29813406362,-6751.517413279697,5.965870783800747,111841.81819573224,45130.50069059246,9.255685981691476,111897.24660900142,-2510.241952636026,25.47965400864057,112089.74093850655,10017.58037247203,29.12500950936279,0.9765458859559392,155.0,131.0,157.0,163.0,320.0,24.0,799.0,796.0,26.0,12.0,14.0,0.4615384615384615,102.14184603908932,1619.161843634006,15.0,8.0,7.0,0.5333333333333333,926.1545244546402,2770.6799413946464,23.0,12.0,11.0,0.5217391304347826,2183.7541933806538,40543.446113229205,102.0,16.0,86.0,0.1568627450980392,105.92417454208795,2502.0874745878377,75.0,38.0,37.0,0.5066666666666667,114.78621371907808,10404.550304078744,0.0,0.0,0.0,0.0,111650.0,111674.0,111805.0,111820.0,111830.0,111853.0,111883.0,111962.0,112054.0,112125.0,0.05349856771275143,-0.13717723998355805,0.04838754633705762,-0.04219679877107308,0.011458476942646418
129,129,112476.2739827004,1141.971742512415,4.9906159361022695,112633.01545363698,-7940.274893312188,7.192699739371091,112662.38459738858,44343.02647502711,9.55594461907218,112684.87669549928,-5156.828539104303,12.739827004320285,112908.65136132266,9472.10921234078,27.90459629509726,0.9701097224916864,152.0,138.0,72.0,249.0,321.0,14.0,812.0,819.0,14.0,4.0,10.0,0.2857142857142857,125.0410217201326,937.8525008439605,16.0,9.0,7.0,0.5625,960.3170891941168,1501.215281842792,23.0,12.0,11.0,0.5217391304347826,2186.0002169683653,39408.88254679904,108.0,3.0,105.0,0.0277777777777777,1321.6164229845454,20602.885791239365,73.0,37.0,36.0,0.5068493150684932,159.63889840506505,9769.795486264562,0.0,0.0,0.0,0.0,112472.0,112486.0,112624.0,112640.0,112650.0,112673.0,112682.0,112696.0,112872.0,112945.0,0.1094957231122321,-0.12094254948313662,0.04929749705287857,-0.2562847325565916,0.0168535745129584
130,130,113022.0060322538,1289.2106998532545,2.4559833573062013,113376.62860630672,-8122.874032058138,6.16779784137275,113405.69854270706,43937.41698966352,9.219119497453136,113496.53415569612,-2331.294044266256,68.79506582332891,113650.98170547315,9479.142071246832,29.430871834873756,0.9650676814504312,350.0,344.0,171.0,148.0,319.0,6.0,547.0,744.0,6.0,3.0,3.0,0.5,161.2682137540989,1341.328188508836,15.0,8.0,7.0,0.5333333333333333,1009.5025723685144,980.2785054395908,23.0,12.0,11.0,0.5217391304347826,2132.966924251317,38895.1204399238,126.0,71.0,55.0,0.5634920634920635,100.0329261873302,2514.6804802265337,73.0,34.0,39.0,0.4657534246575342,106.40231737626932,9616.521706153437,0.0,0.0,0.0,0.0,113019.0,113025.0,113369.0,113384.0,113394.0,113417.0,113481.0,113540.0,113619.0,113688.0,0.12509065723116897,-0.12427898898645497,0.048545569366380985,-0.042908755518574766,0.011224888980092454
131,131,113973.98620453967,1572.787384169247,8.73814113825967,114120.13219051276,-7285.928179841411,6.537147212752028,114149.05134687624,44460.2875131088,9.678012543030365,114172.30135639945,-4854.181474168892,6.999499658293084,114394.80260300764,10197.211744564687,29.10557484469293,0.9760754915293566,149.0,128.0,68.0,250.0,318.0,21.0,951.0,743.0,21.0,11.0,10.0,0.5238095238095238,92.1512362095683,1582.0345337025058,15.0,8.0,7.0,0.5333333333333333,948.880490917232,3054.4816366354994,24.0,12.0,12.0,0.5,2170.616377353449,40611.23590470309,13.0,2.0,11.0,0.1538461538461538,1303.0264326212937,19341.612362329903,75.0,38.0,37.0,0.5066666666666667,96.37790938548952,10385.452969767695,0.0,0.0,0.0,0.0,113963.0,113984.0,114112.0,114127.0,114137.0,114161.0,114170.0,114180.0,114358.0,114430.0,0.058591032161822036,-0.13023467532147506,0.048821465149397836,-0.268433811046257,0.00945139826451685
132,132,114726.3050891257,2370.122626645907,7.6617417412724125,114872.975568745,-6140.997176342304,5.333018044288445,114901.05344765878,46273.83944576833,9.458815258680517,114961.71220759484,-2081.380838872511,91.72675443110604,115145.0791479616,10034.122524475102,30.36999515587119,0.976742550149663,147.0,128.0,155.0,163.0,318.0,19.0,754.0,752.0,20.0,10.0,10.0,0.5,150.22538365881206,2083.3961865139213,15.0,9.0,6.0,0.6,988.6220230077236,3569.2754913237604,24.0,12.0,12.0,0.5,2169.2045264796516,40819.47889135324,115.0,23.0,92.0,0.2,75.08394395288833,1919.559680281692,73.0,35.0,38.0,0.4794520547945205,135.16660215293135,10360.521238005287,0.0,0.0,0.0,0.0,114717.0,114736.0,114864.0,114879.0,114889.0,114913.0,114941.0,115019.0,115112.0,115182.0,0.06338295832034835,-0.160987213414836,0.04687755657323183,-0.03607410164953834,0.013470694803978596
133,133,115524.65316568832,2343.588423794595,12.595193540692462,115673.13787260532,-6954.74980299676,5.534156063968663,115701.90919731878,45572.81073337284,9.130395407618282,115803.75339099858,-1397.731989508394,25.47965400864057,115948.78344769483,10228.18749825261,31.27274163934149,0.979078698859824,153.0,128.0,152.0,168.0,320.0,25.0,799.0,801.0,25.0,12.0,13.0,0.48,126.83876940959844,2458.722031950224,15.0,8.0,7.0,0.5333333333333333,959.2012772667664,2511.366298848673,24.0,12.0,12.0,0.5,2190.2125366064984,41566.82217041647,22.0,7.0,15.0,0.3181818181818182,96.54822660493328,977.5240401417708,73.0,36.0,37.0,0.4931506849315068,105.4327703317012,10675.846882109096,0.0,0.0,0.0,0.0,115513.0,115538.0,115666.0,115680.0,115690.0,115714.0,115798.0,115818.0,115914.0,115986.0,0.05412160604728916,-0.13792031409288832,0.04805963251686409,-0.06907492089301821,0.010308059991050555
134,134,117063.54796540084,1748.306974031591,11.71019608243453,117215.42131295212,-6429.720113041449,5.9251681599869945,117244.85105489804,46804.110285274815,9.372301247648917,117298.80813839656,-1993.1892623147992,61.15116962073707,117490.82610900632,10248.588606496563,29.44951812901021,0.9780667107706852,152.0,126.0,130.0,190.0,320.0,26.0,1535.0,1543.0,26.0,9.0,17.0,0.3461538461538461,84.08127549434715,2043.9503337017277,15.0,8.0,7.0,0.5333333333333333,876.0095172713477,1192.9862435219989,23.0,12.0,11.0,0.5217391304347826,2223.6749267342793,41507.11031684578,115.0,18.0,97.0,0.1565217391304348,107.77483806048755,1871.027004316468,72.0,36.0,36.0,0.5,106.36341373605556,10576.691208388527,0.0,0.0,0.0,0.0,117055.0,117081.0,117207.0,117222.0,117233.0,117256.0,117285.0,117337.0,117456.0,117527.0,0.04809297036690071,-0.13624380250930848,0.047510248847394,-0.05407155261077554,0.010378347479830732
135,135,117831.64222156849,1594.796917085329,11.50519041177554,117979.76121377618,-6284.706281578571,5.67827035800238,118008.849955785,46177.71897608318,9.31208089503745,118080.10949479598,-1749.5512691028423,71.3430312241936,118253.3163212156,9849.938610693243,30.03043106339937,0.9763227695698606,150.0,127.0,151.0,168.0,319.0,23.0,773.0,764.0,25.0,12.0,13.0,0.48,108.383686537616,1431.6740713849977,16.0,9.0,7.0,0.5625,923.7529236903822,2637.19617748164,24.0,12.0,12.0,0.5,2201.4282404715145,40954.571105350085,109.0,35.0,74.0,0.3211009174311927,87.27590794592227,1979.062355508598,74.0,35.0,39.0,0.4729729729729729,100.94741410727283,10032.186268349562,0.0,0.0,0.0,0.0,117821.0,117844.0,117971.0,117986.0,117997.0,118021.0,118064.0,118122.0,118220.0,118290.0,0.06796080765925946,-0.1469842634329694,0.04767295330485466,-0.04988473872542001,0.010248532310412858
136,136,118651.99704543702,1932.578075960894,7.877860587193178,118799.35160550816,-6101.574040337166,5.328186631446914,118828.039467442,46484.93759533184,9.39962682775506,118882.95881659626,-1870.795797240702,66.24710042246546,119074.1497778128,10469.473485927352,30.30205263609401,0.9742000711984948,150.0,127.0,139.0,180.0,319.0,23.0,815.0,820.0,24.0,11.0,13.0,0.4583333333333333,120.1183925594526,1873.621724073483,15.0,8.0,7.0,0.5333333333333333,920.96181994017,2680.8807894632737,24.0,12.0,12.0,0.5,2173.6182642118374,41488.26375181448,99.0,20.0,79.0,0.202020202020202,86.6155477352061,1676.1443720778248,78.0,40.0,38.0,0.5128205128205128,130.75624308690914,11113.32362311304,0.0,0.0,0.0,0.0,118641.0,118664.0,118791.0,118806.0,118816.0,118840.0,118868.0,118930.0,119039.0,119110.0,0.06215448371974764,-0.1509383994772075,0.046759625303447086,-0.04629877181836639,0.0124892854700541
137,137,119436.09511764983,1873.4340156651524,7.030494661164104,119585.7255954411,-5893.28471733243,5.175239299592516,119613.40906771513,45808.35696546239,9.51344387565434,119659.73958129382,-2934.0360690998987,109.56251223715444,119857.04928078872,9601.511398531246,30.967192639420215,0.969525426460228,150.0,132.0,178.0,142.0,320.0,18.0,786.0,785.0,18.0,10.0,8.0,0.5555555555555556,129.59852898002103,1409.336904228291,16.0,10.0,6.0,0.625,1051.9460562610443,3547.2283521075833,24.0,12.0,12.0,0.5,2148.2853952981473,40833.49469927485,133.0,26.0,107.0,0.1954887218045112,86.5836311907943,2581.8281705418494,76.0,36.0,40.0,0.4736842105263157,120.76109232312676,9384.280560535826,0.0,0.0,0.0,0.0,119426.0,119444.0,119576.0,119592.0,119602.0,119625.0,119635.0,119754.0,119824.0,119896.0,0.06917699150135682,-0.178499106477449,0.04689723748262496,-0.02951007729681945,0.01257730031353186
138,138,120187.97080917262,1466.374647328017,11.169615900855634,120338.79398397796,-6717.155434081558,5.965594658123996,120367.9020091672,45067.74522992919,9.478801207208516,120423.2601729957,-2673.67303275118,76.43896202590923,120612.04075866056,9417.11401114648,29.589181813448,0.9749678186510028,152.0,131.0,155.0,164.0,319.0,21.0,754.0,754.0,21.0,10.0,11.0,0.4761904761904761,118.13466172033633,1676.81869752506,16.0,9.0,7.0,0.5625,965.5898931242428,1738.906565790442,24.0,12.0,12.0,0.5,2126.11594987072,39154.12372387335,116.0,34.0,82.0,0.293103448275862,87.80523767231729,2519.8136201707257,73.0,35.0,38.0,0.4794520547945205,128.02100042213073,9662.46158565256,0.0,0.0,0.0,0.0,120178.0,120199.0,120330.0,120346.0,120356.0,120380.0,120406.0,120485.0,120578.0,120649.0,0.08056240056768417,-0.14374982127479513,0.04717600002004939,-0.03284067894493691,0.013594504672089544
139,139,120939.75167703938,2107.631121207351,11.375551002765182,121089.12378167282,-6421.531374838734,6.183908591064546,121118.20620648398,45614.85817478044,9.265287157300246,121198.75339099858,-1663.5953344904456,25.47965400864057,121363.45448868658,10414.555185697738,30.745572065209014,0.9827035219479452,155.0,127.0,132.0,189.0,321.0,28.0,752.0,751.0,29.0,15.0,14.0,0.5172413793103449,100.79086050166016,1970.5264055065857,15.0,8.0,7.0,0.5333333333333333,880.9233486438513,2991.506471892483,24.0,12.0,12.0,0.5,2175.3899039115686,42351.9779591004,55.0,41.0,14.0,0.7454545454545455,95.1530967861714,1575.4585060611794,77.0,37.0,40.0,0.4805194805194805,108.8753342732418,11093.131187403906,0.0,0.0,0.0,0.0,120926.0,120954.0,121081.0,121096.0,121106.0,121130.0,121187.0,121213.0,121328.0,121402.0,0.04782186953280628,-0.13718275240319514,0.047690379647268064,-0.05719726114483035,0.010454151169390299
