Unnamed: 0,cycle,p_center,p_height,p_width,q_center,q_height,q_width,r_center,r_height,r_width,s_center,s_height,s_width,t_center,t_height,t_width,r_squared,pr_interval,pr_segment,qrs_duration,st_segment,qt_interval,p_duration,pp_interval,rr_interval,fwhm_p,rise_time_p,decay_time_p,rise_decay_symmetry_p,sharpness_deriv_p,sharpness_diff_p,fwhm_q,rise_time_q,decay_time_q,rise_decay_symmetry_q,sharpness_deriv_q,sharpness_diff_q,fwhm_r,rise_time_r,decay_time_r,rise_decay_symmetry_r,sharpness_deriv_r,sharpness_diff_r,fwhm_s,rise_time_s,decay_time_s,rise_decay_symmetry_s,sharpness_deriv_s,sharpness_diff_s,fwhm_t,rise_time_t,decay_time_t,rise_decay_symmetry_t,sharpness_deriv_t,sharpness_diff_t,Average_Heart_Rate,SDNN,RMSSD,NN50,p_on,p_off,q_on,q_off,r_on,r_off,s_on,s_off,t_on,t_off,sharpness_deriv_p_norm,sharpness_deriv_q_norm,sharpness_deriv_r_norm,sharpness_deriv_s_norm,sharpness_deriv_t_norm
0,0,0.0,0.0,0.0,0.0,0.0,0.0,0.0,0.0,0.0,0.0,0.0,0.0,0.0,0.0,0.0,0.0,0.0,0.0,0.0,0.0,0.0,0.0,0.0,0.0,0.0,0.0,0.0,0.0,0.0,0.0,0.0,0.0,0.0,0.0,0.0,0.0,0.0,0.0,0.0,0.0,0.0,0.0,0.0,0.0,0.0,0.0,0.0,0.0,0.0,0.0,0.0,0.0,0.0,0.0,60.894133520553645,228.6186333524828,317.18240586772293,830.0,,,,,,,,,,,,,,,
1,1,1885.821948101296,6237.583057708481,16.40129738788224,1985.205425597696,-3001.5853767075596,40.767446411818774,2039.87669549928,36280.71930358084,8.710166319455217,2063.3089694250652,-9352.53372194022,15.287792405184188,2315.6315136618523,14395.345713738285,33.37807552075479,0.9309951643521492,70.0,45.0,134.0,281.0,415.0,25.0,,,28.0,15.0,13.0,0.5357142857142857,415.7182699537496,6097.330618996814,66.0,43.0,23.0,0.6515151515151515,224.3818924418795,3384.156066719641,17.0,10.0,7.0,0.5882352941176471,2224.506389535245,32426.01049969311,19.0,5.0,14.0,0.2631578947368421,961.5595923350636,18808.716237086723,87.0,44.0,43.0,0.5057471264367817,232.22119399165973,13474.77600685535,0.0,0.0,0.0,0.0,1873.0,1898.0,1943.0,2008.0,2031.0,2047.0,2058.0,2077.0,2274.0,2358.0,0.06664733216498014,-0.07475445948767384,0.061313734463795226,-0.10281273726704983,0.01613168579689184
2,2,3074.077305868641,5795.670618973151,16.78696058415298,3185.7260172995684,-2749.741877410962,6.4421614408011685,3224.3013563994245,35560.61427922047,8.014259155797408,3245.4520345991364,-10300.978632040344,14.9146981661735,3500.109494795968,15208.629475278913,35.08099467701117,0.9198016019416284,113.0,85.0,93.0,280.0,373.0,28.0,1189.0,1184.0,50.0,21.0,29.0,0.42,370.85668255311975,4693.443959506118,24.0,19.0,5.0,0.7916666666666666,552.9028035768749,1436.1510836027803,17.0,10.0,7.0,0.5882352941176471,2293.2917060201157,29701.83377622845,23.0,4.0,19.0,0.1739130434782608,1166.9455610912555,19846.992694827924,85.0,45.0,40.0,0.5294117647058824,230.0189035430658,15563.717540088894,0.0,0.0,0.0,0.0,3054.0,3082.0,3167.0,3190.0,3215.0,3230.0,3242.0,3260.0,3455.0,3540.0,0.06398857128613468,-0.20107443833872302,0.06448965386293061,-0.11328492202299767,0.015124236139551783
3,3,4098.932946343412,7132.369871631737,19.374118637583976,4207.726017299569,-2555.2002434421306,7.64389620259217,4252.876695499281,34160.09122413064,8.339334470170922,4274.94218942342,-9378.80509023612,12.739827004309513,4532.109494795968,15126.811802038344,33.951920866745795,0.9477879980723328,126.0,78.0,81.0,285.0,366.0,48.0,1027.0,1029.0,49.0,20.0,29.0,0.4081632653061224,257.7233820436864,6833.354022550266,8.0,3.0,5.0,0.375,318.9092100358001,1184.543339964285,17.0,10.0,7.0,0.5882352941176471,2110.0627379746206,31535.161553095702,17.0,4.0,13.0,0.2352941176470588,1039.7905564063717,19232.822121685305,85.0,44.0,41.0,0.5176470588235295,264.1355674644509,14478.3365806691,0.0,0.0,0.0,0.0,4080.0,4128.0,4206.0,4213.0,4243.0,4260.0,4271.0,4287.0,4488.0,4572.0,0.03613432655375242,-0.12480791313881331,0.06176982151862859,-0.1108659948044825,0.017461416914624304
4,4,5107.671269901583,7434.842597811629,20.07201979925116,5218.876695499281,-2174.239081039967,7.654404837456188,5261.49631541604,34643.90889198542,8.208549880120342,5284.882989552447,-9462.609543313863,11.767345580314352,5536.835512095537,16229.41772946332,35.99652719224123,0.9393263431815274,77.0,32.0,127.0,285.0,412.0,45.0,1005.0,1008.0,60.0,30.0,30.0,0.5,342.54496503978356,6966.7376859441165,58.0,50.0,8.0,0.8620689655172413,207.0868977852816,329.69086034161637,18.0,10.0,8.0,0.5555555555555556,2174.6732780072975,31594.45060657016,16.0,5.0,11.0,0.3125,969.717189432638,18107.22709181541,89.0,45.0,44.0,0.5056179775280899,204.8693327965673,17837.854253425117,0.0,0.0,0.0,0.0,5092.0,5137.0,5169.0,5226.0,5252.0,5269.0,5280.0,5296.0,5492.0,5581.0,0.04607292764215455,-0.09524568829212159,0.06277216825582838,-0.1024788336656906,0.012623332285337756
5,5,6114.369913502159,7523.821750617463,23.06846711307781,6229.643896202591,2914.1048253500694,-14.94492534413035,6262.876695499281,33944.91366236232,8.25272318026087,6284.301356399472,-8987.26098795226,9.718844755165756,6537.650392128807,15647.448881150089,34.04017639045672,0.949010595719192,111.0,62.0,90.0,284.0,374.0,49.0,1005.0,1002.0,51.0,22.0,29.0,0.4313725490196078,353.4539683014207,7562.429477483797,6.0,5.0,1.0,0.8333333333333334,570.7160391806685,4390.346357282628,18.0,11.0,7.0,0.6111111111111112,2174.611549057214,31856.414951157003,17.0,3.0,14.0,0.1764705882352941,1232.4075952406108,19119.28216646202,86.0,45.0,41.0,0.5232558139534884,262.02314125520655,16293.688515577876,0.0,0.0,0.0,0.0,6093.0,6142.0,6204.0,6316.0,6253.0,6270.0,6282.0,6294.0,6502.0,6578.0,0.046977982734959595,0.1958460911275245,0.06406295713953737,-0.13712827488738744,0.016745422416484534
6,6,6993.561529395105,6710.431991814327,62.40078199392087,7124.386008191364,-1109.1591003423011,-1.698643600576038,7166.614983146527,35038.84814827507,7.944692336948437,7191.698643600575,-7719.771252054642,5.071010467684299,7440.964883176991,16679.13038636872,41.188236288688785,0.9488938800904664,146.0,76.0,79.0,289.0,368.0,70.0,900.0,904.0,84.0,26.0,58.0,0.3095238095238095,260.9965783675282,8879.805615943915,3.0,1.0,2.0,0.3333333333333333,306.7281325919032,898.5834053647809,18.0,10.0,8.0,0.5555555555555556,2134.8546228016717,35200.598515298865,14.0,6.0,8.0,0.4285714285714285,883.6435151722918,12683.336547702202,92.0,45.0,47.0,0.4891304347826087,271.90233469364483,18249.592804050488,0.0,0.0,0.0,0.0,6974.0,7044.0,7120.0,7126.0,7158.0,7175.0,7186.0,7199.0,7396.0,7488.0,0.03889415445770153,-0.27654114950437936,0.06092821926587128,-0.11446498689156201,0.016301949106163307
7,7,7933.408605422753,7023.939350537286,20.774703675213676,8043.904069198273,-2178.8283713361484,30.57558480926652,8090.310239583149,34832.75088080122,8.067139068979964,8116.123304500672,-9157.389220144243,12.739827004320274,8363.820327258736,15688.51604176667,34.952570180428104,0.9490160680951834,100.0,67.0,109.0,280.0,389.0,33.0,925.0,923.0,33.0,16.0,17.0,0.4848484848484848,265.071423819473,8411.05260027125,45.0,27.0,18.0,0.6,212.17121775146143,1705.067183167983,18.0,10.0,8.0,0.5555555555555556,2146.9218692811555,31022.15997386314,18.0,7.0,11.0,0.3888888888888889,815.6961732115368,15591.253436961262,86.0,44.0,42.0,0.5116279069767442,234.5326961186401,16234.473476733643,0.0,0.0,0.0,0.0,7917.0,7950.0,8017.0,8061.0,8081.0,8098.0,8109.0,8126.0,8327.0,8406.0,0.037738284827188426,-0.09737858224296446,0.06163515125830832,-0.08907518874672102,0.014949323154226738
8,8,8924.671269901582,6482.519936883265,18.656147167712863,9037.849321800286,-1441.093577729558,5.095930711385068,9080.580487399018,35761.51444611131,8.405757828999448,9101.45203459925,-9907.680608084558,12.97677776974279,9349.410851195393,14417.03967754,39.98851030108715,0.9158256986064736,125.0,78.0,81.0,280.0,361.0,47.0,987.0,990.0,47.0,16.0,31.0,0.3404255319148936,489.4667752296147,7311.192566336986,6.0,4.0,2.0,0.6666666666666666,354.87248255513293,567.4373267944114,17.0,10.0,7.0,0.5882352941176471,2229.963465131626,31541.118711322237,24.0,4.0,20.0,0.1666666666666666,1367.918350347932,22058.12816050276,94.0,48.0,46.0,0.5106382978723404,394.1152413706184,17022.92230136336,0.0,0.0,0.0,0.0,8909.0,8956.0,9034.0,9039.0,9071.0,9088.0,9098.0,9115.0,9301.0,9395.0,0.07550563361089264,-0.2462522129300127,0.06235651648623374,-0.13806645616247717,0.02733676608968498
9,9,9853.39570985243,6518.138306266203,20.086239611122497,9963.72601729957,-1952.361662895033,6.8285475915636145,10007.07312174536,32118.866599841134,7.935743271902456,10030.670806938911,-8405.045306467851,10.11683291756026,10284.10949479597,16486.15249044656,37.64552142663692,0.9002962584448406,127.0,96.0,79.0,283.0,362.0,31.0,928.0,927.0,50.0,19.0,31.0,0.38,315.6621340412112,6176.900348942562,8.0,2.0,6.0,0.25,310.399599706483,669.1008718501341,18.0,10.0,8.0,0.5555555555555556,2106.8797490651737,30525.40254867248,16.0,6.0,10.0,0.375,882.6145261444599,15583.74607588766,90.0,50.0,40.0,0.5555555555555556,246.8778702088058,17168.989448084852,0.0,0.0,0.0,0.0,9835.0,9866.0,9962.0,9969.0,9998.0,10014.0,10025.0,10041.0,10235.0,10324.0,0.04842826574234392,-0.1589867316110946,0.06559632926385997,-0.1050100854858296,0.014974862712926335
10,10,10789.142048763571,6996.147238900615,20.212513926807304,10894.328730098418,-2136.3002825566523,12.22060523147495,10943.876695499284,34368.416984156815,8.34422222636165,10965.301356399426,-8280.758913451484,10.191861603456228,11216.351869394834,15676.73604327831,33.73378712431577,0.9364667851698713,85.0,33.0,124.0,282.0,406.0,52.0,935.0,937.0,55.0,24.0,31.0,0.4363636363636363,317.0648111995621,6543.588848689637,82.0,65.0,17.0,0.7926829268292683,159.00438957241929,1282.76508928576,17.0,10.0,7.0,0.5882352941176471,2203.7115176609364,33275.72205672393,16.0,3.0,13.0,0.1875,1193.963320176548,18116.569180751452,80.0,38.0,42.0,0.475,167.8430915717568,16294.279367782983,0.0,0.0,0.0,0.0,10767.0,10819.0,10852.0,10910.0,10934.0,10951.0,10963.0,10976.0,11179.0,11258.0,0.04531991685889477,-0.07442979382192853,0.06412025083019696,-0.14418525314594566,0.010706507471223425
11,11,11845.030264197252,8042.723262362825,21.537511572971457,11953.095999199166,-1278.1281612395965,1.1498716655176586,11997.876695499284,33809.39342369112,8.673884602113183,12019.876695499284,-9004.449671576498,10.10911079763718,12273.260172995682,15587.069006962824,35.89558247253056,0.9420765049791996,126.0,79.0,80.0,285.0,365.0,47.0,1057.0,1054.0,49.0,21.0,28.0,0.4285714285714285,400.17311362871226,7979.183439079205,4.0,2.0,2.0,0.5,312.58288469787004,625.7862394027119,18.0,10.0,8.0,0.5555555555555556,2160.974827773375,30314.007788428866,17.0,4.0,13.0,0.2352941176470588,1167.667145173068,17451.241127219764,86.0,42.0,44.0,0.4883720930232558,381.41293760796896,16307.022754079966,0.0,0.0,0.0,0.0,11825.0,11872.0,11951.0,11955.0,11989.0,12005.0,12017.0,12031.0,12232.0,12316.0,0.04975592228833542,-0.24456302128161433,0.06391640337028714,-0.1296766807258564,0.024469830565168466
12,12,12800.061799701723,5830.704854131958,18.066863942206737,12907.301356399426,-3002.4507343036375,10.191861603456228,12954.876695499284,33305.54200628217,7.72971335893014,12981.03198277237,-8465.922718593076,15.287792405184334,13232.534155696114,15394.32324894885,34.674782698861804,0.914043449435848,124.0,77.0,86.0,280.0,366.0,47.0,956.0,957.0,50.0,22.0,28.0,0.44,198.33789951402684,5602.442419216007,83.0,68.0,15.0,0.8192771084337349,226.6537869086531,2051.968692006393,17.0,10.0,7.0,0.5882352941176471,2142.335509786428,30931.196443164194,21.0,8.0,13.0,0.3809523809523809,816.6507514655306,15378.731869108346,89.0,50.0,39.0,0.5617977528089888,242.0318139435895,15693.91149572696,0.0,0.0,0.0,0.0,12781.0,12828.0,12905.0,12921.0,12946.0,12962.0,12973.0,12991.0,13190.0,13271.0,0.03401611031185598,-0.07548959399036441,0.06432369451853795,-0.0964632891902003,0.015722147055741202
13,13,13821.831376698963,6957.773136091521,19.804660967407553,13934.45203459914,-2011.5685983218063,7.507554616530348,13978.876695499284,34460.7728719528,8.74481516112485,13999.876695499284,-9639.589912075333,12.739827004320285,14254.292433848925,14925.06785070077,35.44013119029594,0.94892518757529,123.0,75.0,85.0,284.0,369.0,48.0,1022.0,1024.0,50.0,19.0,31.0,0.38,287.1445466289905,6161.958027043781,16.0,7.0,9.0,0.4375,210.2132069151776,1508.1645971283058,18.0,11.0,7.0,0.6111111111111112,2144.659753458403,30142.263275710982,15.0,3.0,12.0,0.2,1173.9579182206026,19496.911285747818,84.0,42.0,42.0,0.5,202.48277684921737,15978.150475574888,0.0,0.0,0.0,0.0,13804.0,13852.0,13927.0,13943.0,13968.0,13986.0,13997.0,14012.0,14213.0,14296.0,0.04126960465835077,-0.10450213186393564,0.062234812940133305,-0.12178504780063389,0.013566623540656821
14,14,14887.945252602014,8480.22874442246,21.436206745729695,14994.23657888854,-2311.3864852906654,1.645333433976955,15039.876695499284,34892.91519505668,8.685852061973614,15060.45203459914,-9317.81351981917,12.015888596697222,15310.363031949695,14183.773153526688,43.52304062790575,0.9201740274401252,124.0,76.0,84.0,282.0,366.0,48.0,1064.0,1061.0,51.0,21.0,30.0,0.4117647058823529,341.42133079786174,8813.147897388626,6.0,3.0,3.0,0.5,422.2274685545274,145.02744869618925,18.0,11.0,7.0,0.6111111111111112,2142.079189361569,31233.14474094748,21.0,3.0,18.0,0.1428571428571428,1335.7072865615305,21441.61878865747,86.0,36.0,50.0,0.4186046511627907,356.8405779615472,16322.241552092566,0.0,0.0,0.0,0.0,14868.0,14916.0,14992.0,14997.0,15030.0,15047.0,15057.0,15076.0,15279.0,15358.0,0.040260863366736226,-0.18267281185622694,0.06139008957511925,-0.14334986246724676,0.02515836753020979
15,15,15848.648344860923,6230.747102726469,18.12030662460859,15956.027373698991,-2176.825157268024,8.877321492045942,16004.489184832571,33596.69692030245,8.643994274973664,16026.45203459914,-7879.209601236517,9.462727111589562,16279.036871335196,15636.314027872591,35.33092015980592,0.9353930982894384,115.0,72.0,90.0,281.0,371.0,43.0,964.0,964.0,48.0,19.0,29.0,0.3958333333333333,302.433159987147,6764.918980449826,17.0,7.0,10.0,0.4117647058823529,254.48716272973172,765.0473757110382,19.0,10.0,9.0,0.5263157894736842,2111.869272007683,32616.630687218116,17.0,3.0,14.0,0.1764705882352941,1207.0767471376794,18165.92370940717,78.0,37.0,41.0,0.4743589743589743,304.6251708827977,17041.397802802363,0.0,0.0,0.0,0.0,15834.0,15877.0,15949.0,15966.0,15995.0,16012.0,16023.0,16039.0,16242.0,16320.0,0.048538827688064466,-0.11690748881693382,0.06285943159880943,-0.15319769472159336,0.019481904132891328
16,16,16865.03206769837,7503.377016954091,18.228612738949217,16969.849321800284,-3184.8866498503016,5.095930801728113,17016.876695499283,33611.004747097424,8.030910123541222,17042.12330449895,-9119.839440924492,12.739827004304429,17292.436258464884,15250.241003770623,34.34698929977634,0.9380003911924174,123.0,76.0,83.0,289.0,372.0,47.0,1013.0,1013.0,47.0,21.0,26.0,0.4468085106382978,369.658510608927,8155.720229822882,20.0,4.0,16.0,0.2,278.93444797396023,1828.564203770629,17.0,10.0,7.0,0.5882352941176471,2132.842226327098,31121.50849323487,18.0,7.0,11.0,0.3888888888888889,846.1066393625395,15760.779390117576,88.0,40.0,48.0,0.4545454545454545,214.71712031774192,16018.314742120989,0.0,0.0,0.0,0.0,16844.0,16891.0,16967.0,16985.0,17007.0,17024.0,17035.0,17050.0,17253.0,17339.0,0.04926561863727135,-0.08758065157109152,0.06345666374377833,-0.09277648415230963,0.014079588661231851
17,17,17894.1581137998,8172.11193053868,22.373912838270332,18003.575339099858,-1491.730217371626,2.5479654008640567,18049.003325594746,33449.52975415278,8.406682018516806,18069.876695499283,-8525.53260023045,10.237022009214211,18325.139599902817,15985.8811677353,35.73335742347115,0.9404617179858628,124.0,78.0,82.0,285.0,367.0,46.0,1030.0,1032.0,59.0,27.0,32.0,0.4576271186440678,406.8132480777739,7845.994985376296,5.0,4.0,1.0,0.8,412.5721956660666,764.1091518655778,18.0,10.0,8.0,0.5555555555555556,2154.014021898287,30639.201176492235,16.0,3.0,13.0,0.1875,1252.1518023629662,18078.80485005288,89.0,43.0,46.0,0.4831460674157303,385.0108005697672,15221.437620000856,0.0,0.0,0.0,0.0,17876.0,17922.0,18000.0,18005.0,18040.0,18056.0,18067.0,18082.0,18284.0,18367.0,0.04978067500000065,-0.2765729291138204,0.06439594331310038,-0.14687080104873682,0.024084427785366253
18,18,18833.67126990158,5779.698120174707,19.46341853413693,18924.32873009842,-3279.677231405016,26.01724430972931,18988.09239041364,33347.86033164303,8.039633757010055,19010.674577874244,-10443.59941167566,15.253546822128092,19263.055911840813,15582.738632803326,34.02723685613925,0.9253528532256924,100.0,69.0,105.0,281.0,386.0,31.0,940.0,938.0,57.0,26.0,31.0,0.4561403508771929,321.6706508649046,5270.397910572442,41.0,6.0,35.0,0.1463414634146341,246.6563745094188,3495.9214125173644,16.0,9.0,7.0,0.5625,2104.4209632970455,29231.741614841187,18.0,6.0,12.0,0.3333333333333333,998.4756794956712,20284.551986675924,84.0,42.0,42.0,0.5,215.43119831207176,16006.983110883171,0.0,0.0,0.0,0.0,18818.0,18849.0,18918.0,18959.0,18979.0,18995.0,19005.0,19023.0,19223.0,19304.0,0.0556552685238137,-0.07520751497968325,0.06310512705668879,-0.09560647054112423,0.013824989521326252
19,19,19801.04872339984,7106.8771067214975,19.161124569136764,19914.30135639943,-3048.404539148811,7.421089940934281,19956.876695499283,34752.680424068356,8.06400862633494,19980.71344513523,-8915.691410905383,15.287792405166403,20230.461019881364,14448.191848988998,34.68347691672522,0.9407497815676096,124.0,77.0,84.0,279.0,363.0,47.0,968.0,970.0,55.0,25.0,30.0,0.4545454545454545,243.6618602909369,6452.74547553489,35.0,29.0,6.0,0.8285714285714286,248.69764987679216,1883.4231318641853,17.0,10.0,7.0,0.5882352941176471,2187.9634505724607,31299.270817522774,16.0,6.0,10.0,0.375,901.2933819908536,17377.21170241083,87.0,44.0,43.0,0.5057471264367817,202.8122662129453,14949.401743602652,0.0,0.0,0.0,0.0,19783.0,19830.0,19907.0,19920.0,19948.0,19964.0,19975.0,19991.0,20189.0,20270.0,0.034285362843897764,-0.0815828892402301,0.06295812075137555,-0.10109068836640318,0.014037207446628482
20,20,20851.743290370858,7020.542911230312,22.528730578364616,20962.150678199716,-979.888801299362,2.424846802877546,21003.22955036477,33842.99530751055,8.436022466960349,21024.96744795665,-8907.128172435301,11.346086773980584,21280.128508031514,15956.530788175054,34.44176535163723,0.9466581412660232,128.0,80.0,79.0,283.0,362.0,48.0,1049.0,1046.0,51.0,21.0,30.0,0.4117647058823529,421.31581470654913,7255.047510701432,5.0,2.0,3.0,0.4,462.3053866585648,1353.0283575417711,18.0,10.0,8.0,0.5555555555555556,2138.2031417307226,30850.86500364547,20.0,4.0,16.0,0.2,1130.2206784580926,18214.044703093357,88.0,46.0,42.0,0.5227272727272727,301.1910939180017,16122.596939381354,0.0,0.0,0.0,0.0,20832.0,20880.0,20960.0,20965.0,20994.0,21010.0,21022.0,21039.0,21235.0,21322.0,0.06001185663755395,-0.4717937239873892,0.0631800797270508,-0.12688945938330182,0.01887572542655739
21,21,21791.511732073803,7671.642478179471,22.82507785592964,21910.30135639943,-1870.3963308083707,4.135479466370243,21949.769054127064,32867.7582589981,8.443165834756046,21970.45203459914,-8614.754867961185,12.69080966770204,22220.83992481668,15968.583192472355,42.38435528852824,0.9200608026604992,133.0,85.0,77.0,285.0,362.0,48.0,942.0,946.0,55.0,25.0,30.0,0.4545454545454545,301.3557921175503,7694.822203870468,13.0,6.0,7.0,0.4615384615384615,324.66013343593175,1391.5056593876973,17.0,10.0,7.0,0.5882352941176471,2106.475786893427,31144.36558875731,19.0,3.0,16.0,0.1578947368421052,1171.4045423269258,19707.728097725412,94.0,46.0,48.0,0.4893617021276595,196.36241058766015,17446.74333558692,0.0,0.0,0.0,0.0,21773.0,21821.0,21906.0,21916.0,21940.0,21957.0,21967.0,21983.0,22181.0,22268.0,0.03928178261365797,-0.17357825616328929,0.06408942679614432,-0.13597653796087142,0.012296796041381184
22,22,22826.67126990158,6345.35955078435,18.089334111102257,22940.45203459914,-3517.576198842708,8.779327809398376,22981.876695499283,33409.75823750054,7.948297780693852,23006.49453783499,-8987.560084068686,12.739827004320285,23256.724759053923,15333.009864623817,32.48293351226875,0.926630784196778,62.0,19.0,144.0,280.0,424.0,43.0,1034.0,1033.0,49.0,19.0,30.0,0.3877551020408163,325.4315108876892,6314.035563228779,77.0,67.0,10.0,0.8701298701298701,331.7087463918945,1235.1509513239316,17.0,10.0,7.0,0.5882352941176471,2110.5799416889167,31001.6733570853,18.0,6.0,12.0,0.3333333333333333,842.7584208297559,16754.106956117597,84.0,43.0,41.0,0.5119047619047619,255.26268963463465,16412.529926686082,0.0,0.0,0.0,0.0,22811.0,22854.0,22873.0,22949.0,22972.0,22989.0,23000.0,23017.0,23219.0,23297.0,0.05128653597690341,-0.09430037265462154,0.06317255954638762,-0.09376943385598348,0.016647917916206033
23,23,23975.384128866608,8557.775383350576,22.627672437848073,24083.30135639943,-3639.8966650982466,10.191861603456228,24132.60853325835,34094.7158382508,7.76630988820988,24154.360779634382,-10783.276157205362,16.51689297188476,24409.453353171655,16039.276359746713,35.76197312945321,0.9359516895130404,120.0,72.0,86.0,285.0,371.0,48.0,1154.0,1150.0,52.0,17.0,35.0,0.3269230769230769,421.693069277589,9642.427555669876,81.0,66.0,15.0,0.8148148148148148,503.5904601636264,1112.3359040749124,15.0,9.0,6.0,0.6,2167.162740019681,27822.008820235067,23.0,6.0,17.0,0.2608695652173913,1249.31565047966,20239.17219321421,88.0,44.0,44.0,0.5,241.49403627017765,15957.24929715046,0.0,0.0,0.0,0.0,23961.0,24009.0,24081.0,24097.0,24124.0,24139.0,24149.0,24167.0,24366.0,24452.0,0.0492760151309891,-0.1383529551793014,0.06356300930328757,-0.11585677972689867,0.01505641718826218
24,24,24983.669775167895,6071.296414326944,18.969595129514655,25091.927050628205,-1283.6180755617502,1.2385797700126038,25137.876695499283,33719.93970607072,8.783412844393762,25159.30135639943,-8259.011382435594,10.191861603456228,25413.516157078753,16079.60039483648,35.606356136438585,0.940916479109036,126.0,96.0,80.0,287.0,367.0,30.0,1002.0,1006.0,32.0,21.0,11.0,0.65625,359.77861606488574,6394.926203215002,4.0,2.0,2.0,0.5,353.8788982770976,240.79753380136705,18.0,11.0,7.0,0.6111111111111112,2119.8466639017356,33050.91256346453,16.0,3.0,13.0,0.1875,1200.7302530098611,17419.50917517915,86.0,42.0,44.0,0.4883720930232558,238.4003448099808,17028.20086001819,0.0,0.0,0.0,0.0,24964.0,24994.0,25090.0,25094.0,25128.0,25145.0,25157.0,25170.0,25376.0,25457.0,0.05925894430321112,-0.2756886218840674,0.06286626495717286,-0.14538425937557725,0.014826260538572618
25,25,25969.246609001435,6325.269944057394,16.35905146606149,26087.72601729957,-2878.488203456678,7.64389620259217,26125.30135639943,34960.206038987635,8.148029062026813,26146.6394953206,-10981.430050105622,15.28779240518429,26400.438308742298,15194.646239512324,32.02890410547704,0.926992527929409,62.0,25.0,143.0,281.0,424.0,37.0,987.0,987.0,37.0,14.0,23.0,0.3783783783783784,271.73389552839785,7241.747775219481,75.0,71.0,4.0,0.9466666666666668,450.4553900590948,989.60606952768,17.0,10.0,7.0,0.5882352941176471,2160.1824030020134,29936.17846943454,18.0,5.0,13.0,0.2777777777777778,1032.752630971914,20423.324932753676,81.0,37.0,44.0,0.4567901234567901,261.3436639697874,14942.299735152736,0.0,0.0,0.0,0.0,25955.0,25992.0,26017.0,26092.0,26115.0,26131.0,26142.0,26160.0,26363.0,26441.0,0.042960047228291415,-0.15649026788373088,0.06178975034051507,-0.09404536806770268,0.017199720207383737
26,26,26954.410772302806,4087.046926347593,13.25510806902578,27065.178051898707,-3134.3433082415677,22.93168860777651,27106.30135639943,33477.03317327464,7.701268780063193,27128.91423007662,-10595.449446238445,17.124499784840715,27381.463387117474,14430.779920556128,31.49844205959015,0.8915469789079432,49.0,28.0,155.0,277.0,432.0,21.0,987.0,981.0,21.0,13.0,8.0,0.6190476190476191,335.7536451647592,4480.139487851464,88.0,75.0,13.0,0.8522727272727273,506.551693022744,307.2509435656207,15.0,8.0,7.0,0.5333333333333333,2114.128383679943,26142.85155967418,23.0,7.0,16.0,0.3043478260869565,1004.4636350364588,18865.43197129343,83.0,41.0,42.0,0.4939759036144578,379.0937766490942,14102.558110006386,0.0,0.0,0.0,0.0,26941.0,26962.0,26990.0,27078.0,27098.0,27112.0,27122.0,27145.0,27344.0,27422.0,0.08215067045114817,-0.16161334072460945,0.06315160524343275,-0.09480141830067053,0.026269805148167267
27,27,27882.095930801723,6032.726836350067,19.003189910603183,27991.027373698995,-3059.969303973332,10.26976607223524,28036.690659006,34655.72743406697,7.842563867424699,28061.3822707579,-9075.159402730356,15.287792405183938,28310.439142059276,15463.215427037783,36.53027262074397,0.9276755381997694,122.0,77.0,85.0,282.0,367.0,45.0,925.0,930.0,60.0,29.0,31.0,0.4833333333333333,380.1337918106434,5640.481307895339,16.0,4.0,12.0,0.25,358.6738801054902,2518.6411791539776,17.0,10.0,7.0,0.5882352941176471,2178.1120977172964,30741.449429026237,17.0,6.0,11.0,0.3529411764705882,863.2022909882965,17295.00247899681,88.0,43.0,45.0,0.4886363636363636,242.7265938650226,15483.463234600084,0.0,0.0,0.0,0.0,27865.0,27910.0,27987.0,28002.0,28027.0,28044.0,28055.0,28072.0,28269.0,28354.0,0.0630119350871575,-0.11721486213595562,0.06284998927987262,-0.09511703901626158,0.015697032419312328
28,28,28838.645260073103,6388.217224364798,20.175100108394517,28953.150678199716,-2353.8321046815695,4.9930312830601835,28993.19279242383,35577.139602120864,7.98787755656362,29015.975040224952,-9193.75917652726,15.28779233295378,29266.31739414651,15799.942875508776,34.58551835897274,0.9364301618128068,127.0,79.0,82.0,278.0,360.0,48.0,957.0,957.0,51.0,21.0,30.0,0.4117647058823529,282.98008373801554,6202.581285629116,10.0,7.0,3.0,0.7,357.4843525093513,142.97754645588248,17.0,10.0,7.0,0.5882352941176471,2180.441288790085,30362.765657676515,18.0,5.0,13.0,0.2777777777777778,1052.7119729198996,19701.612012643192,78.0,37.0,41.0,0.4743589743589743,258.3258365155663,17625.21305662382,0.0,0.0,0.0,0.0,28820.0,28868.0,28947.0,28956.0,28984.0,29000.0,29011.0,29029.0,29230.0,29307.0,0.04429719181412983,-0.1518733438117127,0.06128770646474631,-0.11450288752478924,0.016349795600589977
29,29,29880.08671063473,7122.295424647902,21.80551488135954,29993.69864360057,-4087.022716240908,5.8733216302059885,30033.310922172957,34065.43595024496,7.434171507799695,30057.63890761433,-10383.856314658658,17.835757806039616,30309.81081366161,15045.429886660677,32.73258323617208,0.9441186251372764,128.0,81.0,83.0,281.0,364.0,47.0,1050.0,1040.0,51.0,21.0,30.0,0.4117647058823529,564.864105017193,7779.776242869231,10.0,6.0,4.0,0.6,638.2497333634403,1660.9123412585895,16.0,9.0,7.0,0.5625,2164.423957459168,27467.50102365559,21.0,8.0,13.0,0.3809523809523809,890.0411018888783,17565.786494618653,80.0,38.0,42.0,0.475,279.1086617716172,15023.849838803371,0.0,0.0,0.0,0.0,29860.0,29907.0,29988.0,29998.0,30025.0,30040.0,30050.0,30071.0,30272.0,30352.0,0.07930927760485554,-0.1561649586206555,0.06353724521889184,-0.08571392697647666,0.018551059283395805
30,30,30841.972626301005,6166.121894607585,17.8357578060484,30949.47940829813,-2712.846572881073,33.12355021123273,30998.876695499283,33294.46081116177,7.813763058868506,31023.950552732655,-6771.165055329301,7.163002747847904,31273.067790235833,15564.929391651793,36.4431848539335,0.927659395934725,96.0,70.0,103.0,287.0,390.0,26.0,955.0,966.0,39.0,10.0,29.0,0.2564102564102564,411.65834160345975,6888.711951175341,86.0,65.0,21.0,0.7558139534883721,174.14945493205173,2783.870825558772,17.0,9.0,8.0,0.5294117647058824,2192.581062605648,33005.98873676607,13.0,6.0,7.0,0.4615384615384615,802.6811924357787,12707.364397230973,89.0,43.0,46.0,0.4831460674157303,228.6944417376794,14946.87033505628,0.0,0.0,0.0,0.0,30832.0,30858.0,30928.0,30968.0,30990.0,31006.0,31018.0,31031.0,31231.0,31318.0,0.0667613045346159,-0.06419436199338877,0.06585422947803372,-0.11854402984963745,0.014692931524658186
31,31,31864.279496732684,6167.003786687231,18.39633443169706,31965.054747397982,-2320.84207477875,35.67151561186865,32019.10535239208,33742.403310971655,8.334854609021614,32044.857549050612,-9377.083058357,12.739827004320285,32295.482975802537,14988.143363993877,32.72171901393668,0.934060314626983,82.0,50.0,128.0,279.0,407.0,32.0,1021.0,1020.0,52.0,21.0,31.0,0.4038461538461538,312.37997927759375,4698.635869023561,64.0,39.0,25.0,0.609375,192.00793552802637,2126.096065089302,18.0,10.0,8.0,0.5555555555555556,2118.883429633764,30085.42545865131,18.0,7.0,11.0,0.3888888888888889,808.8721385228525,15949.914576659496,73.0,34.0,39.0,0.4657534246575342,264.90753676196505,16500.76595300824,0.0,0.0,0.0,0.0,31845.0,31877.0,31927.0,31985.0,32010.0,32026.0,32038.0,32055.0,32261.0,32334.0,0.05065344372771934,-0.0827320124943576,0.06279586578661958,-0.0862605282995732,0.017674473103743742
32,32,32900.54796540086,3963.493530139422,15.28779240518434,33011.60271279886,-3648.5224831007154,20.383723206912453,33054.02307350009,32554.74525891176,8.237468704981026,33077.677146925525,-10911.877925860172,18.233443698825056,33329.60183245718,15519.18376277041,33.982901040709315,0.9175165563188968,114.0,87.0,85.0,280.0,365.0,27.0,1038.0,1035.0,43.0,18.0,25.0,0.4186046511627907,386.3638537990194,3187.1083771388867,17.0,6.0,11.0,0.3529411764705882,414.30230689007647,2938.715829432141,16.0,9.0,7.0,0.5625,1962.6576207858543,25872.75452283753,20.0,7.0,13.0,0.35,980.2800953242712,18137.392851140045,85.0,42.0,43.0,0.4941176470588235,287.7277880188019,15471.508899850964,0.0,0.0,0.0,0.0,32892.0,32919.0,33006.0,33023.0,33045.0,33061.0,33071.0,33091.0,33289.0,33371.0,0.09748063188725035,-0.11355344767890249,0.06028791210548892,-0.08983605773311441,0.018540136673234297
33,33,33876.29738895622,5776.788015530629,18.63738709618379,33986.94590525829,-567.9804132606723,0.7968942675964793,34031.0415811374,34446.2886484298,8.566120707353791,34054.027373699,-7215.907804296315,10.777227283100745,34306.86024009855,15900.799231807836,35.98519732442898,0.9337483772817744,129.0,81.0,79.0,285.0,364.0,48.0,974.0,977.0,51.0,21.0,30.0,0.4117647058823529,250.08385465152065,5681.406392012252,3.0,1.0,2.0,0.3333333333333333,276.5312371109768,196.6808054729271,18.0,10.0,8.0,0.5555555555555556,2124.97102149446,33088.778411751846,16.0,4.0,12.0,0.25,964.096248058938,15941.599323409491,86.0,43.0,43.0,0.5,178.44549176210174,16365.137859283865,0.0,0.0,0.0,0.0,33857.0,33905.0,33986.0,33992.0,34021.0,34039.0,34050.0,34065.0,34267.0,34350.0,0.043291160066663635,-0.48686755855446007,0.06168940413821111,-0.13360706292352018,0.01122242279527313
34,34,34860.02518440258,7175.225782716474,19.572274186895623,34969.726017299574,-1904.972120911559,7.64389620259217,35015.428651319664,33693.53355767233,7.955144988395229,35040.07238423075,-8617.538164972408,12.739827002024036,35290.37041854034,15569.716045557869,34.35403100265361,0.9441525657416634,125.0,81.0,81.0,283.0,364.0,44.0,984.0,984.0,48.0,19.0,29.0,0.3958333333333333,305.0160804757691,7718.804036604209,10.0,2.0,8.0,0.2,303.9201543711852,1197.5372021344374,18.0,10.0,8.0,0.5555555555555556,2079.719290372672,31323.79456806551,15.0,6.0,9.0,0.4,895.072604465672,16473.270953322797,86.0,44.0,42.0,0.5116279069767442,265.0776839702877,15622.618685328673,0.0,0.0,0.0,0.0,34843.0,34887.0,34968.0,34976.0,35006.0,35023.0,35034.0,35049.0,35251.0,35332.0,0.04250961429123041,-0.15954047360323292,0.06172458245772505,-0.10386639285264343,0.0170252099135691
35,35,35853.94525260201,7749.700255670485,20.731322467229084,35958.05474739799,-3934.958550168867,35.6715156120968,36008.429533985,34038.41561455583,8.302024202060933,36030.27835786266,-10964.278277976538,15.654822811254974,36284.11774215226,15941.487070564406,33.075343650231865,0.936147596736541,81.0,30.0,130.0,278.0,408.0,51.0,992.0,993.0,52.0,21.0,31.0,0.4038461538461538,480.0766728003983,7186.1667153761255,87.0,65.0,22.0,0.7471264367816092,234.149995638392,3412.4915682314054,16.0,9.0,7.0,0.5625,2024.7949171645544,27474.913365640496,23.0,5.0,18.0,0.217391304347826,1104.6300368055622,20536.88648526723,76.0,34.0,42.0,0.4473684210526316,326.648176196245,16602.92011633042,0.0,0.0,0.0,0.0,35834.0,35885.0,35915.0,35978.0,36000.0,36015.0,36025.0,36045.0,36251.0,36323.0,0.061947773070206734,-0.05950507296407063,0.059485580647845794,-0.10074808471656395,0.020490445762703872
36,36,36814.443795111416,8010.847580887916,21.74723242125166,36921.913163374105,-698.7300268679721,0.7002945146574637,36962.87669549929,34635.26896094725,8.429636910206012,36986.04233579115,-7562.693923683466,9.703857898296825,37235.29659180673,15823.163620569732,38.50674286578323,0.9491437009237658,131.0,82.0,75.0,284.0,359.0,49.0,965.0,955.0,50.0,24.0,26.0,0.48,217.37868027800323,8347.896137663589,2.0,1.0,1.0,0.5,353.4319724435238,937.5749825970416,18.0,10.0,8.0,0.5555555555555556,2208.6537964858335,34850.58068252279,14.0,4.0,10.0,0.2857142857142857,984.5519936685116,17022.472459847424,93.0,47.0,46.0,0.5053763440860215,283.8411931448538,17100.489376280984,0.0,0.0,0.0,0.0,36790.0,36839.0,36921.0,36923.0,36953.0,36970.0,36982.0,36996.0,37195.0,37280.0,0.027135540663215208,-0.5058205012710957,0.06376892291427519,-0.13018535506048595,0.017938333948330474
37,37,37779.37966161131,5680.27435644427,18.494873992031863,37889.87669549929,-3083.3675192341384,12.739827004320285,37935.19973483231,34705.48661451934,8.036753000848567,37959.72641112067,-9635.485104117126,15.28779240518434,38211.67379039319,14993.050274736568,32.318421464253944,0.9272280059725372,125.0,78.0,82.0,280.0,362.0,47.0,964.0,972.0,49.0,18.0,31.0,0.3673469387755102,353.3710170304674,5858.9522642710435,20.0,4.0,16.0,0.2,254.9437995642443,2206.3055407993634,17.0,10.0,7.0,0.5882352941176471,2172.9681819999405,29229.22898896319,15.0,6.0,9.0,0.4,956.154590032238,18894.292872639133,74.0,35.0,39.0,0.4729729729729729,341.9212653386314,15746.790844783513,0.0,0.0,0.0,0.0,37762.0,37809.0,37887.0,37905.0,37926.0,37942.0,37954.0,37969.0,38178.0,38249.0,0.062210202334605204,-0.0826835587953422,0.06261166155471397,-0.09923263641637356,0.022805317068453505
38,38,38725.54796540086,6964.441207548504,15.28779240518434,38840.30135639943,-1760.668190012046,5.161680668367648,38883.67206977944,32168.244338284367,8.05540665591397,38905.57037368285,-9312.2055563224,11.538825689513644,39160.95881659626,16761.636470997077,35.6069734077759,0.9083198020494356,118.0,76.0,84.0,279.0,363.0,42.0,946.0,948.0,48.0,15.0,33.0,0.3125,472.9682101467269,8496.929601770182,15.0,7.0,8.0,0.4666666666666667,286.88727780335614,360.8747577374314,16.0,9.0,7.0,0.5625,2197.22316008726,31208.94582216817,19.0,6.0,13.0,0.3157894736842105,983.7994931963232,17619.811981316114,81.0,44.0,37.0,0.5432098765432098,299.0411593235877,17542.890546365823,0.0,0.0,0.0,0.0,38717.0,38759.0,38835.0,38846.0,38875.0,38890.0,38901.0,38919.0,39117.0,39198.0,0.06791186773665256,-0.16294227352479934,0.0683041056571521,-0.10564623893298676,0.017840809269490082
39,39,39664.177123996815,8301.9265987439,28.15026472083367,39780.43274347831,-1312.6719074017235,2.4836160580498485,39822.87669549929,35024.6750800205,8.540930356437157,39844.87669549929,-7374.182785535246,10.50687930070922,40096.056672008504,16244.660463473814,39.80297927863499,0.944237428824243,140.0,78.0,79.0,286.0,365.0,62.0,942.0,940.0,62.0,27.0,35.0,0.4354838709677419,302.2208119882916,10418.802953140806,9.0,4.0,5.0,0.4444444444444444,329.3329674581894,246.9528498464481,18.0,11.0,7.0,0.6111111111111112,2205.331306074363,34307.81592887552,15.0,4.0,11.0,0.2666666666666666,1053.7405138948948,17069.2385373184,90.0,44.0,46.0,0.4888888888888889,215.61169998120545,17141.034226420263,0.0,0.0,0.0,0.0,39637.0,39699.0,39777.0,39785.0,39813.0,39830.0,39842.0,39856.0,40054.0,40142.0,0.03640369598473905,-0.2508874956500474,0.06296507536574905,-0.14289590379585504,0.013272773565566928
40,40,40675.39728720114,5163.288371727673,16.770259256645208,40792.30135639943,-2300.958505967697,7.055920460783004,40832.30135639943,33864.548162566956,8.531798959864263,40856.45203459914,-9512.04674035796,13.345836306877922,41106.10949479597,15996.090757162432,35.86050869295567,0.8947908832844579,53.0,32.0,148.0,281.0,429.0,21.0,1007.0,1009.0,22.0,11.0,11.0,0.5,395.5462142998807,6604.992325056452,90.0,80.0,10.0,0.8888888888888888,391.0000131893097,2178.3230388176135,17.0,11.0,6.0,0.6470588235294118,2158.457301876136,31926.785722057473,16.0,7.0,9.0,0.4375,865.8957404029723,15558.603007406724,86.0,42.0,44.0,0.4883720930232558,311.963344718792,14527.448695680014,0.0,0.0,0.0,0.0,40664.0,40685.0,40717.0,40798.0,40822.0,40838.0,40849.0,40865.0,41065.0,41146.0,0.07660742260024656,-0.16992918915105326,0.06373796252985421,-0.09103148502510267,0.019502474039109013
41,41,41640.86720102067,5956.351565776335,19.167205985449975,41751.45203459914,-2566.0923675622653,9.152170399250206,41795.82578863854,33475.57344097584,7.847031676168268,41817.70764931921,-9475.65372398174,12.714295397304728,42071.95881659626,15389.29444596789,31.309376172796767,0.9370715038354842,122.0,92.0,86.0,279.0,365.0,30.0,964.0,963.0,49.0,20.0,29.0,0.4081632653061224,308.212682123769,5382.623364641409,41.0,31.0,10.0,0.7560975609756098,262.59832541361556,1592.4201958063495,17.0,10.0,7.0,0.5882352941176471,2232.6054225296907,30728.374375230127,18.0,6.0,12.0,0.3333333333333333,1049.5349152620413,18419.972341717596,75.0,38.0,37.0,0.5066666666666667,178.78950227812584,15677.868377391816,0.0,0.0,0.0,0.0,41622.0,41652.0,41744.0,41760.0,41787.0,41802.0,41813.0,41830.0,42034.0,42109.0,0.0517452132769798,-0.10233393338957573,0.06669356766856355,-0.11076121456462625,0.011617784226941609
42,42,42611.821948101286,5425.856032178568,16.48147661445,42726.60271279886,-3320.631778725332,20.383723206912453,42767.30135639943,34587.779300407594,8.436452894763411,42789.03097356941,-11012.646877088826,12.739827004320285,43044.416353566456,15001.1763395176,31.99628456108387,0.922041952330897,52.0,27.0,151.0,279.0,430.0,25.0,972.0,972.0,47.0,19.0,28.0,0.4042553191489361,319.8496545563524,4610.124483436596,87.0,76.0,11.0,0.8735632183908046,362.6899601402471,299.72376507119634,17.0,10.0,7.0,0.5882352941176471,2225.350120547989,32199.00991142908,18.0,5.0,13.0,0.2777777777777778,1053.1075421623643,19776.362695604337,80.0,40.0,40.0,0.5,238.98751898562344,15325.212679088088,0.0,0.0,0.0,0.0,42599.0,42624.0,42651.0,42738.0,42757.0,42773.0,42785.0,42802.0,43010.0,43081.0,0.058949159848594,-0.10922317929495645,0.06433920204069778,-0.09562710526506517,0.015931251894963635
43,43,43567.76700857138,6975.704402043871,21.80756058906156,43680.68336437861,-3201.604184373655,2.4283378438142664,43719.991017093715,35777.35347899675,7.851308809738967,43745.06891670142,-10474.963279968935,15.287792405184272,43996.18847976272,15755.052420131951,33.62011262947842,0.9410040592717938,129.0,80.0,79.0,280.0,359.0,49.0,960.0,953.0,49.0,19.0,30.0,0.3877551020408163,357.09414369676443,8292.030922716478,6.0,3.0,3.0,0.5,558.4275796724198,344.35579379404953,17.0,10.0,7.0,0.5882352941176471,2221.99084929734,30895.16695554655,19.0,7.0,12.0,0.3684210526315789,947.895554053625,17623.429395399755,75.0,34.0,41.0,0.4533333333333333,291.37008928820507,16858.236747631192,0.0,0.0,0.0,0.0,43549.0,43598.0,43678.0,43684.0,43711.0,43727.0,43738.0,43757.0,43962.0,44037.0,0.05119112323511535,-0.1744211799815809,0.06210607083058196,-0.09049153956140991,0.01849375562317328
44,44,44465.58872660318,6424.122224203888,20.18471663058158,44570.60271279886,-2052.1675333303588,20.383723206912453,44622.0593452053,33219.355687794094,7.674276624524138,44646.81106678751,-8319.056282458974,12.739827004320269,44892.55225145928,16006.41283856614,38.518294986893366,0.92564262395842,110.0,59.0,104.0,281.0,385.0,51.0,894.0,902.0,58.0,30.0,28.0,0.5172413793103449,249.35371990582215,5674.919654320375,89.0,66.0,23.0,0.7415730337078652,281.6769839699063,726.9321047950754,16.0,9.0,7.0,0.5625,2220.0717352519714,31063.27831525445,17.0,7.0,10.0,0.4117647058823529,820.1304260887057,15037.09230008726,96.0,49.0,47.0,0.5104166666666666,247.342182505877,17103.770308546293,0.0,0.0,0.0,0.0,44442.0,44493.0,44552.0,44582.0,44613.0,44629.0,44640.0,44656.0,44852.0,44937.0,0.03881522038393711,-0.13725827906106036,0.06683066812363553,-0.09858455072818534,0.01545269293004403
45,45,45420.302307032995,5597.545517692304,18.315407660316136,45524.90406919828,-2690.4545702229966,30.575584809813343,45573.87669549929,35990.16304595415,8.526666976572583,45596.027373699,-9401.151968011143,15.586055703207824,45849.53415569612,14188.896848951366,31.398354847381256,0.9298332521680904,117.0,70.0,89.0,281.0,370.0,47.0,954.0,952.0,49.0,20.0,29.0,0.4081632653061224,267.45190170397944,5251.315839115117,62.0,42.0,20.0,0.6774193548387096,205.53140594825615,3257.6506281095803,17.0,10.0,7.0,0.5882352941176471,2169.692207392389,31472.039853746846,16.0,4.0,12.0,0.25,1156.699746906282,19988.42299163682,81.0,41.0,40.0,0.5061728395061729,458.35056495928205,14603.083743587296,0.0,0.0,0.0,0.0,45401.0,45448.0,45518.0,45542.0,45564.0,45581.0,45592.0,45607.0,45809.0,45888.0,0.047780210247265954,-0.07639281786171205,0.0602857009739581,-0.12303808627305778,0.03230346727012513
46,46,46371.12330450071,5058.996130217794,12.739827004320285,46484.32873009842,-3239.3906336973587,28.027619409504627,46528.96310739456,33214.77034658492,8.175964381845363,46550.0983391505,-10853.80904369026,14.702049489343796,46801.825430529025,15406.148604293703,34.02330305772635,0.913641842735164,112.0,89.0,87.0,280.0,367.0,23.0,953.0,954.0,32.0,15.0,17.0,0.46875,488.86860021038984,5070.92326013664,92.0,75.0,17.0,0.8152173913043478,391.0156723252977,1777.9300757116112,15.0,9.0,6.0,0.6,2145.3693806684187,28863.32354754,20.0,5.0,15.0,0.25,1132.9888248231402,20145.115434904536,82.0,41.0,41.0,0.5,353.73656951976676,16242.589597519407,0.0,0.0,0.0,0.0,46364.0,46387.0,46476.0,46500.0,46520.0,46535.0,46545.0,46563.0,46762.0,46843.0,0.0966335193044205,-0.12070655149082847,0.06459082384981782,-0.10438628690282611,0.02296073980626022
47,47,47300.37253932261,8601.485501675457,21.9472353160035,47412.94208529411,-2108.439546102535,3.0028382301939778,47454.87669549929,34428.621534250706,8.01954243675567,47480.256908114665,-7644.3465731474835,9.589044667996962,47727.947988303415,16564.433738043434,36.49506762269976,0.9519215046586064,132.0,80.0,80.0,282.0,362.0,52.0,926.0,927.0,62.0,31.0,31.0,0.5,343.42796916464806,8450.563679162393,8.0,4.0,4.0,0.5,283.86037126656703,573.4017766967772,18.0,10.0,8.0,0.5555555555555556,2205.0473335113884,33831.261694221146,15.0,6.0,9.0,0.4,831.7441535735371,14987.794101660911,90.0,45.0,45.0,0.5,367.5961940698966,16315.488901313332,0.0,0.0,0.0,0.0,47277.0,47329.0,47409.0,47417.0,47445.0,47462.0,47474.0,47489.0,47686.0,47771.0,0.039926588157098306,-0.1346305478813869,0.06404692477500838,-0.10880513404444911,0.022191896196586586
48,48,48281.160859850934,6796.211922592372,19.036920527786616,48396.273982700426,-3439.921629858067,5.754745936171181,48436.87669549929,36264.07367652557,8.140884864460647,48458.67435282153,-8896.811276964652,15.287792405135166,48710.94815420587,15133.631070653804,34.05243511132657,0.9399303984356804,130.0,83.0,78.0,280.0,358.0,47.0,981.0,982.0,53.0,24.0,29.0,0.4528301886792453,415.0582084736941,5771.447647470966,13.0,4.0,9.0,0.3076923076923077,359.944509672184,1093.6261601549431,17.0,10.0,7.0,0.5882352941176471,2207.658727976528,32889.74203196952,18.0,4.0,14.0,0.2222222222222222,1120.3268241450385,18670.820356150696,87.0,42.0,45.0,0.4827586206896552,332.2414991165129,14848.57686960203,0.0,0.0,0.0,0.0,48262.0,48309.0,48392.0,48404.0,48427.0,48444.0,48455.0,48470.0,48675.0,48750.0,0.06107199322227327,-0.10463741573293793,0.060877295465169644,-0.12592453512482094,0.021953852156524085
49,49,49291.273982700426,3821.398387657175,7.643896202534482,49405.90406919828,-5326.517591601843,30.57558481036868,49450.73305127117,31819.44888692556,7.963762245046506,49476.97262629802,-11274.885686986803,17.835757806028738,49727.208718541886,14898.16728418334,29.69618645456822,0.8548171443242112,47.0,39.0,160.0,272.0,432.0,8.0,1014.0,1013.0,9.0,7.0,2.0,0.7777777777777778,477.8816708041819,5789.169278231482,93.0,76.0,17.0,0.8172043010752689,333.8747868254206,2056.905979728681,15.0,9.0,6.0,0.6,2055.0454779782767,25689.939110705986,26.0,10.0,16.0,0.3846153846153846,732.813814482247,16825.393148482144,78.0,38.0,40.0,0.4871794871794871,291.6944270845284,14397.20751287251,0.0,0.0,0.0,0.0,49285.0,49293.0,49332.0,49423.0,49443.0,49457.0,49467.0,49492.0,49690.0,49764.0,0.12505413524737521,-0.0626816266131986,0.06458457169642193,-0.06499523230892201,0.019579215451165338
50,50,50235.19861460874,7728.203981395256,22.89527595661607,50350.726017299574,-2291.072047601421,3.995002297434591,50391.57662879355,34418.44186183338,7.95581293627985,50418.26860086396,-7899.89066844948,8.227283843557911,50666.119191654114,16275.465445114616,39.94851529638367,0.9437810715996142,132.0,80.0,82.0,285.0,367.0,52.0,943.0,942.0,54.0,23.0,31.0,0.4259259259259259,319.28293279086927,8176.17474015023,11.0,6.0,5.0,0.5454545454545454,310.6992296379987,40.59056129209284,18.0,10.0,8.0,0.5555555555555556,2150.4278114362296,33701.03204147112,16.0,7.0,9.0,0.4375,836.3869195269604,14097.411152333,92.0,43.0,49.0,0.4673913043478261,243.5188807735016,17592.765083556984,0.0,0.0,0.0,0.0,50213.0,50265.0,50345.0,50355.0,50382.0,50400.0,50411.0,50427.0,50625.0,50712.0,0.04131398880768487,-0.13561303319259527,0.06247894137883213,-0.10587322719127187,0.01496232974686437
51,51,51162.94525260201,6493.462044198113,17.953908450282157,51279.87669549929,-3566.6077861622653,5.861199034019107,51318.30135639943,36059.687095485824,8.30666933986628,51338.45203459914,-10380.095856629114,13.715142906197162,51591.00979060952,16631.912793205684,33.126669860127684,0.9375754679514168,124.0,76.0,85.0,278.0,363.0,48.0,924.0,926.0,51.0,21.0,30.0,0.4117647058823529,300.222127663734,6802.652599828068,41.0,34.0,7.0,0.8292682926829268,371.4607279415197,501.4737241051696,17.0,10.0,7.0,0.5882352941176471,2233.6509275609988,31662.918217712264,20.0,3.0,17.0,0.15,1320.2162407435435,21949.96420399016,83.0,40.0,43.0,0.4819277108433735,348.51825643144383,16145.092314510615,0.0,0.0,0.0,0.0,51143.0,51191.0,51267.0,51287.0,51308.0,51324.0,51335.0,51352.0,51554.0,51630.0,0.04623452414447875,-0.10414958700609415,0.061943158897810324,-0.12718728795750037,0.02095479099516547
52,52,52015.41243125944,6613.351999486157,19.67264480644904,52125.30135639943,-1930.2314141732263,7.983023800960764,52169.718197945906,35528.69043335387,8.062549199118259,52190.98428352833,-8893.178376453363,12.739827004320285,52445.383477496405,15737.933463143048,31.61060500534256,0.9364040797646164,128.0,94.0,80.0,278.0,358.0,34.0,855.0,851.0,53.0,22.0,31.0,0.4150943396226415,374.27984718765896,5627.968799569357,17.0,8.0,9.0,0.4705882352941176,271.6490564473493,534.4911021419103,17.0,10.0,7.0,0.5882352941176471,2290.778231633137,33020.68956882445,19.0,4.0,15.0,0.2105263157894736,1192.041725514816,19932.46543030179,73.0,36.0,37.0,0.4931506849315068,385.9399501213357,14531.794638795564,0.0,0.0,0.0,0.0,51995.0,52029.0,52123.0,52134.0,52161.0,52176.0,52188.0,52203.0,52410.0,52481.0,0.05659457521945598,-0.14073393192790018,0.0644768552877081,-0.13404001078748265,0.024522911538873607
53,53,52846.91819356862,6045.335637401723,20.88907487823072,52961.87669549929,-2844.791091500452,6.001962072122025,53000.87669549929,33836.95279718431,7.661844763691243,53026.12330450071,-8885.583733754731,12.739827004320285,53269.46586888168,17154.792149941335,38.236377020880674,0.9210330688283292,103.0,56.0,107.0,278.0,385.0,47.0,830.0,832.0,53.0,24.0,29.0,0.4528301886792453,304.7678361443531,6537.313737090498,40.0,33.0,7.0,0.825,329.08561212939094,757.1882015586971,17.0,10.0,7.0,0.5882352941176471,2224.1958817578025,31696.437424972988,24.0,8.0,16.0,0.3333333333333333,784.2442656433615,15314.564399978415,86.0,40.0,46.0,0.4651162790697674,271.8698134188582,19758.59680913119,0.0,0.0,0.0,0.0,52827.0,52874.0,52930.0,52969.0,52991.0,53008.0,53019.0,53037.0,53229.0,53315.0,0.05041371636320625,-0.11568006280412618,0.06573274771784075,-0.08826029770719046,0.01584803890613084
54,54,53758.21217817205,6870.488556767119,19.84411178976348,53872.169460493256,-2513.682217164195,7.64389620259217,53915.6591351171,36444.76904970212,7.953904178789264,53939.629056756734,-8247.622973267928,15.287792397308207,54191.95881659626,15382.098294249256,34.30804458615531,0.936068222100187,129.0,81.0,81.0,278.0,359.0,48.0,915.0,914.0,49.0,17.0,32.0,0.3469387755102041,249.2831608210099,6598.883054567698,18.0,3.0,15.0,0.1666666666666666,231.64159977445692,2112.2862040181685,17.0,10.0,7.0,0.5882352941176471,2275.556310385879,34069.02718563494,17.0,6.0,11.0,0.3529411764705882,850.4028952700016,17023.580413902877,83.0,46.0,37.0,0.5542168674698795,344.98005539692235,15352.955452782644,0.0,0.0,0.0,0.0,53741.0,53789.0,53870.0,53882.0,53906.0,53923.0,53934.0,53951.0,54147.0,54229.0,0.03628317822834845,-0.09215230079313003,0.06243848897169725,-0.10310884700068308,0.022427372962887413
55,55,54774.12330450071,3958.630708735367,8.253948233207918,54894.30135639943,-4084.66662368009,10.191861601987195,54933.30135639943,32824.108540887755,7.467548510590515,54957.505384618926,-9779.007732072389,17.83575780604839,55205.69540335824,13694.60943399049,31.63890012685832,0.8755243067545181,44.0,26.0,158.0,276.0,434.0,18.0,1015.0,1018.0,19.0,8.0,11.0,0.4210526315789473,466.109174047203,4917.439222423034,89.0,83.0,6.0,0.9325842696629212,429.2679030508505,1015.5577620368244,16.0,9.0,7.0,0.5625,2132.7507359522215,28369.44373035035,20.0,9.0,11.0,0.45,808.6126918383592,16160.234397737571,78.0,38.0,40.0,0.4871794871794871,258.7745092193455,13999.494743499725,0.0,0.0,0.0,0.0,54767.0,54785.0,54811.0,54900.0,54924.0,54939.0,54949.0,54969.0,55168.0,55245.0,0.11774505083756784,-0.10509251858211639,0.0649751304988385,-0.08268862383515022,0.018896085387952597
56,56,55728.22019525688,8301.46170275232,22.65748689098484,55837.28229264098,-1166.1070638683343,2.280116426814233,55882.87669549929,35343.21228334335,7.544851176804988,55909.05268016517,-8947.234828409208,6.113037339131716,56155.43476938429,16017.865316627427,37.08449275529238,0.9512257139658364,137.0,75.0,82.0,283.0,365.0,62.0,953.0,950.0,64.0,32.0,32.0,0.5,219.28562643339905,7712.402002899868,6.0,3.0,3.0,0.5,241.79621670318332,292.2007803014935,18.0,10.0,8.0,0.5555555555555556,2225.779711992241,36073.0881958331,14.0,7.0,7.0,0.5,896.885568607767,14877.498659051464,87.0,42.0,45.0,0.4827586206896552,197.7006373647665,16975.693983036384,0.0,0.0,0.0,0.0,55697.0,55759.0,55834.0,55840.0,55874.0,55890.0,55902.0,55916.0,56114.0,56199.0,0.02641530302557388,-0.20735335904841465,0.06297615774560517,-0.10024164848786367,0.012342508409003935
57,57,56707.30429212357,7137.870331159674,20.92989813767635,56819.15067819971,-3122.781568182161,4.394411649123953,56861.87669549929,33606.38103191848,8.034391976941533,56886.47967250739,-8915.447243075458,10.191861603456228,57135.27151100229,16933.175585367288,37.4021372062284,0.9304865192743428,127.0,78.0,82.0,282.0,364.0,49.0,979.0,979.0,62.0,30.0,32.0,0.4838709677419355,284.99594093118577,6445.996355499455,9.0,6.0,3.0,0.6666666666666666,383.1696775651035,2211.437288951582,17.0,10.0,7.0,0.5882352941176471,2215.713358108417,33675.86768263665,15.0,5.0,10.0,0.3333333333333333,979.0703578436307,15824.78653285635,82.0,38.0,44.0,0.4634146341463415,347.04998190866297,17959.685234537978,0.0,0.0,0.0,0.0,56687.0,56736.0,56814.0,56822.0,56853.0,56869.0,56881.0,56896.0,57102.0,57178.0,0.03992730712507678,-0.12270140232323545,0.06593132881532199,-0.10981730149365926,0.020495268602102275
58,58,57640.59359478308,6594.808907684642,20.858946065955113,57760.15067819971,-2280.454362387783,2.9199917134616857,57794.41234591722,31430.745005430686,8.073033626244449,57817.178051898714,-9218.786539104198,11.553846002505429,58063.87276669368,16214.207683453982,36.857038819939085,0.9347196468611724,133.0,83.0,78.0,278.0,356.0,50.0,932.0,932.0,53.0,24.0,29.0,0.4528301886792453,303.9346258398081,6026.137920130328,11.0,8.0,3.0,0.7272727272727273,465.51057829991936,289.72285892868354,17.0,9.0,8.0,0.5294117647058824,2107.661968964317,29743.650812706175,19.0,6.0,13.0,0.3157894736842105,1004.0575352332764,18071.30069889837,89.0,42.0,47.0,0.4719101123595505,315.4182288226121,16232.569651073669,0.0,0.0,0.0,0.0,57619.0,57669.0,57752.0,57763.0,57785.0,57801.0,57811.0,57830.0,58024.0,58108.0,0.04608694961360388,-0.20413062676356292,0.06705733410392117,-0.10891428399760324,0.019453200241445354
59,59,58565.41787028098,6810.607861529294,19.483657735752153,58672.60271279886,-2552.756486769947,9.75307620073434,58719.18800777345,34964.99106757955,7.595870340675929,58745.12330450071,-8292.000471110547,7.904373094609481,58996.95881659626,15601.71554821802,33.03521058991606,0.9391831951103028,101.0,54.0,105.0,282.0,387.0,47.0,926.0,925.0,50.0,20.0,30.0,0.4,278.2882912868603,6400.802181544451,57.0,43.0,14.0,0.7543859649122807,217.62740856609307,1191.6310791152891,17.0,9.0,8.0,0.5294117647058824,2263.096604339876,34845.23663462224,16.0,7.0,9.0,0.4375,884.8087620704581,14013.222703419156,80.0,43.0,37.0,0.5375,237.2079348072348,16103.41780444123,0.0,0.0,0.0,0.0,58546.0,58593.0,58647.0,58684.0,58710.0,58727.0,58738.0,58752.0,58954.0,59034.0,0.04086100638076846,-0.08525192657191571,0.06472464414378983,-0.10670630870718653,0.015203964850796678
60,60,59484.67126990158,7816.642214325615,24.001959802890724,59601.45203459914,-3666.548623670591,6.858437864006291,59640.30135640115,35119.38441139518,7.955406091943002,59660.4520345994,-11412.564103331846,13.831691085226971,59911.91491178496,16208.937623269125,35.221136088466814,0.9363675251887336,117.0,88.0,89.0,278.0,367.0,29.0,918.0,921.0,49.0,17.0,32.0,0.3469387755102041,431.1667173156476,8750.493148781432,24.0,15.0,9.0,0.625,513.1125401586679,247.5750819789057,17.0,10.0,7.0,0.5882352941176471,2250.7388427246656,29148.57532726953,21.0,4.0,17.0,0.1904761904761904,1360.015917483665,23358.19922648432,76.0,34.0,42.0,0.4473684210526316,309.73642847229036,17481.84230215095,0.0,0.0,0.0,0.0,59469.0,59498.0,59586.0,59610.0,59631.0,59646.0,59657.0,59675.0,59879.0,59953.0,0.055160093745297095,-0.13994428898231537,0.06408822023641078,-0.11916830478845805,0.019108990093690093
61,61,60373.457521231685,7161.891165337409,25.66467275029077,60489.21452529209,-1491.2309797673695,5.024967036839401,60529.87669549929,33750.878841884696,7.99872987791965,60552.54352183572,-7644.851138324811,10.21723184613827,60799.2347608594,16454.26212590619,41.84176578762186,0.9299317710337116,125.0,79.0,79.0,284.0,363.0,46.0,890.0,890.0,48.0,15.0,33.0,0.3125,288.2028579934735,9217.338819903636,14.0,5.0,9.0,0.3571428571428571,291.1331854354903,547.1711997889752,18.0,10.0,8.0,0.5555555555555556,2138.6121598973687,32591.998627047993,15.0,5.0,10.0,0.3333333333333333,935.2071996077336,16991.28022320225,94.0,45.0,49.0,0.4787234042553192,264.7216751620528,18609.690097156472,0.0,0.0,0.0,0.0,60359.0,60405.0,60484.0,60497.0,60521.0,60537.0,60548.0,60563.0,60755.0,60847.0,0.04024116694042163,-0.19523010813583472,0.0633646362192904,-0.1223316429170735,0.016088334629437158
62,62,61302.52059170187,7645.684561517008,18.950403924983423,61404.753390998565,-2763.1847575016504,11.347720732229718,61453.87669549929,33813.17148646297,7.826401385120015,61480.10433431193,-8609.775487351702,9.84519144979965,61728.10998087559,14612.568689269305,32.57145330638529,0.947585013073634,99.0,54.0,105.0,276.0,381.0,45.0,927.0,924.0,49.0,22.0,27.0,0.4489795918367347,325.7350099122063,8286.552006164115,37.0,22.0,15.0,0.5945945945945946,199.62100876635745,1007.9065388844674,18.0,10.0,8.0,0.5555555555555556,2176.39178822262,32525.63765348372,15.0,7.0,8.0,0.4666666666666667,851.3569542085022,15341.269734172149,81.0,39.0,42.0,0.4814814814814814,361.14487251046097,16454.263223897608,0.0,0.0,0.0,0.0,61284.0,61329.0,61383.0,61419.0,61444.0,61461.0,61473.0,61488.0,61692.0,61764.0,0.04260377305542096,-0.07224309131860077,0.0643652071824713,-0.0988825963533194,0.024714674072031335
63,63,62260.09593080172,5175.498156889537,16.015714976352267,62366.32873009842,-3701.8716718356177,28.027619409504627,62412.152958529645,33739.238646467325,8.08902641583364,62436.34326801848,-10948.41582458014,19.00229139903436,62686.53415569612,14864.608292780258,31.31393068642612,0.910974965626576,113.0,82.0,93.0,276.0,369.0,31.0,958.0,957.0,47.0,18.0,29.0,0.3829787234042553,421.5575170731158,4135.551267082819,56.0,39.0,17.0,0.6964285714285714,340.625175992769,3843.707748196587,16.0,9.0,7.0,0.5625,2023.492902282001,26908.528371183565,21.0,7.0,14.0,0.3333333333333333,932.022172217894,19617.8754244658,82.0,42.0,40.0,0.5121951219512195,271.61334707019694,14091.12788966314,0.0,0.0,0.0,0.0,62243.0,62274.0,62356.0,62382.0,62403.0,62419.0,62429.0,62449.0,62648.0,62725.0,0.08145254897095179,-0.09201431226919488,0.05997446840709523,-0.0851284959533071,0.01827248600974703
64,64,0.0,0.0,0.0,0.0,0.0,0.0,0.0,0.0,0.0,0.0,0.0,0.0,0.0,0.0,0.0,0.0,0.0,0.0,0.0,0.0,0.0,0.0,0.0,0.0,0.0,0.0,0.0,0.0,0.0,0.0,0.0,0.0,0.0,0.0,0.0,0.0,0.0,0.0,0.0,0.0,0.0,0.0,0.0,0.0,0.0,0.0,0.0,0.0,0.0,0.0,0.0,0.0,0.0,0.0,0.0,0.0,0.0,0.0,63146.0,63200.0,63208.0,,63316.0,63333.0,63345.0,63357.0,63560.0,63638.0,,,,,
65,65,64140.11877635835,6342.76351498772,19.19481998329386,64254.726017299574,-2997.8850006696953,7.381183039278284,64294.65212414178,33611.12484764822,7.806752977742194,64318.69864360057,-10107.180018218152,10.191861603448157,64568.95881659665,14726.290802796262,31.118287833774488,0.9350983810826692,124.0,78.0,85.0,275.0,360.0,46.0,1880.0,1883.0,49.0,20.0,29.0,0.4081632653061224,264.7525832159248,6353.452209905639,34.0,28.0,6.0,0.8235294117647058,396.6175185211111,303.65836329121885,17.0,10.0,7.0,0.5882352941176471,2169.553539224134,32718.62998844866,19.0,6.0,13.0,0.3157894736842105,859.8256807257428,17129.99789288183,74.0,36.0,38.0,0.4864864864864865,352.46329942952013,14532.627910255447,0.0,0.0,0.0,0.0,64122.0,64168.0,64246.0,64259.0,64285.0,64302.0,64313.0,64331.0,64534.0,64606.0,0.04174088827217412,-0.13229911035030062,0.06454867396013193,-0.08507077930500005,0.023934288963151102
66,66,65175.54796540086,3514.1510427765165,9.696078117845213,65285.90406919828,-4976.927257186664,30.57558481036868,65332.17676177236,32876.75889069733,7.854532334414807,65356.63524660112,-11042.496634646546,19.00956340051412,65606.79875011994,14297.336377481895,29.74967486667894,0.8581521556889959,44.0,28.0,160.0,273.0,433.0,16.0,1038.0,1038.0,18.0,10.0,8.0,0.5555555555555556,451.46451619524976,4358.904022855253,96.0,76.0,20.0,0.7916666666666666,354.9621524130917,4364.066311612836,15.0,8.0,7.0,0.5333333333333333,1995.2487485986885,25992.885905791773,23.0,9.0,14.0,0.391304347826087,864.8541498917912,17980.715274085996,71.0,34.0,37.0,0.4788732394366197,278.7992586300663,14973.526102060949,0.0,0.0,0.0,0.0,65167.0,65183.0,65211.0,65303.0,65324.0,65339.0,65348.0,65371.0,65573.0,65644.0,0.12847043587476237,-0.07132154722585661,0.060688730152267396,-0.07832052646303332,0.01950008388060109
67,67,66157.97132895308,6528.353001084104,20.04135564365856,66271.027373699,-3105.906009237512,10.355989932328391,66314.71632176879,34108.71958357354,7.651143620232388,66341.07754221353,-6921.124371871771,5.869048731104968,66588.10949479598,15836.180307290706,35.53806880067584,0.938637969087924,121.0,87.0,89.0,278.0,367.0,34.0,981.0,983.0,36.0,18.0,18.0,0.5,348.080962949167,6306.963202637868,40.0,26.0,14.0,0.65,288.9440572097581,1310.4102375601176,18.0,10.0,8.0,0.5555555555555556,2154.258698376375,35302.095523878976,16.0,7.0,9.0,0.4375,774.3672845597123,11184.13141948307,83.0,42.0,41.0,0.5060240963855421,265.46932541559886,17807.85735137949,0.0,0.0,0.0,0.0,66140.0,66174.0,66261.0,66281.0,66306.0,66323.0,66334.0,66350.0,66547.0,66628.0,0.05331834275679706,-0.09303052196376436,0.06315859184036468,-0.11188460760896426,0.016763469489759555
68,68,67240.21737732968,6627.247942310268,18.750339575510157,67349.87669549929,-2686.95258493108,9.342934230460688,67394.02266105544,34876.710018873084,7.757067500761767,67419.53259068783,-8362.642073180154,15.287792405183165,67666.90948639439,15881.881203930949,36.4922417998619,0.9343998482416908,121.0,94.0,85.0,281.0,366.0,27.0,1083.0,1079.0,49.0,19.0,30.0,0.3877551020408163,352.13444204979857,6822.924732079238,18.0,6.0,12.0,0.3333333333333333,355.3901836948859,1669.8782771294475,18.0,10.0,8.0,0.5555555555555556,2181.972343390976,30830.263065977226,18.0,8.0,10.0,0.4444444444444444,767.7067933986693,14728.407499463405,88.0,44.0,44.0,0.5,319.09704959828207,15893.12675979794,0.0,0.0,0.0,0.0,67223.0,67250.0,67344.0,67357.0,67385.0,67401.0,67412.0,67429.0,67626.0,67710.0,0.05313433948980095,-0.1322651488857596,0.0625624476107474,-0.09180194329502435,0.020091892484329996
69,69,68201.82194810128,5461.1240532525735,18.449904733416854,68310.15067819973,-1026.1883958058354,4.688883123918222,68353.19109810908,31568.87138511796,8.253330100926673,68374.22473003903,-8548.933602363306,10.889990218583566,68624.72026192966,15644.395758444349,34.78473677520336,0.905028387075176,118.0,77.0,80.0,280.0,360.0,41.0,961.0,959.0,43.0,14.0,29.0,0.3255813953488372,232.27756744641476,6200.892091321849,7.0,3.0,4.0,0.4285714285714285,400.040483716541,182.79749085820436,16.0,9.0,7.0,0.5625,2084.799572932411,30361.84728791939,19.0,4.0,15.0,0.2105263157894736,1134.694901269762,17997.629234537224,79.0,37.0,42.0,0.4683544303797468,196.6292267119255,17600.138415077643,0.0,0.0,0.0,0.0,68189.0,68230.0,68307.0,68313.0,68344.0,68360.0,68370.0,68387.0,68589.0,68667.0,0.04253292274290552,-0.3898314240850493,0.06603972462301003,-0.13272940860788554,0.012568668662437235
70,70,69077.65922474465,5821.445559755613,18.16371705127122,69185.75339099858,-2986.8644316311193,25.47965400864023,69232.87669549929,33221.52126647838,8.232282859171058,69258.12330450071,-9864.814737388147,12.739827004320285,69503.89497953694,15008.073446210552,33.965923804170835,0.909753079555294,100.0,73.0,109.0,274.0,383.0,27.0,878.0,880.0,29.0,17.0,12.0,0.5862068965517241,300.89747964653327,5909.037584032385,85.0,68.0,17.0,0.8,220.3841262169734,2634.235696603992,17.0,10.0,7.0,0.5882352941176471,2142.833739745932,30860.464176510257,20.0,7.0,13.0,0.35,848.1029868455743,16415.580422796884,82.0,40.0,42.0,0.4878048780487805,199.23730435337737,16603.311272070176,0.0,0.0,0.0,0.0,69062.0,69089.0,69162.0,69200.0,69224.0,69240.0,69251.0,69271.0,69469.0,69545.0,0.05168775977682853,-0.0737844422676466,0.06450137314777701,-0.08597252046013809,0.013275341773043067
71,71,69959.09517536992,5089.575609843689,12.739827004320285,70077.72601729959,-4671.597882062305,4.054839117623395,70110.57271764085,33716.8107960661,7.66574165156595,70132.31120757844,-10191.844331901526,16.366835195556646,70383.74532808615,15606.31710003252,31.686826580527736,0.9137189152082752,59.0,44.0,141.0,275.0,416.0,15.0,881.0,877.0,36.0,15.0,21.0,0.4166666666666667,414.5502150476983,5643.809885387938,89.0,85.0,4.0,0.9550561797752808,624.6134198772886,984.2498562784426,16.0,10.0,6.0,0.625,2148.7389509779714,28536.303676997257,20.0,5.0,15.0,0.25,1078.2662255778207,20525.387542034376,78.0,40.0,38.0,0.5128205128205128,342.5359328763518,16511.81179596542,0.0,0.0,0.0,0.0,69947.0,69962.0,70006.0,70082.0,70102.0,70117.0,70127.0,70147.0,70348.0,70422.0,0.08145084125401764,-0.13370444880875518,0.06372900936492709,-0.10579696769923536,0.021948543700655552
72,72,70834.62553591595,6822.808636106616,25.81653781926105,70946.84932180027,-1530.4355975293386,5.095930801728113,70989.87669549929,34519.28333138982,8.3241824478343,71014.29274808393,-7066.323206919971,8.24135295853401,71260.1279786202,16314.380294022412,39.44650387900689,0.9447514284525635,133.0,78.0,79.0,282.0,361.0,55.0,874.0,880.0,60.0,28.0,32.0,0.4666666666666667,213.08702011471692,6760.944802950437,5.0,3.0,2.0,0.6,253.28481111532372,1071.870850627181,18.0,10.0,8.0,0.5555555555555556,2180.484035722904,35134.41334288938,14.0,5.0,9.0,0.3571428571428571,952.1400435729478,15411.95914405558,88.0,43.0,45.0,0.4886363636363636,348.3220131643402,17634.843449586362,0.0,0.0,0.0,0.0,70811.0,70866.0,70944.0,70949.0,70981.0,70997.0,71009.0,71023.0,71218.0,71305.0,0.03123156920847093,-0.16549851004786775,0.06316712936331732,-0.13474334752202216,0.021350612581463813
73,73,71858.36655076095,7728.523880210965,25.04987904630607,71968.42466090013,-920.7471049269392,2.4445181700278416,72015.87669549929,35027.170493942365,8.875060954736831,72037.87669549929,-8134.648372076565,11.864319378606544,72289.20117024373,16493.179203244956,38.61794313640221,0.9355181136563658,130.0,76.0,80.0,289.0,369.0,54.0,1026.0,1026.0,54.0,21.0,33.0,0.3888888888888889,383.60139364971656,8898.479603261472,6.0,1.0,5.0,0.1666666666666666,303.34265281830415,613.0866791408255,18.0,11.0,7.0,0.6111111111111112,2177.74452738684,33671.98853074915,13.0,4.0,9.0,0.3076923076923077,1108.250100703596,16937.678698360207,90.0,43.0,47.0,0.4777777777777778,329.5138629757441,16915.71614243714,0.0,0.0,0.0,0.0,71837.0,71891.0,71967.0,71973.0,72006.0,72023.0,72035.0,72047.0,72247.0,72336.0,0.04963449678041823,-0.32945273593054003,0.0621730073162336,-0.1362382305924661,0.019978796017138634
74,74,72912.5971350646,6640.564247242055,21.90117585694981,73021.57533909987,-1193.0349772719726,2.5479654008640567,73065.41798382344,30487.54961380947,7.786993699856226,73089.64249037355,-8865.476904500249,10.633705046551157,73345.95881659626,16411.224884784657,36.05505704637072,0.9261202499687592,128.0,79.0,82.0,283.0,365.0,49.0,1051.0,1049.0,59.0,32.0,27.0,0.5423728813559322,305.15131359567266,6999.58051440509,5.0,4.0,1.0,0.8,288.0633377670149,253.6894806672118,17.0,9.0,8.0,0.5294117647058824,1966.3435868004128,28467.59734447351,18.0,8.0,10.0,0.4444444444444444,862.7824008293127,15238.749362704368,90.0,53.0,37.0,0.5888888888888889,152.12968450717943,16050.540052813569,0.0,0.0,0.0,0.0,72890.0,72939.0,73018.0,73023.0,73056.0,73073.0,73082.0,73100.0,73294.0,73383.0,0.04595261821650283,-0.2414542266193307,0.064496609655692,-0.09731934447783079,0.009269855575998076
75,75,73909.00942425658,8458.674114893014,25.86555922316423,74031.42466090013,-1175.7927174145705,1.0347822719405189,74066.25278958767,35704.46001411988,8.521525959643117,74088.94959369158,-7917.562832443227,13.54621899195365,74342.68483389584,15658.586447442836,36.51208060114723,0.952373140781202,147.0,88.0,72.0,282.0,354.0,59.0,998.0,1001.0,65.0,31.0,34.0,0.4769230769230769,434.97998881929874,6375.921168851439,4.0,1.0,3.0,0.25,432.7121038731101,1405.7891685615164,18.0,10.0,8.0,0.5555555555555556,2146.0046634671667,33542.53400149607,19.0,4.0,15.0,0.2105263157894736,1024.978200286285,18002.80760985491,84.0,43.0,41.0,0.5119047619047619,203.03262081765007,16396.198696209925,0.0,0.0,0.0,0.0,73883.0,73942.0,74030.0,74034.0,74057.0,74073.0,74085.0,74102.0,74300.0,74384.0,0.05142413372486338,-0.368017336273857,0.06010466654917889,-0.12945627612657593,0.012966216426950007
76,76,74937.39159982669,7577.024985449564,19.965927755391867,75050.15067819973,-1813.821480534624,4.633607972000289,75091.87669549929,34597.556637511254,7.969163537729589,75115.4896975739,-8558.824403571929,10.191861603456015,75367.53415569612,17716.997205075557,34.25422553247615,0.9311959457532936,131.0,85.0,76.0,281.0,357.0,46.0,1028.0,1026.0,49.0,20.0,29.0,0.4081632653061224,335.67510969957004,7551.1407817141135,6.0,1.0,5.0,0.1666666666666666,398.3618327350536,83.70562708372779,17.0,10.0,7.0,0.5882352941176471,2251.859486088344,33013.583391388136,14.0,4.0,10.0,0.2857142857142857,999.7681180227988,17585.084075550338,80.0,42.0,38.0,0.525,429.7048526131761,18866.59330355746,0.0,0.0,0.0,0.0,74918.0,74964.0,75049.0,75054.0,75082.0,75099.0,75111.0,75125.0,75327.0,75406.0,0.04430170289053806,-0.2196257112456494,0.06508724039913386,-0.11681138330230924,0.024253819518020497
77,77,75937.29180400318,7178.204498981169,22.202995311703656,76047.44153744177,-978.5209603981742,1.691914341602025,76088.87669549929,30426.26420519917,8.115959312640047,76111.09338651373,-8204.081897820279,9.986378832267516,76361.3839940246,17000.62032969044,38.808842760113535,0.9296413931264432,130.0,80.0,78.0,284.0,362.0,50.0,998.0,997.0,53.0,23.0,30.0,0.4339622641509434,263.65649782522917,7342.337170657904,5.0,2.0,3.0,0.4,310.55050284217526,1111.316733492782,17.0,10.0,7.0,0.5882352941176471,2076.7934543037127,29675.580958192,17.0,5.0,12.0,0.2941176470588235,1023.9315010511054,16670.258921069908,90.0,43.0,47.0,0.4777777777777778,182.05535967532913,18326.19406019232,0.0,0.0,0.0,0.0,75915.0,75965.0,76045.0,76050.0,76080.0,76096.0,76107.0,76123.0,76319.0,76407.0,0.036730145799364025,-0.31736724649802883,0.06825660358095605,-0.12480756698968974,0.010708748042410059
78,78,76902.61969522177,6250.8824033899355,17.10325522398422,77007.75339099858,-2666.0945152901168,25.47965400864057,77055.87669549929,34489.15925693002,8.596031465173617,77076.9639540313,-10128.69555931812,12.739827004320285,77330.08108843776,15190.756861819966,33.69115832629163,0.935163132224102,57.0,13.0,148.0,281.0,429.0,44.0,966.0,967.0,48.0,21.0,27.0,0.4375,291.26519808036875,5370.328075973499,87.0,68.0,19.0,0.7816091954022989,225.7390671141944,1157.5774212458869,17.0,10.0,7.0,0.5882352941176471,2109.999728694783,31066.08842590832,16.0,3.0,13.0,0.1875,1212.3485379601443,20872.006740025925,78.0,38.0,40.0,0.4871794871794871,248.5275164450273,16440.11602186291,0.0,0.0,0.0,0.0,76884.0,76928.0,76941.0,77022.0,77046.0,77063.0,77074.0,77089.0,77293.0,77370.0,0.04659585307866483,-0.08467031675717998,0.06117863624845577,-0.11969443951198802,0.01636044330810597
79,79,77863.64042679564,3500.430178855043,17.57151382179499,77981.60271279886,-3881.767538728704,20.383723206912453,78021.37624495926,32041.0273668847,8.146890691561959,78044.53483243556,-11673.466352549154,15.28779240518434,78300.95881659626,14453.020207892783,30.56176247184478,0.895330776452588,114.0,96.0,88.0,280.0,368.0,18.0,966.0,964.0,18.0,8.0,10.0,0.4444444444444444,377.1834364413198,5678.705198187397,25.0,13.0,12.0,0.52,536.3060185284853,687.200832084045,16.0,9.0,7.0,0.5625,2067.271884894525,27323.316873007025,19.0,6.0,13.0,0.3157894736842105,1005.3969433204716,20223.88468396415,80.0,43.0,37.0,0.5375,289.2756122039746,13402.852691783315,0.0,0.0,0.0,0.0,77856.0,77874.0,77970.0,77993.0,78013.0,78028.0,78039.0,78058.0,78258.0,78338.0,0.10775345233844742,-0.1381602615761293,0.0645195255827255,-0.0861266836222063,0.020014890178178913
80,80,78779.28532778016,6162.577863044211,20.927783270458605,78887.30135639943,-2527.027563322304,10.191861603456228,78935.7788898081,34946.62273604314,7.920404354169765,78958.73639340716,-7998.98024012497,15.287792401087342,79212.38347749642,14244.643854054972,33.56974449994547,0.9510988976047544,128.0,75.0,85.0,278.0,363.0,53.0,912.0,915.0,55.0,23.0,32.0,0.4181818181818181,242.02914235818815,6028.656510996808,14.0,3.0,11.0,0.2142857142857142,322.07375241505883,2196.3539520659488,17.0,10.0,7.0,0.5882352941176471,2144.7868794677524,33015.23383191747,16.0,5.0,11.0,0.3125,902.3645006806292,17437.234629068647,76.0,40.0,36.0,0.5263157894736842,289.4333247945065,14879.82157114227,0.0,0.0,0.0,0.0,78757.0,78810.0,78885.0,78898.0,78926.0,78943.0,78954.0,78970.0,79174.0,79248.0,0.03927400963314235,-0.12745161829245177,0.06137322326302132,-0.11280994246668265,0.02031874771738253
81,81,79749.86643111282,6869.314693743141,18.164731896565566,79854.32873009844,-2763.603779482564,28.02761940949285,79904.87669550286,34160.46564015339,8.263587928035287,79927.86946662703,-8693.553348870902,12.739827004320285,80178.87138241457,16047.447939495763,34.80556380340772,0.9384591750903848,96.0,52.0,108.0,283.0,391.0,44.0,970.0,970.0,45.0,17.0,28.0,0.3777777777777777,295.4433924520421,7320.560599249939,60.0,42.0,18.0,0.7,358.0087120558225,2582.570339282325,17.0,10.0,7.0,0.5882352941176471,2173.762592320863,30984.105047033685,15.0,5.0,10.0,0.3333333333333333,989.8541060861965,17829.4032730312,82.0,40.0,42.0,0.4878048780487805,229.57882593109315,17274.95897420841,0.0,0.0,0.0,0.0,79734.0,79778.0,79830.0,79870.0,79896.0,79912.0,79923.0,79938.0,80140.0,80221.0,0.04300915093046243,-0.12954415343969944,0.06363386890621736,-0.11386070417509501,0.014306251486010859
82,82,80777.92075101873,4141.095960482575,11.580718026119149,80898.30135639943,-3161.5875291352536,10.191861603456228,80933.30135639943,33009.02133796644,7.635994714903776,80958.41687661817,-10892.194216156022,20.7798547991941,81208.14825415795,14627.951178094712,30.95878263539153,0.8744734919116581,44.0,25.0,162.0,270.0,432.0,19.0,1030.0,1028.0,20.0,11.0,9.0,0.55,320.254198584347,4010.002307408157,93.0,87.0,6.0,0.935483870967742,504.47112102431055,522.5290266097654,15.0,9.0,6.0,0.6,2100.090529347549,25385.13028049161,24.0,9.0,15.0,0.375,747.6144109233198,16775.67202935037,79.0,38.0,41.0,0.4810126582278481,307.61077591629027,15775.101671553535,0.0,0.0,0.0,0.0,80767.0,80786.0,80811.0,80904.0,80924.0,80939.0,80949.0,80973.0,81171.0,81243.0,0.07733561396317577,-0.15956259833878195,0.06362171443514016,-0.06863763132449555,0.021028972011947644
83,83,81729.42068351877,6610.536740367851,21.33845531772555,81836.15778772181,-1528.0070367903108,1.2159197020134125,81882.96471512124,34452.29167275216,8.0518526494485,81906.49229094393,-7051.0185607422045,12.739827003098217,82157.42127242421,15614.7062783388,35.21190233851045,0.952729223888818,124.0,76.0,83.0,282.0,365.0,48.0,948.0,950.0,65.0,33.0,32.0,0.5076923076923077,338.24003022710804,5455.450401269163,4.0,2.0,2.0,0.5,293.1827478390785,612.666930286402,17.0,10.0,7.0,0.5882352941176471,2165.088443311118,32707.97574950787,15.0,4.0,11.0,0.2666666666666666,955.16624920113,16706.31902973742,81.0,39.0,42.0,0.4814814814814814,194.7388310462092,16495.48732000756,0.0,0.0,0.0,0.0,81710.0,81758.0,81834.0,81838.0,81874.0,81890.0,81902.0,81917.0,82118.0,82199.0,0.05116680286513108,-0.19187264245518793,0.06284308933281953,-0.13546500281805912,0.01247150138945341
84,84,82676.79526672939,7866.332420025067,27.041102772642827,82793.30135639943,-1584.38500161294,4.138266476161981,82835.87669550074,34997.863409957994,8.484715812271277,82857.87669549929,-7806.872810576791,12.739827004315314,83108.56109680014,16544.107089522076,37.46160915843897,0.946068539785732,137.0,76.0,82.0,282.0,364.0,61.0,951.0,953.0,63.0,28.0,35.0,0.4444444444444444,312.4692870819112,8643.493595287713,14.0,8.0,6.0,0.5714285714285714,258.2104987917195,645.3160402897129,18.0,10.0,8.0,0.5555555555555556,2152.7730883849804,31788.51934586621,14.0,3.0,11.0,0.2142857142857142,1094.930811951751,18312.188544506254,81.0,39.0,42.0,0.4814814814814814,262.356676291481,17891.86662677352,0.0,0.0,0.0,0.0,82650.0,82711.0,82787.0,82799.0,82826.0,82843.0,82855.0,82869.0,83071.0,83151.0,0.03972235984923143,-0.16297206709786782,0.061511557524750175,-0.14025216479360764,0.015858013664432822
85,85,83665.10383737207,7067.195745075501,20.24886199908652,83778.15067819973,-1797.755085373302,4.815199809519268,83819.36467348729,31844.158032056886,8.053212099266556,83841.45559042763,-10205.27494685413,12.139412014796632,84096.53415569612,15968.694464307762,35.13977334525274,0.9304658023340906,130.0,103.0,78.0,280.0,358.0,27.0,985.0,983.0,49.0,19.0,30.0,0.3877551020408163,438.0101827069068,7402.397184138618,9.0,6.0,3.0,0.6666666666666666,444.4833909260085,1076.740336779051,16.0,9.0,7.0,0.5625,1983.159589822291,29403.80972769604,19.0,5.0,14.0,0.2631578947368421,1087.1499228887324,19594.8947883665,79.0,38.0,41.0,0.4810126582278481,246.67779219872105,16472.56195537024,0.0,0.0,0.0,0.0,83647.0,83674.0,83777.0,83781.0,83810.0,83826.0,83836.0,83855.0,84059.0,84135.0,0.06197793276238557,-0.24724357313316234,0.0622770301486974,-0.10652823452089906,0.015447586698466803
86,86,84581.90860692425,6426.135597948822,19.05267801313511,84695.30135639943,-2311.804557252756,10.191861603456228,84736.87669549929,34697.55054720484,8.028079895230757,84761.17101270192,-8094.243922935062,15.28779240518434,85008.71802090511,15332.343661596184,34.89571985663556,0.928874485009098,60.0,10.0,151.0,277.0,428.0,50.0,918.0,918.0,53.0,21.0,32.0,0.3962264150943396,328.6052431633325,5715.13365596835,79.0,73.0,6.0,0.9240506329113924,291.50045751706597,26.770922315573216,17.0,10.0,7.0,0.5882352941176471,2140.6991694149383,32189.24162468607,18.0,6.0,12.0,0.3333333333333333,871.1377275417816,16209.321576971926,84.0,43.0,41.0,0.5119047619047619,215.8239969565699,15286.023319943,0.0,0.0,0.0,0.0,84562.0,84612.0,84622.0,84701.0,84727.0,84744.0,84755.0,84773.0,84973.0,85050.0,0.05113574685044322,-0.12609217185014635,0.06169597379799446,-0.10762434834381633,0.014076386605992721
87,87,85526.23007471641,7499.140361097653,19.70570987413879,85646.87669549929,-3025.464226381265,5.248766431087528,85682.90092937743,34535.69156645128,7.709506398826279,85709.12330450071,-8710.558933106864,9.244936165994794,85958.61142884311,16192.07910163064,37.21930543028282,0.947363661276844,104.0,56.0,109.0,283.0,392.0,48.0,945.0,946.0,60.0,28.0,32.0,0.4666666666666667,295.18678442343196,6447.100104764022,63.0,56.0,7.0,0.8888888888888888,429.6916314616253,324.9980901869468,18.0,10.0,8.0,0.5555555555555556,2185.620768397074,32843.850293095275,18.0,7.0,11.0,0.3888888888888889,839.3088641359087,14831.1425426537,91.0,45.0,46.0,0.4945054945054945,431.86902768172297,16650.283068451434,0.0,0.0,0.0,0.0,85507.0,85555.0,85611.0,85654.0,85674.0,85690.0,85702.0,85720.0,85914.0,86003.0,0.03936274962324152,-0.14202502469367362,0.06328585498835741,-0.09635533960351104,0.02667162289481597
88,88,86474.58818118508,7549.903028778559,20.92756733458116,86586.30135639943,-1426.303213249593,4.10328063451654,86629.87669550473,30719.150679430393,7.89588318436915,86653.37927851241,-9482.830397108011,9.503865623524858,86906.53415569612,16627.205462185346,38.08298503961883,0.9207583476850214,126.0,78.0,84.0,280.0,364.0,48.0,946.0,947.0,51.0,22.0,29.0,0.4313725490196078,320.33927441947225,7342.516589801806,11.0,5.0,6.0,0.4545454545454545,280.06389857372716,140.82177197574345,16.0,9.0,7.0,0.5625,2103.65564150895,30193.612114649462,18.0,6.0,12.0,0.3333333333333333,1023.9437366839458,17533.388169306443,88.0,49.0,39.0,0.5568181818181818,279.7863593209579,17589.505059114043,0.0,0.0,0.0,0.0,86455.0,86503.0,86581.0,86592.0,86621.0,86637.0,86647.0,86665.0,86860.0,86945.0,0.04242958792959457,-0.1963564941676381,0.06848026703152187,-0.10797870401607298,0.016827022433641415
89,89,87417.91798186541,5523.580174298944,12.739827004320285,87524.75339099858,-3429.5289168211175,25.47965400864057,87573.87669549929,35136.2141072443,8.303659763732083,87596.69465665994,-9374.798225657718,15.28779240511116,87846.65773055013,14728.462610542823,33.9972538403363,0.915786566953693,50.0,37.0,152.0,279.0,431.0,13.0,947.0,944.0,22.0,11.0,11.0,0.5,399.88294873192416,5266.935501981794,82.0,68.0,14.0,0.8292682926829268,183.9387172682577,2194.966469920973,17.0,10.0,7.0,0.5882352941176471,2138.7054087077845,31778.502318339793,18.0,5.0,13.0,0.2777777777777778,896.8702809720614,18300.96753767442,83.0,41.0,42.0,0.4939759036144578,248.05811232154676,15228.688543362689,0.0,0.0,0.0,0.0,87408.0,87421.0,87458.0,87539.0,87564.0,87581.0,87592.0,87610.0,87807.0,87889.0,0.07239560866565634,-0.053633814360356316,0.06086897700987175,-0.09566822233223465,0.016842091322144075
90,90,88390.44671849569,7031.446013105525,19.22632072289289,88500.30135639943,-2166.5405034932814,9.030666767195813,88545.91277610022,33291.14321367701,7.961953308574752,88570.69864360052,-8834.705999396376,10.191861603137523,88819.76282110775,15619.3254190343,33.90426657437498,0.947225696046561,127.0,81.0,82.0,280.0,362.0,46.0,970.0,972.0,51.0,20.0,31.0,0.392156862745098,285.0769250742959,6593.757379454482,19.0,7.0,12.0,0.3684210526315789,322.99561854007936,127.08861695778133,18.0,10.0,8.0,0.5555555555555556,2155.379601729457,31337.913621785337,17.0,7.0,10.0,0.4117647058823529,910.8724242958816,14163.587297360047,79.0,38.0,41.0,0.4810126582278481,343.78375024628167,16195.731696593672,0.0,0.0,0.0,0.0,88371.0,88417.0,88498.0,88508.0,88537.0,88553.0,88565.0,88580.0,88782.0,88860.0,0.040543143550125636,-0.14908358187593929,0.06474333392203732,-0.10310161134486154,0.022010153513245444
91,91,89339.06949836867,7617.882949255107,24.17736824962188,89445.57533909987,-368.96071861301783,0.8867193437476569,89493.87669550383,32126.665999028995,8.067655773876067,89518.53973844343,-7878.152852131843,7.892312422209253,89765.19671326752,16626.264245049744,40.709705499473536,0.9221798213222516,124.0,74.0,85.0,283.0,368.0,50.0,949.0,948.0,66.0,35.0,31.0,0.5303030303030303,267.7528829590061,7094.979665012484,4.0,3.0,1.0,0.75,240.95621969276652,205.28679648814852,18.0,10.0,8.0,0.5555555555555556,2105.4506075576455,31741.378344427583,15.0,6.0,9.0,0.4,902.1354314747656,13800.151081709908,91.0,45.0,46.0,0.4945054945054945,233.09155358479663,19458.30005149704,0.0,0.0,0.0,0.0,89319.0,89369.0,89443.0,89447.0,89485.0,89501.0,89514.0,89528.0,89720.0,89811.0,0.03514793870456983,-0.6530674067379296,0.06553591983747337,-0.11451103430046372,0.014019478467882323
92,92,90307.5289685389,8049.27254486251,28.16969195699635,90419.4385498249,-987.6505945430754,1.8280690966792832,90466.87669549928,35011.74811242631,8.460271338782633,90490.27648423976,-7249.701802146726,10.221192923606218,90739.52680800763,16279.214812166054,40.002532579319926,0.9432014539728678,138.0,76.0,83.0,284.0,367.0,62.0,973.0,973.0,62.0,28.0,34.0,0.4516129032258064,278.7084433473557,9648.323158568815,7.0,4.0,3.0,0.5714285714285714,225.736891895348,222.08303165960228,18.0,10.0,8.0,0.5555555555555556,2189.8611402011925,34506.394545605246,15.0,4.0,11.0,0.2666666666666666,987.0097290444808,16514.028482360187,91.0,45.0,46.0,0.4945054945054945,206.5916429743566,16778.451626237536,0.0,0.0,0.0,0.0,90280.0,90342.0,90418.0,90422.0,90457.0,90474.0,90486.0,90501.0,90697.0,90785.0,0.034625295862946374,-0.22855946540464794,0.06254646677936,-0.13614487271079412,0.012690516425888249
93,93,91303.02635377966,5274.318252044232,14.92804800964053,91420.87669549928,-3539.852897922332,7.2016020332686175,91457.30135639945,35552.851545726284,7.5770068429746384,91480.0160464828,-10234.655268099212,17.808129921965758,91730.65830556504,15116.355021993082,35.0386519014817,0.9122539531476432,54.0,28.0,152.0,281.0,433.0,26.0,991.0,990.0,29.0,19.0,10.0,0.6551724137931034,371.38372057803224,4134.857102188131,95.0,87.0,8.0,0.9157894736842104,530.7327450604025,1244.415453349089,17.0,10.0,7.0,0.5882352941176471,2286.4325191359794,27519.285749507,18.0,6.0,12.0,0.3333333333333333,1064.8337117046724,20326.634256363,83.0,42.0,41.0,0.5060240963855421,243.24611323836712,15502.87178579672,0.0,0.0,0.0,0.0,91285.0,91311.0,91339.0,91428.0,91449.0,91463.0,91474.0,91491.0,91693.0,91772.0,0.07041359713818757,-0.1499307345149593,0.0643108054552329,-0.10404197149890268,0.016091585100010127
94,94,92217.61723851632,8199.359424209755,25.257216652420748,92326.7760541488,-624.3758483223947,1.4846227526902454,92372.45203459916,33063.4380140577,8.479079913661394,92397.5464333078,-7273.106264241476,7.429238117886096,92645.68483389584,16207.021263383696,39.58893575034145,0.9519288173687148,127.0,76.0,82.0,281.0,363.0,51.0,913.0,916.0,58.0,28.0,30.0,0.4827586206896552,317.34898871630423,8386.392384172072,5.0,3.0,2.0,0.6,191.91634442136407,76.59141838323114,19.0,10.0,9.0,0.5263157894736842,1996.8018418770785,32445.78535586731,14.0,6.0,8.0,0.4285714285714285,837.7921084841073,13128.901832240004,96.0,49.0,47.0,0.5104166666666666,242.19844939275052,17296.522105584565,0.0,0.0,0.0,0.0,92197.0,92248.0,92324.0,92329.0,92363.0,92381.0,92392.0,92406.0,92602.0,92687.0,0.03870411971199689,-0.307373106978777,0.06039304929596526,-0.1151904121906133,0.014944044649336408
95,95,93167.24660900142,6005.6574328896595,24.81581288284962,93280.58037755292,-520.1829982888629,1.1790384557858224,93321.87669549928,34257.26394567668,9.51353194532439,93342.7260172996,-9787.93628547737,7.64389620259217,93591.97862699612,16511.509807185244,38.54328632302899,0.9406790570205372,126.0,77.0,76.0,284.0,360.0,49.0,951.0,949.0,57.0,21.0,36.0,0.3684210526315789,299.53916774772756,6366.21919056624,3.0,2.0,1.0,0.6666666666666666,311.7859327449436,2419.085868764464,18.0,11.0,7.0,0.6111111111111112,2156.8058567169332,35160.57532352117,15.0,3.0,12.0,0.2,1178.005098281622,18450.902862041577,92.0,45.0,47.0,0.4891304347826087,381.2786252862186,17472.55505423942,0.0,0.0,0.0,0.0,93153.0,93202.0,93279.0,93282.0,93312.0,93329.0,93341.0,93355.0,93549.0,93639.0,0.049876166114190504,-0.5993773994355073,0.0629590810327725,-0.12035275505720859,0.023091687540305925
96,96,94142.2739827004,4111.341677324485,7.64389620259217,94254.47940829814,-4498.109654700109,33.12355021123273,94301.06537174378,33520.47195997835,7.633203074832667,94327.31132947652,-12021.751660820286,17.835757806048296,94574.38347749642,13790.853114002806,30.605086725019863,0.8368266652402995,100.0,84.0,100.0,272.0,372.0,16.0,978.0,979.0,16.0,4.0,12.0,0.25,461.7191880128854,6492.550632887368,94.0,74.0,20.0,0.7872340425531915,355.1425757282557,3525.533107424497,15.0,8.0,7.0,0.5333333333333333,2083.5925193212115,25792.57063935376,24.0,10.0,14.0,0.4166666666666667,842.289806718273,18280.40337573324,71.0,35.0,36.0,0.4929577464788732,258.31533662571957,14438.920259225377,0.0,0.0,0.0,0.0,94138.0,94154.0,94238.0,94273.0,94293.0,94308.0,94318.0,94338.0,94539.0,94610.0,0.11230377435167485,-0.07895373901282386,0.06215880617101423,-0.07006381686151056,0.018730917840277347
97,97,95070.86786607905,7526.640959593496,24.43380121766076,95170.15067819972,-1219.4527009259457,5.095930801728113,95228.45203459916,33034.71025798836,8.15448028282826,95254.56201272475,-7235.848484586221,8.952129455542359,95501.23454653904,15614.886401860049,38.555262118198485,0.9539313282060686,108.0,57.0,103.0,283.0,386.0,51.0,927.0,928.0,52.0,19.0,33.0,0.3653846153846153,242.79151872610012,7671.22790734275,10.0,7.0,3.0,0.7,159.39336175198258,1222.6259205699912,19.0,10.0,9.0,0.5263157894736842,2013.1715444995011,32282.950633686884,16.0,7.0,9.0,0.4375,776.8037217464945,12467.16134680422,90.0,44.0,46.0,0.4888888888888889,268.76101974533265,16750.110533237625,0.0,0.0,0.0,0.0,95052.0,95103.0,95160.0,95173.0,95219.0,95237.0,95248.0,95263.0,95458.0,95546.0,0.03225761930581222,-0.13070893330340178,0.06094109888591143,-0.10735489050126451,0.017211845980084604
98,98,96042.01831160314,7582.655294183398,21.565505888449323,96131.52034600312,3259.897365239362,152.8779240518434,96198.87669549928,33333.308234702956,8.696542011313705,96220.30135639945,-8719.532350795296,10.191861603456228,96469.59218374504,17912.910885625024,44.69699828722487,0.9473454632949436,-163.0,-227.0,383.0,288.0,671.0,64.0,970.0,970.0,72.0,38.0,34.0,0.5277777777777778,296.9841194984084,9669.09424808864,34.0,10.0,24.0,0.2941176470588235,156.76042701558484,2337.9293261623716,18.0,11.0,7.0,0.6111111111111112,2119.8661716240126,35420.04246865588,13.0,2.0,11.0,0.1538461538461538,1157.09674738484,15430.166382109634,104.0,55.0,49.0,0.5288461538461539,264.0970281807466,18799.43377411006,0.0,0.0,0.0,0.0,96011.0,96075.0,95848.0,96217.0,96188.0,96206.0,96218.0,96231.0,96420.0,96519.0,0.0391662429553171,0.04808753449944106,0.06359603303392018,-0.13270169784728225,0.014743389830219188
99,99,97075.24660900142,6785.713070347258,19.554837399906564,97185.15067819972,-2549.5428457174257,5.095930801728113,97226.45564681628,32405.19451297134,7.376142118180397,97249.94763807044,-8917.988623254983,13.245533700032592,97504.95881659626,15646.07319894242,35.362971064032315,0.931347350115171,117.0,77.0,85.0,279.0,364.0,40.0,1033.0,1027.0,51.0,21.0,30.0,0.4117647058823529,512.8073583279406,6572.584939193174,10.0,7.0,3.0,0.7,379.4362764964657,810.3943342219928,17.0,9.0,8.0,0.5294117647058824,2111.357679746297,28578.58773928621,19.0,6.0,13.0,0.3157894736842105,892.9006521856984,17652.799453582604,84.0,45.0,39.0,0.5357142857142857,175.8614779109545,15626.616616636236,0.0,0.0,0.0,0.0,97061.0,97101.0,97178.0,97188.0,97218.0,97233.0,97244.0,97263.0,97461.0,97542.0,0.0755716242363454,-0.14882522062095202,0.06515491455856408,-0.10012354690129643,0.011239975403083354
100,100,98033.4882238385,7519.381382525916,21.28590443241417,98140.45203459916,-2296.502437003018,8.664095841983665,98188.88226529631,35455.20037274793,8.334995943307147,98210.45203459916,-7272.870477548839,14.583642311879377,98463.09266799412,15983.333353207145,35.13954377317601,0.946048585047517,124.0,71.0,87.0,282.0,369.0,53.0,959.0,962.0,63.0,31.0,32.0,0.492063492063492,310.24286980089613,6226.843931564456,16.0,5.0,11.0,0.3125,252.2055196253292,1571.828531708842,17.0,10.0,7.0,0.5882352941176471,2146.6300015567303,33108.10406778776,16.0,3.0,13.0,0.1875,1189.949782595548,20008.731860121083,86.0,44.0,42.0,0.5116279069767442,252.13231392870725,17050.37966869621,0.0,0.0,0.0,0.0,98011.0,98064.0,98135.0,98149.0,98179.0,98196.0,98207.0,98222.0,98427.0,98504.0,0.041259094866748086,-0.10982157717823392,0.060544856015161685,-0.1636148734215592,0.015774701581764576
101,101,99017.44436352556,8758.552445988416,27.98045807968926,99132.43019155505,-588.2520658730276,-0.5009196322470904,99172.87669549928,32967.75999239977,8.834829239580147,99195.30135639945,-7428.793177805768,9.69807305184304,99448.83551209555,17085.16182936502,41.40475546264299,0.9263260095923984,137.0,77.0,79.0,287.0,366.0,60.0,984.0,985.0,64.0,30.0,34.0,0.46875,268.50223015381573,9078.961781546015,3.0,1.0,2.0,0.3333333333333333,321.7667867310884,1397.387510417132,18.0,10.0,8.0,0.5555555555555556,2063.926825130914,32486.9661145054,15.0,3.0,12.0,0.2,1131.0741865638674,15722.071987248291,96.0,51.0,45.0,0.53125,189.1114713182774,18170.257775921295,0.0,0.0,0.0,0.0,98990.0,99050.0,99127.0,99134.0,99163.0,99180.0,99193.0,99206.0,99399.0,99493.0,0.03065600529420759,-0.5469879417313271,0.06260439974104161,-0.1522554416971871,0.011068755052307621
102,102,99994.94964642888,6696.397400955053,20.33474818343337,100105.45203459916,-1822.842915496084,7.944271075178611,100150.20434300227,31228.841739731877,7.798704446393206,100172.17571871504,-10140.439802400995,12.985558646987483,100423.30042002987,15025.628145588558,34.6772369527298,0.9323591431765408,126.0,79.0,83.0,279.0,362.0,47.0,979.0,977.0,52.0,22.0,30.0,0.4230769230769231,312.84563625755095,6809.453965242779,58.0,45.0,13.0,0.7758620689655172,291.91774515870054,358.8300691045948,16.0,9.0,7.0,0.5625,2053.288253196547,27720.160900480696,20.0,6.0,14.0,0.3,1061.0911653650007,18768.17619100804,77.0,36.0,41.0,0.4675324675324675,170.54003191357248,15981.030345055471,0.0,0.0,0.0,0.0,99976.0,100023.0,100102.0,100118.0,100141.0,100157.0,100167.0,100185.0,100387.0,100464.0,0.046718499145963516,-0.16014421356722092,0.06574974090647065,-0.10463956061489184,0.01134994359378194
103,103,100938.29452335204,5562.901914114446,18.30843794501656,101052.45203459916,-3086.4657710218444,15.28779240518434,101096.27517930008,32911.66697733329,8.031370072415982,101122.12330449952,-9129.683990179605,12.739827004250628,101370.29251318167,14519.373246239224,32.74399503110543,0.9263603187295516,124.0,92.0,86.0,279.0,365.0,32.0,944.0,946.0,33.0,18.0,15.0,0.5454545454545454,331.45624644433667,5934.839678894598,89.0,73.0,16.0,0.8202247191011236,327.1160121021867,2303.6033929358077,18.0,10.0,8.0,0.5555555555555556,2094.357447727189,31017.779871057995,16.0,7.0,9.0,0.4375,864.0692890578887,15603.035331582112,76.0,36.0,40.0,0.4736842105263157,212.2480721186592,16038.782083324608,0.0,0.0,0.0,0.0,100921.0,100953.0,101045.0,101061.0,101087.0,101103.0,101115.0,101131.0,101334.0,101410.0,0.05958333466267864,-0.10598400771957614,0.06363571462878502,-0.09464394276815381,0.014618266816278397
104,104,101906.4709744705,6656.314625741171,19.46154076698032,102013.90406919828,-2847.9863263367724,30.57558481036852,102063.1869599342,34837.61680852305,8.484479907956269,102085.91979837908,-8841.073436751181,12.739827004320285,102338.53113697404,14354.220541338422,32.153233657032764,0.9366268917087855,78.0,48.0,131.0,279.0,410.0,30.0,966.0,967.0,33.0,20.0,13.0,0.6060606060606061,381.1339806001712,7091.322857547416,87.0,68.0,19.0,0.7816091954022989,247.9096116029965,2002.439117531518,17.0,9.0,8.0,0.5294117647058824,2131.297934906319,31282.431592014735,16.0,4.0,12.0,0.25,1062.8591352060314,18636.946298709776,84.0,45.0,39.0,0.5357142857142857,400.15043812141533,14693.103173427902,0.0,0.0,0.0,0.0,101889.0,101919.0,101967.0,102031.0,102054.0,102071.0,102082.0,102098.0,102300.0,102377.0,0.057259009231062676,-0.08704733211337805,0.06117806354609467,-0.12021833579482165,0.02787684897058885
105,105,102856.48440085296,7237.230137500967,23.335271773395803,102965.96945954768,-1762.7375545811524,1.6073649525100258,103010.05982557048,31220.27989177508,7.6869524068989,103034.89262376731,-8589.16591617686,8.598858319649759,103282.2053980379,16225.226384095688,37.18425069009557,0.9409311275780612,126.0,78.0,81.0,280.0,361.0,48.0,950.0,947.0,49.0,19.0,30.0,0.3877551020408163,350.679284876501,7995.304234455281,4.0,2.0,2.0,0.5,286.1605798305751,708.9243914652621,17.0,9.0,8.0,0.5294117647058824,2055.183263764853,30296.006053463385,17.0,7.0,10.0,0.4117647058823529,807.6474725151097,13677.826187167178,88.0,42.0,46.0,0.4772727272727273,276.10790345183796,16592.045977341473,0.0,0.0,0.0,0.0,102838.0,102886.0,102964.0,102968.0,103001.0,103018.0,103028.0,103045.0,103241.0,103325.0,0.04845490307947999,-0.16233873221051917,0.06582847017672916,-0.09403095485604535,0.017017198830734638
106,106,103805.14940973146,5798.563477501482,17.181475872582403,103913.90406919828,-2847.8439526244174,30.57558481036868,103961.87669549928,34523.39612377438,8.343339820494212,103985.25213595916,-10014.510529499104,12.739827004320285,104235.87359250244,14699.586068987595,31.742042217430832,0.918716643091528,62.0,36.0,148.0,277.0,425.0,26.0,948.0,952.0,28.0,16.0,12.0,0.5714285714285714,369.03317483884416,5591.506359925117,80.0,62.0,18.0,0.775,216.48009873892585,1783.8085070147174,17.0,10.0,7.0,0.5882352941176471,2208.8636653084905,31306.28274211674,20.0,5.0,15.0,0.25,881.7111086262111,17797.877268718108,79.0,38.0,41.0,0.4810126582278481,239.1669350784412,14833.008987425786,0.0,0.0,0.0,0.0,103790.0,103816.0,103852.0,103931.0,103952.0,103969.0,103980.0,104000.0,104199.0,104277.0,0.06364217211223068,-0.07601543565595636,0.06398164471969102,-0.08804335529220433,0.016270317678061894
107,107,104752.74618371615,6256.819441046007,17.501542388502994,104857.15067819972,-2969.2993950152663,5.095930801728113,104906.51290965374,34720.5888201646,7.984374800220528,104929.7738457064,-9792.574098252917,15.28779240518434,105179.1355066599,15012.011983174,34.42474002013627,0.9290818852762882,67.0,20.0,144.0,274.0,418.0,47.0,947.0,944.0,50.0,21.0,29.0,0.42,313.0916949962746,6023.688863376923,70.0,66.0,4.0,0.9428571428571428,383.4174624124404,2254.6092290678457,17.0,10.0,7.0,0.5882352941176471,2160.6970179193795,29987.16755561687,20.0,6.0,14.0,0.3,949.7335249684296,18119.680174919147,85.0,42.0,43.0,0.4941176470588235,339.95000533255967,15394.040798363563,0.0,0.0,0.0,0.0,104733.0,104780.0,104800.0,104860.0,104897.0,104913.0,104924.0,104944.0,105137.0,105218.0,0.05004007194810984,-0.12912724902584943,0.062231001585564015,-0.09698507414285183,0.022645199438528812
108,108,105668.62431132785,6762.964347947155,20.521100027686632,105780.30135639945,-1897.5790865249849,8.328086788950989,105824.2580140921,32312.18602246984,7.853394504076317,105848.31391347636,-8362.178619057115,12.739827004320285,106097.59540623993,16051.450432518748,33.58092669964964,0.9464585867140324,128.0,80.0,80.0,278.0,358.0,48.0,919.0,918.0,50.0,20.0,30.0,0.4,295.90666937991824,7445.932502400035,40.0,25.0,15.0,0.625,200.38676855414357,576.8273869220892,17.0,9.0,8.0,0.5294117647058824,2097.9591851477335,30443.27257498964,15.0,5.0,10.0,0.3333333333333333,901.3414717010604,16591.258474804552,80.0,39.0,41.0,0.4875,200.61552297272047,15777.744205720375,0.0,0.0,0.0,0.0,105650.0,105698.0,105778.0,105794.0,105815.0,105831.0,105843.0,105858.0,106060.0,106136.0,0.04375398925025213,-0.10560127373721724,0.06492780103731813,-0.10778787595459088,0.012498280066098703
109,109,106603.98872241192,6766.527682647598,20.186574938646594,106713.75339099858,-2363.867178000062,11.608461942263904,106760.87669549928,35422.894881232314,8.070754053093788,106784.13306557882,-8492.58406365502,15.353228731260616,107033.82232551252,15462.679294683168,35.326406433442806,0.9413621404172388,117.0,87.0,94.0,278.0,372.0,30.0,935.0,937.0,31.0,17.0,14.0,0.5483870967741935,395.9844409851183,7287.093255432501,73.0,59.0,14.0,0.8082191780821918,253.9632379107109,1247.600394900462,17.0,10.0,7.0,0.5882352941176471,2253.1201959050586,32094.10325782203,20.0,5.0,15.0,0.25,966.5988789143825,17481.220452279536,80.0,37.0,43.0,0.4625,253.4433320283283,16334.991546251851,0.0,0.0,0.0,0.0,106588.0,106618.0,106705.0,106728.0,106751.0,106768.0,106779.0,106799.0,106998.0,107077.0,0.05852107011999661,-0.10743549395426491,0.06360632589344928,-0.1138168161385711,0.016390647907667245
110,110,107445.08861900712,7785.493766251771,21.9671855235958,107556.1992076976,-1200.2217210220422,5.095930801728113,107599.73392716596,34529.34596819285,7.860092577698261,107625.94167066758,-8399.560100685807,9.202299435965436,107870.69478569164,16671.823917409838,36.30796798098067,0.9466185853482172,128.0,80.0,80.0,280.0,360.0,48.0,843.0,839.0,48.0,18.0,30.0,0.375,312.68101801505037,8187.159457669135,11.0,1.0,10.0,0.0909090909090909,257.2193256081479,9.956030130960698,18.0,10.0,8.0,0.5555555555555556,2161.914996365319,33349.44478597105,16.0,7.0,9.0,0.4375,789.1770172990658,13865.484816658907,88.0,43.0,45.0,0.4886363636363636,218.35364213412365,17036.216447656865,0.0,0.0,0.0,0.0,107427.0,107475.0,107555.0,107566.0,107591.0,107608.0,107619.0,107635.0,107830.0,107915.0,0.0401620022316949,-0.21430984050939708,0.06261094543629048,-0.09395456521998469,0.013097165805962244
111,111,108285.33422267316,5953.9394181639445,17.13790521429065,108396.75339099858,-3352.558198026294,25.47965400864057,108441.08121513556,34276.000732098204,7.625990786353334,108467.12330450072,-10757.461862495264,12.739827004320285,108712.5691910402,15201.17375394616,33.39822644044808,0.9222951045585918,124.0,93.0,87.0,275.0,362.0,31.0,836.0,841.0,51.0,21.0,30.0,0.4117647058823529,326.02891995463364,5975.270952920084,42.0,26.0,16.0,0.6190476190476191,249.47798800663804,3243.9592347279777,16.0,9.0,7.0,0.5625,2319.883938056263,31155.704321570098,19.0,8.0,11.0,0.4210526315789473,937.958657744029,15835.129665137876,83.0,41.0,42.0,0.4939759036144578,381.9713831020858,15549.034168313936,0.0,0.0,0.0,0.0,108267.0,108298.0,108391.0,108413.0,108433.0,108448.0,108460.0,108478.0,108675.0,108753.0,0.0547585215529743,-0.07441421543509963,0.06768245677751365,-0.08719144624756897,0.02512775587496509
112,112,109154.35662814134,7261.744511645226,25.151204802279032,109270.57533909989,-687.8800973176163,2.5479654008640567,109312.876695506,32116.29592352946,8.203282326024732,109335.00395917342,-8515.803483039152,10.440282351245967,109588.53415569612,16135.020437057938,36.68220005867687,0.9336695002876116,110.0,60.0,99.0,281.0,380.0,50.0,871.0,872.0,64.0,30.0,34.0,0.46875,276.01797033801205,7885.248556722063,25.0,24.0,1.0,0.96,267.6915663919047,1845.254949146256,16.0,9.0,7.0,0.5625,2127.344191090271,31407.251429089894,15.0,4.0,11.0,0.2666666666666666,1019.1560576485792,17822.4342866819,90.0,51.0,39.0,0.5666666666666667,240.0108137505873,16237.123363217306,0.0,0.0,0.0,0.0,109137.0,109187.0,109247.0,109272.0,109304.0,109320.0,109331.0,109346.0,109539.0,109627.0,0.038009870754249,-0.38915439977950533,0.06623877785145542,-0.1196782029644558,0.014875147799586605
113,113,110090.54796540084,3978.0003935605496,12.702392626084269,110201.054747398,-5364.639801664426,35.67151561209492,110249.05455677258,35046.01237077519,8.068007915233922,110275.54796540076,-10384.939937186407,15.287792405065533,110523.20690487765,13039.249155894688,28.426920724995412,0.900904258218822,47.0,28.0,159.0,273.0,432.0,19.0,936.0,936.0,19.0,9.0,10.0,0.4736842105263157,322.0195770257002,4149.517018152898,94.0,73.0,21.0,0.776595744680851,293.05926795329094,4538.484244474039,16.0,9.0,7.0,0.5625,2210.3580231894207,30209.85343712792,22.0,9.0,13.0,0.4090909090909091,863.0084355393294,16153.17317183097,75.0,37.0,38.0,0.4933333333333333,162.07455822725768,12889.359409062608,0.0,0.0,0.0,0.0,110082.0,110101.0,110129.0,110221.0,110240.0,110256.0,110267.0,110288.0,110487.0,110561.0,0.08095011190722214,-0.05462794871379188,0.06307017185877142,-0.0831019188131332,0.012429746244551836
114,114,111094.81221596654,6634.130475667056,18.81875374296145,111207.15067819972,-3076.7834003439084,5.095930801728113,111250.404682788,35299.45323175988,7.689144191056018,111273.04611554308,-9153.58886558939,16.855972920313384,111523.97855930233,14808.166935706466,35.92418863689894,0.9295006608513312,126.0,78.0,84.0,282.0,366.0,48.0,1002.0,1001.0,52.0,21.0,31.0,0.4038461538461538,477.7345088647751,5637.913333686124,55.0,48.0,7.0,0.8727272727272727,417.9738527628639,1692.8731867319364,17.0,9.0,8.0,0.5294117647058824,2168.1809463072004,28960.951281180132,20.0,6.0,14.0,0.3,985.2853829729162,17931.63068854156,88.0,43.0,45.0,0.4886363636363636,290.42429444547463,15431.22792647,0.0,0.0,0.0,0.0,111076.0,111124.0,111202.0,111210.0,111242.0,111257.0,111267.0,111286.0,111486.0,111568.0,0.07201162392223516,-0.13584766893767847,0.061422507937217256,-0.10763924373715845,0.01961244060162394
115,115,112008.59936616122,6642.804569644256,19.18336305627187,112120.7260172996,-2208.760135506101,7.64389620259217,112163.78417673268,33052.40971218081,7.871084961846356,112187.84576888694,-7569.554591410808,12.739827004166337,112435.86027878716,15780.906478727848,35.55064064719196,0.9383136901707384,129.0,78.0,81.0,280.0,361.0,51.0,913.0,913.0,52.0,22.0,30.0,0.4230769230769231,296.1234638868471,5901.192862870012,31.0,27.0,4.0,0.8709677419354839,265.3403052071605,899.7055071921,16.0,9.0,7.0,0.5625,2083.2582831172035,31222.711534990445,16.0,6.0,10.0,0.375,851.9602649888254,15077.902294229463,78.0,37.0,41.0,0.4743589743589743,224.27346686596053,17069.235132052454,0.0,0.0,0.0,0.0,111987.0,112038.0,112116.0,112125.0,112155.0,112171.0,112182.0,112197.0,112400.0,112477.0,0.04457807854833602,-0.12013088290655977,0.06302893801868431,-0.11255091098167742,0.014211697355172463
116,116,112935.82194810128,5576.183938044625,17.39502404023775,113039.47940829814,-3219.7130194124657,33.12355021123273,113090.1823517982,34062.3521793507,8.092604766927645,113115.44232601754,-9566.393687586124,12.739827004273833,113364.92651781676,14580.692288318982,32.45897648403182,0.926601244913974,97.0,57.0,106.0,277.0,383.0,40.0,929.0,927.0,47.0,20.0,27.0,0.425531914893617,292.15082751401474,5710.941093784388,89.0,66.0,23.0,0.7415730337078652,247.9679803165744,2074.1788647373637,18.0,10.0,8.0,0.5555555555555556,2203.9870069416584,31031.92779999102,17.0,6.0,11.0,0.3529411764705882,913.7010292272652,16651.69089726427,80.0,42.0,38.0,0.525,251.53134859459945,14604.238987953422,0.0,0.0,0.0,0.0,112923.0,112963.0,113020.0,113058.0,113081.0,113097.0,113109.0,113126.0,113330.0,113403.0,0.0523926094906514,-0.07701555350477282,0.0647044865057135,-0.09551154375059158,0.01725098806152768
117,117,113871.01935410764,6921.255974361848,19.785130863469977,113968.84932180028,-2176.871878126536,5.095930801728113,114024.9869471795,35538.144602889006,8.135954810899047,114044.4520345996,-10606.446802256884,13.16008747356874,114296.14090708666,15594.579447024493,35.812300702787006,0.9413478997469776,114.0,71.0,94.0,280.0,374.0,43.0,939.0,934.0,43.0,19.0,24.0,0.4418604651162791,460.4204827997336,8874.266483615047,9.0,3.0,6.0,0.3333333333333333,342.70304220013367,3009.9960245072225,17.0,10.0,7.0,0.5882352941176471,2283.8187143714104,32135.469468708245,21.0,3.0,18.0,0.1428571428571428,1480.50161979954,24970.592129750257,87.0,43.0,44.0,0.4942528735632184,331.7128759929481,16053.493641412417,0.0,0.0,0.0,0.0,113852.0,113895.0,113966.0,113974.0,114016.0,114032.0,114041.0,114060.0,114253.0,114340.0,0.06652267803780876,-0.15742912830270536,0.06426387026929233,-0.13958507004292076,0.021271036972801485
118,118,114752.66436424528,6537.101243155907,17.111313248579517,114860.45203459916,-2159.8695414767712,11.20673994629503,114907.20977232646,32691.84188951036,7.740699350603951,114930.62308208956,-7749.058950272059,12.64504549275142,115178.35284614807,15082.88190911531,32.964726962958075,0.9329800607571148,121.0,79.0,84.0,277.0,361.0,42.0,877.0,883.0,47.0,20.0,27.0,0.425531914893617,315.97207583912314,7053.360840824425,25.0,8.0,17.0,0.32,264.25490649902036,1320.3074980662395,16.0,9.0,7.0,0.5625,2102.98326422744,30580.795319205303,15.0,5.0,10.0,0.3333333333333333,895.0683507842763,16289.281521663295,81.0,39.0,42.0,0.4814814814814814,229.75118024926468,14966.592071956591,0.0,0.0,0.0,0.0,114736.0,114778.0,114857.0,114873.0,114898.0,114914.0,114926.0,114941.0,115139.0,115218.0,0.04833519691467739,-0.12234762397655782,0.06432746344898395,-0.11550671591585346,0.0152325783383887
119,119,115661.83252217092,6570.567714046412,20.55799738408666,115775.027373699,-1737.9238320593074,17.83575780419097,115817.87669549928,36132.3303735451,7.999182195492282,115839.83502038116,-9151.049212836931,15.28779240518261,116089.44129625335,15267.19056411284,34.35906517393139,0.9397191471517368,130.0,79.0,80.0,281.0,361.0,51.0,912.0,911.0,52.0,22.0,30.0,0.4230769230769231,221.94437914291123,6815.122253472811,63.0,49.0,14.0,0.7777777777777778,295.6496047623972,67.588150058047,17.0,10.0,7.0,0.5882352941176471,2206.287309067558,31410.625624549528,18.0,5.0,13.0,0.2777777777777778,1128.0679280268923,18747.283832801528,83.0,40.0,43.0,0.4819277108433735,329.2090872209925,16974.40903641756,0.0,0.0,0.0,0.0,115641.0,115692.0,115771.0,115788.0,115808.0,115825.0,115836.0,115851.0,116049.0,116132.0,0.03377856964603584,-0.17011654901588807,0.061061306764839306,-0.12327197699302703,0.021563174039029392
120,120,116586.58655701308,7015.995863080666,22.830657578311214,116698.2739827004,-1934.854400474914,4.188501046105861,116740.627277566,32149.42191642048,7.859667022917337,116764.9545612818,-9481.171859768929,9.532566812213837,117011.7260427062,16523.57314482845,38.98701683195884,0.9426526513251428,130.0,95.0,80.0,283.0,363.0,35.0,922.0,922.0,36.0,24.0,12.0,0.6666666666666666,458.64244032089994,6879.74919930472,8.0,4.0,4.0,0.5,357.13519671534016,1472.9665959100637,17.0,10.0,7.0,0.5882352941176471,2132.835199280978,31075.882336690156,16.0,6.0,10.0,0.375,1039.8344934088425,17076.742131640898,91.0,46.0,45.0,0.5054945054945055,218.81641380826525,17550.552600818894,0.0,0.0,0.0,0.0,116564.0,116599.0,116694.0,116702.0,116732.0,116748.0,116759.0,116774.0,116968.0,117057.0,0.06537096789557026,-0.18457988189068933,0.06634132348711445,-0.10967362566447403,0.013242681343214827
121,121,117460.85897498816,6932.507030348828,21.623831136724743,117574.83023450222,-2135.4568783703353,4.83022152819538,117617.10752897938,33325.311171218294,7.757326627367664,117643.12330450072,-7794.3755659401795,9.658801963196089,117890.10949479598,15488.643406520525,34.453995101497,0.9520338098194024,124.0,77.0,84.0,279.0,363.0,47.0,875.0,877.0,49.0,19.0,30.0,0.3877551020408163,266.5009606529555,7449.10253982757,14.0,8.0,6.0,0.5714285714285714,313.9796252183103,551.5993121920098,17.0,9.0,8.0,0.5294117647058824,2106.7813065146765,32633.837255011593,16.0,7.0,9.0,0.4375,811.757928348788,13608.295032230337,82.0,39.0,43.0,0.4756097560975609,206.56893225399156,15786.028511119745,0.0,0.0,0.0,0.0,117443.0,117490.0,117567.0,117581.0,117608.0,117625.0,117636.0,117651.0,117853.0,117930.0,0.03844222003472613,-0.14703159234848256,0.06321865370410155,-0.1041466274599345,0.013336799539656819
122,122,118371.52059170186,5837.610594178094,18.237237112363765,118480.87669549928,-3716.899215075654,12.739827004320285,118526.8840846063,32759.297085088845,7.494358398934264,118551.69864360055,-10592.152603479202,10.191861603456228,118801.53415569612,15433.28035187807,32.31421993412801,0.9393748908441204,125.0,78.0,84.0,278.0,362.0,47.0,909.0,910.0,49.0,20.0,29.0,0.4081632653061224,311.7528886987432,5873.2143727007115,87.0,69.0,18.0,0.7931034482758621,279.9241531124244,2875.434102589837,16.0,9.0,7.0,0.5625,2152.91677526669,31692.34097042591,18.0,7.0,11.0,0.3888888888888889,919.5859602915056,17146.96606417257,82.0,44.0,38.0,0.5365853658536586,319.94799187569174,15290.969636271057,0.0,0.0,0.0,0.0,118353.0,118400.0,118478.0,118496.0,118518.0,118534.0,118546.0,118562.0,118758.0,118840.0,0.0534041940052763,-0.07531120348301583,0.06571926038811865,-0.08681766537138536,0.020731042563919822
123,123,119287.55486567058,6991.891608687721,20.739444997543657,119394.15067819972,-955.788811432404,5.095930801728113,119442.3150740367,31790.26296703816,7.534624042739346,119467.4869261571,-9146.583915277475,10.07376121065745,119711.99710048868,16072.777320923882,37.01551431265107,0.938490310987611,122.0,73.0,87.0,278.0,365.0,49.0,923.0,915.0,50.0,20.0,30.0,0.4,378.7819144354984,7411.67590471713,7.0,4.0,3.0,0.5714285714285714,310.71992284466904,269.9896021477862,16.0,8.0,8.0,0.5,2109.367114152187,30588.92337808488,19.0,8.0,11.0,0.4210526315789473,808.0276922413008,14800.178444906483,89.0,45.0,44.0,0.5056179775280899,295.55617682657856,17387.445866538783,0.0,0.0,0.0,0.0,119269.0,119318.0,119391.0,119397.0,119434.0,119449.0,119459.0,119478.0,119667.0,119756.0,0.054174454587489006,-0.32509265554072037,0.06635261609315063,-0.08834201924192242,0.018388618900469507
124,124,120176.39728720114,5862.331552530135,19.03261519220372,120285.054747398,-2475.940544375225,35.6715156120968,120334.09217710084,34364.861532748175,8.356406443388739,120358.31774593426,-7934.605602841001,12.739827004185264,120604.8211742932,15151.26344415862,34.55971402994005,0.9359896962853662,98.0,71.0,105.0,278.0,383.0,27.0,884.0,892.0,42.0,12.0,30.0,0.2857142857142857,293.31951558157175,6632.62377559507,88.0,68.0,20.0,0.7727272727272727,239.14913250049733,2428.232938193376,18.0,10.0,8.0,0.5555555555555556,2154.3503331609877,31441.59309700915,15.0,5.0,10.0,0.3333333333333333,944.4266105323602,17255.732917055986,80.0,39.0,41.0,0.4875,240.7376194169896,15887.217928831426,0.0,0.0,0.0,0.0,120165.0,120192.0,120263.0,120305.0,120325.0,120341.0,120353.0,120368.0,120566.0,120646.0,0.0500346172769736,-0.09658920649116147,0.06269049945415867,-0.11902628281791428,0.01588894683959858
125,125,121096.71250457336,6656.931594103365,18.518891850475914,121211.027373699,-3168.5767107806764,7.697300777791045,121252.05382746922,36250.39192433602,8.001368638442868,121274.7621388661,-8648.07232537982,15.287792402156963,121525.06508182782,15584.372051332612,31.977144161872367,0.9407283245114542,121.0,73.0,88.0,279.0,367.0,48.0,921.0,918.0,52.0,24.0,28.0,0.4615384615384615,350.424095979698,5261.691097285719,67.0,56.0,11.0,0.835820895522388,347.4074976432243,484.596363440387,17.0,10.0,7.0,0.5882352941176471,2246.682190401128,32301.704912959784,16.0,5.0,11.0,0.3125,982.3875796386124,18752.04311753717,77.0,37.0,40.0,0.4805194805194805,316.1172062852687,17161.49339804866,0.0,0.0,0.0,0.0,121077.0,121125.0,121198.0,121221.0,121243.0,121259.0,121270.0,121286.0,121493.0,121565.0,0.05264048323556453,-0.10964149817210193,0.06197676966060221,-0.1135961336442068,0.02028424406476087
126,126,122033.1817342136,5481.7718419193725,17.93492980028839,122143.7260172996,-3099.8063475260356,7.64389620259217,122188.56433763025,29730.082290582526,7.160731831217319,122214.2428228585,-9425.136764936928,10.390384300807083,122460.19448991312,15823.2751678021,34.20670828635978,0.915611287150669,126.0,97.0,84.0,275.0,359.0,29.0,939.0,936.0,29.0,18.0,11.0,0.6206896551724138,452.4787167483342,6057.199924092602,12.0,3.0,9.0,0.25,469.812178654718,1910.851793501838,16.0,9.0,7.0,0.5625,2058.8010232574543,28294.776788618223,19.0,8.0,11.0,0.4210526315789473,774.1207814387803,13942.452902311685,85.0,44.0,41.0,0.5176470588235295,279.6858648136888,16256.899439905244,0.0,0.0,0.0,0.0,122015.0,122044.0,122141.0,122148.0,122181.0,122195.0,122206.0,122225.0,122423.0,122500.0,0.08254242055245856,-0.15156178353840602,0.0692497586496628,-0.08213363909143877,0.017675598878720503
127,127,122917.72054802808,6059.300855791313,18.85750746293032,123026.60271279886,-1874.4933313395088,20.383723206912453,123073.19457053702,34692.01464596605,7.843261147336271,123099.54675459904,-7755.514704892012,15.28779240518434,123348.53415569612,15539.520547726952,33.56208620950909,0.9390350481725056,124.0,76.0,83.0,282.0,365.0,48.0,880.0,885.0,51.0,22.0,29.0,0.4313725490196078,279.346340114086,5750.589864802736,76.0,60.0,16.0,0.7894736842105263,188.30527484821863,1734.931562773028,18.0,10.0,8.0,0.5555555555555556,2152.895074505248,32614.98160347132,16.0,9.0,7.0,0.5625,841.057754935239,15682.665037275308,79.0,41.0,38.0,0.5189873417721519,230.1052201399063,16283.084067653406,0.0,0.0,0.0,0.0,122898.0,122946.0,123022.0,123038.0,123064.0,123080.0,123091.0,123105.0,123308.0,123387.0,0.046102074606032224,-0.10045662563848978,0.06205736670169383,-0.10844641354425102,0.014807742583381377
128,128,123835.73080193542,6974.166022167648,21.87804598876413,123949.84932180028,-2311.3201436304043,5.095930801728113,123994.87669549932,34892.86215647079,8.210553802571221,124017.55264026255,-7986.280428181218,12.021482149740274,124265.9528159976,16155.81839872015,35.50087497190942,0.9437945736354196,132.0,80.0,82.0,280.0,362.0,52.0,921.0,922.0,52.0,21.0,31.0,0.4038461538461538,300.07256597540993,7587.205606823106,15.0,3.0,12.0,0.2,248.78807769288977,2059.9593505857433,17.0,10.0,7.0,0.5882352941176471,2211.9275707418205,32419.33400473601,15.0,4.0,11.0,0.2666666666666666,994.1179539483904,17677.286076696128,91.0,46.0,45.0,0.5054945054945055,319.82552329895566,16107.297224711076,0.0,0.0,0.0,0.0,123815.0,123867.0,123947.0,123962.0,123985.0,124002.0,124014.0,124029.0,124228.0,124309.0,0.04302630092567599,-0.10763895186848363,0.06339197858928361,-0.12447821772454204,0.01979630591318679
129,129,124808.58257188067,6724.612317164147,20.827720008083695,124922.40236975964,-2420.2513596432914,3.334373063565713,124963.21429678165,33157.84856390717,7.897218827024801,124986.52871227918,-9330.49549903012,11.406064236168088,125237.68483389584,15410.172103138751,38.46760467223142,0.9353419066778984,127.0,100.0,83.0,278.0,361.0,27.0,970.0,968.0,51.0,21.0,30.0,0.4117647058823529,506.76653264532905,7318.255278635734,10.0,4.0,6.0,0.4,473.0593274674475,171.86243625066504,17.0,9.0,8.0,0.5294117647058824,2245.858735342525,30733.839541075933,20.0,6.0,14.0,0.3,989.8397225213254,17614.782768839665,92.0,51.0,41.0,0.5543478260869565,311.62778392834264,16655.044556972163,0.0,0.0,0.0,0.0,124791.0,124818.0,124918.0,124927.0,124954.0,124970.0,124981.0,125001.0,125188.0,125279.0,0.07535996258874873,-0.1954587591006123,0.0677323418922655,-0.10608651197829919,0.020222213083841558
130,130,125729.18885245876,6994.218310777829,21.219509804780696,125838.30135639945,-1807.384427217293,6.231866894874213,125883.15351581892,33798.85041644883,7.678272107395844,125909.12330450072,-6822.292452784846,11.261870950630025,126154.54084663712,15363.615069851228,36.728136958079446,0.9551827092116378,125.0,75.0,84.0,280.0,364.0,50.0,919.0,920.0,54.0,22.0,32.0,0.4074074074074074,342.91176967695736,6445.275127302482,13.0,6.0,7.0,0.4615384615384615,222.9731700949083,1132.5784389764526,18.0,10.0,8.0,0.5555555555555556,2156.4178651922575,32355.302754918313,20.0,7.0,13.0,0.35,741.2903860443639,12131.87082542459,84.0,41.0,43.0,0.4880952380952381,226.2790370840555,16079.93742131194,0.0,0.0,0.0,0.0,125708.0,125758.0,125833.0,125844.0,125874.0,125891.0,125902.0,125917.0,126116.0,126197.0,0.04902789052903069,-0.1233678716808493,0.06380151509954306,-0.10865708135126495,0.014728241761803438
131,131,126681.82018513864,6106.259471879833,17.55514715635959,126795.30135639945,-3201.5405340161833,10.191861603456228,126837.90957683236,35822.994790587036,7.9721418951118,126861.18986427372,-8641.27394042585,17.8357578060484,127111.0091914996,15314.23775158664,33.33207457573386,0.9268875088561525,57.0,23.0,151.0,280.0,431.0,34.0,956.0,955.0,49.0,19.0,30.0,0.3877551020408163,260.39958862139645,5849.563810598754,89.0,75.0,14.0,0.8426966292134831,296.93920386790836,1227.7925931247546,17.0,10.0,7.0,0.5882352941176471,2190.0941094042532,30510.580809641506,18.0,5.0,13.0,0.2777777777777778,936.8850644706084,18320.183706210293,83.0,40.0,43.0,0.4819277108433735,249.6293042302228,15991.144789132652,0.0,0.0,0.0,0.0,126665.0,126699.0,126722.0,126801.0,126828.0,126845.0,126856.0,126873.0,127071.0,127153.0,0.04264469759606065,-0.09274885034655862,0.06113654433994249,-0.1084197851994538,0.016300472036511242
132,132,127671.50314822487,6329.1457812261,18.6875340541736,127786.15067819972,-2586.8816884480034,5.095930801728113,127825.87669549928,32120.32137168499,7.391443424010817,127851.04634953932,-9477.2942943888,10.339463864613036,128096.11715620298,15846.692185530164,36.16899657786569,0.915731145845639,57.0,37.0,143.0,278.0,421.0,20.0,990.0,988.0,49.0,21.0,28.0,0.4285714285714285,424.1108661227458,5954.1013001097945,72.0,68.0,4.0,0.9444444444444444,383.9708862656056,84.93061995017331,17.0,10.0,7.0,0.5882352941176471,2169.1842583362873,29657.791122267445,18.0,7.0,11.0,0.3888888888888889,848.6879114792716,15352.151480962446,83.0,40.0,43.0,0.4819277108433735,301.12549575663957,16906.17102515106,0.0,0.0,0.0,0.0,127661.0,127681.0,127718.0,127789.0,127817.0,127833.0,127844.0,127861.0,128061.0,128139.0,0.06700917956112963,-0.1484300143992934,0.06753308079440597,-0.08954959982426128,0.019002419699399566
133,133,128595.67126990156,6750.878250594808,20.89663235561425,128712.7260172996,-1889.039698568402,5.392654721561115,128754.36072469756,32278.599046180712,7.912966926248633,128777.87061693752,-8468.25196577645,11.679926305175057,129026.93071445676,16956.52686531106,35.34748531596471,0.9412687617493624,127.0,81.0,82.0,280.0,362.0,46.0,922.0,928.0,46.0,16.0,30.0,0.3478260869565217,278.5988740211486,7730.834468898396,14.0,6.0,8.0,0.4285714285714285,309.27096249867344,29.742440590943716,18.0,10.0,8.0,0.5555555555555556,2102.3821523575807,29956.539537183355,16.0,5.0,11.0,0.3125,940.5240645644286,17212.85116780743,82.0,39.0,43.0,0.4756097560975609,208.3644458149581,18016.463345065087,0.0,0.0,0.0,0.0,128580.0,128626.0,128707.0,128717.0,128745.0,128761.0,128773.0,128789.0,128989.0,129069.0,0.04126853776345348,-0.16371861466598753,0.06513238537241721,-0.11106472367207043,0.01228815591011277
134,134,129544.04519070564,6066.945885575817,19.907791955620763,129652.47940829814,-2596.6090210116035,33.12355021123273,129700.01857725,33806.28104520147,8.085899667830494,129726.12330450072,-8720.74061303113,12.739827004320285,129973.3357399685,15384.659396264544,34.00655764322166,0.9390361173332088,104.0,53.0,110.0,279.0,389.0,51.0,952.0,946.0,51.0,22.0,29.0,0.4313725490196078,195.2482893129653,5766.6321112161695,61.0,42.0,19.0,0.6885245901639344,247.37944477970183,1208.6241078869868,18.0,10.0,8.0,0.5555555555555556,2097.465987688388,30287.730814841652,18.0,7.0,11.0,0.3888888888888889,829.1247066909244,15132.712401979745,88.0,43.0,45.0,0.4886363636363636,227.61602701455533,15094.043910732333,0.0,0.0,0.0,0.0,129522.0,129573.0,129626.0,129671.0,129691.0,129707.0,129719.0,129736.0,129933.0,130015.0,0.032182302759147526,-0.09527019384817749,0.06204367717596392,-0.09507503358739845,0.014794999431045019
135,135,130539.11003737272,6259.402194785752,17.453599229251356,130647.60271279886,-2653.4178180459003,20.383723206912453,130695.2847236261,34214.07332111289,8.09724801303592,130717.82592414084,-10003.528446549784,13.769238629609545,130968.0710165624,15442.747338291982,33.35874334730259,0.924418264902084,123.0,89.0,86.0,281.0,367.0,34.0,992.0,995.0,46.0,19.0,27.0,0.4130434782608695,356.05111104418245,5318.587206771834,21.0,5.0,16.0,0.238095238095238,348.5889568098829,3175.3042065742575,17.0,10.0,7.0,0.5882352941176471,2160.7204583076573,29946.00656861592,17.0,5.0,12.0,0.2941176470588235,1115.4927392067448,19155.608763117845,85.0,43.0,42.0,0.5058823529411764,340.0946773322236,15063.529407877788,0.0,0.0,0.0,0.0,130520.0,130554.0,130643.0,130664.0,130686.0,130702.0,130714.0,130729.0,130926.0,131010.0,0.05688260635189451,-0.13137356447941545,0.0631529732817377,-0.11150992823851849,0.022022938657354166
