Unnamed: 0,cycle,p_center,p_height,p_width,q_center,q_height,q_width,r_center,r_height,r_width,s_center,s_height,s_width,t_center,t_height,t_width,r_squared,pr_interval,pr_segment,qrs_duration,st_segment,qt_interval,p_duration,pp_interval,rr_interval,fwhm_p,rise_time_p,decay_time_p,rise_decay_symmetry_p,sharpness_deriv_p,sharpness_diff_p,fwhm_q,rise_time_q,decay_time_q,rise_decay_symmetry_q,sharpness_deriv_q,sharpness_diff_q,fwhm_r,rise_time_r,decay_time_r,rise_decay_symmetry_r,sharpness_deriv_r,sharpness_diff_r,fwhm_s,rise_time_s,decay_time_s,rise_decay_symmetry_s,sharpness_deriv_s,sharpness_diff_s,fwhm_t,rise_time_t,decay_time_t,rise_decay_symmetry_t,sharpness_deriv_t,sharpness_diff_t,Average_Heart_Rate,SDNN,RMSSD,NN50,p_on,p_off,q_on,q_off,r_on,r_off,s_on,s_off,t_on,t_off,sharpness_deriv_p_norm,sharpness_deriv_q_norm,sharpness_deriv_r_norm,sharpness_deriv_s_norm,sharpness_deriv_t_norm
0,0,0.0,0.0,0.0,0.0,0.0,0.0,0.0,0.0,0.0,0.0,0.0,0.0,0.0,0.0,0.0,0.0,0.0,0.0,0.0,0.0,0.0,0.0,0.0,0.0,0.0,0.0,0.0,0.0,0.0,0.0,0.0,0.0,0.0,0.0,0.0,0.0,0.0,0.0,0.0,0.0,0.0,0.0,0.0,0.0,0.0,0.0,0.0,0.0,0.0,0.0,0.0,0.0,0.0,0.0,73.10607375937737,238.82369770215377,354.071669746498,126.0,,,,,,,,,,,,,,,
1,1,1565.3743223383242,1927.9363846724573,14.233605974214228,1698.0620094332646,-3615.284977618008,15.28779240518434,1726.0407069127589,22429.142560475186,10.153838933710366,1750.863618349195,-4145.7690857283615,4.462131877799891,1986.561529395104,4617.573639435825,35.852258922137445,0.9665568531696812,142.0,113.0,66.0,277.0,343.0,29.0,,,29.0,15.0,14.0,0.5172413793103449,85.21662412852514,1945.9865389649217,16.0,9.0,7.0,0.5625,450.5903194360156,931.23273983113,25.0,12.0,13.0,0.48,1019.8646984279636,23567.164933318883,10.0,3.0,7.0,0.3,668.7747878428811,10501.16135189836,94.0,46.0,48.0,0.4893617021276595,50.96448290052015,4712.933100035842,0.0,0.0,0.0,0.0,1550.0,1579.0,1692.0,1705.0,1714.0,1739.0,1748.0,1758.0,1945.0,2035.0,0.04420095227519804,-0.12463479980847726,0.04547051656915219,-0.16131501152466757,0.011037069872641381
2,2,2394.36991350216,1998.7361523585932,17.543907992406933,2534.5479654008636,-3888.160338379438,15.28779240518434,2559.46467541226,22656.13079586977,10.321209767574896,2584.087516836707,-4302.50399348631,4.087348391963589,2818.456989978466,4411.141498648944,38.28287119018041,0.9703107994755406,153.0,102.0,64.0,278.0,342.0,51.0,820.0,833.0,54.0,23.0,31.0,0.4259259259259259,107.68983922746676,1788.5643507715758,15.0,11.0,4.0,0.7333333333333333,648.8091714988271,4252.449184395178,25.0,11.0,14.0,0.44,999.0778959402296,24336.82631541503,9.0,3.0,6.0,0.3333333333333333,686.1968852082739,10297.94560860808,107.0,53.0,54.0,0.4953271028037383,76.2453003600147,4305.95402153192,0.0,0.0,0.0,0.0,2373.0,2424.0,2526.0,2539.0,2548.0,2573.0,2581.0,2590.0,2774.0,2868.0,0.05387896701642595,-0.16686790539333748,0.04409746328452351,-0.15948779739591828,0.01728470972499234
3,3,3224.250583443223,2004.907091337942,17.3179606013426,3359.6986436005755,-3798.346638088617,9.397148722017944,3383.942676660767,19776.643251304584,10.832963852684268,3408.978432015541,-3824.741093650121,4.117522726694546,3642.287546694672,4439.563983330507,40.89616767931226,0.9653086751150554,152.0,101.0,65.0,280.0,345.0,51.0,833.0,824.0,51.0,26.0,25.0,0.5098039215686274,96.4141877183368,2088.248115904083,16.0,13.0,3.0,0.8125,631.8590422893183,5198.0167690996495,26.0,12.0,14.0,0.4615384615384615,886.706933337642,21737.241651300927,9.0,3.0,6.0,0.3333333333333333,610.9227567795497,9061.173768869212,98.0,44.0,54.0,0.4489795918367347,91.71849355786712,4748.285212437069,0.0,0.0,0.0,0.0,3198.0,3249.0,3350.0,3362.0,3372.0,3398.0,3406.0,3415.0,3599.0,3695.0,0.04808910504376359,-0.16635107389968992,0.04483606859213328,-0.15972917952376192,0.020659347157119024
4,4,4048.068557102736,2570.6744088179867,19.38707396098899,4184.123304500719,-3649.8680085211527,7.608484678663129,4209.05879556159,21267.936305842904,10.717920130958268,4232.7834113018425,-3395.1941856088397,3.665561555754393,4467.189211192677,4867.263883849302,42.34348311480751,0.9786443186472924,155.0,103.0,63.0,278.0,341.0,52.0,819.0,826.0,52.0,27.0,25.0,0.5192307692307693,97.056793821316,2384.801258211477,13.0,9.0,4.0,0.6923076923076923,622.1747712569393,4831.815053396392,26.0,12.0,14.0,0.4615384615384615,945.129619851822,23244.359463176523,8.0,2.0,6.0,0.25,594.9238034480713,8766.17134279202,109.0,55.0,54.0,0.5045871559633027,76.97477990798309,5127.669090605207,0.0,0.0,0.0,0.0,4021.0,4073.0,4176.0,4187.0,4197.0,4223.0,4231.0,4239.0,4423.0,4517.0,0.03775538181279961,-0.1704650058041499,0.044439178595441255,-0.17522526575056185,0.015814794871386175
5,5,4878.740110639194,2591.2075291364467,20.545445004009125,5017.123304500719,-3740.342539938716,11.723961171506676,5041.678049781084,22653.212580140116,10.579861786214233,5065.488577007397,-3804.537768801043,3.858995179092157,5298.947293554773,4991.040895947026,41.606092382838575,0.9775931315049482,155.0,97.0,64.0,281.0,345.0,58.0,839.0,833.0,58.0,27.0,31.0,0.4655172413793103,94.28214408216876,2676.301494506734,16.0,12.0,4.0,0.75,632.6473317506968,4719.990169369996,26.0,12.0,14.0,0.4615384615384615,1027.7824631624533,23809.088790003643,9.0,2.0,7.0,0.2222222222222222,687.4015752109666,9471.453052502353,105.0,52.0,53.0,0.4952380952380952,76.61659664651542,5104.428173007147,0.0,0.0,0.0,0.0,4852.0,4910.0,5007.0,5020.0,5030.0,5056.0,5063.0,5071.0,5254.0,5352.0,0.03638540835576744,-0.1691415492018179,0.04537027406273941,-0.18067939313100667,0.015350825257459203
6,6,5710.054550352977,2174.892226547018,16.30234631613922,5846.547965400863,-3330.6690310930585,15.28779240518434,5870.16731229186,21589.97891268027,10.434144229167735,5895.328864529002,-3952.474767696204,4.0183278891644,6129.687605616373,4313.2955235170875,40.354153914096955,0.9717878399182792,146.0,107.0,66.0,280.0,346.0,39.0,834.0,828.0,48.0,25.0,23.0,0.5208333333333334,93.25779800414912,2222.802538715348,16.0,13.0,3.0,0.8125,641.0585983327352,5432.315279427707,26.0,12.0,14.0,0.4615384615384615,960.3864178349784,23066.982710492604,9.0,3.0,6.0,0.3333333333333333,641.4340154525268,9262.008201911862,108.0,55.0,53.0,0.5092592592592593,97.36807580759886,4221.101848106021,0.0,0.0,0.0,0.0,5689.0,5728.0,5835.0,5850.0,5858.0,5884.0,5892.0,5901.0,6087.0,6181.0,0.042879273219073706,-0.1924714201105574,0.04448297155449847,-0.1622866819277387,0.022573940337898373
7,7,6527.940138257908,2092.0209033458573,17.224309075058486,6663.547965400863,-3172.265021343758,15.287792405173992,6688.346115946059,21553.01994893415,10.5030777018812,6713.1256318050855,-3685.169313965934,3.9775452017280704,6946.757308126029,4761.943588513191,40.92556325817818,0.970787971844398,139.0,112.0,67.0,278.0,345.0,27.0,818.0,818.0,52.0,26.0,26.0,0.5,93.44437580176664,2160.693536107752,17.0,13.0,4.0,0.7647058823529411,604.2063417962652,4901.033263454372,25.0,11.0,14.0,0.44,936.7006312781696,23508.342557841515,10.0,3.0,7.0,0.3,616.4921050431883,9238.79063038406,105.0,52.0,53.0,0.4952380952380952,107.60550215281704,4436.629193641078,0.0,0.0,0.0,0.0,6514.0,6541.0,6653.0,6667.0,6677.0,6702.0,6710.0,6720.0,6901.0,6998.0,0.044667037338067275,-0.19046527882475783,0.04346029621359357,-0.1672900354148795,0.022596971205703514
8,8,7358.328730098417,2068.1923394884143,16.1772838414466,7492.547965400863,-3566.3362462997416,15.28779240518434,7517.424797390616,22539.563438781766,10.342467876193354,7542.046596130373,-4015.3641100441223,4.182516992955306,7775.544570197927,4574.736423294188,38.36164853466651,0.9702129702332196,149.0,109.0,66.0,280.0,346.0,40.0,832.0,830.0,54.0,28.0,26.0,0.5185185185185185,100.55743216790768,1687.5138962641674,20.0,16.0,4.0,0.8,629.4512505165275,4485.8586904496,25.0,11.0,14.0,0.44,989.5354829109668,24001.92530121153,10.0,3.0,7.0,0.3,643.3172811839352,9858.973497667035,102.0,49.0,53.0,0.4803921568627451,80.10848467734404,4580.715510198166,0.0,0.0,0.0,0.0,7334.0,7374.0,7483.0,7496.0,7506.0,7531.0,7539.0,7549.0,7727.0,7829.0,0.04862092864766217,-0.1764980100150724,0.04390215833587813,-0.16021393416719715,0.017511060149703512
9,9,8180.839138356408,1812.0310408083517,16.101971601203974,8320.547965400861,-3685.885323974729,15.28779240518434,8344.26251078133,21965.882015535335,10.310485666177716,8369.867398062903,-4203.270473841767,4.362228445683426,8601.190820802389,4360.638543626483,39.808200716824565,0.962135369665562,149.0,110.0,67.0,276.0,343.0,39.0,819.0,825.0,39.0,21.0,18.0,0.5384615384615384,101.75280134067994,1799.9708615826648,28.0,25.0,3.0,0.8928571428571429,659.6171144590227,5416.954790621356,25.0,11.0,14.0,0.44,987.7892340699278,23338.375613135737,9.0,3.0,6.0,0.3333333333333333,650.2535670272607,10144.161306420812,101.0,48.0,53.0,0.4752475247524752,72.85937912723358,4638.627688368359,0.0,0.0,0.0,0.0,8160.0,8199.0,8309.0,8324.0,8333.0,8358.0,8367.0,8376.0,8554.0,8652.0,0.05615400567050317,-0.1789575791109298,0.04496924973790333,-0.15470181399793015,0.016708419741353016
10,10,9001.369913502158,1901.3422976378183,15.837512673436231,9138.54796540086,-2972.8816704166684,15.287792405182106,9163.560615118044,21547.30824348964,10.459591410939876,9188.324837485085,-3697.8824671060806,4.117239001715455,9421.005067331937,4873.922912579859,41.63899309380494,0.9714930192077734,150.0,113.0,65.0,279.0,344.0,37.0,813.0,821.0,38.0,21.0,17.0,0.5526315789473685,78.29612490083767,1816.1500670608752,12.0,9.0,3.0,0.75,583.9429126004819,4834.704668826591,26.0,12.0,14.0,0.4615384615384615,944.1732942486148,22021.720160062207,11.0,3.0,8.0,0.2727272727272727,619.8899228242042,9144.63025199696,102.0,49.0,53.0,0.4803921568627451,70.12197838804829,5125.755427112956,0.0,0.0,0.0,0.0,8980.0,9017.0,9130.0,9142.0,9152.0,9178.0,9185.0,9195.0,9373.0,9474.0,0.04117939468243613,-0.19642319383624798,0.04381861917875008,-0.16763375481463658,0.014387174283585746
11,11,9833.192926960572,2236.642979341615,16.42912630804765,9971.123304500574,-4003.182708224159,12.739827000171458,9995.58532452346,21852.73338729916,10.54846084437749,10020.232009080237,-4162.151306949097,4.304329821073838,10257.705553560734,4260.1602835226,35.17598331341206,0.9733944088376344,147.0,102.0,68.0,274.0,342.0,45.0,839.0,831.0,46.0,21.0,25.0,0.4565217391304347,92.6712852307947,2214.7027456686565,19.0,15.0,4.0,0.7894736842105263,615.8875670491165,4088.4119795251654,25.0,12.0,13.0,0.48,985.32361358947,22785.912330688057,11.0,3.0,8.0,0.2727272727272727,624.4418786196729,9845.82132569322,89.0,44.0,45.0,0.4943820224719101,109.91234650267415,4527.913042250776,0.0,0.0,0.0,0.0,9813.0,9858.0,9960.0,9974.0,9984.0,10009.0,10017.0,10028.0,10222.0,10302.0,0.04143320417551562,-0.15384947726313714,0.04508926165557585,-0.15002863484974932,0.025800049572733654
12,12,10668.29637664375,1628.8090758878627,14.322169641408925,10805.911037769922,-4027.22755112195,15.28779240518434,10831.394256027448,22389.202026006817,10.219246992153025,10856.697217328852,-4311.335565474586,4.791134417835564,11093.519061324492,4076.5534721285376,34.83389925386543,0.9613451586581968,150.0,109.0,68.0,276.0,344.0,41.0,837.0,838.0,41.0,22.0,19.0,0.5365853658536586,70.25315365261578,1406.9122724997626,18.0,13.0,5.0,0.7222222222222222,589.3447679559996,2762.526117588263,25.0,11.0,14.0,0.44,1010.6489300169106,23839.28121588323,11.0,4.0,7.0,0.3636363636363636,637.5275982236727,9960.265978060988,90.0,44.0,46.0,0.4888888888888889,67.95383121530122,3858.451482476212,0.0,0.0,0.0,0.0,10646.0,10687.0,10796.0,10811.0,10820.0,10845.0,10853.0,10864.0,11050.0,11140.0,0.043131607437980925,-0.14634007154420994,0.045140015657680096,-0.14787241413751903,0.016669432077833068
13,13,11493.326416726684,1721.0425225571992,13.827992065386631,11630.54796540086,-3493.3520861164734,15.287792405148329,11654.022692889646,21141.602864442644,10.391512553853293,11679.595105302184,-4247.299681293196,4.07046211425977,11917.561529395103,4238.615576710813,37.44196506946397,0.9581307608799426,141.0,110.0,67.0,280.0,347.0,31.0,822.0,820.0,31.0,15.0,16.0,0.4838709677419355,89.86356976750211,1933.7314454193104,34.0,31.0,3.0,0.9117647058823528,635.1408524249798,5341.27201880526,25.0,11.0,14.0,0.44,925.9070274729796,22304.03584890292,10.0,4.0,6.0,0.4,618.2189249594721,9401.6344680124,102.0,54.0,48.0,0.5294117647058824,97.9704148269916,4371.9742052086785,0.0,0.0,0.0,0.0,11478.0,11509.0,11619.0,11634.0,11643.0,11668.0,11676.0,11686.0,11870.0,11966.0,0.05221461328798486,-0.1818141535029353,0.043795498071257016,-0.14555575809316096,0.02311377690519817
14,14,12323.19155195395,1823.832836859482,16.173497882161108,12460.54796540086,-3538.0891499319205,15.28779240518434,12485.246748962836,22075.834823432408,10.548609552966582,12509.42360777714,-4095.4601500869,3.739169875795008,12741.035695705135,4644.945665077868,41.20663927039251,0.9644498481312456,148.0,109.0,65.0,278.0,343.0,39.0,830.0,832.0,39.0,21.0,18.0,0.5384615384615384,76.79123685169567,1831.0778933852343,16.0,13.0,3.0,0.8125,625.7167097422534,4508.254310847172,25.0,11.0,14.0,0.44,961.0310824722944,23637.44973502196,9.0,2.0,7.0,0.2222222222222222,660.6880908820455,9584.862415609465,112.0,58.0,54.0,0.5178571428571429,84.14107111524123,4183.953604332542,0.0,0.0,0.0,0.0,12302.0,12341.0,12450.0,12464.0,12474.0,12499.0,12507.0,12515.0,12694.0,12793.0,0.04210431751186421,-0.1768515950917442,0.043533170553179144,-0.1613220655725405,0.018114543674394235
15,15,13156.774679764778,2473.094013273497,18.465516846539337,13295.123304500716,-3367.7870654620783,12.739827004258412,13319.556562890437,22632.805004404083,10.42806917896885,13344.122599801283,-4190.126017251215,4.045951270306353,13579.472651647004,4758.010779552864,39.382203150462686,0.9749430818963704,153.0,107.0,65.0,278.0,343.0,46.0,840.0,835.0,46.0,24.0,22.0,0.5217391304347826,88.3247285071942,2403.932317114226,13.0,10.0,3.0,0.7692307692307693,629.7638384077393,4952.300082187104,25.0,12.0,13.0,0.48,1016.3402507926992,23395.41896100164,10.0,3.0,7.0,0.3,657.9899424501688,9909.628143364183,96.0,45.0,51.0,0.46875,72.40585864498789,5328.857912121328,0.0,0.0,0.0,0.0,13133.0,13179.0,13286.0,13298.0,13308.0,13333.0,13341.0,13351.0,13535.0,13629.0,0.03571426239081129,-0.18699633503145258,0.04490562484830895,-0.15703344952900009,0.015217674360080424
16,16,13988.985268509608,1945.4210362231431,15.722662865128836,14123.943216134032,-3471.610524661009,15.28779240518434,14148.462614039005,20936.414935485416,10.345583662575592,14174.224536755204,-4326.366939391726,4.519398181457796,14411.743279817516,4627.455189993792,36.12121828639267,0.965188609586328,144.0,103.0,69.0,277.0,346.0,41.0,827.0,828.0,45.0,22.0,23.0,0.4888888888888889,109.13817667397484,2026.8343825688896,17.0,13.0,4.0,0.7647058823529411,581.3956681853156,4014.49300741904,25.0,11.0,14.0,0.44,928.5118884694843,22530.765623089144,10.0,3.0,7.0,0.3,631.5099325981171,9917.78468517939,95.0,48.0,47.0,0.5052631578947369,87.62534926919713,4509.578579434662,0.0,0.0,0.0,0.0,13968.0,14009.0,14112.0,14128.0,14137.0,14162.0,14171.0,14181.0,14369.0,14458.0,0.056100029064071716,-0.1674714556991058,0.04434913481274852,-0.1459677233681213,0.018935969268524602
17,17,14822.809990328642,2355.5188889114843,18.320997686828665,14960.123304500716,-3642.494702190485,12.739827004317112,14984.440345495388,21931.584203895392,10.686469568152344,15008.925166378467,-3561.063171171372,3.89111370070423,15240.62970669201,4632.039740531332,41.41928861330504,0.9758176558184504,154.0,98.0,66.0,276.0,342.0,56.0,833.0,836.0,56.0,28.0,28.0,0.5,97.34001564649805,2456.8464792174263,15.0,12.0,3.0,0.8,631.9468049683475,4902.886829908408,26.0,11.0,15.0,0.4230769230769231,952.3007409921275,23972.712364395033,9.0,3.0,6.0,0.3333333333333333,600.9314439926654,8796.567943561755,107.0,54.0,53.0,0.5046728971962616,84.9350995239842,4484.633960979254,0.0,0.0,0.0,0.0,14795.0,14851.0,14949.0,14963.0,14973.0,14999.0,15006.0,15015.0,15190.0,15291.0,0.041324234802243565,-0.17349285493491973,0.04342142966685389,-0.1687505711377189,0.01833643584289315
18,18,15679.908268729509,1899.0341371201696,16.195384969489023,15816.278133025384,-4043.5539150046793,15.28779240518434,15840.506680690183,22614.538939600523,10.396392309435056,15865.288169731708,-3850.762992070092,4.446457392779064,16102.360079100636,4391.034462897882,36.61479905951877,0.9701751714601218,146.0,107.0,69.0,277.0,346.0,39.0,859.0,857.0,43.0,26.0,17.0,0.6046511627906976,66.59758882987461,2003.8722275934297,23.0,19.0,4.0,0.8260869565217391,643.0870467383114,4044.6228735632,25.0,12.0,13.0,0.48,1011.344083496048,23034.46055772756,11.0,3.0,8.0,0.2727272727272727,635.5243162826908,9769.98986205717,99.0,49.0,50.0,0.494949494949495,87.25438954690468,4127.213283918078,0.0,0.0,0.0,0.0,15658.0,15697.0,15804.0,15820.0,15829.0,15854.0,15862.0,15873.0,16057.0,16150.0,0.03506918992560499,-0.15904005739900398,0.04472096849717658,-0.16503854368379237,0.01987103273366722
19,19,16522.477724762382,1687.1339702897126,15.107222026393272,16662.54796540086,-3929.619244176128,15.28779240518434,16685.97798344961,21916.277207545067,10.213058996566415,16711.356569113705,-4293.550823620223,4.4171926713457035,16944.796514352103,4136.806638036422,36.06471069238264,0.959116503177144,147.0,106.0,68.0,273.0,341.0,41.0,840.0,845.0,41.0,19.0,22.0,0.4634146341463415,133.9404677636243,1738.29680274225,37.0,34.0,3.0,0.918918918918919,664.2200645953266,5078.7783267421555,25.0,11.0,14.0,0.44,983.3076863641406,22921.560292257767,10.0,3.0,7.0,0.3,649.9409048798801,9947.570959496315,101.0,50.0,51.0,0.495049504950495,81.80158527900494,4055.845095982389,0.0,0.0,0.0,0.0,16503.0,16544.0,16650.0,16666.0,16675.0,16700.0,16708.0,16718.0,16906.0,16991.0,0.07938934911056542,-0.16902911537287754,0.044866547226625676,-0.15137608277613562,0.019774089638821726
20,20,17361.519724679936,1759.3119685668173,16.962585360678652,17497.69864360057,-3584.7865265441164,8.767407865840566,17522.172778247335,21133.213542988775,10.57280311524704,17546.454642771998,-4145.669986560321,4.081513567785882,17782.96812701013,4648.596629213824,38.106427442936806,0.9721292528152824,152.0,99.0,64.0,278.0,342.0,53.0,839.0,836.0,53.0,25.0,28.0,0.4716981132075472,71.46509051688115,1648.2794446357727,14.0,11.0,3.0,0.7857142857142857,638.931901365883,5479.267143029032,26.0,12.0,14.0,0.4615384615384615,954.2068152449932,22875.23574958207,10.0,3.0,7.0,0.3,655.2034837450361,9541.337902941132,98.0,47.0,51.0,0.4795918367346938,70.6027265881035,4681.19859454221,0.0,0.0,0.0,0.0,17337.0,17390.0,17489.0,17500.0,17510.0,17536.0,17544.0,17553.0,17737.0,17831.0,0.040621044927636414,-0.17823429558073017,0.04515199798194269,-0.15804525827408203,0.01518796579260178
21,21,18198.369913502054,2119.3727227121462,15.988919533399526,18336.123304491164,-4199.010421013256,12.739826999429765,18359.893007221737,21863.466271079513,10.686329610087077,18384.70658273544,-4218.385073806687,4.445167737662718,18617.612642396936,4382.331011265241,39.35237659338172,0.9664671471850153,147.0,102.0,67.0,274.0,341.0,45.0,831.0,838.0,46.0,21.0,25.0,0.4565217391304347,85.94016617808828,2135.731773128798,33.0,30.0,3.0,0.9090909090909092,640.2964431228894,4878.848559861388,25.0,11.0,14.0,0.44,972.4432471040424,23382.937220943502,9.0,3.0,6.0,0.3333333333333333,652.7980169621582,9861.563299615533,101.0,50.0,51.0,0.495049504950495,70.93559680442559,4330.96980790391,0.0,0.0,0.0,0.0,18177.0,18222.0,18324.0,18339.0,18349.0,18374.0,18382.0,18391.0,18571.0,18665.0,0.0405498123369783,-0.15248746226459248,0.0444779997392439,-0.1547506938177815,0.016186727251336835
22,22,19042.043685488577,2446.71588510918,17.671958738301853,19182.123304500717,-3818.119894806373,12.739827004284624,19205.484917059723,22657.01428787965,10.597759093573885,19229.966595583133,-4297.203292831548,4.141224420694445,19472.410851195396,4623.57383289719,40.18474440922368,0.971333769959402,155.0,109.0,64.0,282.0,346.0,46.0,853.0,845.0,52.0,25.0,27.0,0.4807692307692308,78.63310923891456,2317.648056366166,65.0,62.0,3.0,0.953846153846154,665.7035628909368,5799.697561337845,25.0,11.0,14.0,0.44,1015.6649964314372,24678.588113598256,9.0,3.0,6.0,0.3333333333333333,674.0900297533209,10172.242324559447,98.0,51.0,47.0,0.5204081632653061,78.11048649056816,4974.956792314653,0.0,0.0,0.0,0.0,19017.0,19063.0,19172.0,19185.0,19194.0,19219.0,19227.0,19236.0,19421.0,19518.0,0.03213822647634697,-0.17435376081208587,0.04482783934045389,-0.15686714912413277,0.01689396326599226
23,23,19866.972626301005,1430.3094933978132,13.920987838829738,20003.63626435904,-3331.988069261404,15.28779240518434,20032.41963213689,20391.704628945332,10.119638660884515,20057.95267720546,-4171.728197895427,4.411195167909181,20294.25842195833,4281.489560930484,36.17503448026915,0.9554117183788958,140.0,110.0,67.0,277.0,344.0,30.0,819.0,827.0,39.0,18.0,21.0,0.4615384615384615,100.43358128294524,1142.8598665254367,91.0,83.0,8.0,0.912087912087912,376.49022074663503,1039.7253064973463,25.0,11.0,14.0,0.44,929.685921876382,22216.01436953091,10.0,4.0,6.0,0.4,609.8191189530847,9684.05154940263,95.0,47.0,48.0,0.4947368421052631,73.72695922329346,4231.47967254463,0.0,0.0,0.0,0.0,19857.0,19887.0,19997.0,20012.0,20021.0,20046.0,20054.0,20064.0,20249.0,20341.0,0.0702180763999247,-0.1129926677168718,0.04559137839593481,-0.14617901503284159,0.017219932029279687
24,24,20700.029469339173,1776.756052494545,15.112990549162111,20836.123304500717,-3935.629471102772,12.739827004320285,20860.974071006167,21572.096131075752,10.587903174757626,20885.84643499768,-4493.336819700241,4.262333776075127,21124.444760486134,4493.933374445801,36.643763504859685,0.9630467753874178,138.0,107.0,70.0,278.0,348.0,31.0,840.0,828.0,41.0,25.0,16.0,0.6097560975609756,78.16164014937276,1773.4112101850196,24.0,20.0,4.0,0.8333333333333334,588.3198706262712,3878.4071528864897,26.0,12.0,14.0,0.4615384615384615,954.0989191661032,22992.783277563707,11.0,4.0,7.0,0.3636363636363636,655.1363674216246,10133.547674101928,91.0,43.0,48.0,0.4725274725274725,79.3257959866081,4729.312096123038,0.0,0.0,0.0,0.0,20685.0,20716.0,20823.0,20839.0,20849.0,20875.0,20882.0,20893.0,21082.0,21171.0,0.043991205230247965,-0.149485584185704,0.04422838250714417,-0.1458017490585827,0.017651751678759743
25,25,21531.97146500123,2018.9566260119193,15.488316522280426,21662.02737369988,-3354.5624580906056,17.8357578060484,21692.759768736167,22225.43911801454,10.152374731870513,21716.84390947333,-3857.454661842687,3.80366390928338,21951.07450349231,4493.794239010707,37.875506627306535,0.9662814231412904,144.0,100.0,69.0,278.0,347.0,44.0,826.0,833.0,47.0,24.0,23.0,0.5106382978723404,81.15103789294099,2111.9689541475063,69.0,59.0,10.0,0.855072463768116,328.1373546855586,74.54884850265898,25.0,12.0,13.0,0.48,976.5296949654428,22575.297100063857,9.0,3.0,6.0,0.3333333333333333,642.5035330735053,9724.73424177984,104.0,51.0,53.0,0.4903846153846153,101.49919518329116,4335.786609334014,0.0,0.0,0.0,0.0,21510.0,21554.0,21654.0,21672.0,21681.0,21706.0,21714.0,21723.0,21908.0,22001.0,0.04019454249160373,-0.09781822779723474,0.04393747587078851,-0.16656152551293618,0.022586524835110353
26,26,22368.316234352213,1945.7264393386183,15.429869762019798,22502.027373703575,-3392.9194998146745,17.8357578060484,22532.004588171392,21440.529374817863,10.027242050105292,22557.402017275035,-4346.986112109478,4.390986104527185,22792.71220759482,4340.734433995553,37.74921273179513,0.9578954723555314,150.0,110.0,67.0,280.0,347.0,40.0,838.0,839.0,40.0,21.0,19.0,0.525,85.7156855404949,1939.137371754547,99.0,89.0,10.0,0.898989898989899,365.5370362659135,480.8771761679563,26.0,12.0,14.0,0.4615384615384615,963.3611043461206,22324.88462454491,11.0,4.0,7.0,0.3636363636363636,651.4130132227892,10106.03879184724,97.0,46.0,51.0,0.4742268041237113,80.48001371847245,4419.087226883842,0.0,0.0,0.0,0.0,22347.0,22387.0,22497.0,22512.0,22520.0,22546.0,22553.0,22564.0,22747.0,22844.0,0.044053307704258235,-0.10773525168689667,0.044931777919513444,-0.14985394395628185,0.0185406444329266
27,27,23203.32873009842,1640.6094418434873,16.913088825093958,23340.123304500717,-3966.466721383908,12.739827004320285,23363.790288691416,20968.155633921106,10.559266223804803,23388.846095457375,-3919.241200613184,4.084242009224341,23624.8183700502,4560.956584611109,36.91551165968823,0.9670492330234196,138.0,109.0,67.0,278.0,345.0,29.0,840.0,832.0,55.0,27.0,28.0,0.4909090909090909,110.50629139829005,1388.409525957,27.0,24.0,3.0,0.8888888888888888,617.6464855159783,4629.895774747648,26.0,12.0,14.0,0.4615384615384615,939.9204155412448,22365.46834341641,9.0,3.0,6.0,0.3333333333333333,610.211114716081,9095.771326892313,95.0,46.0,49.0,0.4842105263157895,57.40371456636967,4734.073827374847,0.0,0.0,0.0,0.0,23190.0,23219.0,23328.0,23343.0,23352.0,23378.0,23386.0,23395.0,23580.0,23673.0,0.06735685445898601,-0.1557170471609252,0.044826089235082474,-0.15569623901193186,0.012585893661003619
28,28,24048.215485441637,2277.012946582808,17.05745720323016,24183.123304500717,-3832.7556752900473,12.739827004320285,24207.66711245693,22410.46793084091,10.61127748397268,24232.11574590651,-4046.273193627121,4.352786805552752,24467.929038610957,4753.287951907212,40.17802434426384,0.9731434896757348,151.0,99.0,66.0,277.0,343.0,52.0,840.0,844.0,52.0,25.0,27.0,0.4807692307692308,87.26022669823448,2420.836184538247,19.0,15.0,4.0,0.7894736842105263,609.3574427534749,4424.746272784113,26.0,12.0,14.0,0.4615384615384615,990.2194831330486,23382.337265364273,11.0,3.0,8.0,0.2727272727272727,643.4274924674957,9713.27815533227,99.0,49.0,50.0,0.494949494949495,82.37225529765828,5040.402878136945,0.0,0.0,0.0,0.0,24023.0,24075.0,24174.0,24186.0,24196.0,24222.0,24229.0,24240.0,24421.0,24517.0,0.038322235641737964,-0.15898676941033063,0.0441855781944796,-0.15901731338380556,0.017329531922131332
29,29,24906.232975060087,2284.9021230139792,18.606303016215076,25043.69864360057,-3870.555851860763,10.191861603456228,25068.405411452484,21915.405715448735,10.593613226613034,25092.503583060705,-4405.488160078564,4.140082656198009,25327.3502875206,4662.549306671363,40.85624952890639,0.976073853458113,154.0,101.0,64.0,279.0,343.0,53.0,858.0,860.0,53.0,25.0,28.0,0.4716981132075472,97.58737911730924,2489.016350883935,15.0,12.0,3.0,0.8,636.8222763475384,4886.5253272984,25.0,11.0,14.0,0.44,998.1021674592916,24015.78045677015,9.0,3.0,6.0,0.3333333333333333,671.1663290380042,10106.048767579206,100.0,48.0,52.0,0.48,89.44872586682237,4929.781699010366,0.0,0.0,0.0,0.0,24881.0,24934.0,25035.0,25046.0,25057.0,25082.0,25090.0,25099.0,25279.0,25378.0,0.04270965400854161,-0.16452992818625448,0.04554340359556765,-0.15234777728378576,0.019184510443425343
30,30,25759.45203459914,1322.954095366222,12.793396322263892,25886.027373698995,-3554.5046102476,17.8357578060484,25916.05436456663,20534.124065209227,9.975753472801186,25942.157326556753,-4402.404730567424,4.941870959022394,26181.039963450537,4238.626124585684,35.13123956999125,0.9503706181817138,142.0,112.0,70.0,277.0,347.0,30.0,856.0,848.0,30.0,21.0,9.0,0.7,97.9024392066991,1180.8162635680203,90.0,80.0,10.0,0.8888888888888888,328.37320896340174,3.7460544694988585,24.0,11.0,13.0,0.4583333333333333,937.896423508524,21642.206558952847,12.0,4.0,8.0,0.3333333333333333,617.8649509651926,10042.596657110182,90.0,44.0,46.0,0.4888888888888889,65.91558617727668,4354.225644732782,0.0,0.0,0.0,0.0,25738.0,25768.0,25880.0,25896.0,25905.0,25929.0,25938.0,25950.0,26138.0,26227.0,0.07400289968458627,-0.09238227122190394,0.04567501494244856,-0.14034714861065406,0.015551167817076524
31,31,26616.58945088749,1788.716142644676,16.05737215504286,26753.54796540086,-3634.730246755286,15.28779240518434,26777.70277914975,21775.14352727022,10.469684308918769,26802.95237110401,-3870.77619350771,4.2308315545884785,27041.200969352132,4643.82685551229,34.935121559323804,0.9701458194888786,147.0,108.0,68.0,278.0,346.0,39.0,857.0,862.0,45.0,22.0,23.0,0.4888888888888889,102.46057725204555,1662.9614366778098,32.0,29.0,3.0,0.90625,639.2368907965176,5262.4286676819465,25.0,12.0,13.0,0.48,963.7939822720472,23044.003736410406,10.0,3.0,7.0,0.3,605.4779249350147,9538.37758300131,90.0,43.0,47.0,0.4777777777777778,76.05874238917367,4925.457962119149,0.0,0.0,0.0,0.0,26595.0,26634.0,26742.0,26757.0,26766.0,26791.0,26800.0,26810.0,27001.0,27088.0,0.05728163055573155,-0.17586914224712075,0.04426119998084213,-0.1564228709349193,0.016378462151079305
32,32,27489.167092142336,2124.997044288073,15.266015044449016,27620.452034867707,-3251.718946318943,15.28779240518434,27650.37756428927,21914.832083535563,10.204911585629937,27674.706650704113,-4037.4251238443726,4.002507357152706,27912.28537998205,4594.361137451339,36.49467470891388,0.966538777338642,145.0,108.0,67.0,280.0,347.0,37.0,866.0,872.0,46.0,22.0,24.0,0.4782608695652174,80.62895391695955,2161.0030870732903,81.0,72.0,9.0,0.8888888888888888,341.0647156041812,559.6964623714803,25.0,11.0,14.0,0.44,991.988872395179,23699.41417562304,9.0,3.0,6.0,0.3333333333333333,650.1139235957615,9863.268405520424,98.0,46.0,52.0,0.4693877551020408,81.04205244060114,4612.9026328049595,0.0,0.0,0.0,0.0,27469.0,27506.0,27614.0,27629.0,27639.0,27664.0,27672.0,27681.0,27866.0,27961.0,0.03794308991331903,-0.10488751372263526,0.045265638751594735,-0.16102191462481744,0.01763946063795023
33,33,28354.98995924528,1842.1298628207328,13.680180298654316,28492.104281274533,-3844.133884063693,12.739827004320285,28517.053281022076,21109.35817911473,10.279882409202266,28542.57038961506,-4261.59253905084,4.336508616198901,28781.410851195396,4485.857996574888,36.43001670543476,0.960204555235297,137.0,108.0,71.0,279.0,350.0,29.0,866.0,867.0,39.0,20.0,19.0,0.5128205128205128,83.59425293231604,1668.3026534127298,19.0,15.0,4.0,0.7894736842105263,570.4714332709565,3303.811816092685,24.0,11.0,13.0,0.4583333333333333,961.8935631687953,22621.44170246382,9.0,4.0,5.0,0.4444444444444444,628.8437985841919,9612.76632481599,97.0,50.0,47.0,0.5154639175257731,81.96000283326589,4528.940342073636,0.0,0.0,0.0,0.0,28340.0,28369.0,28477.0,28496.0,28506.0,28530.0,28539.0,28548.0,28734.0,28827.0,0.045379131308535235,-0.14840051113617883,0.045567162914525644,-0.14756075171941488,0.018270752862851493
34,34,29200.397287201147,1755.3037001210223,14.397304378592334,29339.290908738258,-3364.270201975935,15.28779240518434,29364.758624662016,20649.99918535335,10.35296348993423,29390.357840079563,-3938.26740516348,4.127825784970433,29629.18780183571,4833.777214046682,35.27122986413256,0.957410324141406,135.0,106.0,72.0,278.0,350.0,29.0,846.0,848.0,48.0,19.0,29.0,0.3958333333333333,96.97735297311944,1590.046636357481,20.0,15.0,5.0,0.75,499.6628750007753,2806.791887837451,25.0,12.0,13.0,0.48,915.5069817325616,21629.708048125063,9.0,3.0,6.0,0.3333333333333333,611.1448839067908,9331.288451362398,88.0,43.0,45.0,0.4886363636363636,74.67421181605279,5140.887201459832,0.0,0.0,0.0,0.0,29189.0,29218.0,29324.0,29344.0,29353.0,29378.0,29387.0,29396.0,29586.0,29674.0,0.05524819036525313,-0.1485204353405706,0.04433448028326864,-0.15518115481582487,0.015448418185069384
35,35,30055.27732883948,2253.8247932569184,16.40731058262571,30192.54796540085,-3544.678014210822,15.28779240458464,30216.8670726568,22306.56649749071,10.424949784069677,30242.147123080707,-3861.099053054808,4.345655283313518,30480.157631911552,4754.470433537499,36.53369801373229,0.9703074964015486,148.0,103.0,66.0,281.0,347.0,45.0,858.0,852.0,45.0,21.0,24.0,0.4666666666666667,91.5372956660866,2363.023782293996,19.0,16.0,3.0,0.8421052631578947,644.6812256922448,4974.140144790682,26.0,12.0,14.0,0.4615384615384615,986.4975822849232,23296.560770528384,10.0,3.0,7.0,0.3,626.6242281601303,9609.210473846226,96.0,47.0,49.0,0.4895833333333333,71.79946142430805,5039.249707041025,0.0,0.0,0.0,0.0,30034.0,30079.0,30182.0,30196.0,30205.0,30231.0,30239.0,30248.0,30433.0,30529.0,0.040614202106548605,-0.18187300034239498,0.04422453730814625,-0.16229167383425722,0.015101463439091498
36,36,30901.96173574776,2267.8921387420937,15.803890871316964,31040.123304500717,-3602.8705881253336,12.739827004320285,31064.36867571207,21903.469611320048,10.49516066352176,31089.559314371603,-4215.249592976324,4.432988089559181,31332.410851195396,4460.5363736086665,37.34386408859298,0.9662023768656582,152.0,115.0,66.0,281.0,347.0,37.0,846.0,848.0,38.0,23.0,15.0,0.6052631578947368,93.54686164556666,2085.4007511887635,14.0,10.0,4.0,0.7142857142857143,616.7797001333686,4848.393463259053,25.0,11.0,14.0,0.44,982.1942817287372,23805.93833052822,11.0,4.0,7.0,0.3636363636363636,647.7640074073297,9713.903498417563,99.0,53.0,46.0,0.5353535353535354,59.765175586829145,4421.248397097328,0.0,0.0,0.0,0.0,30879.0,30916.0,31031.0,31043.0,31053.0,31078.0,31086.0,31097.0,31279.0,31378.0,0.0412483733452391,-0.17119118909410924,0.04484194966176154,-0.1536715663259108,0.013398652220490219
37,37,31732.57810643638,1676.3921325288309,17.038666696710127,31872.54796540086,-3518.9548713858476,15.28779240518434,31896.371863333352,20852.66277409131,10.423957975266353,31921.80193662772,-3942.9576245168223,4.107014216887732,32160.40329367544,4807.9505489087815,37.924883678600494,0.96565235015711,152.0,100.0,67.0,281.0,348.0,52.0,826.0,831.0,52.0,24.0,28.0,0.4615384615384615,80.22032398057667,1600.0678034008304,36.0,33.0,3.0,0.9166666666666666,633.3019985626585,5024.803248630278,25.0,11.0,14.0,0.44,919.4021139701724,22409.490566290675,9.0,3.0,6.0,0.3333333333333333,602.6637505152808,9357.555848371794,94.0,45.0,49.0,0.4787234042553192,78.71362141743505,5219.409026072844,0.0,0.0,0.0,0.0,31709.0,31761.0,31861.0,31876.0,31885.0,31910.0,31919.0,31928.0,32116.0,32209.0,0.04785295899686944,-0.17996877530664357,0.04409039382310909,-0.1528456067516405,0.016371553870349186
38,38,32577.645532303875,2320.664912127944,18.26306751020358,32716.69864360057,-4048.158122192955,10.191861603456228,32741.186443762923,21441.784177941532,10.811549337307826,32765.546284027423,-3949.516217296848,4.253665208300928,33008.4108511954,4947.465714085285,36.8831758842041,0.9746527369940784,153.0,108.0,67.0,282.0,349.0,45.0,852.0,845.0,45.0,26.0,19.0,0.5777777777777777,92.71682602838705,2264.678294440784,27.0,24.0,3.0,0.8888888888888888,637.496170464706,5348.328546467639,26.0,12.0,14.0,0.4615384615384615,958.0489025364892,23427.931832326307,9.0,3.0,6.0,0.3333333333333333,616.15391989977,9266.000133502686,98.0,52.0,46.0,0.5306122448979592,54.08752886085976,5093.530022143183,0.0,0.0,0.0,0.0,32552.0,32597.0,32705.0,32719.0,32729.0,32755.0,32763.0,32772.0,32956.0,33054.0,0.039952698704514795,-0.1574780804558503,0.04468139845946647,-0.156007441418099,0.010932370629042301
39,39,33428.32873009842,1836.9830754532024,13.665642183452364,33558.027373699006,-3400.203206531035,17.8357578060484,33588.64809901284,22292.285464211054,9.976663776801026,33613.38808104169,-4251.616843582827,4.3636653088869455,33850.05327509421,4489.653957222315,36.913031022435426,0.957472341901282,149.0,110.0,67.0,278.0,345.0,39.0,854.0,847.0,43.0,26.0,17.0,0.6046511627906976,93.41338202050444,1496.8856083806213,97.0,86.0,11.0,0.8865979381443299,336.6022151986427,307.56896157534175,25.0,12.0,13.0,0.48,1006.455660303606,22568.845852755407,11.0,3.0,8.0,0.2727272727272727,669.7740026657165,10308.344765703834,98.0,48.0,50.0,0.4897959183673469,86.76428317505932,4849.374646050443,0.0,0.0,0.0,0.0,33405.0,33444.0,33554.0,33568.0,33577.0,33602.0,33610.0,33621.0,33803.0,33899.0,0.05085152022832786,-0.09899473494763625,0.045148159524487114,-0.15753395174276796,0.019325383203639853
40,40,34262.4314687613,1360.013677802014,13.725707415960349,34398.64603811222,-3705.070421069173,12.739827004320285,34424.843489906445,19902.558654761808,10.454758225730776,34450.877619249986,-4227.660039227538,4.534421075294586,34687.12020963557,4429.280316938127,37.50463639062457,0.958734204026834,129.0,93.0,87.0,279.0,366.0,36.0,831.0,836.0,38.0,21.0,17.0,0.5526315789473685,74.61107400416607,1184.136243020041,33.0,28.0,5.0,0.8484848484848485,486.7895610161343,2692.8789133714754,25.0,12.0,13.0,0.48,901.5111076144073,21352.62041651053,11.0,4.0,7.0,0.3636363636363636,614.2423378543849,9518.927650046018,97.0,47.0,50.0,0.4845360824742268,89.04890076531971,4562.921860972292,0.0,0.0,0.0,0.0,34242.0,34278.0,34371.0,34404.0,34413.0,34438.0,34447.0,34458.0,34640.0,34737.0,0.054860532082845484,-0.13138469872204517,0.04529624171707768,-0.1452913271537834,0.0201045981273268
41,41,35109.748469013226,1561.3868129208804,15.31671541844719,35246.8061914417,-3902.4623281467902,12.739827004320285,35271.33872842627,21540.60235546819,10.621571028756318,35296.609231872855,-4168.241716033057,4.804487224297208,35532.11579307869,4546.181549628591,37.2056292332936,0.95932904574044,150.0,112.0,68.0,280.0,348.0,38.0,846.0,847.0,38.0,23.0,15.0,0.6052631578947368,61.22897095982121,1355.2664248019769,92.0,89.0,3.0,0.967391304347826,604.8855372476891,4363.344838215243,25.0,11.0,14.0,0.44,961.110292586361,23542.968080084996,12.0,4.0,8.0,0.3333333333333333,614.6366048631321,9715.727433638978,103.0,50.0,53.0,0.4854368932038835,60.12914632804391,4553.0249917397805,0.0,0.0,0.0,0.0,35087.0,35125.0,35237.0,35250.0,35260.0,35285.0,35293.0,35305.0,35488.0,35585.0,0.03921447936740314,-0.1550009933177083,0.044618543006638735,-0.14745704465721,0.01322629676611931
42,42,35960.398926226684,2476.6563520805175,17.74950741737275,36098.69864360057,-3654.82890188276,10.191861603456228,36123.36584472577,21673.34575188514,10.690594513348382,36147.670017387085,-4397.241028991568,4.454347596821185,36383.845588407225,4451.21834589467,38.36751106307054,0.9689282558011542,152.0,103.0,66.0,280.0,346.0,49.0,850.0,852.0,49.0,23.0,26.0,0.4693877551020408,85.58735810548582,2488.078571892347,74.0,71.0,3.0,0.9594594594594594,628.6488738353364,5392.0734846731975,25.0,11.0,14.0,0.44,964.6558137368344,23504.013525539067,10.0,3.0,7.0,0.3,651.1742980503456,9850.39914211702,99.0,47.0,52.0,0.4747474747474747,79.80234243571991,4228.217101467168,0.0,0.0,0.0,0.0,35937.0,35986.0,36089.0,36101.0,36112.0,36137.0,36145.0,36155.0,36339.0,36435.0,0.0345576236418864,-0.17200500781623246,0.04450885547529868,-0.14808701496167045,0.01792820217622465
43,43,36811.87669549929,1145.172442586707,12.243039376269914,36943.45203459914,-3588.080473528753,15.28779240518434,36971.89490491384,20059.906499408346,9.999994330234308,36998.273982700426,-4313.872246028059,5.156890476776358,37241.10949479597,4014.9661051010175,34.264341570519115,0.9415638012881156,82.0,61.0,126.0,275.0,401.0,21.0,854.0,848.0,23.0,15.0,8.0,0.6521739130434783,77.18152308948096,1096.2252457740428,97.0,88.0,9.0,0.9072164948453608,335.5100934866088,591.6832845845765,24.0,11.0,13.0,0.4583333333333333,925.1262375778338,21451.139740209073,12.0,4.0,8.0,0.3333333333333333,603.3306446197414,9574.805574373797,93.0,50.0,43.0,0.5376344086021505,99.24442991247857,4073.5032275526137,0.0,0.0,0.0,0.0,36798.0,36819.0,36880.0,36952.0,36961.0,36985.0,36994.0,37006.0,37192.0,37281.0,0.06739729338504158,-0.09350684745279592,0.046118172963823124,-0.13985825499938023,0.024718622104029333
44,44,37651.81542418316,1872.961680367708,14.571802012332416,37783.027373699,-3061.588924880126,17.8357578060484,37814.43509207795,21414.29218854441,10.247344953771352,37839.21031010849,-4019.984607054537,4.315196001802699,38076.70443819295,4337.732143108415,35.59721281513218,0.9617670801825128,143.0,105.0,73.0,277.0,350.0,38.0,839.0,843.0,39.0,21.0,18.0,0.5384615384615384,68.95482722848855,1715.8001607778235,93.0,83.0,10.0,0.8924731182795699,298.22978005898415,4.293654002690232,25.0,11.0,14.0,0.44,941.5375045489576,23345.490426509594,12.0,4.0,8.0,0.3333333333333333,614.9164955055265,9647.372380276003,97.0,49.0,48.0,0.5051546391752577,78.40426662608198,4569.51035176878,0.0,0.0,0.0,0.0,37631.0,37669.0,37774.0,37793.0,37803.0,37828.0,37835.0,37847.0,38031.0,38124.0,0.036815930593385685,-0.09741013159389486,0.04396771540516449,-0.15296488808102154,0.018074944242614657
45,45,38487.753390998565,2311.276998943058,16.070773679843935,38625.12330450069,-3967.820840490107,12.739827004319814,38649.69641845202,21556.591924672877,10.604516604268795,38674.56943269363,-4363.664370404805,4.585013932573396,38912.49970666769,4484.550666903917,38.40176847258007,0.9682160218560382,140.0,112.0,68.0,281.0,349.0,28.0,839.0,837.0,35.0,21.0,14.0,0.6,116.4783993220192,2337.277583272828,17.0,13.0,4.0,0.7647058823529411,619.4086601446361,4073.8394985651344,25.0,12.0,13.0,0.48,956.9684855779144,22658.411402405138,11.0,4.0,7.0,0.3636363636363636,635.2759445658071,10176.168619979708,101.0,48.0,53.0,0.4752475247524752,83.40545746003835,4518.141104428315,0.0,0.0,0.0,0.0,38474.0,38502.0,38614.0,38628.0,38638.0,38663.0,38671.0,38682.0,38864.0,38963.0,0.05039569007751322,-0.1561080212654275,0.04439331082213435,-0.1455831362453924,0.018598397845200516
46,46,39309.24575732518,1845.8196023249532,14.835236348135815,39450.63865151129,-4992.452716703456,10.191861603456228,39473.352771287486,20016.599756134412,10.842490100246598,39499.2310986218,-4572.066343504524,5.1088742959163325,39734.59620658091,3975.422247580958,36.69200434307573,0.9589621035757424,132.0,95.0,85.0,279.0,364.0,37.0,815.0,822.0,39.0,21.0,18.0,0.5384615384615384,115.545192824295,1854.129775633135,100.0,97.0,3.0,0.97,666.6407453435963,5719.769239941715,25.0,11.0,14.0,0.44,937.08573656769,22411.23039720778,11.0,4.0,7.0,0.3636363636363636,641.4788015177093,10380.157922809964,103.0,52.0,51.0,0.5048543689320388,95.47594259083073,3987.437547465415,0.0,0.0,0.0,0.0,39289.0,39326.0,39421.0,39453.0,39462.0,39487.0,39495.0,39506.0,39689.0,39785.0,0.06259831279219098,-0.13352970637321987,0.04681543059182691,-0.140303913662375,0.02401655387649143
47,47,40131.99137907348,1890.0362628198177,17.06141481745921,40267.12330450071,-4172.53406269184,12.739827004320285,40291.26706419832,21678.99004853494,10.693310471535655,40315.62362898591,-4262.721173681385,4.146538772262761,40551.96711317833,4860.600033011001,38.83195742541995,0.9692898858836448,153.0,102.0,65.0,277.0,342.0,51.0,823.0,818.0,56.0,28.0,28.0,0.5,77.92413434814883,1728.548424177887,14.0,10.0,4.0,0.7142857142857143,639.5202602428845,4253.215957053191,25.0,11.0,14.0,0.44,968.44646512252,23855.62284540326,10.0,3.0,7.0,0.3,632.6088155952937,9592.822133948624,101.0,52.0,49.0,0.5148514851485149,69.6062719534606,4763.231693548068,0.0,0.0,0.0,0.0,40105.0,40156.0,40258.0,40270.0,40280.0,40305.0,40313.0,40323.0,40507.0,40600.0,0.041228909667527125,-0.15326903283092885,0.04467212093157298,-0.1484049248872072,0.01432051011824183
48,48,40952.309282666225,2552.0481808382833,17.624244725651735,41090.547965400794,-3618.5203604154544,15.287792404901085,41115.149260780214,22833.11151902132,10.509945387816863,41139.465472989985,-4297.756078022933,3.9988725201157154,41377.31001874565,4992.9453602619915,38.79232823701989,0.9737311716699192,153.0,109.0,64.0,282.0,346.0,44.0,827.0,825.0,52.0,24.0,28.0,0.4615384615384615,92.0976509785958,2116.0302452042533,18.0,15.0,3.0,0.8333333333333334,657.8187280245202,4924.228084127608,25.0,11.0,14.0,0.44,994.3671590719216,23944.336141153268,9.0,2.0,7.0,0.2222222222222222,679.4966097443156,10262.485677061662,93.0,43.0,50.0,0.4623655913978494,68.06929367059665,5051.171448726371,0.0,0.0,0.0,0.0,40928.0,40972.0,41081.0,41094.0,41104.0,41129.0,41137.0,41145.0,41334.0,41427.0,0.03608773990636182,-0.18179218644744444,0.04354934973464109,-0.15810497324848172,0.013633094047523263
49,49,41781.65156547418,2140.0746831489646,15.676805959766416,41920.12330450071,-3725.8426691233904,12.739827004320285,41944.29511804815,21420.2926963429,10.486989934116238,41969.24603531176,-4206.955533451378,4.0424956732010235,42207.4108511954,4527.831745492397,37.1209490419745,0.966544175140645,151.0,112.0,64.0,278.0,342.0,39.0,825.0,828.0,39.0,22.0,17.0,0.5641025641025641,108.6938096598724,2262.092071204277,15.0,11.0,4.0,0.7333333333333333,627.9227171371057,4661.876209288661,25.0,11.0,14.0,0.44,945.4264687647924,22996.768803110743,8.0,2.0,6.0,0.25,672.3293015432522,9819.05306751915,95.0,49.0,46.0,0.5157894736842106,88.35588661118119,4799.663027606168,0.0,0.0,0.0,0.0,41760.0,41799.0,41911.0,41923.0,41933.0,41958.0,41967.0,41975.0,42158.0,42253.0,0.05078972734724255,-0.16853173171824837,0.04413695378337223,-0.15981374088631609,0.01951395095437067
50,50,42615.640724672616,1661.6138289015123,15.179762099503757,42751.86846759466,-3981.9519204724047,15.28779240518434,42776.39745841511,21097.371015070195,10.355453866498593,42802.323450675955,-4043.827424272641,4.757758264056458,43040.69943934692,4767.71051755068,34.77115657165,0.9611377090505726,146.0,103.0,68.0,277.0,345.0,43.0,832.0,832.0,47.0,24.0,23.0,0.5106382978723404,79.68957629699435,1569.1641131940878,29.0,25.0,4.0,0.8620689655172413,618.206571896384,3764.9680168417817,25.0,11.0,14.0,0.44,946.4162822178736,22735.223275727833,12.0,4.0,8.0,0.3333333333333333,602.9469778707062,9680.857727160375,92.0,46.0,46.0,0.5,70.82605611630515,4951.815777893964,0.0,0.0,0.0,0.0,42596.0,42639.0,42742.0,42756.0,42765.0,42790.0,42798.0,42810.0,42995.0,43087.0,0.047959143641502354,-0.1552521437333282,0.044859441564630634,-0.1491030438765961,0.014855360000483141
51,51,43461.62902421728,1971.146202880083,15.215137409014268,43599.54796540086,-3681.686291043126,15.28779240518434,43623.76048053429,22615.71306408651,10.458311369627657,43648.44961036548,-3961.556903719945,4.0019554853325054,43885.57903882853,4514.769734112289,38.69344822468839,0.9665957057588443,147.0,110.0,66.0,281.0,347.0,37.0,846.0,848.0,48.0,24.0,24.0,0.5,85.47007693576747,1854.5724272332004,93.0,90.0,3.0,0.967741935483871,650.2995765120169,5469.864970269408,26.0,12.0,14.0,0.4615384615384615,982.4676413913778,23318.479818666732,8.0,2.0,6.0,0.25,656.6700001213644,9886.502179523604,106.0,56.0,50.0,0.5283018867924528,64.70352222328087,4552.941614029861,0.0,0.0,0.0,0.0,43441.0,43478.0,43588.0,43603.0,43612.0,43638.0,43646.0,43654.0,43841.0,43935.0,0.043360597408190905,-0.17663090364164857,0.043441815812189664,-0.1657605875873559,0.01433152210054033
52,52,44315.35752044844,1997.62956612503,15.9021092469244,44452.801439809555,-3831.893236724195,12.739827004320285,44479.07294073737,21225.245387779534,10.307850964188829,44504.240284824315,-4249.381207278459,4.558174302518212,44745.4108511954,4397.3744460722855,37.65176756189295,0.9589866642208008,140.0,95.0,79.0,280.0,359.0,45.0,853.0,855.0,45.0,23.0,22.0,0.5111111111111111,96.14852782282742,1805.415994598982,26.0,21.0,5.0,0.8076923076923077,513.2075242794073,2734.068959960137,24.0,11.0,13.0,0.4583333333333333,979.2890632781622,22924.129912631837,10.0,3.0,7.0,0.3,639.0344004971106,9979.292028279777,111.0,64.0,47.0,0.5765765765765766,49.09579596937768,4217.269058443653,0.0,0.0,0.0,0.0,44292.0,44337.0,44432.0,44458.0,44468.0,44492.0,44501.0,44511.0,44697.0,44791.0,0.04813130995519595,-0.1339305383983343,0.046137938355331774,-0.1503829309082825,0.011164797669943669
53,53,45162.25383352395,1717.978612504549,15.130207502799475,45301.12330450071,-3932.8603837180312,12.73982700432028,45325.22028195063,20547.566863825312,10.62711785863959,45350.27261455961,-3969.0576723549334,4.093793416097109,45600.95881659626,4834.479195711525,35.16042547896803,0.950151950695596,137.0,108.0,70.0,282.0,352.0,29.0,851.0,846.0,34.0,14.0,20.0,0.4117647058823529,88.06656371193442,1773.5231852693437,20.0,16.0,4.0,0.8,581.2793016689337,4085.0991503408927,25.0,11.0,14.0,0.44,920.3014418447526,22542.613787229573,10.0,3.0,7.0,0.3,607.9836026704975,9326.263749010412,92.0,54.0,38.0,0.5869565217391305,62.01227156686443,4683.897481448865,0.0,0.0,0.0,0.0,45149.0,45178.0,45286.0,45304.0,45314.0,45339.0,45347.0,45356.0,45548.0,45638.0,0.05126173461702582,-0.14780064506622692,0.04478882818310593,-0.1531808436307671,0.012827084171108453
54,54,46011.06256831027,2076.2985108291346,15.488909540368011,46144.45203460732,-3542.714545570763,15.28779240518434,46174.434330103446,21405.167873910406,10.095581676326653,46199.06713200115,-4213.7989976489025,4.259573097164403,46439.995337073466,4522.959625784342,35.090477490489086,0.9627843129463108,150.0,106.0,67.0,280.0,347.0,44.0,853.0,849.0,44.0,23.0,21.0,0.5227272727272727,82.79580716918149,1848.4195049645807,83.0,73.0,10.0,0.8795180722891566,352.6539374811355,119.34548045173004,25.0,11.0,14.0,0.44,971.9679131708224,23148.209101885262,9.0,3.0,6.0,0.3333333333333333,656.3418874179174,10191.653627579606,98.0,50.0,48.0,0.5102040816326531,67.90624416045772,4504.426755446395,0.0,0.0,0.0,0.0,45988.0,46032.0,46138.0,46153.0,46163.0,46188.0,46196.0,46205.0,46395.0,46485.0,0.03987663947999384,-0.09954342438400432,0.045408095787723354,-0.1557601318392559,0.015013674624318995
55,55,46865.49174327705,1897.2799223927937,14.346729345417437,46998.027373699,-3494.219035941208,17.8357578060484,47028.344970357095,21702.972895203267,9.877256527535968,47053.96729717445,-4232.265001619023,4.929936695203139,47291.35631047801,4236.332486294533,35.741328372996406,0.9589794534890312,144.0,112.0,71.0,276.0,347.0,32.0,845.0,854.0,37.0,19.0,18.0,0.5135135135135135,83.0995410455858,1757.8278319270853,89.0,79.0,10.0,0.8876404494382022,320.8452744254221,14.752181405867988,24.0,11.0,13.0,0.4583333333333333,994.4389303131908,23065.03303034813,11.0,4.0,7.0,0.3636363636363636,624.9069871470213,10178.662605361224,93.0,46.0,47.0,0.4946236559139785,76.77233104180876,4056.188952112776,0.0,0.0,0.0,0.0,46846.0,46878.0,46990.0,47008.0,47017.0,47041.0,47050.0,47061.0,47247.0,47337.0,0.04379930450156406,-0.0918217407452818,0.04582040143140846,-0.1476530857372985,0.018122357319729773
56,56,47705.42642962767,2163.806881934051,16.166963153961103,47841.54796540086,-3304.77096585513,15.287792405176388,47865.61162974954,21312.096372120985,10.409481386574944,47890.83676649018,-3744.3715226788886,3.9097556283333503,48124.99137183005,5001.818582507151,42.143819571809345,0.9675702632649378,146.0,103.0,66.0,281.0,347.0,43.0,847.0,838.0,44.0,21.0,23.0,0.4772727272727273,86.61359005897002,1993.92354091483,14.0,11.0,3.0,0.7857142857142857,619.1107812046123,5037.780232541225,25.0,12.0,13.0,0.48,916.8708632755922,21961.52002125875,9.0,3.0,6.0,0.3333333333333333,622.7351759046614,8993.031587621806,105.0,52.0,53.0,0.4952380952380952,83.94080348679327,5169.555403310949,0.0,0.0,0.0,0.0,47685.0,47728.0,47831.0,47845.0,47854.0,47879.0,47888.0,47897.0,48079.0,48178.0,0.04002833653137898,-0.1873384835443244,0.04302114851896876,-0.16631233629806297,0.01678205678637751
57,57,48541.85976626856,1958.3297482926528,15.883435618950449,48676.45203459914,-3343.3817656167253,15.28779240518434,48705.79269130175,21550.960020505183,10.218765687091407,48730.91717450158,-4294.999608543242,4.67189242345855,48968.30682657593,4682.265871148594,38.79582599322325,0.9593028745324148,142.0,102.0,78.0,279.0,357.0,40.0,828.0,839.0,40.0,24.0,16.0,0.6,99.73671105199624,1878.692672620811,36.0,27.0,9.0,0.75,348.5833719022146,614.5321404463075,25.0,12.0,13.0,0.48,962.6332906065684,22450.83231656621,11.0,4.0,7.0,0.3636363636363636,643.0234827476742,10060.743287206258,93.0,44.0,49.0,0.4731182795698925,75.21487386874671,4830.8631091261395,0.0,0.0,0.0,0.0,48518.0,48558.0,48660.0,48685.0,48694.0,48719.0,48727.0,48738.0,48925.0,49017.0,0.05092947760148695,-0.10426071455166723,0.044667768382041804,-0.14971444501848788,0.0160637767992222
58,58,49383.16814680971,2284.9493430691577,17.417077210369452,49520.12330450071,-3587.3584050155223,12.739827004320285,49544.25032302996,21675.67032080493,10.446166235138916,49569.28038889888,-4051.746954330369,4.059225800971087,49805.75895950975,4722.262458161459,39.90855322596062,0.9678801869508826,150.0,99.0,67.0,280.0,347.0,51.0,849.0,839.0,51.0,25.0,26.0,0.4901960784313725,84.83006105745353,2371.801828088809,16.0,12.0,4.0,0.75,627.1501528596904,4555.164807052264,25.0,11.0,14.0,0.44,956.8388148257364,23474.564853813237,8.0,2.0,6.0,0.25,670.604189244092,9589.668120427508,97.0,47.0,50.0,0.4845360824742268,78.85595154778966,5010.30981231385,0.0,0.0,0.0,0.0,49358.0,49409.0,49508.0,49523.0,49533.0,49558.0,49567.0,49575.0,49764.0,49855.0,0.03712557624735316,-0.17482227367716183,0.04414344749962981,-0.16550988914235454,0.016698765103897045
59,59,51048.87669549929,2065.329689848859,12.739827004320285,51178.12330450071,-3659.9741580552545,12.739827004320285,51202.54534276439,21899.620616472075,10.565916043788777,51227.038886093775,-4022.6412198114785,4.3825784486906,51466.02792601731,4344.683685977476,36.48341035192256,0.9676327324963738,152.0,113.0,67.0,276.0,343.0,39.0,1665.0,1659.0,41.0,33.0,8.0,0.8048780487804879,80.98525377725703,1458.4399903034591,15.0,12.0,3.0,0.8,615.9576012349561,4524.436141336117,25.0,12.0,13.0,0.48,986.2601404633792,22937.695386960648,12.0,3.0,9.0,0.25,652.5187907588347,9762.206209171076,92.0,45.0,47.0,0.4891304347826087,100.44005555374072,4384.229771554497,0.0,0.0,0.0,0.0,51017.0,51056.0,51169.0,51181.0,51191.0,51216.0,51224.0,51236.0,51422.0,51512.0,0.03921178017015944,-0.1682956148417857,0.04503548978019972,-0.1622115309576167,0.023117921306426134
60,60,51872.40814945033,2119.57784997245,15.646354029106949,52008.12330450071,-3890.818704109311,12.739827004320285,52032.0275786389,21665.159025015073,10.419750494925086,52057.5440448994,-4453.524967804011,4.872128531336712,52303.10949479597,4620.328020820847,35.58591208768366,0.963208841745334,142.0,100.0,68.0,278.0,346.0,42.0,825.0,829.0,50.0,24.0,26.0,0.48,108.30411178666992,1861.0124444817136,31.0,27.0,4.0,0.8709677419354839,626.0744247259395,4824.1057695175405,25.0,11.0,14.0,0.44,988.0962500683564,23174.70086044001,11.0,4.0,7.0,0.3636363636363636,647.5123901009124,10246.364804487946,95.0,55.0,40.0,0.5789473684210527,74.06712136548734,4591.9805463297225,0.0,0.0,0.0,0.0,51855.0,51897.0,51997.0,52011.0,52021.0,52046.0,52054.0,52065.0,52250.0,52343.0,0.05109701999767437,-0.16091071631394885,0.045607615846598615,-0.14539323227824955,0.016030706268410914
61,61,53524.864256024506,2013.8954728389815,16.73872921506578,53658.56266639374,-3456.5632488221127,15.28779240518434,53685.20955652705,22405.44136448732,10.188199130847485,53710.01663539783,-3940.1950179335454,4.270302927301315,53948.6632721717,4729.5559801278105,37.71864073066858,0.97131696410727,142.0,101.0,70.0,278.0,348.0,41.0,1645.0,1653.0,52.0,24.0,28.0,0.4615384615384615,114.30113037084024,1769.7038970114966,17.0,12.0,5.0,0.7058823529411765,523.9564379413711,2747.486244109141,24.0,11.0,13.0,0.4583333333333333,1010.8175827593952,23909.68789351217,10.0,3.0,7.0,0.3,647.2093405156157,10030.308886882103,96.0,49.0,47.0,0.5104166666666666,65.50811195056046,4779.702610157401,0.0,0.0,0.0,0.0,53505.0,53546.0,53647.0,53664.0,53674.0,53698.0,53707.0,53717.0,53905.0,53995.0,0.05675623780498912,-0.1515830610418944,0.04511482573878431,-0.16425819980226458,0.013850795344384567
62,62,54356.66768816355,2249.075074076435,17.56796480908894,54493.12330450071,-3291.682297956383,12.739827004136451,54517.55863059542,22166.46887097676,10.313266515920972,54542.331311866415,-4287.948947092471,4.355902857353247,54776.83444013332,4480.516766470422,39.084492894321016,0.9705624640840426,152.0,100.0,65.0,280.0,345.0,52.0,832.0,833.0,52.0,25.0,27.0,0.4807692307692308,88.56806856245662,2062.687962258129,14.0,10.0,4.0,0.7142857142857143,632.5346054891216,4786.815218414781,25.0,12.0,13.0,0.48,1003.9665194099848,22843.85537175846,10.0,3.0,7.0,0.3,679.9615514269764,10082.888084213226,106.0,53.0,53.0,0.5,94.81655656071068,4372.643987247921,0.0,0.0,0.0,0.0,54332.0,54384.0,54484.0,54496.0,54506.0,54531.0,54539.0,54549.0,54729.0,54829.0,0.039379774193987895,-0.19216149926796586,0.04529212682695299,-0.15857501099401797,0.0211619689206974
63,63,56007.02718869223,1893.3707585754069,15.369721719474343,56143.12330450071,-3715.490337969112,12.739827004320004,56167.63082079862,21907.852274805955,10.730818774197616,56192.09429591987,-3967.7961234113536,4.047042908208876,56431.412323507946,4678.998226660647,37.94955062282586,0.9717045838520368,140.0,108.0,68.0,281.0,349.0,32.0,1658.0,1649.0,49.0,24.0,25.0,0.4897959183673469,100.01086365747598,1807.4634916533496,27.0,24.0,3.0,0.8888888888888888,605.3907737041328,4524.5331849194445,26.0,12.0,14.0,0.4615384615384615,963.4896133712708,22933.07821729383,9.0,3.0,6.0,0.3333333333333333,645.1334571831634,9555.486699797731,99.0,48.0,51.0,0.4848484848484848,71.83351649187115,4691.319430218025,0.0,0.0,0.0,0.0,55990.0,56022.0,56130.0,56146.0,56156.0,56182.0,56190.0,56198.0,56388.0,56479.0,0.05282159513899183,-0.16293697968140583,0.0439791907159829,-0.16259239061620517,0.015352328214737965
64,64,56842.395017331815,2392.9010776308696,16.234048278304922,56980.12330450071,-4133.337028563266,12.739827004314774,57004.18985319001,22271.598475166524,10.517607969107724,57028.659836807834,-4150.223122280572,3.94032654200492,57263.89674832697,4804.303175402579,41.05717448229487,0.9663629489900676,152.0,109.0,65.0,283.0,348.0,43.0,828.0,838.0,51.0,25.0,26.0,0.4901960784313725,99.95880562671756,2284.6840785668433,26.0,22.0,4.0,0.8461538461538461,646.3703798700949,4478.76253581561,25.0,11.0,14.0,0.44,1003.2314572677784,24338.486197041915,9.0,3.0,6.0,0.3333333333333333,658.4752030781412,9575.269480929604,105.0,51.0,54.0,0.4857142857142857,99.3163162178502,4899.6112791235355,0.0,0.0,0.0,0.0,56818.0,56861.0,56970.0,56983.0,56993.0,57018.0,57026.0,57035.0,57218.0,57318.0,0.04177306223025458,-0.15637979080906717,0.04504532794924489,-0.15866019336240053,0.020672366541382547
65,65,58496.99684740048,2236.978585253652,17.13074383477709,58634.12330450071,-3282.8474653073267,12.739827004320285,58658.617168962104,21594.15429579332,10.554502712724736,58683.23977263365,-3861.737015740592,3.8800033504065983,58928.68483389583,4979.535059356,39.75962295134519,0.9692799774789864,150.0,98.0,66.0,282.0,348.0,52.0,1657.0,1653.0,52.0,25.0,27.0,0.4807692307692308,70.88459767114097,2123.145633178029,28.0,25.0,3.0,0.8928571428571429,578.3816845278084,4743.126873249865,25.0,12.0,13.0,0.48,946.4091534825624,22575.77454996272,8.0,2.0,6.0,0.25,635.4301298937257,9474.249857616069,105.0,63.0,42.0,0.6,113.56036448853128,5132.884720322057,0.0,0.0,0.0,0.0,58472.0,58524.0,58622.0,58637.0,58647.0,58672.0,58681.0,58688.0,58870.0,58970.0,0.031687651432346337,-0.17618292980105388,0.04382709971035675,-0.16454515864329639,0.022805415191356836
66,66,59330.41964433329,2307.265255736422,18.018747530602003,59467.54796540086,-3082.8623806420132,15.287792405169268,59492.34266143794,23077.71652060144,10.457546863934953,59516.73467602873,-3796.95209176718,3.851120175560782,59761.68483389583,4694.752806438442,38.42826066658999,0.9743967888350394,152.0,102.0,65.0,280.0,345.0,50.0,831.0,834.0,54.0,25.0,29.0,0.4629629629629629,99.54207464553512,2015.8752362367532,18.0,15.0,3.0,0.8333333333333334,638.4917307982212,5483.457480973751,25.0,11.0,14.0,0.44,1000.7484725900412,24880.957006086785,9.0,3.0,6.0,0.3333333333333333,656.0590950626505,9533.514727198366,105.0,63.0,42.0,0.6,57.3039023525828,4754.5743501406,0.0,0.0,0.0,0.0,59306.0,59356.0,59458.0,59471.0,59481.0,59506.0,59514.0,59523.0,59699.0,59803.0,0.04314288285581787,-0.20711003345704124,0.04336427617076736,-0.17278571844115817,0.01220594666326106
67,67,60162.178051898714,1754.0428785490976,14.35985963000355,60293.45203459914,-3584.45458546715,15.28779240518434,60322.58694780226,20497.055699280063,10.09410915134734,60348.03147745171,-4671.453475560349,4.268560045147752,60591.835512095546,4310.607997161748,35.06769914606154,0.9506764486357712,74.0,37.0,141.0,283.0,424.0,37.0,839.0,830.0,38.0,25.0,13.0,0.6578947368421053,113.99244591915904,1328.434143585272,99.0,90.0,9.0,0.9090909090909092,322.3741942627338,349.0292106574568,25.0,12.0,13.0,0.48,933.7302755603482,21228.957354348568,9.0,4.0,5.0,0.4444444444444444,663.8077856417499,10197.45929534866,93.0,49.0,44.0,0.5268817204301075,92.63212591820776,4373.125847165256,0.0,0.0,0.0,0.0,60138.0,60175.0,60212.0,60302.0,60311.0,60336.0,60344.0,60353.0,60543.0,60636.0,0.06498840325582626,-0.08993674953220808,0.045554361038943975,-0.1420987684271275,0.021489341173959665
68,68,60989.178051898714,2097.130225843713,16.470970538083108,61124.12330450071,-3937.75977061916,12.739827004320285,61148.41174604739,21388.76818188196,10.743548168218966,61173.35598488519,-3714.7016183493497,4.096698036162717,61407.888779621615,4749.590599073134,40.549714444547405,0.9705034119273472,142.0,110.0,67.0,280.0,347.0,32.0,827.0,826.0,51.0,25.0,26.0,0.4901960784313725,114.12128709081568,1686.555637424108,37.0,33.0,4.0,0.8918918918918919,607.2423240369113,4788.212457712589,26.0,11.0,15.0,0.4230769230769231,933.7515517898496,23574.691060438425,9.0,2.0,7.0,0.2222222222222222,616.7134801446686,9077.501221146103,103.0,51.0,52.0,0.4951456310679611,70.83296981636994,4828.212232414969,0.0,0.0,0.0,0.0,60970.0,61002.0,61112.0,61127.0,61137.0,61163.0,61171.0,61179.0,61361.0,61459.0,0.054417835232384124,-0.15421009899276578,0.04365616307819044,-0.166019654741128,0.014913489560593442
69,69,61831.44648803857,1974.7749088428056,16.488994260886454,61967.54796540086,-3501.048695651082,15.28779240518434,61992.23860720012,22610.25573893565,10.498825995058914,62016.805356554294,-3853.619660381181,4.043807321308105,62256.50878739,4805.078299145196,36.4447849200406,0.9650254421662936,152.0,102.0,65.0,282.0,347.0,50.0,844.0,844.0,50.0,25.0,25.0,0.5,83.35965775644846,1922.5834067986095,15.0,11.0,4.0,0.7333333333333333,649.1285318208844,5234.221794043675,25.0,11.0,14.0,0.44,979.4411936877788,23963.685012271177,9.0,3.0,6.0,0.3333333333333333,622.5423493021118,9512.78651615919,90.0,42.0,48.0,0.4666666666666667,76.55257230457296,5314.998749518457,0.0,0.0,0.0,0.0,61806.0,61856.0,61958.0,61971.0,61981.0,62006.0,62014.0,62023.0,62215.0,62305.0,0.04221223258568553,-0.18540974098052854,0.04331844827394618,-0.1615474292137416,0.015931597268288293
70,70,62672.753390998565,1930.636530483054,15.728129982470824,62810.12330448631,-4002.668916921791,12.739827004090843,62833.31171954079,21333.411749959825,10.364701453288337,62858.70425309473,-4156.022974891377,4.325529225005568,63105.10949479597,4482.158630869115,36.231719393714,0.9614080151849717,135.0,97.0,81.0,280.0,361.0,38.0,840.0,841.0,40.0,25.0,15.0,0.625,91.71738675652072,1575.771394447344,44.0,40.0,4.0,0.9090909090909092,621.2851832086326,5235.7839546666155,25.0,11.0,14.0,0.44,972.903740758471,23094.24547962669,9.0,3.0,6.0,0.3333333333333333,630.7129468641408,9668.138527270234,102.0,60.0,42.0,0.5882352941176471,66.01196289582177,4166.0447217378405,0.0,0.0,0.0,0.0,62649.0,62687.0,62784.0,62813.0,62822.0,62847.0,62856.0,62865.0,63053.0,63145.0,0.047506294068502174,-0.1552177299956213,0.045604695215255626,-0.15175877291213127,0.014727716783870652
71,71,63506.26171315518,1198.0159760702822,11.703312236257672,63640.67665843257,-3689.390192950479,15.28779240518434,63666.37724456021,20413.251325549147,10.294866265530308,63692.408438726525,-4257.323511525167,4.752413831832271,63932.835512095546,4540.520252857124,34.75359350197127,0.9464144870326852,139.0,110.0,67.0,278.0,345.0,29.0,831.0,834.0,30.0,14.0,16.0,0.4666666666666667,63.41354296544221,1320.9855016257245,15.0,10.0,5.0,0.6666666666666666,549.5873687963574,2607.482487954175,25.0,11.0,14.0,0.44,907.047074656306,22070.27983510816,10.0,3.0,7.0,0.3,614.8720068366886,9996.991336275318,91.0,46.0,45.0,0.5054945054945055,76.35827945145253,4755.72115046352,0.0,0.0,0.0,0.0,63493.0,63522.0,63632.0,63646.0,63655.0,63680.0,63689.0,63699.0,63888.0,63977.0,0.052932134656042365,-0.14896428408317566,0.044434228540607315,-0.14442689289929328,0.01681707716277756
72,72,64358.90918647107,2079.344463923717,15.140133887854033,64494.54796540086,-3491.0966899110113,15.28779240518434,64519.87292134794,22165.27560966815,10.567354927032342,64544.63632553574,-3829.614226350569,4.352167805286512,64787.26017299569,4433.669711388929,35.827056592489285,0.965894462996918,142.0,107.0,69.0,277.0,346.0,35.0,852.0,853.0,35.0,17.0,18.0,0.4857142857142857,103.75239280822076,2090.0440134953506,18.0,14.0,4.0,0.7777777777777778,602.5371662995457,4238.312853113093,26.0,12.0,14.0,0.4615384615384615,963.583237724709,23377.541542002233,11.0,3.0,8.0,0.2727272727272727,611.060546672419,9357.902400720988,99.0,52.0,47.0,0.5252525252525253,92.0169991918397,4206.432490653069,0.0,0.0,0.0,0.0,64342.0,64377.0,64484.0,64498.0,64508.0,64534.0,64542.0,64553.0,64742.0,64830.0,0.04989668359827227,-0.1725925174289299,0.04347264860105817,-0.1595619063841658,0.020754139388297756
73,73,65211.407335364725,1675.5647184277732,13.74887628056945,65348.11538611025,-4559.493866698202,12.739827004320285,65372.99268180411,21621.098024714844,10.310853596114924,65398.548226849736,-4562.94016926218,5.018542749357386,65638.27264871572,4334.979552685685,34.4215277565843,0.9532863182150428,132.0,101.0,78.0,279.0,357.0,31.0,853.0,852.0,38.0,21.0,17.0,0.5526315789473685,118.81111896240458,1686.46361087142,28.0,23.0,5.0,0.8214285714285714,600.9018494150395,3007.376471575718,25.0,11.0,14.0,0.44,1007.5585834856506,23184.201692056544,13.0,5.0,8.0,0.3846153846153846,643.8150702549915,9968.6136568041,91.0,44.0,47.0,0.4835164835164835,58.315102875732144,4399.243083780211,0.0,0.0,0.0,0.0,65196.0,65227.0,65328.0,65352.0,65362.0,65387.0,65394.0,65406.0,65594.0,65685.0,0.07090810498438294,-0.13179134943111304,0.04660071298571059,-0.14109654003179609,0.013452220977513888
74,74,66906.97296654033,2720.937129407636,19.960151047761737,67042.69864360057,-3365.043799675244,8.277737681508933,67067.71689050175,21506.769630394258,10.672036604987689,67091.72601729959,-3651.828840024132,3.634559993757038,67336.41085119541,4924.6431610227,41.96362485574658,0.9717942557264646,156.0,102.0,60.0,286.0,346.0,54.0,1692.0,1696.0,57.0,29.0,28.0,0.5087719298245614,92.17027741807271,2532.7807376650667,11.0,9.0,2.0,0.8181818181818182,622.0969640405601,5139.166045719101,26.0,12.0,14.0,0.4615384615384615,950.0316611843724,22870.37070989791,6.0,2.0,4.0,0.3333333333333333,632.385007778477,8932.515398822143,96.0,49.0,47.0,0.5104166666666666,82.01047136569481,5302.351350830433,0.0,0.0,0.0,0.0,66880.0,66934.0,67036.0,67045.0,67056.0,67082.0,67090.0,67096.0,67287.0,67382.0,0.03387446053857875,-0.184870391315738,0.04417361033345279,-0.17316939962999417,0.016653078950935343
75,75,67756.61934584669,2145.274070424352,15.595349023268453,67894.12330450071,-3917.049803375433,12.73982700431966,67918.59153719894,21978.9363916016,10.558436904574096,67943.24567093438,-4243.457369132389,4.305828327063188,68182.75483030427,4650.311840420799,35.41282317682657,0.9600160278213202,149.0,114.0,65.0,279.0,344.0,35.0,851.0,851.0,36.0,22.0,14.0,0.6111111111111112,92.0498645010135,2122.9345519896833,14.0,10.0,4.0,0.7142857142857143,641.0250449076009,4473.848233440412,25.0,12.0,13.0,0.48,971.7202331576012,22814.822320908184,10.0,3.0,7.0,0.3,664.3441819797212,9948.716850238878,91.0,44.0,47.0,0.4835164835164835,82.92187099760159,4705.415976869719,0.0,0.0,0.0,0.0,67736.0,67771.0,67885.0,67897.0,67907.0,67932.0,67940.0,67950.0,68140.0,68229.0,0.04290820728691571,-0.16364996032350965,0.04421143115591829,-0.15655728906628605,0.017831464607779533
76,76,68595.67030449549,1914.9173818148452,15.422302548415749,68734.12330450071,-3674.7152961910297,12.739827004320285,68757.90335907493,20279.12123741961,10.51143497514696,68783.59516144442,-4210.182953712112,4.470761665916831,69022.45383174553,4517.813702402922,39.62621995321253,0.963428285178374,148.0,113.0,66.0,284.0,350.0,35.0,839.0,839.0,38.0,23.0,15.0,0.6052631578947368,104.63220634448712,1629.6163543758776,18.0,14.0,4.0,0.7777777777777778,593.6984251530865,4526.295224805167,25.0,12.0,13.0,0.48,909.6960321332808,21850.0438061052,10.0,4.0,6.0,0.4,629.5719089589435,9558.105340346689,97.0,45.0,52.0,0.4639175257731959,66.6159884982021,4793.496796753092,0.0,0.0,0.0,0.0,68576.0,68611.0,68724.0,68737.0,68746.0,68771.0,68780.0,68790.0,68978.0,69074.0,0.05464058519606883,-0.16156310824092293,0.04485875011460969,-0.14953552277433713,0.014745182711445268
77,77,69447.95776464448,1619.3294247482104,12.573985365581112,69585.54796540059,-4081.197701815576,15.28779239916429,69609.4054647504,21538.04590051841,10.53712381994882,69634.51186543805,-4089.368880692691,4.1241097409268805,69877.24242557348,4690.696250469516,33.43429563956156,0.9537110189275136,145.0,112.0,67.0,278.0,345.0,33.0,854.0,852.0,34.0,20.0,14.0,0.5882352941176471,96.4082540087677,1447.0377307597512,92.0,88.0,4.0,0.9565217391304348,678.7671712316125,5258.1957889732985,25.0,11.0,14.0,0.44,942.196084424451,23217.910870024447,10.0,4.0,6.0,0.4,624.5312960426526,9567.210173310805,80.0,38.0,42.0,0.475,86.07679550221899,5392.6000697534,0.0,0.0,0.0,0.0,69429.0,69462.0,69574.0,69589.0,69598.0,69623.0,69631.0,69641.0,69839.0,69919.0,0.05953591192462783,-0.1663156800587371,0.04374566238628792,-0.15272070440778243,0.018350537085747798
78,78,70305.06276328664,2120.1304056407844,17.401461853073517,70440.12330450071,-3498.799643940912,12.739827004320285,70464.84792118412,22421.247670859288,10.397567821077844,70489.17143170339,-4084.8661657767766,3.909895203330517,70726.27666774417,4668.714029476898,42.29111400878532,0.9750910460501844,150.0,102.0,64.0,285.0,349.0,48.0,863.0,855.0,48.0,24.0,24.0,0.5,83.1692187414861,2066.920709348923,16.0,12.0,4.0,0.75,626.1719268227193,4308.667597545033,25.0,12.0,13.0,0.48,1014.639284268018,23782.186891825502,9.0,3.0,6.0,0.3333333333333333,657.3086131384975,10026.126225294369,106.0,52.0,54.0,0.490566037735849,105.14754599739764,4727.348429405524,0.0,0.0,0.0,0.0,70281.0,70329.0,70431.0,70443.0,70453.0,70478.0,70486.0,70495.0,70682.0,70780.0,0.03922835053929109,-0.17896764334794077,0.0452534711342909,-0.16091313312672606,0.02252173624975244
79,79,71152.82686674655,1772.873385160662,15.288495068113086,71289.32040877064,-3654.150621449275,15.28779240518434,71315.15396713396,20833.217076185298,10.218985131950143,71341.09629517574,-4206.413206680338,4.738633168283082,71591.10949479598,4496.014012328424,35.681942594874236,0.9532180782436482,150.0,111.0,69.0,282.0,351.0,39.0,839.0,850.0,43.0,24.0,19.0,0.5581395348837209,83.05718841711851,1566.5557006248205,15.0,9.0,6.0,0.6,515.4891148272266,2088.4425323825835,25.0,11.0,14.0,0.44,949.2330607662652,22373.872973205365,12.0,4.0,8.0,0.3333333333333333,634.1843612481487,9677.709658914471,100.0,59.0,41.0,0.59,75.6012734271611,4217.550698150313,0.0,0.0,0.0,0.0,71130.0,71169.0,71280.0,71295.0,71304.0,71329.0,71337.0,71349.0,71535.0,71631.0,0.04684891155359731,-0.14106947639251335,0.04556344117641557,-0.15076606364799836,0.01681517744825894
80,80,71996.05316065149,1657.6497258169554,13.463584264668176,72126.45203459918,-3544.000364150477,15.28779240518434,72155.70554911275,20439.312512820692,10.362907310133105,72181.6138912857,-4284.85815199478,4.69639163717235,72422.05485834487,4475.222550553718,37.18160592149488,0.9540900528453632,133.0,104.0,73.0,282.0,355.0,29.0,844.0,840.0,29.0,14.0,15.0,0.4827586206896552,89.15135981786553,1714.7699669744643,72.0,63.0,9.0,0.875,344.2589351403448,436.30992132798474,25.0,12.0,13.0,0.48,911.1166333460004,21610.391728034087,11.0,4.0,7.0,0.3636363636363636,605.981524842926,9618.357235005744,94.0,46.0,48.0,0.4893617021276595,89.99647132852836,4624.6377867295,0.0,0.0,0.0,0.0,71982.0,72011.0,72115.0,72135.0,72144.0,72169.0,72178.0,72188.0,72380.0,72470.0,0.05378178419082367,-0.09713851573569639,0.04457667706653522,-0.14142394061768795,0.02010994320659944
81,81,72845.67417282672,1980.7740363764524,15.546495064804107,72981.54796540085,-3546.302818500504,15.28779240518434,73006.27838184864,22279.916437550197,10.21113370832454,73030.95107113474,-4245.899814643012,4.145564951459522,73273.39462044506,4548.650060205278,36.07493160393919,0.9667518686106789,149.0,103.0,64.0,284.0,348.0,46.0,855.0,851.0,46.0,22.0,24.0,0.4782608695652174,77.70667173951357,1988.7697439249348,18.0,14.0,4.0,0.7777777777777778,630.7556243535673,4227.330940206592,25.0,11.0,14.0,0.44,1002.6769991862336,23826.014801145495,9.0,3.0,6.0,0.3333333333333333,662.0420337866542,10205.7278787932,92.0,41.0,51.0,0.4456521739130434,85.65031669307294,4744.674716288413,0.0,0.0,0.0,0.0,72824.0,72870.0,72973.0,72985.0,72995.0,73020.0,73028.0,73037.0,73233.0,73321.0,0.03923045754460059,-0.1778628776603663,0.04500362476657851,-0.1559250247741226,0.018829832051139934
82,82,73687.56321020197,2215.353555525525,16.399942254406717,73824.69864360057,-3953.5325805555167,10.191861603456228,73848.13051241162,21529.868416078494,10.632520586284096,73873.09841612054,-4201.413831288071,4.639692907605608,74110.74971160093,4595.588387881872,39.07359811052157,0.968469064670218,149.0,104.0,66.0,276.0,342.0,45.0,838.0,841.0,45.0,23.0,22.0,0.5111111111111111,73.5178872185715,2338.4192548117467,37.0,35.0,2.0,0.945945945945946,664.66598937552,6006.851635928564,25.0,11.0,14.0,0.44,976.5874943226702,23217.94900744928,10.0,3.0,7.0,0.3,639.1172464649704,9920.401310963414,96.0,46.0,50.0,0.4791666666666667,116.4983875260689,4959.283241813246,0.0,0.0,0.0,0.0,73665.0,73710.0,73814.0,73827.0,73837.0,73862.0,73870.0,73880.0,74070.0,74156.0,0.03318562268997809,-0.16811951737656525,0.045359659216187086,-0.15211956549136926,0.02535004828397252
83,83,75369.95545841247,1617.8232435713107,14.048676001985015,75507.69864360057,-4487.076907235536,10.191861603449532,75531.06436379449,21185.06163269595,10.876679996647724,75555.91375210167,-4171.992118226151,4.594350126557982,75800.83551209555,4759.926412055218,36.354493285473495,0.961232693051024,140.0,115.0,66.0,282.0,348.0,25.0,1682.0,1685.0,25.0,13.0,12.0,0.52,98.6706417701002,1692.3800420746832,26.0,23.0,3.0,0.8846153846153846,670.5007627710601,5699.8401443968605,25.0,11.0,14.0,0.44,969.3461186966682,23448.993271710544,10.0,3.0,7.0,0.3,620.052831509132,9881.415578146516,97.0,52.0,45.0,0.5360824742268041,82.65683210323401,4816.521161034132,0.0,0.0,0.0,0.0,75357.0,75382.0,75497.0,75510.0,75520.0,75545.0,75553.0,75563.0,75750.0,75845.0,0.06098975407986279,-0.1494293003290982,0.045756115110877404,-0.1486227236145322,0.017365149153124163
84,84,76211.05350258772,1886.9849498470455,15.93796609150784,76348.13658569875,-4157.009743741865,12.739827004320285,76374.14525242415,21805.212990718726,10.558417129280846,76399.21370116337,-4209.407052245505,4.727083493498061,76639.21801008383,4545.606631792388,36.16673080798983,0.9626324983509796,135.0,97.0,84.0,278.0,362.0,38.0,841.0,842.0,38.0,23.0,15.0,0.6052631578947368,87.47908793685052,1715.5801284747145,30.0,25.0,5.0,0.8333333333333334,543.1034987085369,2689.629024901007,26.0,12.0,14.0,0.4615384615384615,989.0981828360958,23548.547682846292,11.0,3.0,8.0,0.2727272727272727,651.3020046234036,9991.306070118537,92.0,45.0,47.0,0.4891304347826087,85.76357845602537,4484.415603329283,0.0,0.0,0.0,0.0,76188.0,76226.0,76323.0,76353.0,76362.0,76388.0,76396.0,76407.0,76596.0,76685.0,0.04635918688378588,-0.1306476366879215,0.04536062927966355,-0.1547253559799989,0.018867355977568993
85,85,77883.75339099858,1720.58437639839,14.051311841144308,78019.12330450055,-4367.8003585979595,12.73982699940814,78042.60159987235,20998.27465521527,10.680931451980337,78068.08365742916,-4026.373106123612,4.518326410391138,78304.63202146518,4632.97355476835,38.17556545649452,0.9568761096849696,142.0,111.0,66.0,276.0,342.0,31.0,1677.0,1668.0,31.0,17.0,14.0,0.5483870967741935,84.79218455438725,1598.848541384664,34.0,31.0,3.0,0.9117647058823528,639.8238628672996,4685.254854677838,26.0,12.0,14.0,0.4615384615384615,946.1523384571408,22402.708514329075,11.0,4.0,7.0,0.3636363636363636,597.2433636932906,9259.24616125258,94.0,47.0,47.0,0.5,98.93459610909844,4908.498776587523,0.0,0.0,0.0,0.0,77867.0,77898.0,78009.0,78022.0,78031.0,78057.0,78064.0,78075.0,78260.0,78351.0,0.049281038301578865,-0.146486517317078,0.04505857523975895,-0.14833284148082496,0.021354448701152835
86,86,78734.27450287458,1912.0921714935123,15.790645658334832,78870.96491520382,-4030.494006627025,12.739827004320285,78895.62882478043,22234.84120726175,10.496231054031242,78920.31872738028,-4397.2094833714755,4.263539843214698,79161.34934845014,4768.587376487513,36.458354192745574,0.9650274815064568,150.0,108.0,66.0,284.0,350.0,42.0,846.0,853.0,42.0,24.0,18.0,0.5714285714285714,73.52692918599008,1896.9211028158493,37.0,33.0,4.0,0.8918918918918919,615.899052687024,4325.62172413209,25.0,12.0,13.0,0.48,1003.619895296874,23070.034382762155,10.0,3.0,7.0,0.3,672.5175195334601,10491.094893343214,94.0,44.0,50.0,0.4680851063829787,72.36359038208121,4870.949129684317,0.0,0.0,0.0,0.0,78710.0,78752.0,78860.0,78874.0,78884.0,78909.0,78917.0,78926.0,79122.0,79210.0,0.03845365316702232,-0.15280981727657936,0.04513726389775603,-0.15294188782150545,0.015175058076713571
87,87,79590.47626048628,1653.479473179911,12.734863664568326,79728.05752507344,-3773.090727276668,12.739827004320285,79754.82224424821,20921.34833003067,10.109562835240416,79780.79362880843,-4230.101249292902,5.003059913369726,80027.10949479598,4166.816006073611,33.10977366276327,0.9526763033830732,142.0,117.0,68.0,279.0,347.0,25.0,853.0,859.0,37.0,19.0,18.0,0.5135135135135135,90.05139816210425,1566.4302449264885,14.0,8.0,6.0,0.5714285714285714,487.2015983549736,1870.632119066876,25.0,12.0,13.0,0.48,963.2785228340122,21753.432308508654,11.0,4.0,7.0,0.3636363636363636,613.3973285332569,9810.488143353869,93.0,50.0,43.0,0.5376344086021505,86.62581110132886,4177.668009091529,0.0,0.0,0.0,0.0,79578.0,79603.0,79720.0,79734.0,79743.0,79768.0,79777.0,79788.0,79978.0,80067.0,0.054461757537830634,-0.1291253334654438,0.0460428509500659,-0.1450077178733704,0.02078944954014332
88,88,80459.34059890671,1581.309728487516,14.311559688849426,80592.00296497994,-3406.778165195986,15.28779240518434,80620.20120012296,20612.493453962215,10.188466160261948,80645.59792347843,-4337.7359562471665,4.249796573916512,80887.54137692267,4491.965586411113,35.161055827537055,0.9585580523791872,149.0,112.0,66.0,282.0,348.0,37.0,866.0,865.0,37.0,22.0,15.0,0.5945945945945946,92.5900450155549,1445.5740457950044,54.0,46.0,8.0,0.8518518518518519,408.6098963687953,1382.3302507498445,25.0,11.0,14.0,0.44,933.8889425171158,22080.94746210787,10.0,4.0,6.0,0.4,643.2699243621731,9885.179654453876,99.0,48.0,51.0,0.4848484848484848,77.03210684387072,4165.377363486113,0.0,0.0,0.0,0.0,80437.0,80474.0,80586.0,80600.0,80609.0,80634.0,80642.0,80652.0,80847.0,80934.0,0.05855275746903487,-0.11994027099950276,0.04530693700900121,-0.14829623814140688,0.017148863979925558
89,89,81340.75339099858,1822.2302689505464,14.63179012523013,81477.54796540085,-3709.010571276161,15.28779240518434,81502.29610588582,22038.539394866068,10.423083609997684,81527.6674412704,-3886.094354165213,4.366135045080786,81767.97137147818,4643.2278768947845,36.75937678950142,0.9617601868032444,147.0,110.0,70.0,279.0,349.0,37.0,892.0,883.0,49.0,24.0,25.0,0.4897959183673469,83.87449526607706,1672.7954931816612,29.0,25.0,4.0,0.8620689655172413,615.1810339292359,4570.895636263184,25.0,11.0,14.0,0.44,970.1598941473954,23806.55073545809,10.0,3.0,7.0,0.3,618.0765448635243,9365.660107866106,100.0,49.0,51.0,0.49,78.24650236949584,4498.472175527322,0.0,0.0,0.0,0.0,81318.0,81355.0,81465.0,81481.0,81491.0,81516.0,81525.0,81535.0,81721.0,81814.0,0.04602848316990246,-0.16586122420178767,0.044021061321940266,-0.15904825990677618,0.016851747199154082
90,90,82213.36991350215,1850.1533356010432,15.837117495044186,82353.42994140848,-4112.818536873059,12.739827004320285,82378.08937941368,21497.860974028477,10.443595612178251,82403.34527507957,-4452.526584029307,4.898205682363429,82642.11675970834,4729.210960754597,37.97983866880064,0.9659841270592564,151.0,111.0,67.0,282.0,349.0,40.0,862.0,876.0,55.0,24.0,31.0,0.4363636363636363,115.1858106368702,1426.104158418385,20.0,16.0,4.0,0.8,575.1178494051344,3387.3892144773754,25.0,11.0,14.0,0.44,983.6760901659126,23152.095449154975,11.0,4.0,7.0,0.3636363636363636,653.4613565697547,10344.74402890059,100.0,49.0,51.0,0.49,83.3702783557016,5008.867671892791,0.0,0.0,0.0,0.0,82192.0,82232.0,82343.0,82357.0,82367.0,82392.0,82400.0,82410.0,82598.0,82692.0,0.062257440191815665,-0.13983545450619164,0.045756928624400804,-0.14676192140292757,0.017628792423842087
91,91,83915.49468021527,1998.122076997586,14.664934495572448,84052.1233045007,-3668.476553574177,12.739827004041018,84076.57733290533,21465.48027940196,10.7197382390427,84101.39108652553,-3992.6686194429094,4.1197162249783705,84356.80813839656,4832.92733568973,34.915541234828794,0.9506183097262492,146.0,108.0,68.0,284.0,352.0,38.0,1708.0,1699.0,38.0,22.0,16.0,0.5789473684210527,82.93189148010975,1934.008162723188,16.0,13.0,3.0,0.8125,595.2723534821542,4469.551051517112,26.0,12.0,14.0,0.4615384615384615,938.966398955342,22533.778107365353,11.0,3.0,8.0,0.2727272727272727,637.0962933419612,9371.764542140416,95.0,60.0,35.0,0.631578947368421,92.952120914269,4371.909007094009,0.0,0.0,0.0,0.0,83893.0,83931.0,84039.0,84055.0,84065.0,84091.0,84099.0,84107.0,84298.0,84391.0,0.04150491725947231,-0.16226690965277768,0.043743088285630574,-0.15956653408187285,0.01923308886269513
92,92,84767.99901463473,2081.122624694861,16.974820497153182,84905.12330450071,-3825.36480399686,12.739827004320285,84929.57867598916,22237.08636501468,10.508008086816917,84954.19313704374,-4172.346491096906,4.173909149961438,85197.98619029527,4898.612221959578,39.0830744477873,0.97018145604646,152.0,103.0,64.0,285.0,349.0,49.0,852.0,853.0,50.0,24.0,26.0,0.48,90.78532208473924,2072.854594440744,48.0,44.0,4.0,0.9166666666666666,629.4858817759904,4558.759241816904,25.0,12.0,13.0,0.48,1002.337089913178,23217.057863024595,8.0,2.0,6.0,0.25,677.0730835871085,9892.987289939249,102.0,54.0,48.0,0.5294117647058824,53.625911731316776,4980.536203177466,0.0,0.0,0.0,0.0,84744.0,84793.0,84896.0,84908.0,84918.0,84943.0,84952.0,84960.0,85148.0,85245.0,0.04362324497723934,-0.16455577808377492,0.04507501897776239,-0.16227633180318796,0.010947164074535574
93,93,85605.34925666533,1828.512545618624,14.649656061343132,85741.54796540085,-3561.735285828158,15.28779240518434,85765.253979436,21361.406980803244,10.307709859098322,85791.19318341622,-4414.891542308405,4.254472284603624,86031.98619029527,4306.404658440832,37.36028942406569,0.9598583691230288,142.0,103.0,65.0,282.0,347.0,39.0,838.0,835.0,39.0,15.0,24.0,0.3846153846153846,104.30213239187712,2042.4377661083736,71.0,68.0,3.0,0.9577464788732394,641.0352686245212,5238.773785932784,25.0,11.0,14.0,0.44,947.67993213049,22887.472422367675,11.0,4.0,7.0,0.3636363636363636,640.9261516198037,9617.057089496528,96.0,48.0,48.0,0.5,61.25024174413388,4477.00343485734,0.0,0.0,0.0,0.0,85590.0,85629.0,85732.0,85745.0,85754.0,85779.0,85787.0,85797.0,85989.0,86079.0,0.05704206549842923,-0.17997835807033333,0.04436411576176312,-0.14517370256499754,0.01422305765531798
94,94,86432.35437870146,1813.3621023067767,15.397395529543951,86569.12330450071,-4042.742788709799,12.739827004320285,86592.48340548879,20807.29032245374,10.641682329532468,86618.31053778068,-4323.3316921607775,4.3394397903386155,86859.79198360928,4740.076862143987,34.82978122829359,0.96567147451197,148.0,108.0,67.0,281.0,348.0,40.0,830.0,827.0,51.0,24.0,27.0,0.4705882352941176,86.36737882882842,1695.9213346857846,32.0,29.0,3.0,0.90625,631.9908327577374,4901.1252519972795,25.0,11.0,14.0,0.44,915.9993910565316,22957.522549500864,10.0,3.0,7.0,0.3,626.6064258171826,9682.508233761017,89.0,44.0,45.0,0.4943820224719101,70.48394343907627,4866.85544881502,0.0,0.0,0.0,0.0,86409.0,86449.0,86557.0,86572.0,86581.0,86606.0,86615.0,86624.0,86816.0,86905.0,0.04762831357231991,-0.15632724261427253,0.044023002364130544,-0.14493600547775878,0.014869789138228371
95,95,87270.34046926773,1927.874737192009,15.388253345240724,87407.12330450071,-3774.513748826989,12.739827004320285,87431.91471299616,21948.244110935542,10.497768362347742,87456.49675754741,-4291.72728561519,4.410641774004594,87698.98619029527,4809.3766280646405,35.51745871061577,0.9654078931989988,144.0,110.0,67.0,282.0,349.0,34.0,834.0,841.0,34.0,17.0,17.0,0.5,96.21585781944118,1943.283652658504,14.0,10.0,4.0,0.7142857142857143,609.9068525495247,4138.0726215865625,26.0,12.0,14.0,0.4615384615384615,988.5771921484017,23253.59237657074,12.0,3.0,9.0,0.25,662.9542350070682,9896.476728698588,96.0,48.0,48.0,0.5,109.9880052395424,4765.021083102826,0.0,0.0,0.0,0.0,87253.0,87287.0,87397.0,87410.0,87420.0,87446.0,87453.0,87464.0,87652.0,87746.0,0.04990773309244233,-0.16158554270442554,0.045041288366929125,-0.15447259131052596,0.02286949302280015
96,96,88099.82194810128,1496.2322002944102,12.257962912256824,88235.85289882589,-3743.054217474998,15.28779240518434,88263.89883164484,21858.107476921217,10.114828712090556,88289.62215478266,-4402.311119660912,5.096609843549525,88527.38060102289,4783.442414760127,36.421834360924336,0.9557905659967896,141.0,112.0,69.0,277.0,346.0,29.0,827.0,830.0,30.0,13.0,17.0,0.4333333333333333,126.34553489352768,1389.2326063779326,15.0,8.0,7.0,0.5333333333333333,446.84102167275546,582.6096787373144,25.0,12.0,13.0,0.48,1006.9599185450808,22665.53815483222,12.0,5.0,7.0,0.4166666666666667,639.6887915227303,10406.875548108725,94.0,44.0,50.0,0.4680851063829787,93.2322235026086,4671.471180348824,0.0,0.0,0.0,0.0,88087.0,88116.0,88228.0,88243.0,88252.0,88277.0,88285.0,88297.0,88485.0,88574.0,0.08444246479167268,-0.1193787200801454,0.04606802851565602,-0.1453074928452586,0.019490612704968432
97,97,89752.75294487715,1872.268733527521,15.66346622386147,89890.96756622852,-3902.4604014330826,12.739827004320285,89916.17784765529,21505.57805083706,10.523824983344582,89940.94096300611,-3978.108483670581,4.099668648308451,90182.2418407058,4852.773555918586,37.39635387594951,0.9629806873211434,151.0,113.0,68.0,279.0,347.0,38.0,1653.0,1653.0,38.0,23.0,15.0,0.6052631578947368,103.1095290428627,1816.7173120743464,33.0,29.0,4.0,0.8787878787878788,573.9912184485686,3678.4810336304326,25.0,11.0,14.0,0.44,977.712256322144,23478.601566611214,11.0,3.0,8.0,0.2727272727272727,630.0721289321879,9776.456792265351,92.0,45.0,47.0,0.4891304347826087,75.8167528141072,5204.599049885457,0.0,0.0,0.0,0.0,89730.0,89768.0,89881.0,89895.0,89905.0,89930.0,89938.0,89949.0,90137.0,90228.0,0.0550719708108329,-0.14708444401839016,0.045463193503142714,-0.1583848533840946,0.015623385666046348
98,98,90596.027373699,1885.9896396378017,16.55628094861102,90729.12330450072,-4068.792865793027,12.739827004320285,90753.36505244976,22266.70144987878,10.660164922753973,90777.95283882404,-4311.253143638242,4.278430588499605,91019.26111916592,4943.061651507708,36.14910615590307,0.96573491610013,152.0,112.0,66.0,282.0,348.0,40.0,850.0,838.0,42.0,31.0,11.0,0.7380952380952381,101.7013964327866,1573.8761464659367,49.0,45.0,4.0,0.9183673469387756,650.4042820930658,4835.097599086378,25.0,11.0,14.0,0.44,997.6594006874096,24122.435454344886,10.0,3.0,7.0,0.3,657.97368387859,9673.216786153976,96.0,48.0,48.0,0.5,87.63373001747398,4797.78665114839,0.0,0.0,0.0,0.0,90566.0,90606.0,90718.0,90732.0,90742.0,90767.0,90775.0,90784.0,90976.0,91066.0,0.05392468457690893,-0.15985190289756837,0.04480499291433401,-0.15261773362798403,0.017728633829752937
99,99,92246.6362649874,1918.069496858668,16.804914688295376,92383.12330450072,-3893.9416554070904,12.739827004313131,92407.06174332077,21404.01154154532,10.775967248026411,92432.33196587129,-3798.113666639618,4.393933664660534,92671.75424271682,4902.87275993122,39.215363950397936,0.967767720862745,139.0,100.0,70.0,282.0,352.0,39.0,1644.0,1653.0,49.0,22.0,27.0,0.4489795918367347,93.25621195235787,1933.3516626053663,31.0,27.0,4.0,0.8709677419354839,618.232660794982,4941.513803403422,26.0,12.0,14.0,0.4615384615384615,930.956118787672,23301.841319854284,12.0,3.0,9.0,0.25,601.8164756642557,9234.239631551063,102.0,51.0,51.0,0.5,81.25641009817737,5279.678993508827,0.0,0.0,0.0,0.0,92232.0,92271.0,92371.0,92386.0,92395.0,92421.0,92429.0,92441.0,92621.0,92723.0,0.04861982952395046,-0.15876782846412454,0.04349446910831086,-0.15845141259205994,0.016573224327224287
100,100,93079.58617465897,2302.203926437345,16.434697859400316,93210.02737373812,-3000.2268648551612,17.8357578060484,93241.0716199729,22392.79654808268,10.051147929974444,93265.7122792805,-3776.801937126292,4.2063976724857985,93506.8181380974,4690.0750048372975,37.88564212154299,0.9647766213819794,149.0,113.0,68.0,283.0,351.0,36.0,840.0,834.0,36.0,23.0,13.0,0.6388888888888888,92.81575643307436,2221.687385719053,90.0,79.0,11.0,0.8777777777777778,308.5794305312836,179.2053089221115,25.0,12.0,13.0,0.48,993.0306998396574,23366.03727021159,12.0,4.0,8.0,0.3333333333333333,623.2787456848707,9492.079656590637,98.0,48.0,50.0,0.4897959183673469,59.427904073044616,4611.6672879462385,0.0,0.0,0.0,0.0,93057.0,93093.0,93206.0,93220.0,93229.0,93254.0,93262.0,93274.0,93460.0,93557.0,0.04031604471142854,-0.10285203233995459,0.04434598857303881,-0.1650281788827702,0.012670992257426855
101,101,93901.36991350216,1852.554036193498,15.904464558550094,94040.972626301,-3507.827222399112,17.835757806048285,94065.07258225436,21564.33558048995,10.289379112690996,94090.9011792283,-4360.096852424072,4.576276338072591,94326.97529168804,4315.91854516747,40.89026928945225,0.9646235495422468,149.0,111.0,68.0,285.0,353.0,38.0,812.0,824.0,40.0,22.0,18.0,0.55,113.84330250356112,1750.1163509709918,30.0,26.0,4.0,0.8666666666666667,612.8459952058971,4594.984265834655,25.0,11.0,14.0,0.44,943.7712529220028,22412.816058610253,10.0,4.0,6.0,0.4,639.9729407932292,10009.15869203376,117.0,58.0,59.0,0.4957264957264957,69.10399596337237,4345.73876471631,0.0,0.0,0.0,0.0,93880.0,93918.0,94029.0,94045.0,94054.0,94079.0,94087.0,94097.0,94277.0,94382.0,0.061452081979470136,-0.17470814733764245,0.043765375909650905,-0.14677952404599112,0.016011422653179598
102,102,94714.2206636535,1642.8688991212066,15.736135719791104,94850.972626301,-3778.762908106934,17.8357578060484,94875.13596772416,21959.27036860708,10.50948855707134,94900.46435323745,-3914.6709204059334,4.111927522998791,95140.88953016169,4565.29765157203,36.08648498448442,0.9612147418590088,148.0,109.0,67.0,281.0,348.0,39.0,819.0,810.0,39.0,22.0,17.0,0.5641025641025641,93.75718435955083,1776.1921998678083,16.0,12.0,4.0,0.75,628.1142799798118,4259.787504019364,25.0,11.0,14.0,0.44,917.0516417002706,22846.148345897233,10.0,3.0,7.0,0.3,620.8944207610822,9515.186725632808,92.0,44.0,48.0,0.4782608695652174,43.05610827154498,4485.934179939486,0.0,0.0,0.0,0.0,94692.0,94731.0,94840.0,94855.0,94864.0,94889.0,94897.0,94907.0,95098.0,95188.0,0.05706918209341163,-0.16622219897211848,0.041761480518555175,-0.1586070536669014,0.00943117219459259
103,103,95523.67002971211,2550.8834788192885,19.049717185694604,95658.12330450072,-3515.4939906930776,12.73982700431915,95682.65977047062,22270.916387963865,10.676662432842315,95706.75935032243,-3866.5675259589702,3.8640706457847487,95941.4382248944,4967.522505247439,46.93160898716695,0.9688790850625804,150.0,98.0,64.0,285.0,349.0,52.0,813.0,807.0,54.0,27.0,27.0,0.5,96.17126983841784,2655.7979500271977,15.0,12.0,3.0,0.8,626.033604959772,4836.485938975892,26.0,12.0,14.0,0.4615384615384615,964.0700588817632,22990.00172263289,8.0,2.0,6.0,0.25,655.8616887171243,9399.816817490346,114.0,55.0,59.0,0.4824561403508772,79.18954371405992,5138.807395412485,0.0,0.0,0.0,0.0,95498.0,95550.0,95648.0,95661.0,95671.0,95697.0,95705.0,95712.0,95897.0,95997.0,0.03770116143561839,-0.1780784170353111,0.04328829771022745,-0.1696237513799685,0.015941456456494783
104,104,96325.0716209133,2375.9556347255316,18.387439905887913,96463.12330450072,-3701.804804463672,12.739827004317728,96487.84501136944,22175.066020190206,10.51066194800552,96512.8658244011,-3948.5710362754544,4.1888741332598505,96754.55490928964,4594.20836773762,39.91800541692952,0.9738323390213328,151.0,101.0,66.0,287.0,353.0,50.0,799.0,806.0,51.0,24.0,27.0,0.4705882352941176,84.26587177593565,2264.607085634749,14.0,10.0,4.0,0.7142857142857143,625.7729695938466,4522.45529765914,26.0,12.0,14.0,0.4615384615384615,993.0809798251222,23601.8099726052,9.0,3.0,6.0,0.3333333333333333,650.6381743588179,9854.17705325012,104.0,52.0,52.0,0.5,103.58535974594056,4687.884527187103,0.0,0.0,0.0,0.0,96302.0,96352.0,96453.0,96466.0,96476.0,96502.0,96510.0,96519.0,96711.0,96806.0,0.03546609648107759,-0.16904537182492266,0.044783676356179976,-0.16477813578163242,0.0225469442077026
105,105,97924.61913115456,2330.640606332998,19.90220333786683,98060.12330450072,-3544.8858456387316,12.739827004320285,98085.41038910604,21900.30702453266,10.64234798784294,98109.79344061048,-3804.7172493901626,4.214219295254092,98348.05868157088,4707.37871308497,42.114861139575865,0.9742561710010664,150.0,93.0,67.0,281.0,348.0,57.0,1597.0,1598.0,58.0,26.0,32.0,0.4482758620689655,105.1366107982557,2244.0192125888643,14.0,10.0,4.0,0.7142857142857143,597.6096239868745,4024.140878471244,25.0,11.0,14.0,0.44,974.3370223770244,23873.582321496247,10.0,3.0,7.0,0.3,610.6043938301283,9090.644396161562,112.0,59.0,53.0,0.5267857142857143,102.6374757220822,4685.5419345411265,0.0,0.0,0.0,0.0,97900.0,97957.0,98050.0,98063.0,98074.0,98099.0,98107.0,98117.0,98307.0,98398.0,0.045110606291064496,-0.1685836018449262,0.044489651276832555,-0.1604861422824518,0.021803530579934786
106,106,98724.07853529265,2224.116600026399,16.529917903154228,98860.12330450072,-3800.816432074664,12.739827004278558,98884.69619034576,22388.749933444033,10.41164818153376,98909.2886414294,-4218.884262566081,4.057787761886869,99142.02050096048,4484.983641561523,41.5445364164895,0.9696307840893124,145.0,106.0,68.0,278.0,346.0,39.0,806.0,799.0,41.0,24.0,17.0,0.5853658536585366,131.15076460439397,2366.880814012923,18.0,14.0,4.0,0.7777777777777778,621.0137928391315,4310.294520459362,25.0,12.0,13.0,0.48,1011.29801051875,23555.53250515635,9.0,3.0,6.0,0.3333333333333333,690.2799184750687,10308.598730382551,108.0,55.0,53.0,0.5092592592592593,101.599619216568,4776.4223218753505,0.0,0.0,0.0,0.0,98702.0,98741.0,98847.0,98863.0,98873.0,98898.0,98906.0,98915.0,99093.0,99193.0,0.058967575981779596,-0.16338957798605205,0.045169918531632075,-0.163616699467175,0.022653286463536437
107,107,100327.79457440229,2495.426694186839,21.187201061919065,100466.12330450072,-3474.1859940020295,9.633719769919846,100491.30654997572,21645.48638663756,10.66747764964624,100515.15874173529,-3807.3378703759954,3.5582945252366116,100750.79377516951,5061.5674853292,46.07421194249558,0.97599713032425,153.0,109.0,62.0,288.0,350.0,44.0,1592.0,1606.0,54.0,24.0,30.0,0.4444444444444444,108.34382163531632,2321.0362554355415,13.0,9.0,4.0,0.6923076923076923,593.6757333483173,4446.028519104915,26.0,12.0,14.0,0.4615384615384615,974.3473321658008,23976.546402940865,8.0,2.0,6.0,0.25,653.550376860787,8917.213666156485,119.0,62.0,57.0,0.5210084033613446,84.7535386356526,5024.097110253939,0.0,0.0,0.0,0.0,100305.0,100349.0,100458.0,100469.0,100479.0,100505.0,100513.0,100520.0,100695.0,100808.0,0.04341695225418003,-0.17088196612768064,0.04501388025021679,-0.17165547138485118,0.016744524079014684
108,108,101140.77538578775,2384.181396685897,17.209244257443945,101277.1082454441,-3379.994141337778,17.8357578060484,101303.75806685402,23055.5804121304,10.156874033632604,101328.36098838584,-4084.401224092812,4.2145242728437795,101565.80177602384,4380.0677613679045,40.64711837005098,0.9720986487676688,152.0,106.0,67.0,282.0,349.0,46.0,822.0,813.0,47.0,24.0,23.0,0.5106382978723404,124.46211544240666,1953.031950840398,16.0,10.0,6.0,0.625,512.600260773239,2234.9611864793224,25.0,12.0,13.0,0.48,1014.4816933483708,23419.682683230574,11.0,3.0,8.0,0.2727272727272727,666.2848675972268,10149.989973826316,94.0,42.0,52.0,0.4468085106382978,103.81823728478744,4812.959626359135,0.0,0.0,0.0,0.0,101117.0,101163.0,101269.0,101283.0,101292.0,101317.0,101325.0,101336.0,101524.0,101618.0,0.05220329108154846,-0.15165714475775852,0.044001568176293415,-0.16312914208011375,0.023702427209108926
109,109,101949.2752260026,1623.8895942675251,13.171352140962131,102084.33024809948,-4062.163070739346,12.739827004320285,102109.29194387366,20092.07864646568,10.438158204172373,102135.27251265389,-4425.970496554975,4.380520932542644,102379.2601729957,4106.831468357291,34.45340078587301,0.9523281874709816,136.0,109.0,70.0,280.0,350.0,27.0,809.0,805.0,33.0,14.0,19.0,0.4242424242424242,98.07545414751138,1625.4868269702013,17.0,12.0,5.0,0.7058823529411765,561.8333200034522,2897.129104896214,25.0,11.0,14.0,0.44,904.2546457485536,22189.48765340769,10.0,3.0,7.0,0.3,632.4631423139837,9835.98224501839,92.0,49.0,43.0,0.532608695652174,85.4195714644016,4084.735214535957,0.0,0.0,0.0,0.0,101936.0,101963.0,102072.0,102089.0,102098.0,102123.0,102132.0,102142.0,102335.0,102422.0,0.060395395409716564,-0.13830890346339395,0.045005529873715554,-0.14289818307787444,0.020799385638916645
110,110,102761.17805189872,2195.9780101314836,15.145667003643547,102895.12330450072,-3771.210187351573,12.739827004319745,102919.08697138623,21763.62004049185,10.590791276583513,102943.3989411175,-3981.712979000536,3.854026128797424,103187.83551209555,4657.720058644171,37.90701218923274,0.968003858906478,142.0,111.0,65.0,282.0,347.0,31.0,813.0,810.0,40.0,19.0,21.0,0.475,84.86869565272336,1787.9945536365449,14.0,11.0,3.0,0.7857142857142857,629.990125646753,4919.277702907991,25.0,11.0,14.0,0.44,974.3712653157808,23502.66763296188,9.0,2.0,7.0,0.2222222222222222,639.2643448058698,9694.43914505431,101.0,56.0,45.0,0.5544554455445545,79.22237918244,4846.014693978879,0.0,0.0,0.0,0.0,102743.0,102774.0,102885.0,102898.0,102908.0,102933.0,102941.0,102950.0,103139.0,103232.0,0.03864733401753958,-0.16705250949939213,0.04477064309627418,-0.16055008188117412,0.01700883225805139
111,111,103569.328375442,1811.882879464997,14.821847912397384,103701.87669549928,-4017.2253156057377,12.739827004320285,103730.9831169425,21383.06619509422,10.125790915489484,103756.06447124286,-4161.060269001363,5.242559389216281,103996.98619029528,4479.095249153731,36.225965686170426,0.9553220507802912,122.0,95.0,86.0,280.0,366.0,27.0,805.0,812.0,37.0,21.0,16.0,0.5675675675675675,96.98360661867386,1910.3995409406507,40.0,32.0,8.0,0.8,390.3146144001367,599.1988692334153,25.0,12.0,13.0,0.48,1003.841205248316,22869.80810163503,12.0,4.0,8.0,0.3333333333333333,617.0678519860606,10140.721915484664,98.0,50.0,48.0,0.5102040816326531,93.80717246930335,4628.798773958506,0.0,0.0,0.0,0.0,103556.0,103583.0,103678.0,103709.0,103719.0,103744.0,103752.0,103764.0,103948.0,104044.0,0.05352642144690426,-0.09716024960907205,0.046945615567454066,-0.14829582176038858,0.020943330572625585
112,112,104379.17805189872,2212.9433271807516,18.55452015865693,104514.54796540084,-3289.274389139753,15.287792405013397,104538.60127851792,21795.777847195288,10.215733922067823,104564.0600675716,-3965.332602674773,4.454569528305818,104802.13686849496,4343.104866108322,41.60301436203618,0.969862048800678,138.0,111.0,68.0,281.0,349.0,27.0,813.0,808.0,53.0,25.0,28.0,0.4716981132075472,135.15415192467714,2209.367295140092,18.0,15.0,3.0,0.8333333333333334,637.1495258014365,5011.684272956957,25.0,12.0,13.0,0.48,959.9451484953602,22295.23777290334,12.0,4.0,8.0,0.3333333333333333,647.5567602986939,9621.75681490482,106.0,51.0,55.0,0.4811320754716981,83.12933806090078,4331.16164556304,0.0,0.0,0.0,0.0,104365.0,104392.0,104503.0,104518.0,104527.0,104552.0,104560.0,104571.0,104752.0,104852.0,0.061074384628214136,-0.19370519160855743,0.04404271117210379,-0.163304525794858,0.019140532090211666
113,113,105189.46791528336,1544.7554332131604,16.92767456640859,105326.12330450072,-3484.454732807186,12.739827004318094,105350.71478234454,20769.989729722172,10.557343141450186,105375.7984607244,-3981.4144962376695,4.131354138620125,105613.79108376888,4586.749998489422,40.4443955656497,0.9627949295939204,150.0,112.0,65.0,285.0,350.0,38.0,806.0,811.0,38.0,22.0,16.0,0.5789473684210527,76.71072509330605,1748.7494600818088,14.0,10.0,4.0,0.7142857142857143,590.4066712197325,4000.013901248009,26.0,12.0,14.0,0.4615384615384615,926.0773593463458,22142.67701991584,9.0,3.0,6.0,0.3333333333333333,614.5372021672396,9465.32915900452,104.0,50.0,54.0,0.4807692307692308,71.19607881128947,4853.253962992198,0.0,0.0,0.0,0.0,105167.0,105205.0,105317.0,105329.0,105339.0,105365.0,105373.0,105382.0,105565.0,105667.0,0.04965881552767503,-0.16944018978374917,0.044587280561873124,-0.1543514755240784,0.015522118893494705
114,114,106017.0013028096,2083.7603663588593,17.201719763688864,106153.12330450072,-4092.0221084148866,12.739827004320269,106176.82286699984,22123.949009462147,10.561949914783613,106201.14391122444,-3734.891350481047,4.08384122999048,106441.36401700682,4907.695685806974,38.42076752119112,0.9676806009652478,151.0,103.0,66.0,282.0,348.0,48.0,827.0,827.0,49.0,26.0,23.0,0.5306122448979592,93.02351729275188,1984.8226348947055,22.0,19.0,3.0,0.8636363636363636,661.0447658500532,4814.168975391904,26.0,12.0,14.0,0.4615384615384615,988.522793429512,23519.11636765327,11.0,3.0,8.0,0.2727272727272727,634.9192999297015,9167.119121995634,98.0,49.0,49.0,0.5,95.00925184707869,5230.615325993115,0.0,0.0,0.0,0.0,105991.0,106039.0,106142.0,106156.0,106165.0,106191.0,106199.0,106208.0,106392.0,106490.0,0.044642137740291216,-0.16154476890304972,0.044681118773449206,-0.1699967255668428,0.01935923861820627
115,115,106835.6680952454,2279.471853553667,17.618020937855682,106972.12330450072,-3633.1837299817503,12.739827004320285,106997.50019101682,21702.119008165875,10.509369594165737,107021.97752573682,-4553.880952455635,4.07487936206455,107260.0133140142,4549.335877122518,38.75516509553022,0.9729182309791682,150.0,105.0,66.0,283.0,349.0,45.0,820.0,820.0,45.0,25.0,20.0,0.5555555555555556,117.6971631622468,2306.859984761972,21.0,17.0,4.0,0.8095238095238095,575.6933604817131,3763.195930900592,25.0,12.0,13.0,0.48,974.0643995889816,22281.80577417811,9.0,3.0,6.0,0.3333333333333333,683.8263567408071,10474.48035207943,96.0,45.0,51.0,0.46875,86.75413207758827,4701.207952454306,0.0,0.0,0.0,0.0,106811.0,106856.0,106961.0,106975.0,106986.0,107011.0,107019.0,107027.0,107215.0,107310.0,0.051633523343909,-0.15845423828444943,0.04488337748136344,-0.15016342409479555,0.01906962563785481
116,116,108452.2654457392,1652.259430738418,13.509823393352084,108581.45203459916,-3275.0236449019453,15.28779240518434,108611.85627692576,21326.317367333675,10.340367788926228,108636.18836584972,-4047.285689123301,4.165858742053178,108875.02837388474,4434.270596350888,37.40710704136921,0.9579452186626596,118.0,81.0,95.0,279.0,374.0,37.0,1616.0,1615.0,37.0,22.0,15.0,0.5945945945945946,96.77470779844704,1575.2057205752883,79.0,69.0,10.0,0.8734177215189873,312.05960677972166,465.20388976333584,26.0,12.0,14.0,0.4615384615384615,945.9830038728122,22010.06682325522,10.0,3.0,7.0,0.3,665.659664327248,9785.175709371144,95.0,45.0,50.0,0.4736842105263157,88.2553425345198,4409.293021101781,0.0,0.0,0.0,0.0,108430.0,108467.0,108548.0,108590.0,108600.0,108626.0,108633.0,108643.0,108832.0,108922.0,0.05857113356296418,-0.09528468817789704,0.044357541322244884,-0.16447063920299615,0.019903012370771446
117,117,109255.655972473,1839.2661336100937,14.863458685455344,109384.027373699,-3208.9444445575723,17.8357578060484,109415.22969942508,22686.894374251147,10.088438815660954,109439.1746329716,-4581.928647378097,3.862372984331733,109688.95881659626,4868.5060682967905,34.38445488031175,0.9568905196248152,126.0,93.0,76.0,282.0,358.0,33.0,801.0,803.0,38.0,14.0,24.0,0.3684210526315789,96.39447408474253,1854.0316308087465,97.0,87.0,10.0,0.8969072164948454,298.37139742272274,254.42882024423648,25.0,11.0,14.0,0.44,1013.8761710327614,23884.390790657868,9.0,3.0,6.0,0.3333333333333333,714.5552001194825,10769.690865775414,93.0,54.0,39.0,0.5806451612903226,97.67015617800112,4753.789543626101,0.0,0.0,0.0,0.0,109242.0,109275.0,109368.0,109394.0,109404.0,109429.0,109436.0,109444.0,109637.0,109726.0,0.05240920404245164,-0.09298116641712698,0.04468994981452712,-0.15595074806072554,0.02006162769602345
118,118,110050.90296028418,1648.1532131817137,14.8371198366249,110185.01049499096,-3591.9715764129623,12.739827004320285,110210.3914972872,20302.762389941003,10.292769923183997,110235.55674305414,-4289.14356610376,4.158543586191715,110481.2601729957,4378.368273570737,36.32127964486448,0.954779901261108,129.0,91.0,84.0,283.0,367.0,38.0,798.0,796.0,38.0,23.0,15.0,0.6052631578947368,87.59498330144446,1819.006919881846,33.0,28.0,5.0,0.8484848484848485,504.13895915645935,3304.1266054891894,25.0,11.0,14.0,0.44,933.8448412064776,22315.02515434231,9.0,4.0,5.0,0.4444444444444444,613.0786007264525,9442.59699761735,98.0,55.0,43.0,0.5612244897959183,81.00089069081206,4384.241281050849,0.0,0.0,0.0,0.0,110028.0,110066.0,110157.0,110190.0,110199.0,110224.0,110232.0,110241.0,110434.0,110524.0,0.053147354627513535,-0.1403516003486603,0.04599594987473974,-0.14293730001753485,0.018500246125882084
119,119,110853.4096495988,2299.422466045228,17.26004398662239,110984.7488896584,-3263.678697789526,15.28779240518434,111013.8048650006,21523.006260201535,10.233724824221436,111038.38224669186,-4045.4940178091306,4.226210767352126,111275.81725579426,4492.706563710953,39.63538982475787,0.9687992750820096,148.0,94.0,70.0,278.0,348.0,54.0,805.0,804.0,55.0,26.0,29.0,0.4727272727272727,69.45447813971023,2137.916736005448,71.0,63.0,8.0,0.8873239436619719,391.9298633256023,1015.914863582858,25.0,12.0,13.0,0.48,944.9374182272288,22169.248647722314,11.0,3.0,8.0,0.2727272727272727,676.7028212066557,9902.195989527923,96.0,48.0,48.0,0.5,87.09255224947289,4917.730343319827,0.0,0.0,0.0,0.0,110828.0,110882.0,110976.0,110993.0,111002.0,111027.0,111035.0,111046.0,111228.0,111324.0,0.030205183764758486,-0.12008837254447093,0.04390359816855718,-0.16727322256012864,0.019385319520519695
120,120,111663.76138149612,2411.081928959482,17.247782432831997,111799.12330450072,-3786.907950865745,12.739827004320285,111823.49932058576,22922.365840450675,10.410356694383982,111847.94471287918,-3982.1558860346768,4.062623467797305,112087.4108511954,4876.817406740889,40.494616375864304,0.9714497414237308,138.0,98.0,67.0,278.0,345.0,40.0,804.0,809.0,54.0,27.0,27.0,0.5,108.80819824015252,2142.282106566993,19.0,16.0,3.0,0.8421052631578947,631.0137239266473,4848.130133313668,25.0,11.0,14.0,0.44,1033.6001795029354,24964.79925296839,10.0,3.0,7.0,0.3,658.6325985707499,9879.194000928415,99.0,49.0,50.0,0.494949494949495,76.12346583229572,5131.504728497476,0.0,0.0,0.0,0.0,111650.0,111690.0,111788.0,111802.0,111812.0,111837.0,111845.0,111855.0,112040.0,112133.0,0.045128370352437344,-0.16663033063224786,0.045091339467192355,-0.16539598584790674,0.015609250764048597
121,121,112463.7384664057,2013.27293415564,15.500771023936853,112595.4520346091,-3216.2652697130516,15.28779240518434,112624.81259875406,20850.309908995336,9.95816849282232,112650.5818094041,-4393.516680617933,4.656150401461165,112893.83551209555,4165.866336210658,36.759919710216394,0.9594882902624114,140.0,107.0,67.0,281.0,348.0,33.0,809.0,800.0,50.0,25.0,25.0,0.5,114.93126488536932,1904.3319612121693,77.0,67.0,10.0,0.8701298701298701,339.28024688189714,508.36303522899846,25.0,12.0,13.0,0.48,958.288883804839,21799.814632279864,10.0,4.0,6.0,0.4,642.2542583950449,9933.362366601894,102.0,58.0,44.0,0.5686274509803921,74.18536302632108,4251.662085055203,0.0,0.0,0.0,0.0,112450.0,112483.0,112590.0,112604.0,112613.0,112638.0,112647.0,112657.0,112839.0,112938.0,0.05708677792043686,-0.10548888802078413,0.045960414400910636,-0.14618227381003457,0.01780790765692241
122,122,113270.69232826884,2142.038302394557,16.191008912958544,113404.12330450072,-3742.04285425637,12.739827004320285,113429.11144373368,21671.545316811975,10.537067846094152,113453.49945585482,-3873.71342557158,3.8918721285242976,113699.68483389584,4629.732061852542,40.37495577759818,0.9654141347815772,149.0,106.0,62.0,282.0,344.0,43.0,798.0,805.0,53.0,27.0,26.0,0.5094339622641509,96.91797851784136,2025.854809706282,19.0,15.0,4.0,0.7894736842105263,625.7410783616712,3947.1510192392425,26.0,12.0,14.0,0.4615384615384615,964.3649068067704,23422.41025056774,8.0,2.0,6.0,0.25,654.1182821034705,9112.66448576878,108.0,63.0,45.0,0.5833333333333334,95.3842040931708,4531.733688091746,0.0,0.0,0.0,0.0,113248.0,113291.0,113397.0,113407.0,113417.0,113443.0,113451.0,113459.0,113642.0,113741.0,0.04524567950512277,-0.16721911071914228,0.044499129744045164,-0.1688607829855026,0.020602532245678973
123,123,114074.972626301,1956.5258813069584,14.6741479776819,114209.45203459916,-3898.40930643397,15.28779240518434,114239.1639327148,21954.23193650937,10.104266198621652,114263.47202914268,-4332.499633870789,4.319448425537788,114501.2701050271,4672.437994290759,37.57665646012692,0.9604233843761883,135.0,107.0,71.0,281.0,352.0,28.0,805.0,809.0,45.0,24.0,21.0,0.5333333333333333,131.31464422476722,1323.3117575686838,52.0,43.0,9.0,0.8269230769230769,370.8057428769642,486.7983576298534,24.0,11.0,13.0,0.4583333333333333,1005.207829795426,23324.347963902263,11.0,3.0,8.0,0.2727272727272727,677.6951623035865,10322.435239673636,103.0,51.0,52.0,0.4951456310679611,87.94390638885751,4649.074597033088,0.0,0.0,0.0,0.0,114065.0,114093.0,114200.0,114218.0,114228.0,114252.0,114260.0,114271.0,114457.0,114552.0,0.06711623162227177,-0.09511719107200546,0.045786517729358094,-0.156421285533523,0.018821845575332615
124,124,114885.94531592958,2455.8849622983366,17.66976951837383,115022.12330450072,-3929.5958353814767,12.739827004308166,115045.6370153068,21815.34323749453,10.484925511141572,115070.46540461428,-4557.680168432414,4.291254434330025,115309.58306704248,4547.800195996701,40.00648338029751,0.9693265310192456,143.0,113.0,63.0,284.0,347.0,30.0,813.0,807.0,38.0,24.0,14.0,0.631578947368421,121.65445144159634,2725.08055797977,16.0,12.0,4.0,0.75,675.3608951632799,5400.922768125031,26.0,12.0,14.0,0.4615384615384615,986.3925886048596,22552.41843005998,10.0,3.0,7.0,0.3,687.7910495069258,10185.085119368305,99.0,49.0,50.0,0.494949494949495,106.7626606116925,4854.468133437437,0.0,0.0,0.0,0.0,114870.0,114900.0,115013.0,115025.0,115034.0,115059.0,115067.0,115076.0,115261.0,115360.0,0.049535891668047095,-0.1718652307910229,0.045215542926206366,-0.15090814275883851,0.023475670876146364
125,125,115687.60271279886,2071.3432917657833,15.256810218648528,115815.9974509821,-3693.3961450696247,15.28779240518434,115841.2745048222,20743.67654831732,10.496503866681374,115866.77739233998,-4152.010506834768,4.271706323682781,116114.53415569612,4543.9337764416705,36.192345010032135,0.955512890776868,122.0,92.0,83.0,279.0,362.0,30.0,806.0,796.0,33.0,19.0,14.0,0.5757575757575758,103.53862797945088,1587.8613658907257,31.0,26.0,5.0,0.8387096774193549,529.5634155173568,3347.090954462814,25.0,11.0,14.0,0.44,905.499699084786,22663.443431901716,11.0,4.0,7.0,0.3636363636363636,614.6017708468163,9620.84369864175,97.0,59.0,38.0,0.6082474226804123,95.88186045317474,4570.7152302537015,0.0,0.0,0.0,0.0,115669.0,115699.0,115791.0,115821.0,115830.0,115855.0,115863.0,115874.0,116057.0,116153.0,0.04998622313889169,-0.14338115780628616,0.04365184238076823,-0.14802510008948652,0.021101069067133126
126,126,116475.36991350216,1889.268798626968,16.10626500121424,116613.52019774164,-3935.1952345287928,15.28779240518434,116639.48326797655,21843.86079692407,10.560355821566343,116664.24236364616,-4154.706232098969,4.959509174977499,116904.52703194071,4628.546408795747,36.41546600251039,0.964597964451294,150.0,108.0,69.0,279.0,348.0,42.0,778.0,798.0,44.0,22.0,22.0,0.5,93.6665906401395,1721.1496646383284,16.0,11.0,5.0,0.6875,594.1422527921306,3215.842985933708,25.0,11.0,14.0,0.44,960.286778434672,23400.74233816991,12.0,3.0,9.0,0.25,668.2651048115275,10402.587662576952,96.0,48.0,48.0,0.5,92.70284257006952,4565.421458733839,0.0,0.0,0.0,0.0,116454.0,116496.0,116604.0,116618.0,116628.0,116653.0,116661.0,116673.0,116867.0,116952.0,0.0495782234419009,-0.1509816457335882,0.04396140349740254,-0.16084533237237286,0.02002850017748637
127,127,117278.2657804888,2253.3549090816928,18.619771538783382,117413.12330450072,-3629.9424123513295,8.862267604596763,117438.33853861652,22116.77722198241,10.619074319731732,117461.94299846183,-4027.257357555235,3.924837996485919,117699.28754669469,4529.822958283552,42.67880601119344,0.9755305962179311,153.0,97.0,63.0,284.0,347.0,56.0,813.0,799.0,56.0,26.0,30.0,0.4642857142857143,124.41497638882814,1937.6747025010927,13.0,9.0,4.0,0.6923076923076923,614.185506727879,4815.691521931999,26.0,12.0,14.0,0.4615384615384615,992.5893025879687,24095.541325139933,8.0,2.0,6.0,0.25,678.7752075332442,9675.25820444964,114.0,57.0,57.0,0.5,80.6377487936921,4829.281068019147,0.0,0.0,0.0,0.0,117252.0,117308.0,117405.0,117416.0,117426.0,117452.0,117460.0,117468.0,117650.0,117752.0,0.05521321824955255,-0.16919979353888276,0.04487947283754388,-0.16854527716234596,0.01780152326841654
128,128,118865.55848088591,2199.3278013609165,18.37006901213397,119000.12330450072,-3494.532969931839,12.739827004320285,119025.03717287332,21880.325513246928,10.62730356891328,119048.874711034,-3890.7303943494926,3.744640157420246,119292.2601729957,5000.267763966689,40.04132805258981,0.9648363077814084,150.0,101.0,63.0,279.0,342.0,49.0,1587.0,1587.0,49.0,23.0,26.0,0.4693877551020408,92.30198544882666,2208.699441609535,15.0,11.0,4.0,0.7333333333333333,618.0831434053856,4427.851416143312,26.0,12.0,14.0,0.4615384615384615,967.0789503747856,23580.58370894908,10.0,3.0,7.0,0.3,630.9294348377861,9360.076436370284,99.0,55.0,44.0,0.5555555555555556,108.72950170348192,5672.497397794456,0.0,0.0,0.0,0.0,118843.0,118892.0,118993.0,119003.0,119013.0,119039.0,119046.0,119056.0,119240.0,119335.0,0.04196827111979912,-0.17687145856787878,0.04419856321558335,-0.16216220886291294,0.021744735849351257
129,129,119666.48614016446,2253.3376525794492,17.769819239361784,119803.69864360055,-4725.028367909995,10.191861603456228,119826.80763690812,22042.346218930157,10.843822541699558,119851.3900861976,-4236.2690249858515,4.639843968134796,120090.98619029528,4745.260102511413,38.74395793461632,0.970741233121678,151.0,98.0,67.0,279.0,346.0,53.0,803.0,802.0,53.0,25.0,28.0,0.4716981132075472,108.96549074957672,2401.2198669798454,30.0,28.0,2.0,0.9333333333333332,710.9357354819157,5965.510308290434,26.0,12.0,14.0,0.4615384615384615,998.4137807305036,23636.71345939635,12.0,3.0,9.0,0.25,652.5487343382214,9957.304248269213,98.0,50.0,48.0,0.5102040816326531,87.03681545977405,4894.889107645024,0.0,0.0,0.0,0.0,119641.0,119694.0,119792.0,119806.0,119815.0,119841.0,119848.0,119859.0,120042.0,120138.0,0.04835737361635142,-0.1504616861795438,0.0452952589898555,-0.15403854913118997,0.01834184292947611
130,130,120470.53280419472,2072.2430288747373,17.572450011797063,120605.12330450072,-3777.174959515912,7.735220739507491,120629.11750331752,21020.661741407337,10.588906298383565,120653.67956794189,-4219.39047750981,4.044211615280617,120890.62607211442,4327.573494148409,40.27935661375407,0.9763570988292584,150.0,103.0,63.0,280.0,343.0,47.0,804.0,802.0,48.0,25.0,23.0,0.5208333333333334,98.91170404534547,1969.704692090276,11.0,8.0,3.0,0.7272727272727273,638.4339289676755,5328.776084066094,26.0,12.0,14.0,0.4615384615384615,954.5033873029043,23086.426246090203,9.0,3.0,6.0,0.3333333333333333,652.3803513302776,9724.415964992602,92.0,43.0,49.0,0.4673913043478261,76.26410671304535,4939.124566501144,0.0,0.0,0.0,0.0,120447.0,120494.0,120597.0,120608.0,120617.0,120643.0,120651.0,120660.0,120848.0,120940.0,0.04773171035786096,-0.16902418760329227,0.045407865796283926,-0.15461483235732615,0.017622833399864143
131,131,121264.90537840388,2160.978733611747,18.026198045241035,121401.12330450072,-3637.4478857780846,8.747630793883278,121425.22525098691,20698.639819767905,10.978618223281863,121449.47636472636,-4012.783319543008,3.735223016569816,121684.59481079376,4941.72071050938,43.19965947615553,0.971928003646564,150.0,99.0,64.0,281.0,345.0,51.0,790.0,796.0,51.0,24.0,27.0,0.4705882352941176,92.6709063652561,1835.9515793769,14.0,11.0,3.0,0.7857142857142857,611.4534295770809,5407.64955753925,26.0,12.0,14.0,0.4615384615384615,919.0347953554922,23118.154823044097,9.0,2.0,7.0,0.2222222222222222,635.340545940145,8898.295376198463,109.0,56.0,53.0,0.5137614678899083,87.59396475071402,5137.83629439948,0.0,0.0,0.0,0.0,121241.0,121292.0,121391.0,121404.0,121413.0,121439.0,121447.0,121455.0,121641.0,121736.0,0.04288376601021464,-0.16809957112176885,0.04440073373699574,-0.15832914347652846,0.017725397666531636
132,132,122070.1133526716,2498.9604607972883,18.600770422135295,122206.12330450068,-3991.790714928337,12.739827003974003,122230.79794525012,22156.69643131151,10.675741279383132,122255.05509462896,-4342.116709335566,4.062237578013186,122496.2601729957,4757.48600682668,37.68818995917358,0.9741421268791284,147.0,97.0,69.0,278.0,347.0,50.0,805.0,805.0,50.0,25.0,25.0,0.5,94.36871283415256,2511.860761129402,19.0,15.0,4.0,0.7894736842105263,608.4503558696304,4304.5620859040355,26.0,12.0,14.0,0.4615384615384615,969.2382644486298,22930.65069618148,9.0,3.0,6.0,0.3333333333333333,668.853608186845,10095.302316732796,91.0,47.0,44.0,0.5164835164835165,104.73819769681651,5239.894648312873,0.0,0.0,0.0,0.0,122045.0,122095.0,122192.0,122209.0,122219.0,122245.0,122253.0,122261.0,122449.0,122539.0,0.037763187659257486,-0.15242541488815342,0.04374471020322853,-0.15403860673500724,0.022015450501908798
133,133,122873.56239277088,2126.0254279820356,16.809621759886014,123004.455428799,-3016.68711152771,17.8357578060484,123033.30929138097,21941.72357252998,10.05667944559165,123057.948782214,-3828.452642318805,4.278376738553131,123290.8130274181,4275.347494882786,42.927522515984705,0.9669025818760552,138.0,101.0,65.0,280.0,345.0,37.0,803.0,803.0,37.0,14.0,23.0,0.3783783783783784,99.82783426298224,2425.39904403546,75.0,66.0,9.0,0.88,373.5189720336219,1037.7531283125554,25.0,11.0,14.0,0.44,988.9102089806522,23515.821907305923,8.0,3.0,5.0,0.375,636.5296884039126,9570.478720184983,113.0,58.0,55.0,0.5132743362831859,89.570205178215,4250.981322536047,0.0,0.0,0.0,0.0,122860.0,122897.0,122998.0,123013.0,123022.0,123047.0,123055.0,123063.0,123239.0,123343.0,0.04695514594937655,-0.12381760461875163,0.045069850857966415,-0.16626291295022558,0.020950391818541685
134,134,123668.08039209351,1686.2669439239207,14.011616436938615,123800.62628273056,-3827.6992789116207,15.28779240518434,123826.75792169216,20793.602252287143,10.430758160057591,123851.78845022268,-4183.7788715651295,3.9753375895349823,124092.56152939513,4400.751314388992,37.379839925770774,0.956801081127566,137.0,94.0,74.0,284.0,358.0,43.0,795.0,794.0,43.0,22.0,21.0,0.5116279069767442,74.63525640843774,1733.7342408719037,23.0,18.0,5.0,0.782608695652174,518.9181011751873,2628.8419957125734,25.0,12.0,13.0,0.48,933.3298916434072,22133.56653663304,8.0,3.0,5.0,0.375,634.9239598211383,9812.613872695872,100.0,51.0,49.0,0.51,84.8415436622623,4774.4168333812595,0.0,0.0,0.0,0.0,123646.0,123689.0,123783.0,123806.0,123815.0,123840.0,123849.0,123857.0,124045.0,124141.0,0.04426064133995445,-0.13556919270908294,0.04488543544881685,-0.15175848899098643,0.01927887708284235
135,135,124458.92214887978,2779.9403893705594,21.63858319450583,124593.12330450072,-3471.7440519123475,8.049842148604247,124618.71534576862,22117.91097672656,10.559346208245582,124642.52495731876,-3707.920157292828,3.598015802248188,124878.3431964958,4744.12148866011,45.394727702099786,0.979793008611073,153.0,102.0,63.0,285.0,348.0,51.0,791.0,792.0,55.0,26.0,29.0,0.4727272727272727,111.64664394081969,3055.831578144672,12.0,8.0,4.0,0.6666666666666666,594.0104358031505,4406.729272129067,26.0,13.0,13.0,0.5,998.969542136752,23348.62675096449,9.0,3.0,6.0,0.3333333333333333,653.4148375705496,8957.70518437227,99.0,42.0,57.0,0.4242424242424242,80.43076454930961,5186.0468246557675,0.0,0.0,0.0,0.0,124433.0,124484.0,124586.0,124596.0,124606.0,124632.0,124640.0,124649.0,124837.0,124934.0,0.04016152445847912,-0.1710985680168302,0.04516563717016095,-0.17622138823172803,0.01695377421121351
136,136,125241.4628410268,2469.0863751533834,18.25996525798007,125376.972626301,-2894.4007571618035,17.8357578060484,125401.5327977194,23176.220135043328,10.143964975855372,125425.83158872437,-3795.391749152032,3.811024932528965,125671.2601729957,4506.321197985294,39.52995078063122,0.9694111524614156,148.0,98.0,66.0,282.0,348.0,50.0,785.0,782.0,50.0,23.0,27.0,0.46,89.01258706152173,2148.7362774805542,22.0,18.0,4.0,0.8181818181818182,620.3697534078826,5448.06632080623,25.0,12.0,13.0,0.48,1015.538562280954,23002.10082150351,9.0,3.0,6.0,0.3333333333333333,658.1027113661129,9525.279324912011,99.0,56.0,43.0,0.5656565656565656,106.48019860586804,4716.959924370459,0.0,0.0,0.0,0.0,125218.0,125268.0,125366.0,125381.0,125390.0,125415.0,125423.0,125432.0,125617.0,125714.0,0.03605081942748647,-0.21433443584923806,0.0438181272167596,-0.17339519998512576,0.02362907434416208
