Unnamed: 0,cycle,p_center,p_height,p_width,q_center,q_height,q_width,r_center,r_height,r_width,s_center,s_height,s_width,t_center,t_height,t_width,r_squared,pr_interval,pr_segment,qrs_duration,st_segment,qt_interval,p_duration,pp_interval,rr_interval,fwhm_p,rise_time_p,decay_time_p,rise_decay_symmetry_p,sharpness_deriv_p,sharpness_diff_p,fwhm_q,rise_time_q,decay_time_q,rise_decay_symmetry_q,sharpness_deriv_q,sharpness_diff_q,fwhm_r,rise_time_r,decay_time_r,rise_decay_symmetry_r,sharpness_deriv_r,sharpness_diff_r,fwhm_s,rise_time_s,decay_time_s,rise_decay_symmetry_s,sharpness_deriv_s,sharpness_diff_s,fwhm_t,rise_time_t,decay_time_t,rise_decay_symmetry_t,sharpness_deriv_t,sharpness_diff_t,Average_Heart_Rate,SDNN,RMSSD,NN50,p_on,p_off,q_on,q_off,r_on,r_off,s_on,s_off,t_on,t_off,sharpness_deriv_p_norm,sharpness_deriv_q_norm,sharpness_deriv_r_norm,sharpness_deriv_s_norm,sharpness_deriv_t_norm
0,0,,,,,,,,,,,,,,,,,,,,,,,,,,,,,,,,,,,,,,,,,,,,,,,,,,,,,,,75.20834692219249,309.57189583236556,369.738047130265,378.0,,,,,,,,,,,,,,,
1,1,5608.178051898705,3863.193757014899,9.227609438440252,5681.876695499281,-5630.97322504993,12.739827004320285,5718.111086879122,30353.27395254126,10.257806265862714,5743.064831862124,-21298.811203076733,8.075279254235351,5944.783807712528,14071.699602529883,38.7344383694801,0.939599138324208,84.0,58.0,74.0,239.0,313.0,26.0,,,27.0,13.0,14.0,0.4814814814814814,279.25991057362006,3226.6416650195815,18.0,4.0,14.0,0.2222222222222222,549.8610673365333,2402.139576778395,25.0,13.0,12.0,0.52,1700.2873374366775,24972.057614520243,17.0,7.0,10.0,0.4117647058823529,1685.0216292143791,30141.06071817336,91.0,44.0,47.0,0.4835164835164835,347.09608792697156,14814.27906826021,,,,,5595.0,5621.0,5679.0,5696.0,5705.0,5730.0,5736.0,5753.0,5901.0,5992.0,0.07228731669658862,-0.0976493841047624,0.056016604340446266,-0.07911341215940579,0.024666251961814822
2,2,7179.821948101295,5614.296086431038,12.936286896267008,7249.616522503599,-3956.404114802918,51.74379037159773,7286.720977409647,34054.29190274924,10.44345250244974,7311.813909842577,-20941.71243044206,7.5591851230531955,7512.140099419775,13898.975391614304,37.42190964219105,0.9430378556927403,42.0,19.0,113.0,235.0,348.0,23.0,1564.0,1571.0,26.0,14.0,12.0,0.5384615384615384,329.0692661860106,3893.7257401209663,56.0,41.0,15.0,0.7321428571428571,318.40514192079934,2617.7460315485514,24.0,13.0,11.0,0.5416666666666666,1740.02636412092,24382.392822309164,17.0,7.0,10.0,0.4117647058823529,1801.816878388321,31010.234841738908,87.0,41.0,46.0,0.4712643678160919,372.23427968916127,14345.723610019668,,,,,7167.0,7190.0,7209.0,7264.0,7274.0,7298.0,7305.0,7322.0,7471.0,7557.0,0.05861273811000539,-0.08047841744211214,0.051095655404904954,-0.0860396151639012,0.02678141871621286
3,3,9565.909268984627,5477.891761996606,13.862886510853366,9634.342539803169,-3465.2350346470203,41.6605610367039,9671.590098129538,35098.9960290387,10.266571562694164,9697.45203459914,-20110.283771819013,6.986458636400214,9900.306154475393,15294.853800434094,39.68267627027161,0.9584431569264638,49.0,23.0,103.0,240.0,343.0,26.0,2388.0,2383.0,31.0,16.0,15.0,0.5161290322580645,288.3516153271465,3822.948334892368,52.0,37.0,15.0,0.7115384615384616,333.19880012096104,2771.009172750412,25.0,13.0,12.0,0.52,1751.3424164988207,27478.74436661102,17.0,7.0,10.0,0.4117647058823529,1852.7658979695416,29172.79695429519,99.0,47.0,52.0,0.4747474747474747,325.6631165918707,15754.081190672754,,,,,9554.0,9580.0,9603.0,9649.0,9659.0,9684.0,9691.0,9706.0,9856.0,9946.0,0.05263915897857149,-0.09615474759705635,0.04989722256015158,-0.09213027120810019,0.021292332757219805
4,4,12695.821948101297,5463.394518861048,15.568892085788905,12766.465844303886,-4719.6173792199725,63.397357245828864,12803.031904195055,34500.05780668036,10.48124271227656,12828.498402028492,-20635.96233312456,7.260476990144567,13031.932479628773,14342.162261040872,36.37662443412726,0.9445970832081532,42.0,18.0,113.0,240.0,353.0,24.0,3128.0,3133.0,25.0,14.0,11.0,0.56,321.8007598110859,2732.119039957126,65.0,49.0,16.0,0.7538461538461538,337.137609195115,2855.5052607100374,25.0,13.0,12.0,0.52,1696.1792865103164,26338.42599780709,17.0,7.0,10.0,0.4117647058823529,1857.6732297562305,32288.443809972578,89.0,43.0,46.0,0.4831460674157303,364.7210024141088,14055.65210390768,,,,,12683.0,12707.0,12725.0,12782.0,12790.0,12815.0,12821.0,12838.0,12989.0,13078.0,0.05890124879324505,-0.0714332502205581,0.049164534622370394,-0.09002115819790577,0.02542998717877003
5,5,15753.972626301009,3139.498705842289,7.712724969283065,15827.75339099856,-6553.775246689436,25.47965400864057,15862.034548870126,33241.65484877222,9.973349377016955,15889.45203459914,-21212.889765198477,7.690086619766758,16091.009312503182,15724.899525833034,36.448357806672085,0.9261228688594196,35.0,18.0,119.0,241.0,360.0,17.0,3059.0,3061.0,24.0,11.0,13.0,0.4583333333333333,319.6664830191832,2099.825289659384,64.0,50.0,14.0,0.78125,357.6828382002168,3257.75851005667,25.0,12.0,13.0,0.48,1635.8043233326723,28243.02773826389,17.0,8.0,9.0,0.4705882352941176,1737.8063774381624,29691.289436687955,98.0,50.0,48.0,0.5102040816326531,283.4256901466621,15259.370574920002,,,,,15744.0,15761.0,15779.0,15842.0,15850.0,15875.0,15881.0,15898.0,16049.0,16139.0,0.10182086790617759,-0.05457661038664641,0.04920947319784505,-0.08192218960611294,0.018024006428851727
6,6,18183.146802092004,3466.759660018058,8.429953694678826,18260.027373698995,-5987.352365779677,17.8357578060484,18291.858949171987,32765.261435324424,10.895034770453302,18316.684075293815,-23585.610319397907,8.76372173824648,18520.50174125539,15018.83526047683,35.90853189292366,0.94141766829604,37.0,20.0,114.0,239.0,353.0,17.0,2435.0,2426.0,26.0,13.0,13.0,0.5,358.66668300578175,2815.166268468781,57.0,46.0,11.0,0.8070175438596491,489.7188291207718,942.4060039208756,24.0,13.0,11.0,0.5416666666666666,1812.409749695588,24550.46830587141,18.0,7.0,11.0,0.3888888888888889,1843.9461244537024,32275.620454532436,91.0,45.0,46.0,0.4945054945054945,297.0450809796501,14597.54376162228,,,,,18177.0,18194.0,18214.0,18270.0,18279.0,18303.0,18310.0,18328.0,18476.0,18567.0,0.10345876789275708,-0.08179221786239406,0.0553149790448984,-0.07818097982129192,0.01977817026606225
7,7,19745.82765042784,4507.783596427521,9.900370820001514,19820.219235302444,-5295.608928439482,43.31541181468896,19852.456912722013,33609.24185307408,10.614267302245414,19878.172361391684,-21681.24382589032,7.857699385458826,20083.684833895823,14830.017106388968,33.67663246066512,0.9406201448829362,30.0,13.0,123.0,237.0,360.0,17.0,1557.0,1560.0,25.0,13.0,12.0,0.52,387.152176818121,1189.9373988546497,66.0,56.0,10.0,0.8484848484848485,452.3596754245576,1008.0835175797496,24.0,12.0,12.0,0.5,1657.313794841161,26053.41162930157,17.0,7.0,10.0,0.4117647058823529,1826.5748791181552,32253.494105326005,88.0,44.0,44.0,0.5,329.2683409007572,14222.663682414875,,,,,19735.0,19752.0,19765.0,19830.0,19840.0,19864.0,19871.0,19888.0,20041.0,20125.0,0.085885262354862,-0.08542165434369785,0.04931125200878562,-0.08424677540579933,0.022202829473399868
8,8,20595.819972966427,6109.490039056822,15.786446963063062,20678.27398270043,-2468.7326617691347,7.64389620259217,20705.08529966067,33511.84590171638,9.97552307981386,20731.45203459914,-20582.952020093304,7.09303399901751,20932.71220759482,16223.725076216768,44.94964485221095,0.949511168864273,85.0,55.0,71.0,244.0,315.0,30.0,853.0,854.0,30.0,12.0,18.0,0.4,387.095864897032,7344.672247930336,11.0,9.0,2.0,0.8181818181818182,745.6526124116901,7003.42888098532,26.0,13.0,13.0,0.5,1706.1721457391577,29948.558240111695,16.0,7.0,9.0,0.4375,1854.3974705153692,29248.795900412064,103.0,49.0,54.0,0.4757281553398058,298.4005123402648,17484.29670607397,,,,,20584.0,20614.0,20669.0,20680.0,20692.0,20718.0,20724.0,20740.0,20885.0,20984.0,0.06335976692365498,-0.3020386224717192,0.05091250869149445,-0.09009385382160372,0.0183928481861238
9,9,22984.484260791924,4234.534148360392,10.129730173476052,23055.75339100258,-4221.518730486602,25.47965400864046,23091.94218081532,33318.95034461509,10.15797320493082,23117.551963337657,-22122.969699954487,7.918621236149573,23319.792809610568,14693.155129519051,39.08795825735024,0.9429944045774828,44.0,18.0,111.0,241.0,352.0,26.0,2388.0,2386.0,26.0,12.0,14.0,0.4615384615384615,288.82670412381015,4115.371339681396,66.0,51.0,15.0,0.7727272727272727,384.5866891842395,1167.2607380376176,24.0,12.0,12.0,0.5,1766.49319911817,27041.838382464342,18.0,8.0,10.0,0.4444444444444444,1811.1817060476144,30202.87018968,98.0,47.0,51.0,0.4795918367346938,329.3660898607767,14845.0591503887,,,,,22972.0,22998.0,23016.0,23070.0,23080.0,23104.0,23110.0,23127.0,23278.0,23368.0,0.06820743297952707,-0.09110150013237281,0.053017672551130206,-0.0818688327386418,0.02241629431918737
10,10,25357.922153663418,3218.1300268896325,7.853265916904933,25431.178051898707,-5296.134439002735,22.93168860777651,25466.00016787063,31688.30895897655,10.330254851573166,25491.72331804663,-22786.24529983597,7.802723524863893,25698.260172995684,14826.093730424196,35.667241333718955,0.9301602009612172,31.0,13.0,121.0,240.0,361.0,18.0,2375.0,2375.0,18.0,9.0,9.0,0.5,349.06704467375874,3622.946424060759,67.0,53.0,14.0,0.7910447761194029,414.6180386275819,1281.3308899831045,24.0,12.0,12.0,0.5,1677.294053848815,25769.412362418436,18.0,8.0,10.0,0.4444444444444444,1867.4762256147624,30177.140436069694,87.0,44.0,43.0,0.5057471264367817,328.742087602461,15461.59979520177,,,,,25349.0,25367.0,25380.0,25444.0,25454.0,25478.0,25485.0,25501.0,25655.0,25741.0,0.10846890640125467,-0.07828691726066808,0.05293100543863756,-0.08195629429251364,0.022173209854181548
11,11,26217.190511391513,3647.569814641057,8.02927816165778,26298.72601729957,-7254.070892273403,7.64389620259217,26325.146378999736,30898.374251449164,10.672960319332116,26350.027373698995,-24487.320484381096,8.198369903935259,26556.48153981772,14107.312069891444,35.97112036067506,0.93752986935352,42.0,23.0,110.0,240.0,350.0,19.0,858.0,858.0,19.0,9.0,10.0,0.4736842105263157,424.30229371087376,4025.251916292794,53.0,49.0,4.0,0.9245283018867924,930.4353182989076,5986.084250375324,24.0,12.0,12.0,0.5,1800.6093932225092,24719.75089073399,17.0,7.0,10.0,0.4117647058823529,1925.7385039367816,32501.20365921438,81.0,37.0,44.0,0.4567901234567901,380.4744168192265,14511.761231979564,,,,,26208.0,26227.0,26250.0,26303.0,26313.0,26337.0,26343.0,26360.0,26519.0,26600.0,0.11632465319999027,-0.12826388549496406,0.058275214694768575,-0.07864227142226883,0.026970014906755675
12,12,28523.295880470665,3078.789595788151,6.320399165913746,28603.876695499283,-7996.638421702386,12.739827004320285,28633.115144031908,31778.666169459397,10.91427973716851,28658.027373698995,-23634.775413029365,8.14459863668516,28860.33130799446,15286.925180487377,35.641251492840794,0.9194150155693076,29.0,11.0,123.0,237.0,360.0,18.0,2308.0,2308.0,19.0,8.0,11.0,0.4210526315789473,290.6281604257107,3066.976234589005,70.0,62.0,8.0,0.8857142857142857,711.034844288756,2583.3865836716427,24.0,12.0,12.0,0.5,1784.2386657896363,26304.995443985084,17.0,7.0,10.0,0.4117647058823529,1890.1368693226125,31966.54089351033,92.0,45.0,47.0,0.4891304347826087,280.50855801102017,15695.285241760628,,,,,28516.0,28534.0,28545.0,28611.0,28621.0,28645.0,28651.0,28668.0,28817.0,28905.0,0.09439688922662859,-0.08891671809982692,0.05614580096833526,-0.07997270277764598,0.018349573553815026
13,13,29281.123304500717,3390.4969073946545,6.458096205249367,29347.152275677672,-7256.455706115546,35.6715156120968,29389.45398115688,35249.44111809684,10.824979130546428,29413.51000414823,-24806.00641855816,9.755131465172216,29617.937178893615,13772.347211565397,32.42868794920595,0.9214910865793884,24.0,14.0,127.0,234.0,361.0,10.0,754.0,756.0,12.0,8.0,4.0,0.6666666666666666,318.78762417831655,1256.3922558806198,71.0,50.0,21.0,0.704225352112676,276.16184239622,6286.137728345765,24.0,13.0,11.0,0.5416666666666666,1839.6449802139464,23052.9140843621,19.0,8.0,11.0,0.4210526315789473,1886.4964287570788,34899.060633585614,86.0,44.0,42.0,0.5116279069767442,263.4874616314701,13581.401939514088,,,,,29274.0,29284.0,29298.0,29367.0,29376.0,29400.0,29406.0,29425.0,29579.0,29659.0,0.09402386519894548,-0.038057400689909565,0.05218933752880083,-0.0760499855126108,0.01913163076590207
14,14,29982.871596057375,5038.388263790133,9.519948793593713,30059.17805189871,-4281.4489011376945,22.93168860777651,30093.888859365412,33236.334617067485,10.355053028798224,30119.897997100157,-21206.332677798775,7.960750452040999,30318.83766998946,16751.14529718462,41.88854232832092,0.955438102891554,48.0,24.0,108.0,240.0,348.0,24.0,702.0,705.0,27.0,11.0,16.0,0.4074074074074074,356.3094126065956,4054.295584980376,51.0,38.0,13.0,0.7450980392156863,319.60209491821655,1718.7163085503707,25.0,13.0,12.0,0.52,1728.3312305822142,27016.73380379001,17.0,7.0,10.0,0.4117647058823529,1814.6177328753315,29272.8697835135,102.0,51.0,51.0,0.5,339.70093997080767,17399.6229811472,,,,,29973.0,29997.0,30021.0,30072.0,30081.0,30106.0,30113.0,30129.0,30274.0,30369.0,0.0707189271552013,-0.07464811616303299,0.052001258577252484,-0.08556961547505486,0.02027926651844525
15,15,30742.972626301005,6091.874440488682,14.698660490516795,30799.767200703307,-5884.921200397315,58.60320421987331,30852.262043257422,33435.3617207747,10.29135799608394,30878.027373699148,-20457.612394471143,7.802261686794907,31080.22291370669,14262.251733440398,33.99680144816458,0.9248502988318006,34.0,17.0,121.0,235.0,356.0,17.0,759.0,758.0,19.0,12.0,7.0,0.631578947368421,308.87989475543316,2008.2013589756084,71.0,39.0,32.0,0.5492957746478874,386.59235262485345,4267.747390813007,24.0,12.0,12.0,0.5,1686.7568271069506,25659.99588568727,18.0,8.0,10.0,0.4444444444444444,1778.9994125277556,30885.705087250408,83.0,39.0,44.0,0.4698795180722891,309.99522145296794,14996.10412017082,,,,,30733.0,30750.0,30767.0,30831.0,30840.0,30864.0,30870.0,30888.0,31042.0,31123.0,0.050703588488710746,-0.06569201854372375,0.0504482900826194,-0.08696026585236048,0.02173536319837412
16,16,31758.491766700008,4773.093934701695,18.16381255569434,31845.45203459914,-4926.362044526804,15.28779240518434,31876.812001448692,32129.533571384294,10.84952704097796,31901.632388087844,-20902.842756358812,7.86658013770673,32111.260172995684,14878.044507986651,36.20505813470286,0.9128106474688128,75.0,37.0,93.0,243.0,336.0,38.0,1018.0,1027.0,38.0,15.0,23.0,0.3947368421052631,325.03222188237316,6499.998457069349,57.0,47.0,10.0,0.8245614035087719,479.8254188749616,878.4492210825033,25.0,13.0,12.0,0.52,1706.3561161238554,26973.27753525681,16.0,7.0,9.0,0.4375,1801.0391336440805,28617.26286236588,88.0,44.0,44.0,0.5,359.46635141815267,15195.38747485893,,,,,31743.0,31781.0,31818.0,31854.0,31864.0,31889.0,31895.0,31911.0,32068.0,32154.0,0.06809675785328678,-0.0973995444382835,0.05310864884897043,-0.08616240167123632,0.02416086006633387
17,17,32679.44218377515,3651.9844628541096,16.567881989813433,32762.178051898707,-5320.739468325816,22.93168860777651,32796.739143463696,30852.870694705667,10.59716248261951,32823.027373699,-22633.277909501536,8.806202197400632,33026.723202632966,13818.582457368717,34.335112351687236,0.9097274598325614,53.0,30.0,117.0,239.0,356.0,23.0,918.0,917.0,46.0,17.0,29.0,0.3695652173913043,244.03384407925176,2973.619224016721,62.0,49.0,13.0,0.7903225806451613,301.17929868111884,2049.093151060475,25.0,13.0,12.0,0.52,1669.2911942052203,22146.81221848221,19.0,8.0,11.0,0.4210526315789473,1774.1327665413055,30612.984425498475,88.0,42.0,46.0,0.4772727272727273,352.38896639732957,13808.777605016436,,,,,32663.0,32686.0,32716.0,32775.0,32784.0,32809.0,32815.0,32833.0,32986.0,33072.0,0.06682225692946506,-0.05660478218751907,0.05410489061854687,-0.07838602846813089,0.025501093725385646
18,18,34461.69864360057,2296.9544835574543,5.550789822877428,34551.178051898714,-6927.133863282577,22.93168860777651,34586.53500313786,33604.66944503165,11.221191715743023,34610.57417811727,-23331.62666291182,9.240393177207237,34818.68483389583,14185.079794816073,32.14851123061955,0.8807722578750209,45.0,32.0,120.0,239.0,359.0,13.0,1784.0,1790.0,16.0,9.0,7.0,0.5625,357.95849295258853,1866.0476819651583,65.0,51.0,14.0,0.7846153846153846,419.2319107196783,2214.513130925981,25.0,14.0,11.0,0.56,1764.9275279870417,21789.254196737325,18.0,7.0,11.0,0.3888888888888889,1863.598974301192,31372.83877229159,80.0,38.0,42.0,0.475,295.84674444375725,14538.492589043315,,,,,34456.0,34469.0,34501.0,34564.0,34573.0,34598.0,34604.0,34621.0,34781.0,34860.0,0.15584048160945407,-0.0605202554178758,0.05252030616977192,-0.07987436972251862,0.02085619176790773
19,19,36110.71587457278,4578.721936301217,10.228043342821705,36181.753390998565,-3142.1431260901336,25.47965400864057,36218.864179909506,33974.60306833002,10.36686003205385,36244.23209286485,-22594.72551474529,7.457299011149352,36447.59876122227,16994.029992607288,40.85967807657327,0.9440299007368282,48.0,23.0,106.0,243.0,349.0,25.0,1648.0,1632.0,27.0,12.0,15.0,0.4444444444444444,298.60458005758954,3902.4292465079534,66.0,51.0,15.0,0.7727272727272727,319.7685707990006,574.8561387260928,25.0,13.0,12.0,0.52,1734.573075175095,26524.439470810594,17.0,7.0,10.0,0.4117647058823529,1914.6141612595432,31372.486909814023,92.0,43.0,49.0,0.4673913043478261,288.0715468614863,18632.33557774846,,,,,36100.0,36125.0,36148.0,36196.0,36206.0,36231.0,36237.0,36254.0,36405.0,36497.0,0.06521570521463207,-0.10176766556044778,0.0510549916267309,-0.08473721710007358,0.016951338027931143
20,20,36949.12330450071,6394.4371356308775,12.739827004320285,37012.82859789257,-5354.5420174037,66.24710042246546,37057.85101623058,36188.76202915229,10.498276754969412,37083.18192956853,-21977.27146782036,7.323192014559709,37289.03346012711,16145.048215269946,35.05920143363699,0.9264596635131848,28.0,13.0,123.0,242.0,365.0,15.0,839.0,841.0,19.0,11.0,8.0,0.5789473684210527,325.56410224467123,2247.6241961522187,67.0,43.0,24.0,0.6417910447761194,251.04680294962284,5560.883483922076,25.0,13.0,12.0,0.52,1763.6254491120176,25973.62641066612,17.0,7.0,10.0,0.4117647058823529,1937.3909371672896,33487.36312031801,92.0,45.0,47.0,0.4891304347826087,456.5242416046287,15037.40608683789,,,,,36942.0,36957.0,36970.0,37036.0,37045.0,37070.0,37076.0,37093.0,37250.0,37335.0,0.05091364499160894,-0.04688483200498816,0.048734064118891605,-0.08815429795295851,0.028276424790905808
21,21,37736.66546094967,3419.0094522370614,6.838854574393842,37813.30135639943,-5531.555119904058,10.191861603456228,37844.411292682176,31002.663936703568,10.737398548674532,37869.476950742246,-24993.802443115284,8.539945243280494,38073.736930666506,15469.25614872859,36.45488517933665,0.9297876891499336,26.0,8.0,125.0,241.0,366.0,18.0,792.0,787.0,19.0,9.0,10.0,0.4736842105263157,399.7386195364759,3743.830459770205,67.0,59.0,8.0,0.8805970149253731,517.1170253179773,658.747937925815,25.0,13.0,12.0,0.52,1765.9442782188014,25482.891896040797,18.0,7.0,11.0,0.3888888888888889,1949.0513203044195,34156.1887815206,93.0,45.0,48.0,0.4838709677419355,371.5033543818961,14869.76089776132,,,,,37729.0,37747.0,37755.0,37819.0,37831.0,37856.0,37862.0,37880.0,38035.0,38121.0,0.11691650026732933,-0.09348492677172246,0.056961049599616106,-0.07798138457485083,0.024015592657467874
22,22,38485.273982700426,6625.587671870063,7.64389620259217,38558.89050520403,-4790.477281530323,71.3430312241936,38596.7074197863,33867.99468639362,10.43332684877624,38621.998089699315,-21302.677644620308,7.812375310800772,38831.10949479597,15092.170179016037,32.91459615885426,0.913343689043162,30.0,19.0,122.0,238.0,360.0,11.0,745.0,750.0,16.0,8.0,8.0,0.5,355.06018857581444,3675.0918640480854,71.0,54.0,17.0,0.7605633802816901,465.91027385869046,4786.512748786726,24.0,13.0,11.0,0.5416666666666666,1746.0333941632282,22338.541830359223,20.0,8.0,12.0,0.4,1885.9392380621496,32360.981234330015,85.0,44.0,41.0,0.5176470588235295,366.4286737736869,14903.41375840354,,,,,38481.0,38492.0,38511.0,38575.0,38584.0,38608.0,38614.0,38633.0,38787.0,38871.0,0.05358923708507795,-0.09725758968840259,0.0515540825587968,-0.08853061899185322,0.024279389208264078
23,23,39380.16700053598,3456.650844833416,9.617359088763925,39455.17805189968,-5830.743374437319,22.93168860777249,39489.175715905854,31742.862946460184,10.29581091546655,39515.45203459914,-21714.3912929651,7.722391215054274,39729.10949479597,16004.895063958124,33.36755795650998,0.9357292225748468,49.0,31.0,102.0,245.0,347.0,18.0,898.0,893.0,19.0,8.0,11.0,0.4210526315789473,410.49749670546225,4144.992992473444,58.0,45.0,13.0,0.7758620689655172,509.849695734196,2524.645861077209,25.0,12.0,13.0,0.48,1652.253594873943,26963.616145310338,17.0,7.0,10.0,0.4117647058823529,1844.8977192276416,29586.992838152357,85.0,44.0,41.0,0.5176470588235295,441.399314370566,15226.215700826197,,,,,39373.0,39391.0,39422.0,39468.0,39477.0,39502.0,39508.0,39524.0,39686.0,39769.0,0.11875584637627612,-0.0874416284498883,0.052051183841254456,-0.08496198186431965,0.02757901958161323
24,24,41245.8360864654,3155.8679089439124,11.438624996298868,41332.45203459914,-7178.788455727442,15.28779240518434,41361.93985559778,31511.12934594824,11.11158119938554,41387.027373699,-22932.163259603774,8.704058966559513,41597.099494939386,15080.114383683782,31.838701133288943,0.9106014393119404,51.0,32.0,111.0,241.0,352.0,19.0,1863.0,1876.0,20.0,11.0,9.0,0.55,367.47947809415814,3475.8790440557286,55.0,46.0,9.0,0.8363636363636363,608.4440882434523,384.7827111670693,25.0,13.0,12.0,0.52,1725.3041873012555,24642.173270103696,17.0,7.0,10.0,0.4117647058823529,1827.9049870157544,31957.85223392215,82.0,41.0,41.0,0.5,304.71023443158555,15514.83861145854,,,,,41235.0,41254.0,41286.0,41341.0,41349.0,41374.0,41380.0,41397.0,41556.0,41638.0,0.11644323802422149,-0.08475581805980342,0.05475221685518861,-0.07970922613461881,0.020206095701851747
25,25,42951.821948101286,5652.98980333496,14.831340572230884,43023.31516610417,-4333.670905214707,54.4332034820374,43061.839177956994,34215.20886464374,10.346671564130318,43088.027373699,-22145.402612886875,7.675033344531215,43293.45545983371,16243.772475159136,37.61935619976631,0.9338929231174224,43.0,25.0,116.0,245.0,361.0,18.0,1703.0,1697.0,27.0,15.0,12.0,0.5555555555555556,397.69361026866846,3891.533399852531,65.0,48.0,17.0,0.7384615384615385,379.8090246120834,3942.0157690773062,24.0,12.0,12.0,0.5,1766.0293789957425,25352.280777680993,19.0,8.0,11.0,0.4210526315789473,1873.6523975116552,31771.68389963619,92.0,42.0,50.0,0.4565217391304347,357.5787114185523,16766.933229319442,,,,,42939.0,42957.0,42982.0,43040.0,43050.0,43074.0,43080.0,43098.0,43251.0,43343.0,0.07035102204395462,-0.08764140907770804,0.051615332409110835,-0.08460683376428377,0.022013279979474054
26,26,43780.69864360057,7334.539456377653,10.191861603456228,43832.34253980316,-4508.448692659684,56.05523881866433,43888.530691454216,35414.37516104151,10.133520946859973,43914.10567686302,-21826.70703008708,7.708256865928292,44119.98856525588,15297.5925732476,36.41358492457971,0.9244372463757368,31.0,18.0,123.0,243.0,366.0,13.0,831.0,826.0,13.0,11.0,2.0,0.8461538461538461,466.59965722583,2813.3023149938463,66.0,31.0,35.0,0.4696969696969697,364.2140733645576,3602.3908895004124,25.0,13.0,12.0,0.52,1884.397396317385,24681.56620926973,17.0,7.0,10.0,0.4117647058823529,1922.9294966908271,32996.56539722803,92.0,44.0,48.0,0.4782608695652174,394.15798663754254,15134.213714117348,,,,,43770.0,43783.0,43801.0,43866.0,43876.0,43900.0,43907.0,43924.0,44077.0,44167.0,0.06361676285211124,-0.08078478833696022,0.053209957474849495,-0.08809984456382541,0.025766014145705857
27,27,44551.84932180029,3127.2630146935076,5.095930801727957,44628.753390998565,-5518.228920457737,25.479654008640495,44664.511494826176,32557.920296780136,10.733760454134025,44689.91171596862,-24413.269134765673,8.78480120753953,44895.65711297678,15988.240468749416,35.908880001091994,0.9240726847769728,26.0,14.0,126.0,239.0,365.0,12.0,772.0,776.0,12.0,3.0,9.0,0.25,425.0854942358474,3608.354937756188,70.0,56.0,14.0,0.8,476.65343110338137,2064.1139790612046,24.0,13.0,11.0,0.5416666666666666,1784.420474366125,21508.094638309703,19.0,8.0,11.0,0.4210526315789473,1914.6086686007257,32285.420990225357,86.0,42.0,44.0,0.4883720930232558,376.3987884297446,16748.696630525777,,,,,44549.0,44561.0,44575.0,44643.0,44652.0,44676.0,44683.0,44701.0,44855.0,44940.0,0.13592892322729963,-0.08637797343569482,0.05480756934412048,-0.07842491958089425,0.023542227124082413
28,28,45368.15067819971,3777.398948253612,5.095930801727802,45445.36991342886,-6691.678188462074,38.21948101296084,45475.237774905945,36384.77501584999,10.582294111119166,45501.027373699,-22175.81157257104,7.593323914258804,45710.87262685944,15899.071852125508,34.009454520963175,0.9308639191198966,29.0,18.0,122.0,243.0,365.0,11.0,818.0,813.0,11.0,8.0,3.0,0.7272727272727273,402.7571706693907,2344.5262514952715,65.0,56.0,9.0,0.8615384615384616,603.4542669169674,181.98302161493075,24.0,12.0,12.0,0.5,1778.3327045533135,28352.480745733377,18.0,8.0,10.0,0.4444444444444444,1903.097158871046,31898.282558623177,90.0,44.0,46.0,0.4888888888888889,348.6589126646359,15447.984519537493,,,,,45360.0,45371.0,45389.0,45454.0,45463.0,45487.0,45494.0,45511.0,45672.0,45754.0,0.10662288420861546,-0.09017980989543929,0.048875737276886655,-0.08581860251847383,0.021929513616106122
29,29,46199.82065413021,3381.609637841627,6.582558304610878,46275.60271279886,-6652.447754269014,20.383723206912453,46309.762132104435,31884.89285735865,11.189944846322032,46334.36987834249,-26009.57764023458,9.69638577576857,46543.803500583555,15484.632358608716,35.03828127705835,0.9223012866062378,36.0,19.0,119.0,246.0,365.0,17.0,832.0,831.0,18.0,9.0,9.0,0.5,367.52199907824746,3696.3954958472814,65.0,54.0,11.0,0.8307692307692308,466.96743460348335,2434.771776699723,24.0,13.0,11.0,0.5416666666666666,1853.1432803455568,18622.45454027458,19.0,7.0,12.0,0.3684210526315789,1964.2646904774872,34323.51639594558,96.0,46.0,50.0,0.4791666666666667,306.7525342593418,15369.965015687409,,,,,46191.0,46208.0,46227.0,46287.0,46297.0,46320.0,46327.0,46346.0,46498.0,46592.0,0.10868256198631637,-0.0701948293098312,0.058119790103603054,-0.07552082227736519,0.019810127044366153
30,30,47872.67027749667,4259.264527990106,9.076435199012538,47950.027373699,-5480.63115167424,17.8357578060484,47982.134246600195,31841.356530786088,10.61838861264598,48007.40338523538,-22410.25406184183,8.083852656929981,48216.565499804536,16030.89642666858,36.18924210688984,0.9446848879728662,58.0,38.0,94.0,243.0,337.0,20.0,1670.0,1676.0,26.0,14.0,12.0,0.5384615384615384,342.85963047936997,3466.3607303311787,58.0,47.0,11.0,0.8103448275862069,440.01287567827353,685.5277507731519,25.0,13.0,12.0,0.52,1697.697818675631,26684.753822787323,17.0,7.0,10.0,0.4117647058823529,1828.3228585176653,31170.47310476552,90.0,43.0,47.0,0.4777777777777778,384.6238636151792,16225.185849316702,,,,,47865.0,47885.0,47923.0,47960.0,47970.0,47994.0,48000.0,48017.0,48175.0,48260.0,0.08049737888460315,-0.08028507365321548,0.05331738354282103,-0.08158420932990533,0.0239926610077356
31,31,48778.69864360057,4917.728911731852,10.191861602879031,48852.34253980313,-3551.243184504955,49.667228963601474,48887.09788943367,33198.3927491573,10.251705388875497,48913.342873158836,-21460.351311591407,7.88975984506,49127.26017299569,15596.651059254991,38.4819275867138,0.9287729449000506,36.0,24.0,115.0,246.0,361.0,12.0,906.0,904.0,19.0,7.0,12.0,0.3684210526315789,384.84889094355617,4205.705208355634,56.0,43.0,13.0,0.7678571428571429,473.4948759194363,1459.0584842529056,24.0,12.0,12.0,0.5,1744.6630220910613,27181.31047480421,19.0,8.0,11.0,0.4210526315789473,1819.2618813142956,30540.413358916896,97.0,53.0,44.0,0.5463917525773195,247.65643096711392,15157.180119637693,,,,,48773.0,48785.0,48809.0,48865.0,48875.0,48899.0,48905.0,48924.0,49076.0,49170.0,0.0782574431920091,-0.13333214632707327,0.052552635161391886,-0.08477316400368783,0.01587882103832512
32,32,50473.69864360057,3207.768523154009,7.0951865292926595,50550.60271279917,-6207.358073866782,20.38372320689273,50582.81111263056,33595.089539935296,10.211888611029709,50609.45203459914,-22327.70364031898,7.596707434388309,50816.75681341808,15622.502135492408,36.45895537586348,0.9373574954378344,30.0,12.0,120.0,247.0,367.0,18.0,1695.0,1698.0,18.0,6.0,12.0,0.3333333333333333,372.23746565154346,3577.9353464341693,64.0,53.0,11.0,0.828125,473.7903471072149,1062.981060482538,24.0,12.0,12.0,0.5,1755.808692805146,28833.716669708178,17.0,8.0,9.0,0.4705882352941176,1878.059575291471,30040.76667288287,91.0,43.0,48.0,0.4725274725274725,360.0749532521278,16221.917654913306,,,,,50468.0,50486.0,50498.0,50562.0,50571.0,50595.0,50602.0,50618.0,50775.0,50865.0,0.11604249588606362,-0.07632721384350141,0.05226384917706422,-0.08411342274805653,0.02304848161512372
33,33,51296.58976464753,5707.647900766507,7.64389620259217,51360.21923530245,-3484.545042538364,43.31541181468893,51403.84807327752,32180.57588119868,10.382553277706062,51429.75073289424,-22325.236261618255,8.205776013518237,51635.20502508066,15833.91816951758,36.62359231842077,0.9377914960314122,49.0,37.0,104.0,243.0,347.0,12.0,824.0,818.0,25.0,16.0,9.0,0.64,364.8150295733746,2564.0102688640254,65.0,44.0,21.0,0.676923076923077,308.3984040348989,2809.1324928295667,25.0,13.0,12.0,0.52,1772.873490888937,23782.48787785312,18.0,8.0,10.0,0.4444444444444444,1805.965645470438,31046.166216244805,91.0,43.0,48.0,0.4725274725274725,367.7708228138836,16966.43568789525,,,,,51287.0,51299.0,51336.0,51381.0,51392.0,51416.0,51422.0,51440.0,51592.0,51683.0,0.06391687712978614,-0.08850463985113013,0.055091415934688984,-0.08089346174469249,0.023226772986732487
34,34,52129.69864360057,3783.0400606125186,8.780562941269425,52209.94525260201,-5567.957625025944,35.6715156120968,52238.98009725928,34691.165034020574,10.77977739620281,52264.238522601954,-22841.560551333267,7.93126694302824,52470.79447834546,16098.286534540535,36.46886448092849,0.9288466331293715,50.0,37.0,100.0,242.0,342.0,13.0,832.0,838.0,25.0,12.0,13.0,0.48,356.6961319342474,2635.5776012503975,64.0,56.0,8.0,0.875,672.8959355907391,2269.4591308617364,25.0,13.0,12.0,0.52,1729.0636153704409,25712.37910371779,17.0,7.0,10.0,0.4117647058823529,1914.064662514691,33740.98877245485,97.0,47.0,50.0,0.4845360824742268,364.332465961628,16197.615907980202,,,,,52124.0,52137.0,52174.0,52218.0,52226.0,52251.0,52257.0,52274.0,52430.0,52516.0,0.09428822487184925,-0.1208514828788058,0.04984161280472422,-0.08379745587929922,0.02263175432863088
35,35,52973.273982700426,2693.860302805228,6.140132467416533,53016.273982700426,-5785.705378118566,7.64389620259217,53083.201179060394,31469.4117498978,9.318706984971811,53109.34173855068,-22751.59038339686,7.767259352160288,53314.88234689328,16157.5485774246,39.58614253472679,0.9113825744290432,43.0,31.0,107.0,245.0,352.0,12.0,844.0,842.0,14.0,5.0,9.0,0.3571428571428571,392.5078269390844,3252.922940570499,48.0,4.0,44.0,0.0833333333333333,514.4958270672937,5471.944236931271,25.0,13.0,12.0,0.52,1727.1006208097908,26479.6089369076,18.0,8.0,10.0,0.4444444444444444,1829.962196751756,31011.57526785861,98.0,46.0,52.0,0.4693877551020408,319.072129343525,15861.245199804756,,,,,52969.0,52981.0,53012.0,53060.0,53070.0,53095.0,53101.0,53119.0,53270.0,53364.0,0.1457045959400158,-0.08892534158637039,0.05488188449583586,-0.08043227598221812,0.019747558103543873
36,36,53747.39728720114,4818.8528790236305,10.892823545572876,53814.21923530245,-4130.697349334055,43.31541181468896,53853.821948101286,34069.073577573785,10.200204935038672,53879.984172815,-22434.208060506437,7.671193202730843,54086.96928032616,16219.859828941058,36.35028557396818,0.9421937411602872,54.0,36.0,100.0,242.0,342.0,18.0,772.0,767.0,26.0,13.0,13.0,0.5,360.4200056694554,2832.073702113872,63.0,44.0,19.0,0.6984126984126984,302.76724319046224,3556.690178564744,25.0,13.0,12.0,0.52,1764.350074814976,25713.974710327733,18.0,8.0,10.0,0.4444444444444444,1890.5775000310443,32799.72300291358,96.0,46.0,50.0,0.4791666666666667,312.0863794439108,16234.645034237014,,,,,53736.0,53754.0,53790.0,53832.0,53841.0,53866.0,53872.0,53890.0,54042.0,54132.0,0.07479373508960119,-0.07329688369429291,0.05178743915057239,-0.08427208551030822,0.019241003481858445
37,37,54586.30135639943,3419.0299513455307,7.214813840705769,54662.60271279886,-6460.615676937,20.383723206912453,54695.79473033008,34030.31231936954,10.718888845748104,54721.186438333185,-23200.82795618517,8.480955777517897,54929.63707492448,16348.160330059474,37.80113659705176,0.922809722205071,30.0,16.0,123.0,246.0,369.0,14.0,844.0,845.0,23.0,12.0,11.0,0.5217391304347826,341.1593214163162,3832.127273032688,66.0,55.0,11.0,0.8333333333333334,450.53618804648227,2309.3007428810815,25.0,13.0,12.0,0.52,1849.741852029283,26737.325230004102,18.0,7.0,11.0,0.3888888888888889,1885.6543180677345,31280.7788416143,94.0,45.0,49.0,0.4787234042553192,254.4063125428524,15806.4956102362,,,,,54578.0,54592.0,54608.0,54674.0,54683.0,54708.0,54714.0,54731.0,54886.0,54977.0,0.09978248984980544,-0.06973579772819469,0.054355711892083866,-0.08127530283095061,0.015561770095628055
38,38,56180.69864360057,2802.01710038927,6.355259934458847,56258.60271279886,-7432.073441471216,20.383723206912453,56291.49895847803,33280.01247624594,10.738756117688274,56317.027373699,-23715.560403514788,8.459867802296671,56526.74564043714,15377.060132739172,33.34754919170568,0.9246366334659216,29.0,17.0,123.0,243.0,366.0,12.0,1591.0,1596.0,23.0,11.0,12.0,0.4782608695652174,340.6146807686454,3154.670146842216,69.0,58.0,11.0,0.8405797101449275,413.4680179276719,2404.0995039833424,24.0,12.0,12.0,0.5,1753.4307062822452,28415.44792539883,18.0,8.0,10.0,0.4444444444444444,1874.189976014391,31742.91346515173,86.0,41.0,45.0,0.4767441860465116,334.559319704147,14809.833343988488,,,,,56175.0,56187.0,56204.0,56270.0,56279.0,56303.0,56310.0,56327.0,56488.0,56570.0,0.12156052892087116,-0.05563292951607645,0.05268720098989687,-0.07902785952030991,0.021757040475626387
39,39,57022.928378834025,3878.5335453132175,7.70472402596531,57101.45203459914,-7607.715924158393,15.28779240518434,57132.51764544761,31527.572414750368,11.292147034438065,57156.60271279886,-25682.19464324177,9.7071229319002,57364.544520714575,15256.68279318831,35.99528090215754,0.9211832549840488,35.0,18.0,118.0,244.0,362.0,17.0,843.0,839.0,18.0,8.0,10.0,0.4444444444444444,349.94147369709384,4403.88034074673,60.0,51.0,9.0,0.85,632.6895294959307,1205.4775311074932,24.0,14.0,10.0,0.5833333333333334,1829.2738941785417,18814.81770287964,19.0,8.0,11.0,0.4210526315789473,1868.756836256524,33913.485263744944,93.0,46.0,47.0,0.4946236559139785,306.78110990884596,14251.614573765375,,,,,57015.0,57032.0,57050.0,57110.0,57119.0,57143.0,57150.0,57168.0,57320.0,57412.0,0.0902252022855287,-0.08316418959425359,0.05802140012919944,-0.07276468628230276,0.020107982453814618
40,40,57821.84932180029,3125.310112517039,5.095930801728113,57900.178051898714,-5873.786781277984,22.93168860777651,57935.37484458773,32825.74848530346,10.639256558971809,57960.327670298146,-23877.968898363735,8.606384863231197,58167.96677471248,15582.74152610593,35.33419801403935,0.925830858039578,42.0,30.0,110.0,243.0,353.0,12.0,799.0,804.0,18.0,4.0,14.0,0.2222222222222222,377.5429291361304,3587.4842628134106,66.0,52.0,14.0,0.7878787878787878,420.6063829673067,1766.1463308611203,24.0,12.0,12.0,0.5,1768.8470808530567,25561.586903561787,19.0,7.0,12.0,0.3684210526315789,1924.3646686904128,32005.50743637444,89.0,42.0,47.0,0.4719101123595505,347.4526551270114,16050.908736838945,,,,,57819.0,57831.0,57861.0,57913.0,57923.0,57947.0,57953.0,57971.0,58130.0,58214.0,0.12080174944049557,-0.07160736312525692,0.05388596338161166,-0.08059163980326157,0.022297273849079785
41,41,58680.273982700426,4760.418975931887,7.64389620259217,58753.46584430388,-4442.962374785171,32.21190561070459,58791.460007902744,34113.2637795626,10.381081376390748,58817.02737369932,-22481.79229727556,8.141452658252813,59025.56238655473,15383.517491195793,37.37456353969811,0.9442505196190454,37.0,24.0,114.0,243.0,357.0,13.0,858.0,857.0,18.0,9.0,9.0,0.5,403.3965901017978,4575.746938802216,64.0,47.0,17.0,0.734375,295.6486869305731,3412.7740397859,24.0,12.0,12.0,0.5,1751.1959924960909,29002.86840267193,17.0,7.0,10.0,0.4117647058823529,1893.1229594075703,31097.63407791796,91.0,43.0,48.0,0.4725274725274725,454.4437988701911,15275.685486287612,,,,,58676.0,58689.0,58713.0,58769.0,58779.0,58803.0,58810.0,58827.0,58983.0,59070.0,0.08473972399096026,-0.06654314441383684,0.05133475365512343,-0.08420694108258385,0.029540955059873385
42,42,59437.61850859341,4081.1993824494702,7.573972058395248,59509.753390998565,-4043.2460817242386,25.47965400864057,59546.71220638616,32817.42189426484,10.66692550830268,59571.59757011222,-23821.544924588445,8.36666022835874,59777.46468769422,16205.271555078562,36.55003152437103,0.9325568968727646,48.0,30.0,105.0,243.0,348.0,18.0,758.0,754.0,18.0,9.0,9.0,0.5,399.4499118692158,3935.833539577395,67.0,53.0,14.0,0.7910447761194029,441.4327528706704,1033.1880462470433,25.0,13.0,12.0,0.52,1824.3503223063851,21471.039661561135,17.0,7.0,10.0,0.4117647058823529,1924.170528455724,33309.46741203667,91.0,42.0,49.0,0.4615384615384615,330.95054446334575,17149.701751762484,,,,,59429.0,59447.0,59477.0,59524.0,59534.0,59558.0,59565.0,59582.0,59735.0,59825.0,0.09787561803203851,-0.10917781009322633,0.055590909248883075,-0.08077438027411932,0.02042240041078666
43,43,60234.32822928876,3952.3536942944097,8.519830074100684,60309.178051898714,-6133.586095206769,22.93168860777651,60343.85104315263,34410.407346498134,10.40671236442697,60369.45203459914,-22786.586097157655,7.675792154739482,60576.8365687152,15726.425233545122,36.68897114841528,0.9370185647663956,30.0,11.0,122.0,246.0,368.0,19.0,799.0,798.0,24.0,13.0,11.0,0.5416666666666666,358.86777649685007,4176.334759027752,67.0,53.0,14.0,0.7910447761194029,464.3613323741062,1886.2084665953112,24.0,12.0,12.0,0.5,1810.2389273848685,27466.955689178183,17.0,7.0,10.0,0.4117647058823529,1972.102416189916,31786.989133328017,91.0,44.0,47.0,0.4835164835164835,371.13570597285366,15460.90600293545,,,,,60226.0,60245.0,60256.0,60322.0,60332.0,60356.0,60363.0,60378.0,60536.0,60624.0,0.09079849736497751,-0.07570796678585665,0.052607308863174274,-0.08654663791149968,0.023599495782500254
44,44,61009.140060720296,4027.177210940647,7.637191453832414,61078.90406919828,-4757.170935106713,30.57558481036868,61117.7123612943,33163.42249236355,10.47628500215773,61143.40048114008,-23454.5236373341,8.153894771356512,61350.052829000706,15237.768730640662,36.273027561066186,0.9259539211069672,30.0,12.0,125.0,242.0,367.0,18.0,772.0,771.0,18.0,11.0,7.0,0.6111111111111112,420.7387464263422,2936.845684429092,69.0,52.0,17.0,0.7536231884057971,338.8747300298599,2989.0702527934654,25.0,13.0,12.0,0.52,1780.8120929921197,24853.2797227682,17.0,7.0,10.0,0.4117647058823529,1952.9685517733624,34209.72322970475,95.0,46.0,49.0,0.4842105263157895,372.7461205548863,14939.945700003676,,,,,60998.0,61016.0,61028.0,61096.0,61105.0,61130.0,61136.0,61153.0,61311.0,61395.0,0.10447485282825889,-0.07123450778887311,0.05369807936446193,-0.08326617849806571,0.02446198830970277
45,45,61739.05830264216,2776.933134377676,7.32696281171703,61811.753390998565,-6016.000967115774,25.47965400864049,61848.3570514626,32614.293736675125,10.911462500175244,61873.179592196866,-23879.40843126645,9.144634094897636,62078.66682134028,15439.802784398436,35.28894489352531,0.9347739684429596,42.0,30.0,112.0,240.0,352.0,12.0,731.0,732.0,12.0,9.0,3.0,0.75,311.87861018411314,2942.886948344254,70.0,55.0,15.0,0.7857142857142857,365.7175647932761,2484.282017237,25.0,13.0,12.0,0.52,1765.4781540708605,23097.635830864267,18.0,7.0,11.0,0.3888888888888889,1879.5019185072672,33558.78272426204,91.0,44.0,47.0,0.4835164835164835,291.7844226578375,15771.704517521435,,,,,61730.0,61742.0,61772.0,61826.0,61835.0,61860.0,61866.0,61884.0,62036.0,62124.0,0.11231045008723503,-0.060790808843338755,0.05413203696284741,-0.07870806029040257,0.018898196222601946
46,46,62527.48927222605,3291.274920000986,7.948854758564003,62604.60271279886,-6942.2368376772665,20.383723206912453,62638.48720249976,33786.752444724596,10.780032466126668,62663.354298107166,-23488.43069738357,8.22889485950963,62872.525544309894,16183.075634698756,35.98046298522385,0.9347390616301487,42.0,19.0,115.0,246.0,361.0,23.0,786.0,791.0,25.0,12.0,13.0,0.48,322.2858860289364,3648.91616394837,66.0,54.0,12.0,0.8181818181818182,441.3443315898238,2490.2788735297704,25.0,12.0,13.0,0.48,1767.3389420666083,28524.083783268103,18.0,7.0,11.0,0.3888888888888889,1936.9365605802168,32292.55625263032,93.0,46.0,47.0,0.4946236559139785,291.3167119225967,15657.41020092183,,,,,62516.0,62539.0,62558.0,62616.0,62626.0,62651.0,62657.0,62673.0,62828.0,62919.0,0.09792129003578948,-0.06357379356384632,0.0523086362016589,-0.0824634299981555,0.018001319310278284
47,47,63331.43815682477,4704.67400847863,8.910148559245824,63405.75339100203,-4579.460114523814,25.479654008565937,63441.89218053008,33992.20680189371,10.582298192565048,63467.638621359634,-23493.078743161943,7.861169736475443,63673.56152939511,15649.400381626112,39.98164884916975,0.933812033768606,43.0,20.0,114.0,245.0,359.0,23.0,804.0,804.0,25.0,12.0,13.0,0.48,338.210671829881,4194.70252762133,57.0,43.0,14.0,0.7543859649122807,361.5831793420638,1934.6225090226076,25.0,13.0,12.0,0.52,1756.073072478289,27231.585305574496,18.0,8.0,10.0,0.4444444444444444,1923.8945261942915,30834.566593109244,102.0,53.0,49.0,0.5196078431372549,375.94919356952545,15982.360367631474,,,,,63320.0,63343.0,63363.0,63420.0,63429.0,63454.0,63461.0,63477.0,63626.0,63722.0,0.07188822673374762,-0.07895759986975283,0.05166104933147376,-0.08189197113018971,0.024023233120862932
48,48,64084.115581217295,4247.265099964644,7.801315923096128,64160.60271279886,-4925.229935660157,20.383723206912453,64194.36023708966,32280.54107765732,10.687497013080463,64219.78514572978,-23829.17621325992,8.626135129657417,64425.67758544676,15548.584128721432,35.5745938709978,0.927886228467463,34.0,10.0,123.0,240.0,363.0,24.0,752.0,752.0,24.0,11.0,13.0,0.4583333333333333,374.46332353437504,3788.8354639429367,66.0,54.0,12.0,0.8181818181818182,442.4165393719542,720.9132456324119,24.0,12.0,12.0,0.5,1766.7549669134469,25811.21691709605,18.0,7.0,11.0,0.3888888888888889,1850.1178227339856,32088.831151765877,85.0,41.0,44.0,0.4823529411764706,321.2122820903761,16948.075605664737,,,,,64073.0,64097.0,64107.0,64172.0,64182.0,64206.0,64213.0,64230.0,64385.0,64470.0,0.08816575248328441,-0.08982657564243333,0.054731268681747415,-0.07764086371162399,0.02065861942355452
49,49,64886.43712606365,3510.50937897476,7.454071369930197,64963.178051898714,-6242.902327551835,22.93168860777651,64996.5667140723,33167.58134143128,10.682352530782262,65021.62797368465,-23322.8691902224,8.159321154167786,65231.29608742293,15230.01968497478,34.22528783800603,0.9220170398447202,42.0,24.0,112.0,244.0,356.0,18.0,804.0,806.0,18.0,9.0,9.0,0.5,309.7955457373429,4089.857612117687,69.0,56.0,13.0,0.8115942028985508,396.58177796200414,2201.487812788834,24.0,13.0,11.0,0.5416666666666666,1769.4649889331572,24926.284855402984,17.0,8.0,9.0,0.4705882352941176,1881.1297828796112,31502.95669648446,85.0,41.0,44.0,0.4823529411764706,418.0253329821185,15768.098283497668,,,,,64877.0,64895.0,64919.0,64976.0,64984.0,65008.0,65015.0,65031.0,65191.0,65275.0,0.08824803249146092,-0.06352522547273687,0.05334923191166883,-0.08065601910026719,0.027447458481916646
50,50,65699.69864360057,3950.643742803629,8.851263756475518,65779.52059170186,-4601.5604766878605,33.12355020335342,65809.2278950395,33524.4050441385,10.651081729445153,65835.14931615305,-22509.5332591856,8.447678645504668,66041.93672578722,14857.613528364742,36.66192833836178,0.9425907946347593,57.0,42.0,95.0,245.0,340.0,15.0,813.0,810.0,19.0,6.0,13.0,0.3157894736842105,409.704194116919,4212.266784844796,43.0,36.0,7.0,0.8372093023255814,634.0655055339851,2174.580274681049,25.0,13.0,12.0,0.52,1686.9924851211535,26860.402974997523,19.0,8.0,11.0,0.4210526315789473,1797.094034476602,31622.58010175193,96.0,46.0,50.0,0.4791666666666667,310.5171416356147,15249.946304420591,,,,,65694.0,65709.0,65751.0,65787.0,65796.0,65821.0,65827.0,65846.0,66001.0,66091.0,0.10370567957772035,-0.13779358301303402,0.05032132510331044,-0.07983701899919454,0.020899530132669347
51,51,66490.14268681589,4696.479980994216,9.243577244140374,66569.45203459915,-4976.443277399942,15.28779240518434,66599.98157939146,32833.85379212527,10.722732246729056,66625.15541619693,-22800.25205276064,8.068306670829733,66827.7066101368,16327.58002571157,39.310500374739384,0.9309203950792828,63.0,39.0,93.0,242.0,335.0,24.0,792.0,793.0,24.0,11.0,13.0,0.4583333333333333,387.82849025472194,4954.158978692534,56.0,47.0,9.0,0.8392857142857143,477.7421738238088,1090.602039308233,25.0,13.0,12.0,0.52,1778.9054677936067,26348.764235276067,17.0,7.0,10.0,0.4117647058823529,1855.2614724128168,32298.785496479493,98.0,48.0,50.0,0.4897959183673469,340.1197508851217,16802.89563158733,,,,,66479.0,66503.0,66542.0,66578.0,66587.0,66612.0,66618.0,66635.0,66784.0,66877.0,0.08257854644844478,-0.09600072726507922,0.05417900314279439,-0.08137021766775526,0.02083099579665352
52,52,67376.17805189872,4815.072894058011,10.472782820933986,67452.027373699,-3628.1821215571463,17.8357578060484,67484.22519202958,33456.13925897275,10.071400357713514,67510.45203459915,-21507.37312074035,7.556766298049185,67718.82480850889,15435.27737174877,38.99029369515428,0.9386562944788828,84.0,59.0,71.0,249.0,320.0,25.0,890.0,885.0,27.0,13.0,14.0,0.4814814814814814,397.4054772482419,4977.837912428689,54.0,44.0,10.0,0.8148148148148148,485.5309634333895,284.22307816881903,25.0,12.0,13.0,0.48,1727.921794143005,29518.85124437783,16.0,7.0,9.0,0.4375,1844.1778825826177,30739.6467409451,96.0,47.0,49.0,0.4895833333333333,273.72255512586827,16661.435577699056,,,,,67364.0,67389.0,67448.0,67462.0,67472.0,67497.0,67503.0,67519.0,67677.0,67768.0,0.08253363676771246,-0.1338221035125461,0.05164737571085959,-0.08574630998539795,0.017733568923540267
53,53,68185.4822277904,5946.276756265042,14.583755539526193,68237.34253980315,-3295.0354869728117,56.055238819009254,68295.06001196311,32373.90598167729,10.424302133198628,68320.55268391578,-22906.515865351197,8.07036004238523,68525.13439816103,16521.21051799863,38.910065266341405,0.937304104467612,35.0,10.0,125.0,243.0,368.0,25.0,803.0,807.0,28.0,14.0,14.0,0.5,326.63999770237945,4177.449442007358,66.0,31.0,35.0,0.4696969696969697,251.35892202610148,2778.2270372316634,25.0,13.0,12.0,0.52,1727.0707724309068,24060.40444380303,18.0,8.0,10.0,0.4444444444444444,1839.8324343246736,31828.10010109293,99.0,49.0,50.0,0.494949494949495,263.77788504417373,17199.77427604766,,,,,68171.0,68196.0,68206.0,68272.0,68282.0,68307.0,68313.0,68331.0,68476.0,68574.0,0.05493185250051287,-0.0762841319979312,0.05334761809119912,-0.08031917403500184,0.015966014400506996
54,54,69045.48548245171,3956.550478074399,8.089138926179064,69123.45203459915,-6514.306080070929,15.287792405184335,69154.363457836,32998.43574196373,10.905178572920567,69179.231926558,-23239.522829587273,7.9268110965924,69390.18400412494,16224.815108685294,36.446355014478776,0.94439407390339,43.0,21.0,111.0,245.0,356.0,22.0,862.0,862.0,22.0,10.0,12.0,0.4545454545454545,325.58086657785765,4480.169110001036,55.0,46.0,9.0,0.8363636363636363,478.75799759582384,570.5075721221588,24.0,12.0,12.0,0.5,1773.7896971497212,28397.486472169297,17.0,7.0,10.0,0.4117647058823529,1928.8394390426224,32376.669407038113,91.0,44.0,47.0,0.4835164835164835,325.4648251388906,16769.417718805882,,,,,69035.0,69057.0,69078.0,69132.0,69142.0,69166.0,69173.0,69189.0,69349.0,69434.0,0.08228907185238632,-0.07349332249838206,0.053753750966262115,-0.08299823766548817,0.02005969392924954
55,55,69838.69864360057,3394.529513105222,6.939886826229066,69911.32873009844,-5320.144830744027,28.027619409504627,69948.32796924922,32476.714189209142,10.715267386067644,69973.92590852955,-24664.973276957106,8.749140693728373,70180.72074430356,15855.945783413134,37.555163321933016,0.9279529465623187,25.0,13.0,127.0,243.0,370.0,12.0,792.0,791.0,20.0,11.0,9.0,0.55,339.88496617900836,3609.2204359868047,70.0,54.0,16.0,0.7714285714285715,326.72129869161,2896.830406546746,24.0,12.0,12.0,0.5,1711.4034600044265,25912.66454179186,20.0,9.0,11.0,0.45,1913.8211177388532,32350.96352929411,92.0,44.0,48.0,0.4782608695652174,303.9908068870288,16132.72779766835,,,,,69833.0,69845.0,69858.0,69927.0,69936.0,69960.0,69966.0,69985.0,70138.0,70228.0,0.10012726796653801,-0.06141210607717943,0.052696324204283725,-0.07759266942027515,0.019172038744294448
56,56,70588.60818700634,4261.155423479665,9.0929247540186,70662.37420740888,-4909.362903306535,30.575584810234385,70697.79653361443,34626.26377917257,10.730780768376432,70722.47149661841,-23317.800181450453,8.251244242232595,70929.88437132964,16276.290099263822,35.84131727583955,0.9430225665698329,44.0,25.0,112.0,241.0,353.0,19.0,750.0,753.0,25.0,12.0,13.0,0.48,378.7558966794096,2978.272000661015,55.0,41.0,14.0,0.7454545454545455,344.6801035565449,2450.449112941508,25.0,13.0,12.0,0.52,1799.7873677948426,24957.41869330607,18.0,7.0,11.0,0.3888888888888889,1949.86566421426,33724.70496290758,90.0,45.0,45.0,0.5,333.9113982249805,16404.881633551762,,,,,70577.0,70596.0,70621.0,70676.0,70685.0,70709.0,70715.0,70733.0,70890.0,70974.0,0.08888572676612604,-0.07020872368681429,0.051977521434969275,-0.08362133859288313,0.020515203169061438
57,57,71373.52611451017,6749.217917531046,20.684769655888953,71417.2601729957,-4880.0196761819025,76.4389620259217,71483.12737895235,35962.3480361481,10.388322876063288,71508.41108106026,-21687.2071914546,7.360024618379948,71718.2601729957,15971.191150236484,35.451183532274925,0.9188761137065392,31.0,12.0,124.0,243.0,367.0,19.0,785.0,782.0,25.0,12.0,13.0,0.48,351.165605514644,3141.235541972655,69.0,24.0,45.0,0.3478260869565217,343.54671082150867,2653.2108612198044,25.0,13.0,12.0,0.52,1771.7691658536526,27695.15325693297,18.0,7.0,11.0,0.3888888888888889,1902.0600805547788,33117.880847913824,87.0,44.0,43.0,0.5057471264367817,324.622164176216,15887.347860822669,,,,,71363.0,71382.0,71394.0,71460.0,71470.0,71495.0,71501.0,71518.0,71674.0,71761.0,0.0520305626230402,-0.07039863230434708,0.049267338274818204,-0.08770424258704212,0.02032548237151425
58,58,72110.4221826429,3734.538060569326,6.8887053246044845,72184.60271279886,-4990.892920420472,20.383723206912453,72219.24681582532,32540.63836579689,10.697261583244112,72244.49188516363,-23861.110736149283,8.518399368569174,72447.07603661023,15782.791251051936,38.58201725957459,0.9219017221069458,48.0,31.0,105.0,242.0,347.0,17.0,738.0,735.0,17.0,8.0,9.0,0.4705882352941176,350.3036755791001,4717.336892935545,67.0,55.0,12.0,0.8208955223880597,374.4474652077193,2104.2439880345664,25.0,13.0,12.0,0.52,1805.2816789592227,24674.335250623764,19.0,7.0,12.0,0.3684210526315789,1937.4046681206537,32883.41508204686,97.0,46.0,51.0,0.4742268041237113,248.40772691287813,16305.93140112039,,,,,72102.0,72119.0,72150.0,72196.0,72207.0,72231.0,72238.0,72255.0,72402.0,72497.0,0.093801072555061,-0.0750261468595429,0.055477758569627035,-0.08119507467795746,0.01573915050649368
59,59,72904.737641225,3895.4309638822624,8.646204052121865,72975.90230033992,-5674.902226482171,33.12355021123273,73013.13165558729,35446.83011462126,10.56965988072837,73038.12951506507,-22625.86324928442,7.853843486759564,73247.22769268243,15638.132233346716,35.78403321443634,0.925208400431394,43.0,24.0,112.0,245.0,357.0,19.0,793.0,798.0,24.0,12.0,12.0,0.5,360.547758460767,2255.78007385972,68.0,52.0,16.0,0.7647058823529411,327.12090872314485,3453.237295468581,25.0,13.0,12.0,0.52,1784.7388553369265,27866.414804210428,17.0,7.0,10.0,0.4117647058823529,1925.353722801026,32905.453290029734,92.0,42.0,50.0,0.4565217391304347,363.1872364126661,15511.840447581748,,,,,72893.0,72912.0,72936.0,72992.0,73000.0,73025.0,73031.0,73048.0,73206.0,73293.0,0.09255657764280799,-0.05764344400448369,0.05034974494378694,-0.08509526030402037,0.02322446382939559
60,60,73708.38796262132,6579.266999577401,12.130778483152188,73774.34318440048,-3619.148625619719,58.60320421980446,73816.44850882793,34034.95395059688,10.243753088759114,73841.86718010614,-21763.55227640313,7.858129346094395,74047.71815799909,15755.117692475706,38.97280800680331,0.923755672597788,48.0,29.0,106.0,244.0,350.0,19.0,804.0,800.0,24.0,11.0,13.0,0.4583333333333333,365.185759669327,4004.843145850842,67.0,47.0,20.0,0.7014925373134329,272.164538877031,3420.8250222590523,24.0,12.0,12.0,0.5,1726.0232783129811,26135.801281098265,18.0,8.0,10.0,0.4444444444444444,1844.8567544564153,31590.72131491865,100.0,49.0,51.0,0.49,283.8519024404579,15374.498949129134,,,,,73698.0,73717.0,73746.0,73793.0,73804.0,73828.0,73835.0,73852.0,74007.0,74096.0,0.055505538792206426,-0.07520126058112006,0.05071325440364556,-0.0847681817299963,0.018016488862918442
61,61,74464.15067819973,2849.276414135964,5.095930801728113,74538.17805189872,-5838.234247568527,22.93168860777651,74572.49599770024,33009.1861889679,10.799464758716423,74597.61757774452,-24382.320416956045,8.516384323274822,74802.7257593193,15450.51772600024,35.03976416392717,0.9292901577243172,26.0,15.0,126.0,242.0,368.0,11.0,758.0,757.0,16.0,9.0,7.0,0.5625,322.6585179453834,3030.8649851714977,70.0,57.0,13.0,0.8142857142857143,402.1987361746721,1944.8147525102304,24.0,12.0,12.0,0.5,1754.391953961337,26332.523501699252,19.0,8.0,11.0,0.4210526315789473,1886.6437978363203,32302.430451713604,94.0,46.0,48.0,0.4893617021276595,258.7737199212942,15248.818066646569,,,,,74456.0,74467.0,74482.0,74551.0,74560.0,74584.0,74590.0,74608.0,74760.0,74850.0,0.11324226612223187,-0.06889047597605003,0.05314859760304172,-0.0773775328013614,0.016748546845509773
62,62,75295.33803547082,4276.860121183198,8.326659979141493,75369.17805189872,-5176.111015005404,22.93168860777623,75403.5422553021,35118.27591052548,10.24989781062426,75429.45203459915,-22763.03016159543,7.468352737020708,75636.09357612493,15492.717458794392,37.51514937369985,0.9553730324754176,43.0,23.0,110.0,246.0,356.0,20.0,830.0,831.0,20.0,10.0,10.0,0.5,308.1222832492051,4826.98758371363,65.0,52.0,13.0,0.8,429.0333971074996,934.6284933577874,25.0,13.0,12.0,0.52,1862.6634125611456,27681.54368895039,17.0,7.0,10.0,0.4117647058823529,1945.453010873343,31866.326267885855,92.0,44.0,48.0,0.4782608695652174,284.032499835412,15516.702397481542,,,,,75285.0,75305.0,75328.0,75382.0,75391.0,75416.0,75422.0,75438.0,75593.0,75684.0,0.07204404037510648,-0.08288720930902439,0.053039716907141134,-0.08546546734167261,0.018333291147330764
63,63,76095.82986557807,6262.3330818193845,10.191861603456012,76138.64389620256,-4480.570682775041,45.86337721394184,76203.38431575321,33139.598957729635,9.982887833849748,76229.25742067336,-23037.210498749413,7.855809690103308,76435.05684184353,15400.152469354562,37.81411665723913,0.9178968270936104,28.0,14.0,126.0,243.0,369.0,14.0,800.0,798.0,14.0,11.0,3.0,0.7857142857142857,400.61158494375314,1779.9809547321686,69.0,27.0,42.0,0.391304347826087,265.75387426093533,4562.441807584272,24.0,12.0,12.0,0.5,1809.576285435228,26387.982921870524,19.0,8.0,11.0,0.4210526315789473,1924.0181861162032,31377.017561665027,91.0,44.0,47.0,0.4835164835164835,327.8542094857458,16684.7163831111,,,,,76085.0,76099.0,76113.0,76181.0,76191.0,76215.0,76222.0,76239.0,76391.0,76482.0,0.06397161883752184,-0.05931250572222659,0.05460465251083414,-0.08351784545358257,0.021289023607925783
64,64,76841.54168799025,4646.839078671424,10.331285159064892,76918.45203459915,-4717.515201225944,15.28779240518434,76953.25080409045,31607.43904293227,10.739840573533176,76978.25708624072,-23441.37141089346,8.37307571327249,77182.09251141176,16362.713819265597,38.14565320349745,0.9435916512962575,58.0,31.0,100.0,242.0,342.0,27.0,745.0,751.0,32.0,16.0,16.0,0.5,331.6269867974615,3954.818583557509,51.0,38.0,13.0,0.7450980392156863,396.9771836822925,1438.5865834659528,25.0,13.0,12.0,0.52,1687.7632166120625,25136.966503141804,18.0,7.0,11.0,0.3888888888888889,1904.84763369977,32726.20182537292,97.0,45.0,52.0,0.4639175257731959,316.28456494175526,15569.2624132791,,,,,76830.0,76857.0,76888.0,76927.0,76940.0,76965.0,76971.0,76988.0,77138.0,77230.0,0.07136614399228923,-0.08414963529510827,0.05339765788425882,-0.0812600764823242,0.019329590948987885
65,65,77647.27398270041,1756.0877542741198,4.7878525622973696,77724.17805189872,-8695.309312145842,22.93168860777651,77758.92069323953,33381.779059965374,11.175608342952666,77782.61419676222,-25999.0655545912,9.542188731656111,77992.10932690158,14891.786599641731,33.36619717464018,0.9130784792186846,29.0,19.0,122.0,242.0,364.0,10.0,806.0,806.0,12.0,4.0,8.0,0.3333333333333333,340.9990962465281,2168.3166408812517,70.0,56.0,14.0,0.8,402.2577467109965,4735.780154688097,23.0,13.0,10.0,0.5652173913043478,1815.0400229613172,20938.849461328697,19.0,8.0,11.0,0.4210526315789473,1903.215834913706,33919.81390125045,86.0,42.0,44.0,0.4883720930232558,294.3257982512402,14458.259278131538,,,,,77643.0,77653.0,77672.0,77737.0,77746.0,77769.0,77775.0,77794.0,77951.0,78036.0,0.1941811252977391,-0.04626146491984041,0.0543721776991235,-0.07320323997481576,0.019764304053237047
66,66,78498.14208252144,4355.321694891375,9.00243316121057,78570.17805189885,-5046.059675523412,22.93168860777598,78605.48116971173,32527.107080366834,10.365560033418683,78630.85179088922,-23889.436976449993,8.327501934144134,78835.95827459997,15163.412166345272,40.03099047618641,0.9419121433850296,48.0,30.0,105.0,244.0,349.0,18.0,850.0,846.0,20.0,11.0,9.0,0.55,434.3133338517034,3664.2554726928856,63.0,49.0,14.0,0.7777777777777778,519.8632786614893,1104.4609774661124,24.0,12.0,12.0,0.5,1759.6174526711034,26137.4497948461,18.0,8.0,10.0,0.4444444444444444,1888.890996743386,33027.98817261912,98.0,49.0,49.0,0.5,341.16690566218773,15999.51095424137,,,,,78488.0,78506.0,78536.0,78583.0,78593.0,78617.0,78623.0,78641.0,78787.0,78885.0,0.09972015026149188,-0.10302360893256093,0.05409695514339786,-0.07906804160371962,0.02249934921767788
67,67,79252.47741893888,3056.32903802773,6.364674678970074,79328.60271279886,-6033.910128818388,20.383723206912453,79361.25990205209,33211.77138591154,10.772820905949391,79386.36968651156,-24179.810199307492,8.642214486069859,79590.54436874685,15370.41622979092,34.64921782504696,0.9277306462613746,37.0,23.0,114.0,238.0,352.0,14.0,758.0,756.0,19.0,7.0,12.0,0.3684210526315789,334.48183543384533,3326.767262198842,57.0,46.0,11.0,0.8070175438596491,459.8821458663914,1705.993481216192,25.0,13.0,12.0,0.52,1759.0214898354045,25420.285754523105,18.0,7.0,11.0,0.3888888888888889,1917.0370495650425,33615.33169926614,90.0,45.0,45.0,0.5,310.429201943382,15335.749220046344,,,,,79246.0,79260.0,79283.0,79340.0,79348.0,79373.0,79379.0,79397.0,79552.0,79635.0,0.10943907912797529,-0.07621627370118776,0.052963796161188285,-0.07928255159008428,0.0201965384217578
68,68,80054.27398270041,2578.4678539784786,6.326753337155216,80129.75339099858,-7876.843836151065,25.47965400864057,80164.78626204339,34280.640975333336,10.379763339558282,80191.45203459915,-23815.719215006873,8.768417086712411,80400.44151829513,15095.533310982586,33.14147765541804,0.9104316472849618,28.0,15.0,122.0,242.0,364.0,13.0,799.0,807.0,20.0,8.0,12.0,0.4,330.1895366337669,2890.921438069555,67.0,53.0,14.0,0.7910447761194029,361.83049676323094,3607.701406812657,24.0,12.0,12.0,0.5,1814.0731378217367,26818.33898713086,17.0,8.0,9.0,0.4705882352941176,1872.4923086407,33335.675567858816,89.0,42.0,47.0,0.4719101123595505,328.34967786020087,14982.887465194228,,,,,80050.0,80063.0,80078.0,80144.0,80153.0,80177.0,80183.0,80200.0,80362.0,80442.0,0.12805648754716756,-0.045935974394032866,0.05291829692236661,-0.07862421838853376,0.021751446013590903
69,69,80832.8943715585,4813.3975406527925,8.861340741712295,80896.22225359028,-5219.516123993275,40.767446413824906,80939.51157856856,33650.78369625437,10.516871092051938,80965.38351863463,-23111.044153337974,8.265099547885509,81177.2601729957,15897.92890260099,35.269297739202514,0.913761523678779,29.0,11.0,125.0,244.0,369.0,18.0,778.0,771.0,20.0,12.0,8.0,0.6,400.76980441738976,1084.919161177965,70.0,48.0,22.0,0.6857142857142857,333.7576335064057,3511.9546570369,25.0,13.0,12.0,0.52,1877.7787792886584,22171.55447304488,18.0,7.0,11.0,0.3888888888888889,1926.033933163309,32725.704414718617,92.0,49.0,43.0,0.532608695652174,254.8005185313631,15336.09545246084,,,,,80822.0,80840.0,80851.0,80917.0,80927.0,80951.0,80958.0,80976.0,81129.0,81220.0,0.08326131407858688,-0.06394417137101571,0.05580193306159677,-0.08333824817192988,0.01602727752101573
70,70,81563.57264560406,5993.37197833458,11.8132873386555,81631.7398270043,-4433.454870255807,67.65646897498921,81672.49959153672,35051.2708509831,10.423511219055756,81697.75892063639,-20799.68022419017,7.502455027339542,81905.20666564496,15921.814917000487,36.416122236389754,0.944791438783008,27.0,10.0,127.0,242.0,369.0,17.0,731.0,731.0,17.0,10.0,7.0,0.5882352941176471,335.35811136593486,2449.7763479743994,69.0,51.0,18.0,0.7391304347826086,262.7565047939144,4512.966198066526,25.0,12.0,13.0,0.48,1716.4688232268245,26014.108551534657,18.0,8.0,10.0,0.4444444444444444,1886.8756680765357,32075.213593969544,91.0,44.0,47.0,0.4835164835164835,276.1681585910033,15913.893314365045,,,,,81554.0,81571.0,81581.0,81649.0,81660.0,81684.0,81691.0,81708.0,81862.0,81950.0,0.055954830198796233,-0.05926675978067497,0.04897023079488948,-0.09071657101161038,0.01734526874170138
71,71,82358.49631697203,6973.791944546308,17.502148764608787,82407.80813839656,-5033.881203142449,61.15116962073736,82464.25617434079,35765.72549493645,10.312898215694874,82489.08305557526,-21576.6485374444,7.215983662641408,82697.63616840479,15745.767653011177,35.76022578154941,0.9250230966245826,43.0,19.0,111.0,244.0,355.0,24.0,793.0,798.0,30.0,17.0,13.0,0.5666666666666667,330.0662738727299,2527.951806326352,66.0,31.0,35.0,0.4696969696969697,253.4584883907077,4310.782920428614,24.0,12.0,12.0,0.5,1842.6440924516276,27690.2950624007,17.0,7.0,10.0,0.4117647058823529,1972.4593184488024,33035.692117086175,92.0,46.0,46.0,0.5,368.3750963434917,15250.004583099868,,,,,82345.0,82369.0,82388.0,82442.0,82452.0,82476.0,82482.0,82499.0,82658.0,82743.0,0.047329526962852767,-0.05035051050320453,0.05151982986371969,-0.09141639003971218,0.023395181769562352
72,72,83157.03958095974,4019.224870096475,6.952580486323428,83232.60271279886,-4996.802575940021,20.383723206912453,83266.37367950258,33112.76897488289,10.420717111106796,83292.027373699,-24249.492979643543,8.38595699571862,83498.02073044876,15699.032723773444,36.9036466380117,0.9311567914641568,76.0,59.0,76.0,241.0,317.0,17.0,805.0,798.0,18.0,8.0,10.0,0.4444444444444444,348.3409430697107,3719.93882993202,70.0,58.0,12.0,0.8285714285714286,449.9258921058744,1010.6463557022712,24.0,12.0,12.0,0.5,1787.3258169525652,27371.586454529817,18.0,8.0,10.0,0.4444444444444444,1951.1829879476104,33160.71232716873,90.0,42.0,48.0,0.4666666666666667,262.1277480018182,16159.809788668395,,,,,83150.0,83167.0,83226.0,83244.0,83254.0,83278.0,83285.0,83302.0,83456.0,83543.0,0.0866686872041945,-0.09004275939824026,0.053976936157417395,-0.08046283646365508,0.016697063609840846
73,73,84711.31296084585,4087.489979421341,8.300555516850272,84790.45203459915,-7040.851335637675,15.28779240518434,84820.92896462209,32919.77163046249,11.157280059858865,84845.027373699,-23447.71802330106,8.470529347231542,85052.52403556563,15863.198580584478,36.46746140658296,0.9313566603318856,42.0,19.0,112.0,244.0,356.0,23.0,1550.0,1557.0,23.0,10.0,13.0,0.4347826086956521,337.77882315641625,4502.116504445436,56.0,47.0,9.0,0.8392857142857143,527.3128616143723,637.0874786707518,24.0,13.0,11.0,0.5416666666666666,1837.5366925788271,25857.831387097973,18.0,7.0,11.0,0.3888888888888889,1901.5841568510805,32766.05679106876,97.0,47.0,50.0,0.4845360824742268,338.1320687730822,15984.931801477334,,,,,84701.0,84724.0,84743.0,84799.0,84808.0,84832.0,84839.0,84855.0,85012.0,85099.0,0.08263722354231558,-0.0748933383872697,0.055818634260465294,-0.08109890075278926,0.021315503746320987
74,74,85543.12330450071,4588.823196670303,9.360494533979582,85618.21923530243,-6586.62803904571,43.31541180290576,85649.83882079908,35830.106960621975,10.588084746885784,85675.48896537333,-22543.895603828943,7.9646375748584335,85887.68483389622,15781.281782333155,34.26010154321323,0.9219803729562464,26.0,12.0,124.0,243.0,367.0,14.0,831.0,827.0,18.0,11.0,7.0,0.6111111111111112,338.9446046068005,2008.1603375140512,67.0,57.0,10.0,0.8507462686567164,512.7978133056487,1834.711241102372,24.0,12.0,12.0,0.5,1829.00283915002,24724.57834960572,18.0,7.0,11.0,0.3888888888888889,1944.6260715233232,34001.50921519813,90.0,49.0,41.0,0.5444444444444444,339.37369185185645,15890.974677425907,,,,,85536.0,85550.0,85562.0,85628.0,85638.0,85662.0,85668.0,85686.0,85839.0,85929.0,0.0738630777609262,-0.07785437560247357,0.05104653584093767,-0.08625954030735665,0.02150482429328262
75,75,87105.92800052313,3682.5796719571185,6.799667506589813,87184.45203459915,-7302.925215270296,15.28779240518434,87214.71933246002,30858.22430522389,10.847755048216156,87240.027373699,-23974.993385041853,8.464750149423118,87445.7324446263,15040.062525876878,37.071760861994605,0.9294822809893132,38.0,22.0,113.0,243.0,356.0,16.0,1564.0,1564.0,19.0,10.0,9.0,0.5263157894736842,317.87018911192666,3300.765309580034,67.0,58.0,9.0,0.8656716417910447,511.9192623075456,830.448869849402,25.0,13.0,12.0,0.52,1762.855049708271,23702.80364596707,17.0,7.0,10.0,0.4117647058823529,1854.4311797418493,32962.23946954732,95.0,47.0,48.0,0.4947368421052631,296.3747384252107,14565.81877551818,,,,,87099.0,87115.0,87137.0,87193.0,87202.0,87227.0,87233.0,87250.0,87407.0,87493.0,0.08631726056940774,-0.07009783712930961,0.05712755965059996,-0.07734855855680195,0.019705685259970768
76,76,87951.41663670748,5882.387300706849,12.750200503393517,88021.59046693331,-4262.941306544538,56.05523881897436,88057.66549563578,37190.71375882691,10.18587840693184,88083.45203459915,-20542.756096319732,6.800616732370073,88291.69721171007,15566.051102629575,37.30048033314157,0.9341595627847884,37.0,17.0,116.0,247.0,363.0,20.0,844.0,842.0,23.0,12.0,11.0,0.5217391304347826,318.5125791543973,3171.5543343776044,60.0,47.0,13.0,0.7833333333333333,290.20637996393,1946.0897302265384,25.0,13.0,12.0,0.52,1794.5253919804122,27503.384576541517,17.0,7.0,10.0,0.4117647058823529,1977.6269405609803,30861.836854186466,97.0,46.0,51.0,0.4742268041237113,309.0209683926179,15386.103232311983,,,,,87939.0,87959.0,87976.0,88035.0,88045.0,88070.0,88076.0,88092.0,88247.0,88339.0,0.054146822178152684,-0.0680765600779913,0.04825197503918559,-0.09626882251283095,0.01985223910388004
77,77,88749.27398270041,2369.437206941579,5.362712102853858,88827.17805189872,-7191.726440052997,22.93168860777651,88862.65915156536,33628.97529179401,11.678630743318786,88885.46270361349,-27691.003725262795,9.880671616488128,89094.6967458828,15156.16327084436,34.185112215520725,0.9178352804347734,28.0,18.0,125.0,242.0,367.0,10.0,799.0,806.0,10.0,4.0,6.0,0.4,467.30201342102606,2772.8293767793284,70.0,57.0,13.0,0.8142857142857143,463.3362987480226,2818.3321125429543,24.0,14.0,10.0,0.5833333333333334,1817.4075851874104,16955.565824985173,19.0,6.0,13.0,0.3157894736842105,2022.2506415466653,36196.60475578055,92.0,46.0,46.0,0.5,375.28203920787695,14270.226091011044,,,,,88745.0,88755.0,88773.0,88840.0,88849.0,88872.0,88879.0,88898.0,89056.0,89140.0,0.19722067841764412,-0.06442629632956509,0.05404290702937017,-0.07302915638633008,0.024761018504584224
78,78,90226.56131502466,3371.586640708316,7.358252988469548,90305.027373699,-5722.139832373409,17.8357578060484,90336.48192868767,32839.48845386552,10.859324040570632,90361.64695025068,-22117.50611467772,8.37874511835189,90566.36911242224,16387.899562071496,38.30657203536045,0.939642070948143,36.0,12.0,121.0,242.0,363.0,24.0,1477.0,1474.0,25.0,12.0,13.0,0.48,309.1469966976329,3042.0197632447307,69.0,59.0,10.0,0.855072463768116,468.3855461393811,246.08854694221552,25.0,13.0,12.0,0.52,1702.3197298589832,27955.897468131356,17.0,7.0,10.0,0.4117647058823529,1790.2056487747109,30749.270978450942,103.0,50.0,53.0,0.4854368932038835,314.1566970180918,16561.802892275016,,,,,90215.0,90239.0,90251.0,90315.0,90324.0,90348.0,90355.0,90372.0,90521.0,90614.0,0.09169184412021698,-0.08185496332848367,0.05183758365330457,-0.0809406648060871,0.01917004042087143
79,79,91031.972626301,3727.976098633241,9.490988247881566,91107.75339099858,-5888.000145849204,25.47965400864057,91143.9624094006,34196.9506886921,10.507087609694752,91169.14252157835,-21807.02696771743,7.749733462685406,91378.54493942267,15699.692224956949,36.08713414289099,0.9381621437616874,47.0,23.0,110.0,245.0,355.0,24.0,804.0,808.0,27.0,12.0,15.0,0.4444444444444444,309.16571617066046,3404.170803548208,66.0,51.0,15.0,0.7727272727272727,431.3495675184867,1699.424476870502,24.0,12.0,12.0,0.5,1764.0563291832857,26964.541068190472,18.0,7.0,11.0,0.3888888888888889,1901.9903874136164,29698.704675207555,92.0,46.0,46.0,0.5,289.7506633979054,15408.168568919176,,,,,91022.0,91046.0,91069.0,91122.0,91132.0,91156.0,91163.0,91179.0,91338.0,91424.0,0.0829312495549549,-0.07325909592963754,0.051585193815734155,-0.08721915143358491,0.018455818066121354
80,80,91869.72293369586,4790.0634693383645,11.0134665566841,91947.02737385996,-4733.389762991583,17.83575780604834,91978.80971732328,33553.54670816006,10.36737544668938,92004.2359268189,-22933.86892638905,7.82452735807827,92211.6536457552,16656.922568701928,38.12304619259023,0.9503374760929424,69.0,49.0,87.0,247.0,334.0,20.0,838.0,836.0,31.0,13.0,18.0,0.4193548387096774,293.84625259668684,4962.456236782289,56.0,45.0,11.0,0.8035714285714286,532.1832139164457,1290.3809796706887,25.0,13.0,12.0,0.52,1767.4097381923857,27663.390250048877,17.0,7.0,10.0,0.4117647058823529,1878.2671615901263,32208.761936815074,98.0,48.0,50.0,0.4897959183673469,326.98083901197697,16919.646027838135,,,,,91858.0,91878.0,91927.0,91957.0,91966.0,91991.0,91997.0,92014.0,92169.0,92261.0,0.061344960140428964,-0.112431732978629,0.05267430455459304,-0.08189927166754156,0.01963032713055702
81,81,92625.91738112913,5209.9393790778495,7.64389620259217,92698.7672007033,-4223.339346385289,50.63565395418217,92734.81193805936,33504.86407887552,10.430834196294573,92760.92727541992,-21027.00569705225,7.725788392271086,92966.34063124048,16752.11392960102,36.38918544928904,0.9285703868679877,48.0,37.0,105.0,243.0,348.0,11.0,759.0,754.0,11.0,8.0,3.0,0.7272727272727273,394.95756063197047,3744.065986911712,67.0,53.0,14.0,0.7910447761194029,377.3257497890571,1606.8590135900108,25.0,13.0,12.0,0.52,1751.2230230474604,23687.82639471623,17.0,7.0,10.0,0.4117647058823529,1840.454431181764,31689.479484625765,94.0,46.0,48.0,0.4893617021276595,266.167603163117,16346.511023243474,,,,,92618.0,92629.0,92666.0,92712.0,92722.0,92747.0,92754.0,92771.0,92924.0,93014.0,0.0758084752805468,-0.08934298640056149,0.05226772503612658,-0.08752812729012457,0.015888597957347837
82,82,93376.50812085962,3054.5696075488763,6.667009775420663,93450.17805189872,-5878.867713961064,22.93168860777651,93484.79873523112,32419.72262064658,10.57712958786892,93510.66869809396,-22484.16358801072,8.022504407075333,93716.21022667045,15985.182698606037,35.39418485575141,0.9327459842200432,36.0,19.0,116.0,242.0,358.0,17.0,750.0,751.0,17.0,9.0,8.0,0.5294117647058824,324.9159278253625,3146.7031935969267,70.0,56.0,14.0,0.8,355.59330935557784,2157.7653364641274,25.0,13.0,12.0,0.52,1713.1715073609964,25011.58979197834,18.0,8.0,10.0,0.4444444444444444,1836.58802885575,30388.691707603393,90.0,42.0,48.0,0.4666666666666667,234.37781693229655,16491.53556017066,,,,,93368.0,93385.0,93404.0,93463.0,93473.0,93497.0,93504.0,93520.0,93675.0,93762.0,0.10637044479928863,-0.06048670027242137,0.05284349676298461,-0.08168362686326824,0.014662191940586022
83,83,94193.04670052444,3964.597969159632,9.26637498788936,94268.17805189872,-4867.909896325748,22.93168860777651,94301.87805717958,35076.629539619054,9.881190931002854,94328.87669549928,-20667.44534243649,6.999088703393906,94536.58770129184,16120.235501510477,37.04616500825054,0.9428101737220944,41.0,18.0,114.0,248.0,362.0,23.0,814.0,818.0,29.0,13.0,16.0,0.4482758620689655,285.5795039636145,3887.5519295282065,59.0,46.0,13.0,0.7796610169491526,316.16778028054006,1217.9761433608817,25.0,12.0,13.0,0.48,1755.998944729717,31402.172822799857,16.0,8.0,8.0,0.5,1806.1867886509465,29006.786886470516,92.0,44.0,48.0,0.4782608695652174,319.8419551214109,15024.59498342706,,,,,94181.0,94204.0,94222.0,94281.0,94290.0,94315.0,94321.0,94336.0,94495.0,94584.0,0.07203239929625152,-0.06494939039836799,0.05006179236081723,-0.08739284215946617,0.01984102248949412
84,84,95016.69864360055,4809.5778558952425,10.191861603456228,95085.21923530244,-3859.3554418136537,43.315411813987005,95126.79958507742,33265.98877061778,10.188212697082315,95152.59497244487,-22789.65924134995,8.03890577306715,95360.18150608135,16033.00110488592,37.16951336877659,0.9323615805289684,50.0,37.0,102.0,243.0,345.0,13.0,825.0,824.0,27.0,13.0,14.0,0.4814814814814814,380.8662570214505,3806.534490124278,57.0,36.0,21.0,0.631578947368421,273.68847705687415,3789.753469844793,24.0,13.0,11.0,0.5416666666666666,1795.7114675971618,24320.158380692323,18.0,8.0,10.0,0.4444444444444444,1814.8752190504897,31481.414349354964,88.0,42.0,46.0,0.4772727272727273,292.93325868213964,17270.37633431092,,,,,95011.0,95024.0,95061.0,95105.0,95114.0,95138.0,95145.0,95163.0,95318.0,95406.0,0.0791891239591041,-0.07091559230114805,0.05398040262621701,-0.07963590854213164,0.018270644202280428
85,85,96620.972626301,3175.102367892596,8.826154040419228,96700.94525260196,-5863.172272683634,35.6715156120968,96729.240352242,34631.176346094006,10.21612229990214,96756.45203459916,-20810.917239878887,7.670389596234544,96964.6098873995,15859.99713539672,33.80459838752259,0.9340924538877948,34.0,18.0,120.0,242.0,362.0,16.0,1603.0,1605.0,25.0,13.0,12.0,0.52,236.93709776493927,2319.4154705635633,64.0,56.0,8.0,0.875,713.6924790356528,1759.327181341021,25.0,12.0,13.0,0.48,1646.1330356703668,27817.340657788256,17.0,8.0,9.0,0.4705882352941176,1746.025061905743,30315.17328151215,85.0,42.0,43.0,0.4941176470588235,352.88692735717575,15619.08949853006,,,,,96611.0,96627.0,96645.0,96709.0,96717.0,96742.0,96748.0,96765.0,96923.0,97007.0,0.07462345156518561,-0.12172463059984223,0.047533269422308594,-0.08389947649976356,0.022250125541926756
86,86,97516.49580005188,4826.591334398062,11.478655264193266,97587.2739827004,-3059.978203050208,7.64389620259217,97625.73041618166,34503.277632506455,9.806210002184956,97650.8603321571,-20000.507156870557,6.9430916283116995,97858.98326712185,17779.49069774345,41.29991808704781,0.9458850447206016,70.0,45.0,84.0,252.0,336.0,25.0,898.0,897.0,25.0,10.0,15.0,0.4,328.9617174587746,6137.018809078128,14.0,11.0,3.0,0.7857142857142857,328.07665869354724,2469.1477604159863,26.0,14.0,12.0,0.5384615384615384,1811.657413270553,27201.734885346803,16.0,7.0,9.0,0.4375,1874.5748520173215,28636.28302397023,105.0,52.0,53.0,0.4952380952380952,288.0349912247265,17532.033990373682,,,,,97506.0,97531.0,97576.0,97589.0,97613.0,97638.0,97644.0,97660.0,97814.0,97912.0,0.06815611570723552,-0.10721535805925615,0.05250682073067001,-0.0937263659023451,0.016200407318826267
87,87,99046.30073262005,4355.917730115197,8.83371950425696,99118.75339099907,-4568.969980684759,25.47965400864056,99156.12738954526,33415.661756026806,10.53700438645013,99181.44987910351,-22513.534153142504,7.866446456611631,99386.7272636422,16612.854772054357,38.30507470360243,0.9437230272924532,57.0,36.0,99.0,242.0,341.0,21.0,1531.0,1525.0,21.0,10.0,11.0,0.4761904761904761,362.0334473858048,4831.965417065809,60.0,46.0,14.0,0.7666666666666667,321.93165225590855,2328.928664171722,25.0,13.0,12.0,0.52,1758.37699343102,25278.81932770498,18.0,7.0,11.0,0.3888888888888889,1923.9731676045692,31697.668492706493,91.0,44.0,47.0,0.4835164835164835,281.5387543083268,16589.72775745188,,,,,99036.0,99057.0,99093.0,99133.0,99143.0,99168.0,99175.0,99192.0,99344.0,99434.0,0.08311301310464154,-0.0704604437360869,0.05262134283825402,-0.0854585137329945,0.01694704240609644
88,88,99840.98881976648,2515.0890782982806,6.429056576371917,99917.60271279886,-6996.669650925712,20.383723206912453,99951.23973295,34322.8160408513,10.932914605431725,99976.06752144633,-23415.51610360743,8.45754116595864,100184.10641929173,15869.75809309315,34.71676762063872,0.9238843070388144,29.0,15.0,123.0,243.0,366.0,14.0,792.0,798.0,19.0,8.0,11.0,0.4210526315789473,297.2959417048466,1991.1357896974664,69.0,57.0,12.0,0.8260869565217391,449.02415725234346,1164.424205578873,24.0,12.0,12.0,0.5,1804.2074936365511,28638.56037183361,17.0,7.0,10.0,0.4117647058823529,1875.783414062888,31796.460511224366,88.0,41.0,47.0,0.4659090909090909,297.34730706956003,16453.449121341306,,,,,99834.0,99848.0,99863.0,99929.0,99939.0,99963.0,99969.0,99986.0,100144.0,100229.0,0.1182049352725106,-0.06417684121944134,0.052565835259238886,-0.08010856586560147,0.01873672587353249
89,89,100664.91395414296,4439.40604110035,8.907780311018902,100739.60271279886,-3960.409103305353,20.383723206912453,100774.09981717852,33397.78647741434,10.511717463833545,100799.39050842164,-22755.513130636973,7.736592468636849,101004.10562869324,16318.445490189182,40.83422059174224,0.9301066477955476,42.0,19.0,112.0,246.0,358.0,23.0,824.0,822.0,24.0,10.0,14.0,0.4166666666666667,326.6503801032337,4268.43278049938,54.0,43.0,11.0,0.7962962962962963,343.6385307417129,1080.5763611789823,25.0,13.0,12.0,0.52,1754.952898656557,27832.46071724559,17.0,7.0,10.0,0.4117647058823529,1925.8449009292056,32037.07892805428,103.0,50.0,53.0,0.4854368932038835,391.8294600447273,16894.181971569316,,,,,100655.0,100678.0,100697.0,100751.0,100761.0,100786.0,100792.0,100809.0,100960.0,101055.0,0.0735797485247081,-0.08676844279923318,0.0525469824128424,-0.08463201378378661,0.02401144522499396
90,90,101427.15067819972,2099.745878556543,4.767328646846079,101500.75339099858,-7341.900267649717,25.479654008639734,101536.79509074012,33366.622308329825,11.08437749217299,101561.32711242256,-24489.792311074892,9.205979123687978,101768.90216214616,15367.639948149295,34.09326785581398,0.9118250251020764,19.0,14.0,128.0,243.0,371.0,5.0,765.0,762.0,10.0,7.0,3.0,0.7,500.16291595195446,2024.0306259636632,72.0,58.0,14.0,0.8055555555555556,512.4066929695206,2683.003539657545,25.0,13.0,12.0,0.52,1872.0423790753791,20529.797806710805,19.0,7.0,12.0,0.3684210526315789,1958.967329323585,33293.45266330475,91.0,44.0,47.0,0.4835164835164835,334.23234474075923,13985.863086067538,,,,,101425.0,101430.0,101444.0,101515.0,101524.0,101548.0,101555.0,101572.0,101731.0,101815.0,0.23820164195097182,-0.06979210753206701,0.05610524079352294,-0.07999117772990225,0.021749100438874507
91,91,102308.6255836236,4494.572700475108,9.979455308090367,102386.87669550984,-4976.228799510366,12.739827004320285,102418.00096282495,33379.00843200528,10.520719828379123,102442.72457864627,-21412.925491558173,7.430555329147684,102653.0479991983,16931.400253345124,37.43694922604703,0.9427549602232328,69.0,43.0,86.0,249.0,335.0,26.0,878.0,885.0,31.0,16.0,15.0,0.5161290322580645,305.68274447967997,3505.0151866857386,31.0,21.0,10.0,0.6774193548387096,608.7155270428945,1081.2630140794458,25.0,13.0,12.0,0.52,1801.2724177047232,28509.793951587577,16.0,7.0,9.0,0.4375,1878.934915249354,30564.39992036046,92.0,44.0,48.0,0.4782608695652174,319.4148861800582,16941.468745437556,,,,,102297.0,102323.0,102366.0,102394.0,102405.0,102430.0,102436.0,102452.0,102610.0,102701.0,0.06801152519957396,-0.12232466624179113,0.05396422788813532,-0.08774769780944247,0.01886523745234548
92,92,103167.3251985918,6497.024685013426,14.40227351780186,103211.80813839656,-3425.25946686435,61.151169620737264,103274.76019927685,33019.841868699266,10.372812247034329,103300.59917847592,-21708.742648792933,7.891924070911046,103507.16849720728,16601.84709307625,37.97063568301666,0.9325625436138336,42.0,23.0,113.0,244.0,357.0,19.0,859.0,852.0,25.0,12.0,13.0,0.48,365.0388726553793,3800.651900035713,67.0,27.0,40.0,0.4029850746268656,329.44279960292766,3100.6695209334416,25.0,13.0,12.0,0.52,1742.4847669439553,24230.774583103965,18.0,8.0,10.0,0.4444444444444444,1814.686424322869,31165.60659702136,97.0,45.0,52.0,0.4639175257731959,419.9166392276837,15668.233305021531,,,,,103156.0,103175.0,103198.0,103251.0,103262.0,103286.0,103293.0,103311.0,103467.0,103555.0,0.05618554497682733,-0.09618039240236469,0.05277083923880693,-0.08359242419891005,0.025293368675995617
93,93,103991.2739827004,6876.313341958207,7.64389620259217,104064.46584430388,-5075.321616017286,68.79506582332951,104101.8081008724,36177.12933579825,10.47221365194368,104126.76046328098,-21185.9022512426,6.9733543540565845,104335.82457829732,15294.737986906235,34.02034747120473,0.9197504187413854,36.0,24.0,113.0,243.0,356.0,12.0,825.0,831.0,12.0,4.0,8.0,0.3333333333333333,481.7756707243059,3312.577230078309,69.0,52.0,17.0,0.7536231884057971,378.8448132026631,4179.511477223397,24.0,13.0,11.0,0.5416666666666666,1806.686731165183,26555.53834144727,16.0,7.0,9.0,0.4375,1911.85707838816,32786.826052268705,87.0,43.0,44.0,0.4942528735632184,391.6118106068216,15645.847651816282,,,,,103987.0,103999.0,104023.0,104080.0,104089.0,104113.0,104120.0,104136.0,104294.0,104379.0,0.07006307693754803,-0.07464449385967205,0.04994002466020479,-0.09024194748543339,0.02560434908673028
94,94,104856.69864360055,7556.955620670502,10.191861603456228,104909.8651085296,-4419.906437478574,76.4389620259217,104963.48896892856,34661.217074272776,10.356755135633827,104989.0629813648,-22138.80306072519,7.680328229867066,105196.96944645132,16342.466356716262,36.84457553061309,0.9162612908409086,30.0,16.0,118.0,245.0,363.0,14.0,865.0,858.0,19.0,10.0,9.0,0.5263157894736842,432.668732199132,1914.7143320310315,65.0,34.0,31.0,0.5230769230769231,407.5173318810824,4821.360424397266,25.0,12.0,13.0,0.48,1774.2188228337031,25960.43928253715,18.0,7.0,11.0,0.3888888888888889,1951.6331341898929,33627.8277241999,97.0,46.0,51.0,0.4742268041237113,376.21102262834626,15805.281019844668,,,,,104851.0,104865.0,104881.0,104941.0,104951.0,104975.0,104982.0,104999.0,105152.0,105244.0,0.05725436987027626,-0.09220044307398484,0.051187435773875745,-0.08815441055402587,0.023020455689892538
95,95,105620.84932180028,2946.731216346586,5.095930801726495,105697.75339099858,-6856.444876676163,25.47965400864057,105733.358523357,33354.853396363804,10.623533145014042,105759.027373699,-24524.90441506765,8.492010479365886,105966.2601729957,16522.048145724464,34.52587613074029,0.916611673651005,29.0,18.0,122.0,240.0,362.0,11.0,765.0,772.0,13.0,4.0,9.0,0.3076923076923077,412.9975982179485,3120.04683924096,71.0,57.0,14.0,0.8028169014084507,520.664203974112,2492.8695705962027,24.0,12.0,12.0,0.5,1750.64202242151,26581.52236730336,19.0,8.0,11.0,0.4210526315789473,1949.3426375651904,32882.924053672126,86.0,43.0,43.0,0.5,412.71040998431295,16952.339684442995,,,,,105618.0,105629.0,105647.0,105712.0,105721.0,105745.0,105752.0,105769.0,105923.0,106009.0,0.14015448573215677,-0.0759379260446293,0.05248537601464491,-0.07948420938054912,0.02497937340117927
96,96,106477.6346990206,3649.5712568362233,7.974238944302622,106551.17805190654,-5716.458034166508,22.93168860776711,106586.7884782408,34866.86076311411,10.586943878414717,106612.1151252904,-23088.71970879254,7.759607620956351,106821.5743762357,16466.770123764018,36.0309789258344,0.939646718473058,43.0,24.0,110.0,244.0,354.0,19.0,858.0,856.0,19.0,9.0,10.0,0.4736842105263157,415.0720637336534,4156.132152931808,67.0,53.0,14.0,0.7910447761194029,508.52399540778873,1849.0436954048405,25.0,13.0,12.0,0.52,1847.315112642647,26526.841511447263,17.0,7.0,10.0,0.4117647058823529,1999.6050823404871,32307.246920665075,88.0,43.0,45.0,0.4886363636363636,393.61886633884546,16319.168982501653,,,,,106469.0,106488.0,106512.0,106564.0,106574.0,106599.0,106606.0,106622.0,106780.0,106866.0,0.11373173299635071,-0.08895788132588547,0.0529819740639494,-0.0866052820407797,0.02390382955372617
97,97,107283.52303689922,5547.162407984004,10.809317200784935,107347.34253980136,-4507.744705318804,56.05523881770386,107390.70613083726,33455.47392734345,10.62684126814512,107416.4443747187,-22478.989145397125,8.198829273177235,107623.0813765368,16700.476678483166,36.856711652293335,0.9248065096843416,42.0,25.0,111.0,244.0,355.0,17.0,804.0,800.0,18.0,11.0,7.0,0.6111111111111112,413.3709211234003,1803.6798685576475,68.0,47.0,21.0,0.6911764705882353,389.2395209057839,3925.600976905193,25.0,13.0,12.0,0.52,1737.1098008190263,21950.09698311046,19.0,7.0,12.0,0.3684210526315789,1914.698352474751,32520.950728461867,92.0,44.0,48.0,0.4782608695652174,363.7393075608024,16832.284527620846,,,,,107274.0,107291.0,107316.0,107368.0,107378.0,107402.0,107409.0,107427.0,107579.0,107671.0,0.074519347140159,-0.08634906063923942,0.051923036708180395,-0.08517724440766551,0.021780175174846525
98,98,108119.72601729965,3264.1218501234985,7.643896202590422,108192.75339099969,-6767.403125350368,25.47965400861053,108229.37777073625,33605.018057787296,10.783641258076653,108254.03346330624,-23671.821827505417,9.087319064799235,108463.72240608514,15600.14850485248,34.51256335441565,0.9319009106371996,43.0,30.0,110.0,245.0,355.0,13.0,839.0,839.0,18.0,13.0,5.0,0.7222222222222222,412.3902092204047,3310.1142250439543,66.0,51.0,15.0,0.7727272727272727,455.8483868693108,3590.677430161797,24.0,12.0,12.0,0.5,1756.955797495614,24679.434930559742,18.0,7.0,11.0,0.3888888888888889,1941.0387854266992,31495.154533934656,92.0,46.0,46.0,0.5,409.1127265740154,14522.689054275,,,,,108111.0,108124.0,108154.0,108207.0,108217.0,108241.0,108247.0,108264.0,108424.0,108509.0,0.12634032311165155,-0.06735942553233228,0.052282542877208016,-0.08199786225035345,0.026224925131113946
99,99,108973.7411150364,5219.447332445484,11.003469573894176,109043.7672007033,-3503.3516150377127,44.00879013243381,109079.50116772568,33897.769816814805,10.349949503438008,109105.84015686827,-22312.36502422884,7.837865401859829,109311.36406866868,16043.89918489438,41.423052063479474,0.9396535270284134,38.0,15.0,115.0,246.0,361.0,23.0,851.0,851.0,30.0,17.0,13.0,0.5666666666666667,371.33915401411974,2242.384107720802,57.0,43.0,14.0,0.7543859649122807,448.3639901619439,77.8574563408921,24.0,13.0,11.0,0.5416666666666666,1770.2714046593724,24908.769265103736,18.0,8.0,10.0,0.4444444444444444,1848.8141410744504,31217.84769840896,99.0,48.0,51.0,0.4848484848484848,341.1195580635659,17326.23654419901,,,,,108963.0,108986.0,109001.0,109057.0,109067.0,109091.0,109099.0,109116.0,109263.0,109362.0,0.07114530147775915,-0.12798144161076946,0.052223831072840635,-0.08286051877812309,0.021261636846031547
100,100,109772.69864360055,3669.3489930271953,7.414224635968887,109848.17805189872,-6062.760873421524,22.93168860777651,109882.5403780688,32723.56776347996,10.906421986651814,109907.52197745391,-24610.754129427267,8.566561694663344,110118.3358575266,16304.567275941685,35.03043863194915,0.9252668249352848,31.0,17.0,120.0,242.0,362.0,14.0,799.0,803.0,24.0,11.0,13.0,0.4583333333333333,337.87510580188285,2986.1328193768877,68.0,55.0,13.0,0.8088235294117647,373.5856102880503,2013.6074252579192,24.0,13.0,11.0,0.5416666666666666,1759.097527280135,22863.852953034584,18.0,8.0,10.0,0.4444444444444444,1883.845655973072,33251.47444536012,90.0,43.0,47.0,0.4777777777777778,433.6729328624029,16495.538607002956,,,,,109767.0,109781.0,109798.0,109861.0,109870.0,109894.0,109900.0,109918.0,110080.0,110160.0,0.09208039530825263,-0.061619717169748275,0.05375628782272686,-0.07654562903948334,0.026598248547344886
101,101,110670.91888143086,4466.211840761629,11.088854376912057,110707.84932180028,-2841.5425712349343,5.095930801728113,110780.1957284516,34599.61187832977,9.61473568858326,110805.75161621733,-20095.830959723095,6.646121780903501,111016.40238602892,17478.950494374116,39.92996468268939,0.9337308104619314,45.0,20.0,109.0,252.0,361.0,25.0,898.0,900.0,28.0,12.0,16.0,0.4285714285714285,334.604817209507,3865.128453746587,19.0,4.0,15.0,0.2105263157894736,362.6164861624815,2710.205228629725,25.0,13.0,12.0,0.52,1781.047033979373,30611.252232863662,15.0,7.0,8.0,0.4666666666666667,1809.4979325971,28072.679569378943,93.0,42.0,51.0,0.4516129032258064,323.74753067753437,18407.569238643293,,,,,110660.0,110685.0,110705.0,110716.0,110767.0,110792.0,110799.0,110814.0,110974.0,111066.0,0.07491915501089318,-0.12761254743577127,0.05147592522836558,-0.09004344912254544,0.01852213785843365
102,102,112229.48850315007,4516.791126935091,9.246090574739393,112305.60271279886,-5001.241555634496,20.383723206912453,112339.74202025704,33788.96023826233,10.686344937389782,112364.8644938052,-23188.64053642744,8.35030340790199,112573.26242033574,16625.561098001934,35.62926658412052,0.937248872821854,44.0,19.0,114.0,245.0,359.0,25.0,1557.0,1557.0,27.0,12.0,15.0,0.4444444444444444,301.6806924077553,4210.992471194482,59.0,47.0,12.0,0.7966101694915254,504.9518181005417,521.3741988313129,25.0,13.0,12.0,0.52,1791.5594929429906,24814.89169659679,18.0,7.0,11.0,0.3888888888888889,1925.6183826478584,30916.508690994324,85.0,38.0,47.0,0.4470588235294118,365.897255857432,16572.9447381009,,,,,112217.0,112242.0,112261.0,112317.0,112327.0,112352.0,112358.0,112375.0,112535.0,112620.0,0.0667909327506281,-0.10096529281447188,0.053022036792781925,-0.08304145211198867,0.022008114715683532
103,103,113039.2739827004,7003.1032857800665,7.64389620259217,113106.7398270043,-4781.320868662485,76.43896202357942,113150.47884346604,36488.95196443516,10.28598679572619,113175.72839634168,-21114.946459871724,7.159503001841553,113384.5447753207,16048.183174365411,35.70489648810621,0.9093056824542256,29.0,23.0,122.0,245.0,367.0,6.0,812.0,811.0,12.0,4.0,8.0,0.3333333333333333,427.3408057583338,3043.171314201386,68.0,46.0,22.0,0.6764705882352942,294.56815658048475,5246.910430956672,24.0,12.0,12.0,0.5,1783.592855061023,29146.386035516683,18.0,8.0,10.0,0.4444444444444444,1890.8365518347491,32374.500034608347,91.0,44.0,47.0,0.4835164835164835,293.8725352558875,15649.946638496058,,,,,113035.0,113041.0,113064.0,113128.0,113138.0,113162.0,113169.0,113186.0,113345.0,113431.0,0.0610216340270259,-0.061608113044897266,0.04888035306685281,-0.08954967304455273,0.01831188814727048
104,104,113792.0097929496,4159.926348683976,8.180299946942696,113853.26611550062,-4018.410491755067,25.47965400864057,113900.60054022328,32327.17249677838,10.29381108409719,113926.33462884216,-22890.95973693071,8.134309201780582,114129.6400926242,17128.869097918883,40.17031555043504,0.927818015367712,61.0,39.0,94.0,246.0,340.0,22.0,751.0,748.0,23.0,12.0,11.0,0.5217391304347826,360.7308442903866,2939.2774714683846,36.0,11.0,25.0,0.3055555555555556,357.4361758021683,4017.004933312789,25.0,14.0,11.0,0.56,1749.3134113532867,23795.66364744924,18.0,7.0,11.0,0.3888888888888889,1889.5667564442003,31713.06513770768,97.0,45.0,52.0,0.4639175257731959,308.95188699330913,17365.927772273324,,,,,113781.0,113803.0,113842.0,113862.0,113888.0,113912.0,113919.0,113936.0,114085.0,114182.0,0.08671568053230233,-0.08894964228655886,0.054112787362631774,-0.08254641911739954,0.01803691097334885
105,105,114585.41508666318,3875.9965669554913,7.216618084670038,114668.3013564064,-7156.296079930327,10.19186160345612,114697.66521210912,31018.08074220952,11.432567827428151,114721.12947921574,-25011.42554849696,8.780083981075837,114932.37728916714,15663.823782158055,35.1337532838867,0.929004829155794,45.0,24.0,112.0,246.0,358.0,21.0,797.0,797.0,21.0,10.0,11.0,0.4761904761904761,322.204365722937,4849.757274483351,67.0,60.0,7.0,0.8955223880597015,719.669052356075,2534.837297569959,25.0,14.0,11.0,0.56,1824.5031730235855,20944.32824649383,17.0,6.0,11.0,0.3529411764705882,1943.1880607815797,33620.3221124297,91.0,42.0,49.0,0.4615384615384615,292.97162504926075,15734.88811438681,,,,,114575.0,114596.0,114620.0,114674.0,114684.0,114709.0,114715.0,114732.0,114891.0,114978.0,0.08312813496014557,-0.10056446020649855,0.05882063394531031,-0.07769201547563745,0.018703710481151565
106,106,115485.33692815258,4072.835255825986,9.803399741604984,115566.72601730128,-5806.625958541353,7.64389620259217,115594.5235453864,31324.78002249009,10.6280426954485,115619.34481610956,-22853.56107198274,8.445284758658051,115831.83551209555,16139.90040274972,38.419837272716784,0.9381445655734654,62.0,38.0,92.0,246.0,338.0,24.0,900.0,898.0,28.0,13.0,15.0,0.4642857142857143,341.75460752696995,4722.730298297256,53.0,48.0,5.0,0.9056603773584906,873.6011836122634,5874.1470185562985,25.0,14.0,11.0,0.56,1769.354217628425,23151.133612645295,18.0,7.0,11.0,0.3888888888888889,1908.64915101207,31038.607956879485,96.0,49.0,47.0,0.5104166666666666,320.9645005961902,15865.611209082896,,,,,115476.0,115500.0,115538.0,115571.0,115581.0,115606.0,115613.0,115630.0,115788.0,115876.0,0.08391073688485365,-0.15044901976632838,0.056484170562669266,-0.0835164876493569,0.019886399084687548
107,107,116270.19721300114,6696.680672823182,15.379737075382588,116314.68483389584,-4405.212761358099,73.89099662505764,116378.9449574224,32888.52671860586,10.269237899884171,116404.95771439093,-21867.374896906884,7.708703588355186,116610.60032151006,16776.19882252228,38.145705816831565,0.9198371558202748,37.0,18.0,118.0,243.0,361.0,19.0,783.0,784.0,19.0,10.0,9.0,0.5263157894736842,309.86791188417794,3643.9366146153425,68.0,26.0,42.0,0.3823529411764705,269.5468995527121,4230.553077095246,25.0,13.0,12.0,0.52,1707.6326263090828,23610.599998722435,19.0,8.0,11.0,0.4210526315789473,1845.157939553064,31540.682904563255,93.0,45.0,48.0,0.4838709677419355,311.72653246592307,16398.90069198181,,,,,116260.0,116279.0,116297.0,116356.0,116367.0,116391.0,116397.0,116415.0,116567.0,116658.0,0.04627186617120629,-0.06118816823494639,0.05192183404624909,-0.08437948991371888,0.018581475801742756
108,108,117056.20655991766,3796.949651416812,9.084215116684751,117132.7533909989,-6293.428389804221,25.47965400863337,117168.37140507746,34262.67347491049,10.735449942510506,117193.66668490156,-23221.230687579467,8.32153888544576,117401.93341190492,16540.52546473917,34.73119929772267,0.928635523663166,43.0,25.0,114.0,242.0,356.0,18.0,786.0,792.0,19.0,10.0,9.0,0.5263157894736842,355.65932006215127,4309.457450410442,66.0,52.0,14.0,0.7878787878787878,427.3492312886495,3513.814485807341,24.0,12.0,12.0,0.5,1722.4071183620574,28492.12660057181,17.0,8.0,9.0,0.4705882352941176,1889.6970655523448,31386.24331170371,85.0,42.0,43.0,0.4941176470588235,347.31755349868973,16923.854260818378,,,,,117046.0,117064.0,117089.0,117147.0,117156.0,117180.0,117187.0,117203.0,117360.0,117445.0,0.09366974880202555,-0.06790404288717801,0.05027065735612616,-0.08137798943460403,0.020997975804281175
109,109,117889.69864360055,3209.5233416486785,8.731743819132827,117974.30135639945,-7066.563419044727,10.191861603456228,118003.27515381188,31946.09966628272,10.704041466215042,118028.027373699,-24330.604711212487,8.788643248433173,118240.2601729957,15698.484540695874,34.77878140010452,0.9287538200026246,37.0,17.0,117.0,245.0,362.0,20.0,833.0,832.0,20.0,6.0,14.0,0.3,374.64001534442735,3754.5090834183993,67.0,60.0,7.0,0.8955223880597015,759.491446922724,2690.2928607738218,25.0,13.0,12.0,0.52,1882.0832856445757,24508.933622272947,18.0,7.0,11.0,0.3888888888888889,1949.6683612747345,33183.162327079466,86.0,43.0,43.0,0.5,415.6584202657397,15755.527300966354,,,,,117884.0,117904.0,117921.0,117980.0,117991.0,118014.0,118021.0,118038.0,118197.0,118283.0,0.11672761823628958,-0.10747677504398505,0.058914337127389825,-0.08013234296541144,0.026477614395721452
110,110,118647.2739827004,6596.989628143754,7.64389620259217,118720.46584430388,-6469.337572444412,68.79506582332564,118757.52494120885,35505.331329421046,10.626177010923184,118782.67498316556,-21587.99566373821,7.692360822615487,118989.1024964846,15764.96330876736,34.19522359822435,0.9059243663623542,24.0,17.0,128.0,239.0,367.0,7.0,758.0,756.0,8.0,5.0,3.0,0.625,391.216448009795,1443.131254342127,73.0,56.0,17.0,0.7671232876712328,389.1940611680187,4067.404052184248,24.0,13.0,11.0,0.5416666666666666,1799.9503776480742,22214.057833385607,19.0,8.0,11.0,0.4210526315789473,1877.750781128033,34490.65366205379,91.0,46.0,45.0,0.5054945054945055,332.18424282284354,15382.820842385936,,,,,118642.0,118649.0,118666.0,118736.0,118745.0,118769.0,118775.0,118794.0,118944.0,119033.0,0.05930226816498339,-0.060159801032142364,0.05069521421861984,-0.08698124691038958,0.021071044462127365
111,111,119459.98768509088,4277.269720963474,9.328930900375989,119536.60271279904,-5414.385958826754,20.383723206909075,119569.6931531135,34263.33963205528,9.897106597546454,119596.45203459916,-22000.501148950854,7.3423564580209,119803.36716808176,16117.268786302078,36.27833639332875,0.931189192934162,81.0,58.0,75.0,246.0,321.0,23.0,812.0,813.0,26.0,13.0,13.0,0.5,376.63133480505405,3346.4946746911373,59.0,47.0,12.0,0.7966101694915254,468.5826807321963,1435.4376454281776,24.0,12.0,12.0,0.5,1800.724103513559,29943.27460978257,17.0,8.0,9.0,0.4705882352941176,1852.6326756320088,30029.152857794084,91.0,43.0,48.0,0.4725274725274725,323.4651245199238,16972.834417254264,,,,,119449.0,119472.0,119530.0,119548.0,119558.0,119582.0,119589.0,119605.0,119760.0,119851.0,0.08805414654098927,-0.08654401150850607,0.052555417039058284,-0.08420865793415601,0.02006947509585705
112,112,120266.7546533232,6534.105138873165,17.74502244584526,120314.10949479598,-5350.611429536546,71.3430312241936,120375.49670830651,33626.90967923824,10.268454840832682,120401.2659154735,-22096.83288537342,7.8075942511858765,120609.89601438728,15728.704306183256,36.87648222828194,0.9148026493779678,27.0,12.0,124.0,245.0,369.0,15.0,810.0,805.0,18.0,8.0,10.0,0.4444444444444444,332.13323427466304,2996.8400274206188,70.0,29.0,41.0,0.4142857142857143,333.7993715487051,4180.859598894928,24.0,12.0,12.0,0.5,1731.5672651644495,26497.479591701973,19.0,8.0,11.0,0.4210526315789473,1844.109951170261,32741.829414376225,94.0,46.0,48.0,0.4893617021276595,323.3983541152145,15006.235829740172,,,,,120261.0,120276.0,120288.0,120354.0,120363.0,120387.0,120393.0,120412.0,120570.0,120657.0,0.05083071472154806,-0.06238527613985563,0.05149349975009881,-0.08345584911360462,0.02056102955588531
113,113,121021.54543133806,3918.475305309445,7.517280184032107,121100.85154368846,-6966.97194700509,33.12355021123273,121131.249417967,36152.80480395266,10.899580942815431,121156.07643195428,-23531.854275203797,8.545602991581264,121365.26170120304,15294.9048697472,32.796521840989456,0.9276338465945976,42.0,25.0,112.0,241.0,353.0,17.0,753.0,758.0,18.0,11.0,7.0,0.6111111111111112,388.5043047707508,2576.134082412991,69.0,60.0,9.0,0.8695652173913043,557.399209471473,330.6114835666708,24.0,12.0,12.0,0.5,1796.1584010843617,25841.375503400064,17.0,7.0,10.0,0.4117647058823529,1959.1317315041535,34819.64694679603,84.0,41.0,43.0,0.4880952380952381,329.32812549343635,15926.810317243357,,,,,121012.0,121029.0,121054.0,121110.0,121119.0,121143.0,121149.0,121166.0,121327.0,121407.0,0.09914680443292224,-0.08000595003272312,0.049682408068321825,-0.08325445621888573,0.021531884526123216
114,114,121833.1681143229,7163.789167400305,7.64389620259217,121906.04118340374,-5280.967500865437,63.85308940195324,121942.02709605932,37145.93212113517,10.371395746392608,121967.19065924337,-21271.77432295308,7.075357280149524,122176.2993062526,16364.67740578962,36.683705850414675,0.9191336016057264,31.0,19.0,123.0,248.0,371.0,12.0,811.0,811.0,18.0,10.0,8.0,0.5555555555555556,405.9888025980893,3183.871059514835,68.0,53.0,15.0,0.7794117647058824,377.82036043148867,3577.1361351794726,25.0,13.0,12.0,0.52,1858.404712748372,27387.7515811513,17.0,7.0,10.0,0.4117647058823529,1988.8327468251064,33903.97478405521,97.0,47.0,50.0,0.4845360824742268,381.8419412131463,16801.51189200228,,,,,121823.0,121835.0,121854.0,121921.0,121930.0,121954.0,121960.0,121977.0,122135.0,122225.0,0.05667235496622246,-0.07154377684952086,0.050029831172037895,-0.0934963260060106,0.023333300849429233
115,115,122576.57521620231,4160.888534009849,8.143150543403832,122648.75339099858,-5023.453249883609,25.47965400864057,122686.37856810448,33603.59851087235,10.271147285188512,122712.39556721944,-22354.89141563521,7.801195670307153,122914.91636037437,16504.318057322726,41.029392431856905,0.934867552394728,51.0,28.0,105.0,244.0,349.0,23.0,745.0,739.0,23.0,11.0,12.0,0.4782608695652174,362.855975668825,4299.081298049559,54.0,38.0,16.0,0.7037037037037037,308.8237506446152,3388.834239289033,25.0,12.0,13.0,0.48,1755.4152907577895,27276.16443230066,17.0,7.0,10.0,0.4117647058823529,1901.687186292562,31615.603229302284,106.0,50.0,56.0,0.4716981132075472,364.4877766440956,17140.061373523364,,,,,122566.0,122589.0,122617.0,122663.0,122674.0,122699.0,122705.0,122722.0,122868.0,122966.0,0.08720636775125064,-0.061476385920735004,0.05223890799045912,-0.0850680574078971,0.022084388787113666
116,116,123308.70820831176,3872.135091613867,7.091486837223607,123389.87669549928,-6816.721382403468,12.739827004320285,123419.8687066417,33630.46924956746,11.232430111947863,123443.81670809492,-23808.734788295696,8.538620466539578,123652.23412443262,15777.000231125592,35.32699024034019,0.9414820768155688,42.0,24.0,113.0,242.0,355.0,18.0,732.0,739.0,18.0,9.0,9.0,0.5,389.2512731069748,4033.857401710332,69.0,61.0,8.0,0.8840579710144928,757.9200044564219,2800.3342392916975,25.0,14.0,11.0,0.56,1894.7178887859968,25078.714615029097,18.0,7.0,11.0,0.3888888888888889,1940.0283025254164,33385.729618237885,92.0,46.0,46.0,0.5,329.10424077061145,15419.3306324832,,,,,123300.0,123318.0,123342.0,123397.0,123407.0,123431.0,123437.0,123455.0,123612.0,123697.0,0.10052626364973717,-0.11118541626373342,0.056339323567730644,-0.08148388899183037,0.020859747477301765
117,117,124103.361801913,6486.808493379741,22.931688607656582,124151.53415569612,-6188.256033408142,68.79506582332952,124211.6944121966,37976.786483158015,10.45831668597751,124236.49419310065,-20593.399745771378,6.975357922022424,124447.23747957467,15805.305198717268,34.710645169051595,0.9292415632408848,37.0,19.0,118.0,243.0,361.0,18.0,791.0,792.0,19.0,12.0,7.0,0.631578947368421,361.2188720120983,1728.8693666759057,69.0,30.0,39.0,0.4347826086956521,386.0933686073136,4160.64972078063,24.0,13.0,11.0,0.5416666666666666,1873.348395390388,28584.816775168,17.0,7.0,10.0,0.4117647058823529,1948.5564470365107,32788.95719103802,84.0,41.0,43.0,0.4880952380952381,383.7654654929094,16410.63323222628,,,,,124091.0,124109.0,124128.0,124190.0,124199.0,124223.0,124230.0,124246.0,124409.0,124489.0,0.055685145072611346,-0.06239130483983469,0.04932877604641937,-0.09462043524098661,0.02428080069748069
118,118,124848.2739827004,5551.883429456373,7.64389620259217,124920.7398270043,-4762.634004646575,59.57824545238761,124961.34176404834,34764.61871445611,10.330821920651497,124986.92734651828,-21199.34293511732,7.546185920040686,125193.81331723456,16183.873556894923,37.11820874549573,0.9170628411287728,25.0,9.0,128.0,242.0,370.0,16.0,747.0,744.0,17.0,4.0,13.0,0.2352941176470588,387.8048523789939,2790.484014345304,71.0,53.0,18.0,0.7464788732394366,307.2764182263178,4847.471999266918,24.0,12.0,12.0,0.5,1791.4975622244085,25713.434397949928,17.0,7.0,10.0,0.4117647058823529,1905.9786162585735,32528.49543786578,92.0,45.0,47.0,0.4891304347826087,343.7300967508558,16446.43945405824,,,,,124844.0,124860.0,124869.0,124938.0,124949.0,124973.0,124980.0,124997.0,125153.0,125239.0,0.06985104375957095,-0.06451816745240749,0.05153220798821686,-0.08990743826787505,0.021239049819714775
119,119,125614.95341408234,7652.71992795409,22.93168860777651,125655.49450254042,-6545.115462947621,76.4389620259217,125726.91484265948,36543.486559134064,10.409957519372306,125751.91529400717,-20951.82867736486,7.230495420030318,125963.68483389584,15541.278693804652,33.856269308051566,0.9165279917946988,29.0,11.0,125.0,243.0,368.0,18.0,770.0,767.0,18.0,7.0,11.0,0.3888888888888889,343.359412091002,3792.801714147713,69.0,18.0,51.0,0.2608695652173913,296.4639010828706,5284.3445694519205,25.0,13.0,12.0,0.52,1829.833998418585,25822.156886922676,17.0,7.0,10.0,0.4117647058823529,1949.102196846757,32872.66275231507,86.0,44.0,42.0,0.5116279069767442,357.6038302435374,15356.908079046523,,,,,125608.0,125626.0,125637.0,125705.0,125714.0,125739.0,125745.0,125762.0,125921.0,126005.0,0.044867630767038556,-0.045295442496190406,0.05007278097172195,-0.09302778420255287,0.023009936137757567
120,120,126427.33602870425,3163.274505212188,6.464867785064777,126501.60271279886,-6312.573124210222,20.383723206912453,126536.22778755982,33406.20993971644,10.49903292969453,126562.027373699,-24021.73151070332,8.790691677131653,126769.19328724082,15354.112459245896,37.1042317534947,0.9353879976111592,35.0,22.0,117.0,245.0,362.0,13.0,812.0,810.0,16.0,7.0,9.0,0.4375,445.98397342791515,3679.222934179361,66.0,53.0,13.0,0.803030303030303,458.2730609095282,2028.5038280127828,24.0,12.0,12.0,0.5,1854.396853567334,26065.29003616771,19.0,8.0,11.0,0.4210526315789473,1881.4656800571408,33028.95360490882,93.0,45.0,48.0,0.4838709677419355,374.641056809987,15080.59709844069,,,,,126420.0,126433.0,126455.0,126513.0,126524.0,126548.0,126555.0,126572.0,126725.0,126817.0,0.14098807191505472,-0.0725968716547523,0.05551054300723449,-0.07832348301864998,0.024400046424330225
121,121,127182.69864360055,3047.9097374532303,5.6264607124411565,127259.17805189872,-6718.8036431178625,22.93168860777651,127293.84418816122,33654.191044686144,10.978882195696867,127319.027373699,-22915.314817403923,8.527303991782633,127524.23699712544,16098.795170881414,36.02708545859811,0.9267768554596396,25.0,13.0,127.0,240.0,367.0,12.0,752.0,758.0,18.0,7.0,11.0,0.3888888888888889,371.17058893066206,2046.192830679616,71.0,58.0,13.0,0.8169014084507042,401.9871124579016,2217.182584911474,25.0,13.0,12.0,0.52,1771.1680565803297,24029.31789764892,18.0,7.0,11.0,0.3888888888888889,1875.0100924617484,31767.25255472056,94.0,45.0,49.0,0.4787234042553192,302.24741759601585,16599.178596273166,,,,,127177.0,127189.0,127202.0,127272.0,127281.0,127306.0,127312.0,127329.0,127484.0,127569.0,0.12177873392038324,-0.05983016230421632,0.05262845433510991,-0.08182344896425771,0.01877453650337162
122,122,128028.99738498838,4166.561210372562,10.270745055555322,128104.60271279886,-4179.284129901952,20.383723206912453,128138.43517086728,34914.04912028607,10.386512397261082,128163.81604285336,-21147.8272021998,7.102055025194363,128370.68539373296,16581.886777564137,39.53388973843953,0.9364044483605838,38.0,18.0,114.0,247.0,361.0,20.0,850.0,845.0,26.0,14.0,12.0,0.5384615384615384,403.1531116166172,4158.47100621358,64.0,53.0,11.0,0.828125,441.2651048880777,250.0595997395644,25.0,12.0,13.0,0.48,1755.21044670192,32286.52070742006,16.0,7.0,9.0,0.4375,1887.3525487968193,29092.031901733113,98.0,48.0,50.0,0.4897959183673469,319.394022899627,17352.87432739466,,,,,128021.0,128041.0,128059.0,128116.0,128126.0,128151.0,128158.0,128173.0,128327.0,128420.0,0.09675919571587631,-0.10558389694802349,0.050272325637592465,-0.08924569558618754,0.01926162126084337
123,123,128798.69864360055,6923.8657794856745,10.191861603456228,128851.38347749643,-5057.922357971844,63.6991350216014,128908.3117350936,33787.81723322738,10.215128482088078,128934.38865107202,-21908.369278460625,7.493100006985838,129142.83551209555,15319.937694116812,35.703340014234364,0.9104795184036674,25.0,13.0,126.0,243.0,369.0,12.0,766.0,771.0,14.0,8.0,6.0,0.5714285714285714,340.0459673522577,2414.0102779517997,70.0,34.0,36.0,0.4857142857142857,269.50046330915904,4819.856032886586,24.0,12.0,12.0,0.5,1685.12523455847,27227.852150573977,18.0,8.0,10.0,0.4444444444444444,1900.1070956566875,32166.05024173193,94.0,48.0,46.0,0.5106382978723404,323.70352326947403,15372.311088218306,,,,,128793.0,128805.0,128818.0,128887.0,128896.0,128920.0,128927.0,128944.0,129099.0,129187.0,0.0491121547098386,-0.053282839125514965,0.04987375251045503,-0.08672973654523854,0.021129558731415938
124,124,129568.15412820793,6908.39571369028,7.64389620259217,129640.04118340374,-4983.6438711811625,66.24710042244419,129677.0097939456,35874.47889092844,10.350696878364513,129702.0370553622,-20890.190261489333,7.28373462292242,129909.47886971744,15286.061247721787,35.08867080094578,0.9165647903883808,29.0,17.0,124.0,244.0,368.0,12.0,771.0,767.0,12.0,9.0,3.0,0.75,351.7417232479596,3729.8735333781096,67.0,52.0,15.0,0.7761194029850746,340.9099664039071,3107.386088685201,25.0,13.0,12.0,0.52,1794.401935109142,25138.849869001653,17.0,7.0,10.0,0.4117647058823529,1919.568567867143,32940.226635600804,92.0,44.0,48.0,0.4782608695652174,304.6250206571624,14474.3472553572,,,,,129559.0,129571.0,129588.0,129655.0,129665.0,129689.0,129695.0,129712.0,129870.0,129956.0,0.050915109357577405,-0.06840576397829742,0.05001889896616426,-0.0918885153193569,0.019928287327944813
125,125,130428.972626301,3596.3061686475403,9.003415662489152,130514.7260173018,-6751.838860331956,7.643896202592023,130541.56439437169,32373.007677804995,10.654156005043683,130566.02737370168,-22807.96000694446,8.067837176591155,130775.9432853142,15599.519617179192,37.44406054046942,0.9376579240573636,47.0,23.0,110.0,245.0,355.0,24.0,858.0,864.0,25.0,11.0,14.0,0.44,358.8317736397804,3033.193715898181,53.0,49.0,4.0,0.9245283018867924,969.735916729436,6235.0494961481445,24.0,13.0,11.0,0.5416666666666666,1844.1089247540856,24802.248994136244,18.0,7.0,11.0,0.3888888888888889,1923.1426892523016,30477.568396031675,96.0,45.0,51.0,0.46875,329.39884734310584,15909.861605295162,,,,,130419.0,130443.0,130466.0,130519.0,130529.0,130553.0,130560.0,130576.0,130736.0,130821.0,0.09977787118573554,-0.14362545327122314,0.05696439895568958,-0.08431892587792823,0.021115960967179444
126,126,131938.75087818786,3896.161169858533,7.591033629008185,132014.17805189872,-6113.646482073392,22.93168860777651,132048.13192360153,33687.16651624741,10.853859267984385,132073.1349742746,-22773.21289766302,8.489550499980075,132281.68346820143,15930.164507241154,35.953746604551206,0.9392956363179982,43.0,25.0,112.0,243.0,355.0,18.0,1511.0,1510.0,25.0,12.0,13.0,0.48,333.79808114656794,3458.3345569271105,56.0,43.0,13.0,0.7678571428571429,463.4800177044655,1832.2641640250877,25.0,13.0,12.0,0.52,1755.3041894825944,26507.292425541073,17.0,7.0,10.0,0.4117647058823529,1847.767361741361,32462.7552348101,86.0,42.0,44.0,0.4883720930232558,337.05368459494264,16983.225513188874,,,,,131928.0,131946.0,131971.0,132027.0,132035.0,132060.0,132066.0,132083.0,132240.0,132326.0,0.0856735814033812,-0.07581073244314908,0.05210602051187673,-0.08113775469648282,0.021158204891213322
127,127,132814.7413676803,4624.020369059945,9.944541469303998,132887.17805189878,-4495.108600139192,22.931688607776454,132923.5675551783,34489.89483263474,10.380723837956229,132949.1272486031,-21886.09982120303,7.372543294289776,133158.75860927568,16164.560155680416,38.44299968465841,0.9448358791643536,43.0,18.0,110.0,251.0,361.0,25.0,878.0,871.0,25.0,10.0,15.0,0.4,334.6490218263563,4458.494958485964,65.0,51.0,14.0,0.7846153846153846,274.14654577211076,1803.310272358641,25.0,13.0,12.0,0.52,1773.4678468228117,27397.099256165224,17.0,7.0,10.0,0.4117647058823529,1895.9756133531048,30366.419937716208,96.0,46.0,50.0,0.4791666666666667,331.0561989108184,17044.877458777497,,,,,132805.0,132830.0,132848.0,132900.0,132911.0,132936.0,132942.0,132958.0,133117.0,133209.0,0.07237187449811988,-0.06098774693977844,0.051419926196606895,-0.08662921346617924,0.02048037161063621
128,128,133607.66049827827,6513.351033574048,14.092059331995287,133659.2327992967,-4354.882130275346,58.60320421987331,133714.64369288902,33373.698876863054,10.154590894397629,133740.78268023927,-22437.079813375945,7.575847489112731,133946.833216261,16006.556190962185,37.183883266286635,0.9190632387917328,52.0,30.0,105.0,244.0,349.0,22.0,791.0,792.0,27.0,15.0,12.0,0.5555555555555556,381.85015541459177,2830.8715532091783,67.0,33.0,34.0,0.4925373134328358,339.4295327045601,3160.152540947017,25.0,13.0,12.0,0.52,1784.056494071299,24127.935885364313,18.0,8.0,10.0,0.4444444444444444,1880.8729787267205,32078.618452624665,96.0,47.0,49.0,0.4895833333333333,313.5321618660254,15278.776621490426,,,,,133594.0,133616.0,133646.0,133692.0,133703.0,133727.0,133733.0,133751.0,133908.0,133995.0,0.05862576014194347,-0.07794230074445184,0.053456960244467534,-0.08382877782542054,0.019587733808916104
129,129,134346.12330450068,6735.060903336111,12.739827004320285,134406.32579954062,-4177.440039228156,70.84780867413696,134456.09409831805,35164.454229281364,10.09913003671983,134481.59788616878,-21357.040120669502,7.272465223912915,134687.60251696195,16609.03867390631,35.96774380130735,0.9373635703930392,38.0,22.0,114.0,242.0,356.0,16.0,738.0,744.0,22.0,10.0,12.0,0.4545454545454545,329.3371107680336,3461.732550468032,69.0,40.0,29.0,0.5797101449275363,286.0850893541773,4465.853613362928,25.0,13.0,12.0,0.52,1796.3614325029978,26960.920414621403,17.0,8.0,9.0,0.4705882352941176,1859.571654397857,30922.508192848974,94.0,47.0,47.0,0.5,303.87506288279184,16228.876994987906,,,,,134339.0,134355.0,134377.0,134435.0,134444.0,134468.0,134474.0,134491.0,134647.0,134733.0,0.04889890611158415,-0.06848335024984242,0.05108458162865987,-0.08707066353254399,0.018295764664585667
130,130,135157.2739827004,3211.5330109215574,6.194617226954966,135234.17805189942,-6408.730785807408,22.931688607726656,135268.2630569363,34323.88774854631,10.218431821286137,135294.45203459918,-22378.646698063934,7.706688017926676,135503.32568515977,15940.0996600236,35.888840281234444,0.9233025441525912,30.0,18.0,120.0,247.0,367.0,12.0,812.0,811.0,14.0,6.0,8.0,0.4285714285714285,331.2380514016565,3313.2868307563785,65.0,52.0,13.0,0.8,423.9416607268412,2740.8723324850303,25.0,12.0,13.0,0.48,1739.4132171566262,30771.29856369475,17.0,7.0,10.0,0.4117647058823529,1923.752312102489,30516.216688949324,86.0,38.0,48.0,0.4418604651162791,336.3678602194539,15545.344765922786,,,,,135153.0,135165.0,135183.0,135247.0,135256.0,135281.0,135287.0,135303.0,135466.0,135550.0,0.10314016710250377,-0.06615064275530036,0.05067646269849761,-0.08596374651506163,0.02110199229575933
131,131,135911.24276914645,4071.772233643677,7.658689610416985,135994.30135639946,-6227.089424096774,10.191861603456228,136021.73950961727,31260.96493879125,11.17286831601749,136046.3856202433,-24371.591374089356,8.570517963791836,136252.7629736257,16411.154976804162,37.260337492863165,0.9318788554049794,38.0,19.0,115.0,244.0,359.0,19.0,758.0,752.0,25.0,12.0,13.0,0.48,427.00746656043464,3626.132147153605,66.0,60.0,6.0,0.9090909090909092,802.6404830092156,5732.511097384691,24.0,13.0,11.0,0.5416666666666666,1816.3329658264324,22599.677290008127,18.0,6.0,12.0,0.3333333333333333,1942.490444359103,32630.817143262953,90.0,42.0,48.0,0.4666666666666667,284.23732856121546,17663.664438707623,,,,,135904.0,135923.0,135942.0,136000.0,136009.0,136033.0,136040.0,136057.0,136211.0,136301.0,0.10487017496514574,-0.12889496654781651,0.05810226809641991,-0.07970306142684884,0.017319763841299525
132,132,136701.2739827004,2268.3581250290385,5.601367142411959,136779.17805189872,-7493.587431139643,22.93168860777651,136813.80923989488,33089.93904125749,10.679396971311364,136839.02737369903,-24046.24010512348,8.428791226969164,137047.90823468607,14737.714057968296,33.42958990373026,0.90557110670201,29.0,17.0,123.0,243.0,366.0,12.0,786.0,792.0,13.0,5.0,8.0,0.3846153846153846,411.8809073242386,3272.992703370591,72.0,57.0,15.0,0.7916666666666666,404.91779202416154,3355.2222286419997,25.0,13.0,12.0,0.52,1816.744786673952,23590.046527950093,17.0,7.0,10.0,0.4117647058823529,1955.9919520203755,32510.804393970888,89.0,44.0,45.0,0.4943820224719101,325.31603562511816,14082.100602233086,,,,,136697.0,136709.0,136726.0,136792.0,136802.0,136826.0,136832.0,136849.0,137009.0,137092.0,0.18157666674391015,-0.05403523956249893,0.05490323763996006,-0.08134294357327058,0.02207371064098155
133,133,137556.3601038869,4855.994192419024,10.8988858357585,137630.17805189872,-4202.599608803091,22.93168860777637,137666.0533876685,32850.75823427103,10.40579278344668,137691.64430124735,-22942.812082343426,8.040651124624384,137898.70509962257,16034.315853364751,39.703287481788294,0.9384507816264516,54.0,25.0,104.0,248.0,352.0,29.0,857.0,853.0,29.0,13.0,16.0,0.4482758620689655,309.9400233806086,6162.876929860486,59.0,45.0,14.0,0.7627118644067796,420.18239695136685,365.81887961674965,24.0,12.0,12.0,0.5,1818.8420285783384,26542.38062257834,17.0,7.0,10.0,0.4117647058823529,1876.2697992667263,31692.58118214792,100.0,48.0,52.0,0.48,336.3723197500028,15053.394454766272,,,,,137543.0,137572.0,137597.0,137643.0,137654.0,137678.0,137685.0,137701.0,137856.0,137949.0,0.06382627554713184,-0.09998154382140527,0.05536682032139095,-0.08178028885616363,0.02097827701700264
134,134,139186.78435421202,3222.099538437222,8.036754674931005,139268.30135639946,-6985.000963523098,10.191861603456228,139295.32467767267,29690.550792855087,10.392676941834187,139321.45203459918,-22404.881998856486,7.784379805253483,139530.28540603622,16121.027331990032,35.59706263615884,0.9296256675899118,36.0,17.0,116.0,246.0,362.0,19.0,1630.0,1630.0,19.0,9.0,10.0,0.4736842105263157,298.32441412283066,3813.09955937558,66.0,60.0,6.0,0.9090909090909092,799.4292283809889,2989.9726150986216,25.0,12.0,13.0,0.48,1694.020126340592,27273.85447086986,17.0,7.0,10.0,0.4117647058823529,1836.0888731792052,30440.07802640471,88.0,42.0,46.0,0.4772727272727273,353.5249342082661,15994.235049196965,,,,,139178.0,139197.0,139214.0,139274.0,139283.0,139308.0,139314.0,139330.0,139490.0,139576.0,0.09258696404752398,-0.11444940846189552,0.05705586730806797,-0.08195039247575223,0.02192942961561407
135,135,140078.3354634615,5833.92245227032,13.387971368988993,140146.890505204,-4183.051155113069,61.89166504659969,140184.6365709351,33044.96901034969,10.206693875248178,140211.02737369903,-21024.5131843093,7.552209997550237,140419.61880862116,15694.113198765352,37.024360553658994,0.9287503582364028,38.0,19.0,116.0,244.0,360.0,19.0,892.0,889.0,19.0,11.0,8.0,0.5789473684210527,328.5246580342957,4403.911631256673,58.0,42.0,16.0,0.7241379310344828,310.0180214686569,4401.079925219701,24.0,13.0,11.0,0.5416666666666666,1703.0641865305893,23890.663237015615,18.0,8.0,10.0,0.4444444444444444,1774.819934835629,31367.25591722377,91.0,44.0,47.0,0.4835164835164835,325.32032866612565,15762.270980824404,,,,,140067.0,140086.0,140105.0,140163.0,140172.0,140196.0,140204.0,140221.0,140377.0,140465.0,0.05631282567125101,-0.07411289271222814,0.05153777526609843,-0.08441669584816766,0.020728812424503123
136,136,141636.2739827004,2704.2605644302225,6.205650626812489,141714.60271279886,-6510.096173040225,20.383723206912453,141747.6384985228,31718.82078379268,10.997898255631531,141772.68933241756,-22947.67417994311,9.179269956905843,141981.90252886643,15858.831974534898,33.97588238688378,0.9174477972834209,25.0,14.0,127.0,241.0,368.0,11.0,1556.0,1562.0,11.0,4.0,7.0,0.3636363636363636,345.8362772409458,3070.3988564838655,70.0,59.0,11.0,0.8428571428571429,451.4332692744343,955.545623466326,24.0,13.0,11.0,0.5416666666666666,1691.5821244423475,21508.281703880435,19.0,8.0,11.0,0.4210526315789473,1774.4824191194596,30779.539952382005,88.0,43.0,45.0,0.4886363636363636,274.7357538672197,15969.681897074111,,,,,141632.0,141643.0,141657.0,141726.0,141735.0,141759.0,141766.0,141784.0,141942.0,142025.0,0.12788570812658068,-0.0693435637931005,0.05333054894987436,-0.0773273319642304,0.01732383282125524
137,137,142495.24588729843,3832.368553038889,10.40847791765271,142568.29486564948,-5475.846985638693,30.57558481036868,142603.6579606375,34183.305700757715,10.533816657192087,142628.91992182765,-21658.010622653823,7.572280047051088,142838.94091230392,16829.64086351906,38.16677962570865,0.9400439552823692,42.0,22.0,111.0,250.0,361.0,20.0,859.0,861.0,23.0,10.0,13.0,0.4347826086956521,263.6094951514771,3107.3743374888213,63.0,48.0,15.0,0.7619047619047619,313.33095583563045,2752.7789881494723,25.0,13.0,12.0,0.52,1738.7378307094557,26371.333338819433,16.0,7.0,9.0,0.4375,1891.8998047620544,30812.574528122415,93.0,44.0,49.0,0.4731182795698925,307.0879139118361,17673.851098747153,,,,,142485.0,142505.0,142527.0,142582.0,142591.0,142616.0,142622.0,142638.0,142795.0,142888.0,0.06878500632264273,-0.05722054627483059,0.050865116613660756,-0.0873533510406153,0.01824684890201658
