Unnamed: 0,cycle,p_center,p_height,p_width,q_center,q_height,q_width,r_center,r_height,r_width,s_center,s_height,s_width,t_center,t_height,t_width,r_squared,pr_interval,pr_segment,qrs_duration,st_segment,qt_interval,p_duration,pp_interval,rr_interval,fwhm_p,rise_time_p,decay_time_p,rise_decay_symmetry_p,sharpness_deriv_p,sharpness_diff_p,fwhm_q,rise_time_q,decay_time_q,rise_decay_symmetry_q,sharpness_deriv_q,sharpness_diff_q,fwhm_r,rise_time_r,decay_time_r,rise_decay_symmetry_r,sharpness_deriv_r,sharpness_diff_r,fwhm_s,rise_time_s,decay_time_s,rise_decay_symmetry_s,sharpness_deriv_s,sharpness_diff_s,fwhm_t,rise_time_t,decay_time_t,rise_decay_symmetry_t,sharpness_deriv_t,sharpness_diff_t,Average_Heart_Rate,SDNN,RMSSD,NN50,p_on,p_off,q_on,q_off,r_on,r_off,s_on,s_off,t_on,t_off,sharpness_deriv_p_norm,sharpness_deriv_q_norm,sharpness_deriv_r_norm,sharpness_deriv_s_norm,sharpness_deriv_t_norm
0,0,0.0,0.0,0.0,0.0,0.0,0.0,0.0,0.0,0.0,0.0,0.0,0.0,0.0,0.0,0.0,0.0,0.0,0.0,0.0,0.0,0.0,0.0,0.0,0.0,0.0,0.0,0.0,0.0,0.0,0.0,0.0,0.0,0.0,0.0,0.0,0.0,0.0,0.0,0.0,0.0,0.0,0.0,0.0,0.0,0.0,0.0,0.0,0.0,0.0,0.0,0.0,0.0,0.0,0.0,73.3449852243828,422.9846820313804,671.3001556265223,623.0,,,,,,,,,,,,,,,
1,1,1474.3892018623446,2059.0995263272575,10.641910242652148,1520.534155696112,-467.6549387324886,68.79506582332952,1627.5810795843352,30503.697166829275,11.268993910115592,1651.452034599136,-8612.386541378344,7.494424064895511,1869.26017299568,8099.753266221224,34.142382223827326,0.9824253048718188,45.0,21.0,158.0,249.0,407.0,24.0,,,25.0,14.0,11.0,0.56,77.7146663966329,1571.272368555488,64.0,16.0,48.0,0.25,7.570764400746165,477.3469214888702,26.0,14.0,12.0,0.5384615384615384,1348.6885094465713,27174.66602070541,16.0,3.0,13.0,0.1875,1099.510783327213,16655.996128217033,87.0,43.0,44.0,0.4942528735632184,45.42740504237808,8289.449374227966,0.0,0.0,0.0,0.0,1460.0,1484.0,1505.0,1560.0,1614.0,1640.0,1648.0,1663.0,1827.0,1912.0,0.03774206414162495,-0.016188783168345516,0.04421393584097011,-0.1276662140098562,0.005608492450236243
2,2,3026.720080667491,1599.8850405116762,9.639124736803526,3091.9043149087843,772.6748502906622,155.42588945270745,3183.117451465029,29971.125905824974,11.25456697485305,3207.87669549928,-8036.806743311806,6.933375277685089,3421.634582732983,8946.303828054635,39.38736217341023,0.9786087690796956,-6.0,-44.0,213.0,251.0,464.0,38.0,1553.0,1556.0,40.0,17.0,23.0,0.425,61.54114192968382,2238.869513174011,198.0,87.0,111.0,0.4393939393939394,11.411472109217328,669.2664558719646,27.0,14.0,13.0,0.5185185185185185,1278.5138024175617,28791.100704585115,14.0,4.0,10.0,0.2857142857142857,1023.2793830288856,14619.10724545732,97.0,49.0,48.0,0.5051546391752577,54.60827882407147,9576.015669726625,0.0,0.0,0.0,0.0,3011.0,3049.0,3005.0,3203.0,3169.0,3196.0,3205.0,3218.0,3376.0,3469.0,0.03846597747423258,0.014768789361947783,0.04265818396128652,-0.1273241245822483,0.006104004499917145
3,3,4701.164588507939,1463.5118469151278,7.541154958709914,4814.876695499281,-950.069275474627,12.739827004320285,4852.814250312132,29773.71937688343,11.338864519044767,4876.452034599137,-9228.37910683891,8.231369176353065,5096.933985630182,8307.489018558643,32.68619691837861,0.9842022720393064,40.0,18.0,158.0,251.0,409.0,22.0,1676.0,1669.0,22.0,11.0,11.0,0.5,78.93744168285492,1506.472496677682,93.0,86.0,7.0,0.9247311827956988,149.96270193185,1368.5686164917925,26.0,14.0,12.0,0.5384615384615384,1336.3022895630995,26494.965427547355,16.0,3.0,13.0,0.1875,1093.436491026819,17169.285534757197,84.0,42.0,42.0,0.5,50.71529095216256,8554.622494417821,0.0,0.0,0.0,0.0,4690.0,4712.0,4730.0,4822.0,4839.0,4865.0,4873.0,4888.0,5056.0,5139.0,0.05393700218364729,-0.1578439654907617,0.04488194009783729,-0.11848629952973021,0.006104767738948118
4,4,0.0,0.0,0.0,0.0,0.0,0.0,0.0,0.0,0.0,0.0,0.0,0.0,0.0,0.0,0.0,0.0,0.0,0.0,0.0,0.0,0.0,0.0,0.0,0.0,0.0,0.0,0.0,0.0,0.0,0.0,0.0,0.0,0.0,0.0,0.0,0.0,0.0,0.0,0.0,0.0,0.0,0.0,0.0,0.0,0.0,0.0,0.0,0.0,0.0,0.0,0.0,0.0,0.0,0.0,0.0,0.0,0.0,0.0,,6092.0,6329.0,6445.0,6459.0,6485.0,6493.0,6510.0,6679.0,6754.0,,,,,
5,5,7129.559026298234,1388.352302667247,6.976528003034365,7246.027373698993,-1293.204795576191,17.8357578060484,7285.450283679479,29597.23167730455,11.348745173902474,7309.452034599137,-9179.680389900166,8.215826720622697,7528.815143114996,8444.192839803156,32.48908502949718,0.982185192910806,44.0,23.0,158.0,249.0,407.0,21.0,2428.0,2433.0,21.0,11.0,10.0,0.5238095238095238,80.81481696122204,1376.7889902064198,94.0,84.0,10.0,0.8936170212765957,114.05355239811044,410.25668412400097,25.0,13.0,12.0,0.52,1311.7584047484386,27572.93671208523,17.0,4.0,13.0,0.2352941176470588,1076.344217926449,17076.395493995144,84.0,42.0,42.0,0.5,54.16164618781901,8669.958523626081,0.0,0.0,0.0,0.0,7119.0,7140.0,7163.0,7256.0,7272.0,7297.0,7306.0,7321.0,7488.0,7570.0,0.05820915685879142,-0.08819450158881724,0.044320307353417375,-0.11725290774945539,0.006414070262881583
6,6,7968.486398447401,1278.1704173377132,6.54477398211762,8084.452034599137,-1197.4473669377826,15.28779240518434,8123.144184041741,30014.074098847937,11.276615529732338,8147.027373698993,-9222.421626331785,8.070969870563806,8367.311325537457,8348.53998214592,32.33187428564179,0.980825049004539,41.0,21.0,160.0,249.0,409.0,20.0,839.0,838.0,20.0,10.0,10.0,0.5,82.8730202199064,1386.8906999526057,95.0,86.0,9.0,0.9052631578947368,120.3612665279272,617.1886237225666,26.0,14.0,12.0,0.5384615384615384,1344.2992207940165,27504.42000465443,16.0,4.0,12.0,0.25,1074.585612749907,17008.41363361278,84.0,42.0,42.0,0.5,57.26152287429201,8628.500866591525,0.0,0.0,0.0,0.0,7958.0,7978.0,7999.0,8093.0,8109.0,8135.0,8143.0,8159.0,8327.0,8408.0,0.06483722287402151,-0.10051487009047051,0.04478896188390553,-0.11651881211782368,0.006858866699656559
7,7,8806.972626301007,2078.434378595929,10.449709813509566,8883.986435797653,-1666.7128062840386,101.91861603456228,8959.39288486139,29545.15702852585,11.514521844282124,8984.027373698993,-9182.277203363295,8.203054775499622,9204.703036412157,6882.852416653586,28.81524428019957,0.9793077238241832,30.0,14.0,170.0,246.0,416.0,16.0,837.0,836.0,16.0,10.0,6.0,0.625,80.78387595660607,721.3057301447811,106.0,59.0,47.0,0.5566037735849056,10.82944620312698,1172.8167817684198,25.0,13.0,12.0,0.52,1259.4103515863765,26348.563919799264,17.0,4.0,13.0,0.2352941176470588,1031.6062866639802,17403.58205680567,79.0,40.0,39.0,0.5063291139240507,46.19749551767115,6928.4364736927655,0.0,0.0,0.0,0.0,8797.0,8813.0,8827.0,8931.0,8946.0,8971.0,8980.0,8997.0,9167.0,9243.0,0.03886765768913956,-0.006497487846914307,0.0426266257569867,-0.11234754340525924,0.006711969503500146
8,8,9393.424660900142,20.689628621901324,2.4455972023287424,9722.60271279885,-2813.56917435796,20.383723206912453,9761.66510911749,28893.16319572509,11.730625557521588,9785.027373698991,-11226.994203781507,10.264718209517447,10006.639369425078,7349.158692176956,28.374955658816763,0.9619023594120234,226.0,223.0,181.0,245.0,426.0,3.0,589.0,801.0,3.0,1.0,2.0,0.3333333333333333,7.936071220143352,2.6361057274871076,116.0,105.0,11.0,0.9051724137931034,142.09497056396387,403.5864771598132,25.0,14.0,11.0,0.56,1307.2733271527622,23404.924782172784,19.0,4.0,15.0,0.2105263157894736,1074.400575002106,18608.161659337507,76.0,38.0,38.0,0.5,49.251647580541736,7419.26079159045,0.0,0.0,0.0,0.0,9392.0,9395.0,9618.0,9734.0,9748.0,9773.0,9781.0,9799.0,9970.0,10044.0,0.38357726787529195,-0.05050345726665459,0.04524507470148443,-0.09569797182581813,0.006701671530507187
9,9,10415.492865361914,1131.9645703700764,6.415447608693326,10532.027373698991,-1329.3385226764594,17.8357578060484,10571.149192006807,29803.07158935936,11.331778763753023,10595.027373698991,-9217.957138043332,8.30345718247426,10815.130519838342,8298.035271264449,31.241892254787185,0.9824251736510146,43.0,23.0,159.0,248.0,407.0,20.0,1022.0,810.0,20.0,10.0,10.0,0.5,76.49562803783188,1264.134584951901,95.0,85.0,10.0,0.8947368421052632,117.04934801243918,496.23901120216567,26.0,14.0,12.0,0.5384615384615384,1331.1390481467529,27219.569569872383,17.0,4.0,13.0,0.2352941176470588,1060.03363558198,16941.765580153373,81.0,40.0,41.0,0.4938271604938271,58.19062190185869,8588.20574090877,0.0,0.0,0.0,0.0,10405.0,10425.0,10448.0,10542.0,10557.0,10583.0,10591.0,10607.0,10776.0,10855.0,0.067577758209184,-0.08805082077721989,0.044664491851303396,-0.11499658977661402,0.0070125782790257584
10,10,11257.906446483485,1662.0892162816913,8.87961144474211,11302.821948101297,-359.91266819658154,10.713706059446665,11409.486308115109,30395.192447860667,11.202820600173853,11433.45203459914,-8468.802188533758,7.587944363061295,11653.057896147206,8749.628866129342,34.603109668102924,0.9833213709035064,45.0,21.0,155.0,251.0,406.0,24.0,841.0,839.0,24.0,13.0,11.0,0.5416666666666666,74.41384877025108,1622.5001985738966,47.0,13.0,34.0,0.2765957446808511,15.270414870878623,398.3227406797388,26.0,13.0,13.0,0.5,1321.072336463802,28660.76616891148,16.0,3.0,13.0,0.1875,1084.8106711297648,16528.5996332491,87.0,43.0,44.0,0.4942528735632184,53.93593442130757,9104.9994042959,0.0,0.0,0.0,0.0,11245.0,11269.0,11290.0,11319.0,11396.0,11422.0,11430.0,11445.0,11612.0,11696.0,0.04477127222852964,-0.04242811165106875,0.04346320026530328,-0.128094935621301,0.006164368254532347
11,11,0.0,0.0,0.0,0.0,0.0,0.0,0.0,0.0,0.0,0.0,0.0,0.0,0.0,0.0,0.0,0.0,0.0,0.0,0.0,0.0,0.0,0.0,0.0,0.0,0.0,0.0,0.0,0.0,0.0,0.0,0.0,0.0,0.0,0.0,0.0,0.0,0.0,0.0,0.0,0.0,0.0,0.0,0.0,0.0,0.0,0.0,0.0,0.0,0.0,0.0,0.0,0.0,0.0,0.0,0.0,0.0,0.0,0.0,,12628.0,12863.0,12979.0,12993.0,13018.0,13026.0,13044.0,13214.0,13288.0,,,,,
12,12,13653.24660900144,1565.921330950383,10.013399474079929,13703.945252602014,-783.3908641668455,35.6715156120968,13806.836349404097,30326.49094092063,11.148372727488884,13830.45203459914,-8863.479003201712,8.07273729155169,14049.808008713902,8465.342632035337,32.676518912072936,0.98207610561176,45.0,23.0,158.0,249.0,407.0,22.0,2393.0,2397.0,23.0,14.0,9.0,0.6086956521739131,65.26551364066697,1105.6795850292456,92.0,20.0,72.0,0.217391304347826,11.436263754296997,749.7018276864836,26.0,14.0,12.0,0.5384615384615384,1353.5495482101085,27018.996509230783,16.0,3.0,13.0,0.1875,1099.3520072460958,17127.23668279554,83.0,41.0,42.0,0.4939759036144578,55.25090284927325,8793.734055481433,0.0,0.0,0.0,0.0,13639.0,13661.0,13684.0,13776.0,13793.0,13819.0,13827.0,13842.0,14010.0,14091.0,0.04167866696154926,-0.014598413483491068,0.0446325805002291,-0.12403165922195812,0.006526717848393713
13,13,14540.987728618013,1825.4618424349187,10.14125471021154,14591.369913502158,-545.4032335590106,38.21948101296085,14689.495344667252,30212.37815651459,11.18977590877916,14713.45203459914,-8677.97827901671,7.878501661059438,14934.734837881611,8652.804444005298,33.23968091904313,0.9856230523422084,43.0,19.0,155.0,252.0,407.0,24.0,889.0,883.0,24.0,14.0,10.0,0.5833333333333334,72.22108035365812,1397.3139461324686,88.0,21.0,67.0,0.2386363636363636,8.318651857671973,499.2643385921723,26.0,13.0,13.0,0.5,1321.2355237181894,28307.998516891363,16.0,3.0,13.0,0.1875,1081.602591882306,16785.353425517056,85.0,43.0,42.0,0.5058823529411764,54.155295326663264,8959.63180122705,0.0,0.0,0.0,0.0,14527.0,14551.0,14570.0,14658.0,14676.0,14702.0,14710.0,14725.0,14894.0,14977.0,0.039563182683306594,-0.015252296550185243,0.04373159626407284,-0.12463762377668233,0.006258698630844743
14,14,15459.123415808755,1835.2376515807432,9.834871164558676,15574.27398270043,-610.2453014684928,5.201897779192374,15608.166197785718,30194.341189191404,11.283679313811248,15632.45203459914,-8304.556162266637,7.51961546729624,15853.063705209834,8665.141572324745,34.55857824642868,0.9860002800361506,123.0,96.0,76.0,252.0,328.0,27.0,919.0,919.0,27.0,14.0,13.0,0.5185185185185185,72.5860677422187,1782.6887482998377,8.0,6.0,2.0,0.75,265.21657643910834,3440.6981733900275,27.0,14.0,13.0,0.5185185185185185,1304.2574642557668,28135.31553457956,15.0,3.0,12.0,0.2,1063.612589085691,16161.447565842547,87.0,43.0,44.0,0.4942528735632184,53.092464986431786,8988.560460519633,0.0,0.0,0.0,0.0,15445.0,15472.0,15568.0,15576.0,15594.0,15621.0,15629.0,15644.0,15812.0,15896.0,0.03955131787956629,-0.43460650299296333,0.04319542711939178,-0.1280757897596528,0.0061271318585263196
15,15,0.0,0.0,0.0,0.0,0.0,0.0,0.0,0.0,0.0,0.0,0.0,0.0,0.0,0.0,0.0,0.0,0.0,0.0,0.0,0.0,0.0,0.0,0.0,0.0,0.0,0.0,0.0,0.0,0.0,0.0,0.0,0.0,0.0,0.0,0.0,0.0,0.0,0.0,0.0,0.0,0.0,0.0,0.0,0.0,0.0,0.0,0.0,0.0,0.0,0.0,0.0,0.0,0.0,0.0,0.0,0.0,0.0,0.0,,16108.0,16344.0,16452.0,16467.0,16493.0,16502.0,16518.0,16688.0,16768.0,,,,,
16,16,17177.049863794826,853.7053820795073,5.1905979983693245,17293.876695499283,-1326.3012985063258,12.739827004320285,17330.86369426798,29050.611490293635,11.290514171659884,17355.027373698995,-9337.33215618098,8.170973031536374,17575.718851074314,8559.04782278313,31.90672612763079,0.9770502349305769,33.0,17.0,165.0,250.0,415.0,16.0,1720.0,1722.0,16.0,8.0,8.0,0.5,77.09894992201183,997.2902812517964,99.0,92.0,7.0,0.9292929292929292,176.025254768451,1323.9495505691489,26.0,14.0,12.0,0.5384615384615384,1307.8410670094584,26076.731765065593,16.0,4.0,12.0,0.25,1048.6665197102634,16821.993204539936,84.0,42.0,42.0,0.5,53.974980396369,8726.83050513292,0.0,0.0,0.0,0.0,17169.0,17185.0,17202.0,17301.0,17317.0,17343.0,17351.0,17367.0,17536.0,17617.0,0.09031095684814536,-0.13271890404291226,0.04501939890134268,-0.11230900884425361,0.006306189837226315
17,17,18058.160898675684,1591.8243307942575,8.161421585582476,18128.178297609214,1059.4111061725662,163.06978565529965,18208.3480287678,30402.008295580796,11.153503257166452,18232.876695499283,-7802.144177159508,6.838339633744942,18450.1734021628,10074.422008809926,44.0488696771634,0.9708415942970016,-6.0,-42.0,205.0,258.0,463.0,36.0,879.0,878.0,37.0,15.0,22.0,0.4054054054054054,78.43540633913332,2618.658300747925,192.0,91.0,101.0,0.4739583333333333,8.383265685200476,889.6135644309851,27.0,14.0,13.0,0.5185185185185185,1304.0883736565063,29876.869292475934,13.0,3.0,10.0,0.2307692307692307,1029.5022616853807,14349.972410220493,104.0,53.0,51.0,0.5096153846153846,58.12425615617897,10967.403270672072,0.0,0.0,0.0,0.0,18043.0,18079.0,18037.0,18246.0,18194.0,18221.0,18230.0,18242.0,18401.0,18500.0,0.049273908446918355,0.007913137436785504,0.04289481013812062,-0.13195119678757167,0.005769487927481121
18,18,19706.147588789383,1174.3641447889283,7.004898438713588,19820.45203459914,-940.5254611964152,15.28779240518434,19860.093747378076,29416.511685400616,11.642670430056535,19884.45203459914,-10302.83886964079,8.443008883867048,20104.51949075399,7532.03242188722,28.72870471563934,0.9831321995559404,50.0,29.0,152.0,246.0,398.0,21.0,1649.0,1651.0,21.0,11.0,10.0,0.5238095238095238,68.82329636531104,1233.7183342537169,86.0,77.0,9.0,0.8953488372093024,109.39351199731009,585.2313295692439,26.0,14.0,12.0,0.5384615384615384,1283.6420359717931,26473.864224091532,17.0,4.0,13.0,0.2352941176470588,1104.0844477422163,17849.864682146228,78.0,40.0,38.0,0.5128205128205128,47.99356384552096,7596.707669541472,0.0,0.0,0.0,0.0,19695.0,19716.0,19745.0,19829.0,19846.0,19872.0,19881.0,19897.0,20066.0,20143.0,0.058604732331708605,-0.11631105856310765,0.04363678636338324,-0.10716312869801393,0.006371927410463235
19,19,20507.54796540086,2418.2628072113257,13.143173526569,20541.53415569611,-2315.5705714581895,68.79506582332952,20660.98715974615,29371.03652523622,11.248651495625383,20684.45203459914,-9707.625549653238,8.861267597713557,20905.901575238546,8181.941343261086,29.21498038393816,0.9676791035078716,27.0,15.0,171.0,247.0,418.0,12.0,800.0,801.0,12.0,9.0,3.0,0.75,71.54818078573105,265.20065636616926,109.0,18.0,91.0,0.1651376146788991,29.366244387186875,1995.8729523144416,26.0,14.0,12.0,0.5384615384615384,1318.5911600376126,25262.5095550863,18.0,4.0,14.0,0.2222222222222222,1095.7729953285846,17943.26793322123,77.0,38.0,39.0,0.4935064935064935,52.82545140487249,8291.708641227688,0.0,0.0,0.0,0.0,20499.0,20511.0,20526.0,20632.0,20647.0,20673.0,20681.0,20697.0,20869.0,20944.0,0.029586602652272705,-0.012682077043626444,0.04489426714323313,-0.11287755071761356,0.006456346872784813
20,20,21329.954187097857,1654.1427343765215,8.072517484422324,21449.39062900494,-777.4537787159744,6.321719105359528,21483.918386497564,30255.0504949068,11.06532082231959,21508.45203459914,-8343.844543754645,7.313134690539057,21727.552223698927,8850.891015913725,33.832918567460716,0.9828783246559014,117.0,94.0,84.0,251.0,335.0,23.0,823.0,824.0,23.0,12.0,11.0,0.5217391304347826,82.45528370485084,1642.5000592256974,92.0,88.0,4.0,0.9565217391304348,235.31850238627163,2755.272796216843,26.0,14.0,12.0,0.5384615384615384,1337.6871014750711,27890.816184124364,16.0,4.0,12.0,0.25,1066.450228396786,16329.204911862762,86.0,43.0,43.0,0.5,57.97810413193426,9225.028102201202,0.0,0.0,0.0,0.0,21318.0,21341.0,21435.0,21453.0,21470.0,21496.0,21505.0,21519.0,21686.0,21770.0,0.04984774408595993,-0.30267844703889474,0.04421367935579087,-0.12781281132508904,0.006550538700306081
21,21,22192.56955414354,1752.852217814719,9.231398536571897,22237.67126990158,-434.4174911314453,28.027619409504627,22343.82146263588,30164.30534141319,11.124915895478194,22368.027373698995,-8531.877599016017,7.631979919155022,22588.24863767056,8898.27959538821,34.31255948304389,0.9826381090334868,43.0,20.0,157.0,252.0,409.0,23.0,862.0,859.0,24.0,14.0,10.0,0.5833333333333334,76.55874986726158,1449.1288345772489,63.0,17.0,46.0,0.2698412698412698,14.03557303618987,500.8799305830054,26.0,14.0,12.0,0.5384615384615384,1334.6482727894788,27329.605844726982,16.0,4.0,12.0,0.25,1051.4605747585829,16331.51639968795,87.0,43.0,44.0,0.4942528735632184,54.569376915773134,9224.404513764594,0.0,0.0,0.0,0.0,22179.0,22202.0,22222.0,22282.0,22330.0,22356.0,22364.0,22379.0,22546.0,22631.0,0.043676671135862995,-0.03230895008309647,0.04424594757556419,-0.12323905993211248,0.006132576115506112
22,22,23077.00483028029,2090.5210212615025,11.20731596750912,23124.56152939534,-657.1844213808214,86.63082362861562,23226.277760628152,29159.80450348061,11.507492320001086,23250.45203459914,-8986.601707785088,8.18318328041568,23470.201803507047,8190.098012644149,34.76815557740182,0.9819379247394664,41.0,19.0,158.0,252.0,410.0,22.0,884.0,883.0,24.0,14.0,10.0,0.5833333333333334,74.76697537548604,1377.530353073672,91.0,20.0,71.0,0.2197802197802197,7.81927500476877,702.0295360099908,26.0,14.0,12.0,0.5384615384615384,1244.525365329913,26500.8596542608,17.0,3.0,14.0,0.1764705882352941,1053.1637751966607,16715.033217574663,89.0,43.0,46.0,0.4831460674157303,47.50330910555225,8448.872567620712,0.0,0.0,0.0,0.0,23064.0,23086.0,23105.0,23196.0,23212.0,23238.0,23247.0,23263.0,23429.0,23515.0,0.03576475654397807,-0.01189814418963182,0.042679482476686785,-0.11719266185840922,0.005800090430201817
23,23,23871.821948101293,1466.5107670461566,9.756695350908505,23904.2054255977,-660.8707047495302,40.767446413824906,24024.24990940544,29253.67828641391,11.475059124734042,24049.027373698995,-9564.042306423093,8.30594658258541,24268.750831954178,7766.1721320509505,31.443011130056707,0.9815403318596816,36.0,16.0,166.0,249.0,415.0,20.0,794.0,798.0,21.0,14.0,7.0,0.6666666666666666,56.81139526768547,785.8864894135424,80.0,10.0,70.0,0.125,16.38122465289878,592.6910603162412,27.0,14.0,13.0,0.5185185185185185,1253.6648594991946,26775.464436103768,16.0,4.0,12.0,0.25,1040.2270651792016,16872.145008506697,82.0,41.0,41.0,0.5,47.67282656508584,7921.049816842313,0.0,0.0,0.0,0.0,23859.0,23879.0,23895.0,23971.0,24010.0,24037.0,24045.0,24061.0,24229.0,24310.0,0.03873916001456633,-0.02478733666838396,0.04285494792227293,-0.10876437303927419,0.006138523039985213
24,24,24655.78800987348,1598.0857643784964,9.539159792186773,24702.67126990158,-449.83420568263097,28.027619409504627,24810.395795668588,29833.050514250368,11.232041352717417,24834.45203459914,-8483.837269951653,7.487252702468328,25053.344532190564,8532.516335748229,33.99637420009767,0.9820394012565532,45.0,22.0,158.0,251.0,409.0,23.0,784.0,786.0,24.0,14.0,10.0,0.5833333333333334,67.57437985235705,1312.3985431943415,93.0,17.0,76.0,0.1827956989247312,11.079576822388184,495.2402909844119,27.0,14.0,13.0,0.5185185185185185,1292.2819788489935,27978.23323434597,15.0,3.0,12.0,0.2,1075.327450830134,16333.138014478762,87.0,43.0,44.0,0.4942528735632184,53.26166012442845,8826.53833675043,0.0,0.0,0.0,0.0,24642.0,24665.0,24687.0,24761.0,24796.0,24823.0,24831.0,24845.0,25012.0,25096.0,0.04228457655940454,-0.024630356434488434,0.04331712501984028,-0.12675012693121376,0.0062421984357979975
25,25,25496.588134394657,1396.5315345328058,7.097398574881649,25611.45203459914,-1228.3363162197345,15.28779240518434,25649.94334480069,29844.02758331523,11.412637400499188,25673.45203459914,-9290.464902590891,8.231326033522915,25894.93491213939,8582.563289599968,31.9613950143456,0.9836807963567542,42.0,21.0,157.0,251.0,408.0,21.0,843.0,839.0,21.0,11.0,10.0,0.5238095238095238,79.68623408613942,1367.092441729506,93.0,84.0,9.0,0.9032258064516128,131.60587331718233,650.2940613914294,26.0,14.0,12.0,0.5384615384615384,1335.1676905134907,26788.917524932192,16.0,3.0,13.0,0.1875,1098.4891112656724,17195.11286775207,83.0,41.0,42.0,0.4939759036144578,58.3892927529183,8889.860653720883,0.0,0.0,0.0,0.0,25486.0,25507.0,25528.0,25620.0,25636.0,25662.0,25670.0,25685.0,25855.0,25936.0,0.057060103632244556,-0.107141563413354,0.04473818712256978,-0.1182383360556402,0.006803246394194644
26,26,26400.348431668543,1671.459447490845,8.086216321776083,26515.123304500717,-751.6311360968851,6.990331814153808,26549.562130796647,28988.174139750256,11.3465811915243,26574.45203459914,-8697.856993372476,7.8087259886012355,26795.36249757268,8260.066823476125,35.053112319797485,0.9850408547560396,118.0,95.0,80.0,253.0,333.0,23.0,904.0,900.0,23.0,12.0,11.0,0.5217391304347826,84.95596631810665,1715.9053846622571,12.0,9.0,3.0,0.75,246.91784299591671,3032.61988547336,26.0,14.0,12.0,0.5384615384615384,1262.5543040935438,25897.79232901239,16.0,4.0,12.0,0.25,1029.1821870748472,16144.788592261815,89.0,44.0,45.0,0.4943820224719101,54.82073839701989,8638.703734826793,0.0,0.0,0.0,0.0,26388.0,26411.0,26506.0,26518.0,26536.0,26562.0,26571.0,26586.0,26753.0,26839.0,0.050827416989171065,-0.32850933275346517,0.04355411617188599,-0.11832594946767408,0.006636839576311006
27,27,27232.972626301005,1349.5150491449228,8.969353758840748,27264.054747397982,-1023.1801668166364,35.6715156120968,27384.362808946826,28988.198213526994,11.416565883845053,27408.360802656534,-10194.442205563895,9.35605324839532,27630.806461348253,7416.631392107743,29.07694824728219,0.9761954757646524,33.0,18.0,165.0,248.0,413.0,15.0,831.0,834.0,15.0,10.0,5.0,0.6666666666666666,56.732240271087285,625.3619975680059,100.0,10.0,90.0,0.1,27.88747499908522,961.884556186318,26.0,14.0,12.0,0.5384615384615384,1262.5560238454243,25580.22606215984,18.0,4.0,14.0,0.2222222222222222,1075.083393359283,17997.260401186595,79.0,40.0,39.0,0.5063291139240507,47.2521980945399,7439.934277796097,0.0,0.0,0.0,0.0,27223.0,27238.0,27256.0,27354.0,27370.0,27396.0,27404.0,27421.0,27592.0,27669.0,0.04203898304582365,-0.02725568370412219,0.04355413932750976,-0.10545779471607843,0.0063711131909322555
28,28,28030.246609001435,1873.867353302304,11.19267910093592,28068.2054255979,-879.278763509097,40.767446413824906,28182.667974582604,29737.685183500173,11.234543511187702,28206.45203459914,-8894.452709514384,7.964640470013851,28427.90471488191,8547.382077940361,32.34932413289683,0.9830980262898747,43.0,21.0,159.0,251.0,410.0,22.0,796.0,799.0,23.0,14.0,9.0,0.6086956521739131,64.92615146953817,1103.760282565067,94.0,10.0,84.0,0.1063829787234042,24.86655657650101,1053.2092449865058,26.0,14.0,12.0,0.5384615384615384,1317.4181332845626,26243.087519856315,16.0,3.0,13.0,0.1875,1086.3254236351518,16860.41780113527,84.0,42.0,42.0,0.5,55.1769496125776,8785.70753689778,0.0,0.0,0.0,0.0,28016.0,28038.0,28059.0,28152.0,28169.0,28195.0,28203.0,28218.0,28387.0,28469.0,0.03464821101403962,-0.028280629088847254,0.044301300694901645,-0.12213516211886886,0.006455420982640036
29,29,28847.541104307857,1083.6825219343143,5.812451807322881,28964.45203459914,-1473.2058525627288,15.28779240518434,29002.857706228595,29782.778444504405,11.35911877033492,29026.45203459914,-9497.18287455703,8.54884199283457,29247.83878470282,8248.885994428414,31.4465616721606,0.9811086127505828,37.0,19.0,164.0,249.0,413.0,18.0,820.0,820.0,18.0,10.0,8.0,0.5555555555555556,80.53575767277061,1103.0288328655254,100.0,90.0,10.0,0.9,129.47244741737367,480.2036876925961,26.0,14.0,12.0,0.5384615384615384,1348.4708963298783,26401.67720774512,17.0,3.0,14.0,0.1764705882352941,1096.4638525857206,17515.364249765975,82.0,41.0,41.0,0.5,53.5397298449534,8481.531800468465,0.0,0.0,0.0,0.0,28838.0,28856.0,28875.0,28973.0,28989.0,29015.0,29023.0,29039.0,29208.0,29288.0,0.0743167450269648,-0.08788483102490306,0.0452768669263865,-0.11545148356815886,0.006490540647684549
30,30,29717.937484310787,2206.7038263920936,11.599002004368849,29834.424660900146,-388.9597064292351,2.5479654008640567,29869.19484293587,30218.237760986012,11.346443888136324,29893.45203459914,-8274.423668355108,7.320739207248245,30113.141027093858,8762.10137948402,36.325476674195166,0.9856288837715655,129.0,101.0,72.0,254.0,326.0,28.0,870.0,867.0,30.0,16.0,14.0,0.5333333333333333,79.58187474396998,2095.585876944223,3.0,2.0,1.0,0.6666666666666666,227.88656701128076,3095.531999534018,27.0,14.0,13.0,0.5185185185185185,1298.2564461466798,28316.063220566197,15.0,3.0,12.0,0.2,1070.3689664625178,16016.4883618222,90.0,44.0,46.0,0.4888888888888889,45.94730434358544,9056.45355623566,0.0,0.0,0.0,0.0,29703.0,29731.0,29832.0,29835.0,29855.0,29882.0,29890.0,29904.0,30071.0,30158.0,0.03606368638698759,-0.5858873380570617,0.042962678909847785,-0.1293587335340419,0.005243868149159804
31,31,0.0,0.0,0.0,0.0,0.0,0.0,0.0,0.0,0.0,0.0,0.0,0.0,0.0,0.0,0.0,0.0,0.0,0.0,0.0,0.0,0.0,0.0,0.0,0.0,0.0,0.0,0.0,0.0,0.0,0.0,0.0,0.0,0.0,0.0,0.0,0.0,0.0,0.0,0.0,0.0,0.0,0.0,0.0,0.0,0.0,0.0,0.0,0.0,0.0,0.0,0.0,0.0,0.0,0.0,0.0,0.0,0.0,0.0,,31061.0,31303.0,31417.0,31430.0,31456.0,31464.0,31481.0,31653.0,31725.0,,,,,
32,32,32099.04129321826,1006.1337156496744,5.739933979711212,32216.45203459914,-1363.8360313996618,15.28779240518434,32254.95810856239,30007.977654988223,11.380825013390428,32278.45203459914,-9531.583284080143,8.409668226496109,32499.300456398563,8461.28399464207,31.874640249913572,0.9802994638248133,39.0,21.0,161.0,250.0,411.0,18.0,2383.0,2385.0,18.0,9.0,9.0,0.5,77.4894244627338,1104.4446720223184,97.0,88.0,9.0,0.9072164948453608,130.90669576802722,583.6023509420617,26.0,14.0,12.0,0.5384615384615384,1354.2092053299286,26830.740740456386,17.0,3.0,14.0,0.1764705882352941,1108.0440152161054,17559.903471681126,84.0,42.0,42.0,0.5,54.34924959490612,8723.54271848229,0.0,0.0,0.0,0.0,32090.0,32108.0,32129.0,32225.0,32241.0,32267.0,32275.0,32290.0,32459.0,32540.0,0.07701702393771567,-0.09598418926773904,0.04512830624241746,-0.11624973335403621,0.006423286303747946
33,33,32991.574987092084,1817.7778994971552,8.665470475623115,33106.30135639943,-805.5765931285356,10.191861603456228,33142.97577140888,30348.45701512588,11.080919080224454,33167.45203459914,-8609.202432695713,7.613552531237901,33389.305539932095,8915.310824923215,33.774972464510554,0.9868091002613631,46.0,22.0,153.0,254.0,407.0,24.0,891.0,889.0,24.0,13.0,11.0,0.5416666666666666,82.91727285779398,1748.0520055075351,88.0,81.0,7.0,0.9204545454545454,170.47928629983258,1661.7942564290493,26.0,14.0,12.0,0.5384615384615384,1349.4845465826063,27932.810067719525,16.0,4.0,12.0,0.25,1073.7177035037298,16695.592687474917,87.0,43.0,44.0,0.4942528735632184,56.80690119935822,9224.079075908146,0.0,0.0,0.0,0.0,32979.0,33003.0,33025.0,33112.0,33129.0,33155.0,33164.0,33178.0,33347.0,33432.0,0.04561463360333023,-0.21162393216734313,0.044466331382515226,-0.12471744181853643,0.0063718363066547915
34,34,33859.932702550745,1211.7040320185952,5.919243751852705,33974.027373699,-1440.1881869130905,17.8357578060484,34013.52872217282,28988.18737840172,11.497291718533496,34038.027373699,-9765.820620724327,8.524375366580761,34258.655200145746,7864.41083108713,32.463371823721346,0.980302407830376,36.0,18.0,163.0,251.0,414.0,18.0,869.0,870.0,18.0,9.0,9.0,0.5,88.31001052232021,1234.1764212806672,99.0,89.0,10.0,0.898989898989899,116.65332560119646,155.90748360026737,26.0,14.0,12.0,0.5384615384615384,1288.6879473808656,25241.424701790173,17.0,4.0,13.0,0.2352941176470588,1042.9509832520318,17054.833134937984,85.0,43.0,42.0,0.5058823529411764,47.06216311500514,8026.78647845315,0.0,0.0,0.0,0.0,33851.0,33869.0,33887.0,33984.0,34000.0,34026.0,34034.0,34050.0,34217.0,34301.0,0.07288084234167587,-0.08099866854985946,0.04445562361519129,-0.10679604139346525,0.005984194382238237
35,35,34446.742754794876,73.56826828759078,5.095928890930665,34694.28754669468,-1498.7573165737897,94.2747198319701,34819.36182933663,29895.73561095521,11.688255761264791,34843.45203459914,-10358.224424279844,8.830243467210376,35065.9530117926,7159.029092747561,27.977122747078464,0.9669629358820648,228.0,222.0,183.0,247.0,430.0,6.0,588.0,806.0,6.0,2.0,4.0,0.3333333333333333,10.599662588513734,802.1439846729068,115.0,20.0,95.0,0.1739130434782608,16.239567988289824,1246.175522319802,26.0,14.0,12.0,0.5384615384615384,1282.807876212495,26435.772862455415,18.0,4.0,14.0,0.2222222222222222,1108.9871954370285,18400.37396742227,77.0,39.0,38.0,0.5064935064935064,45.83612079118884,7158.253755764994,0.0,0.0,0.0,0.0,34445.0,34451.0,34673.0,34789.0,34805.0,34831.0,34840.0,34856.0,35028.0,35103.0,0.144079272697814,-0.01083535526980047,0.04290939326284427,-0.10706344543351896,0.006402561045271212
36,36,35445.8155701301,1174.914366078572,6.871764935830486,35564.027373699,-1182.6248565531164,17.8357578060484,35603.42664436935,29531.65048488494,11.35617018006486,35627.45203459914,-9273.097459688272,8.1038604084547,35847.35123400594,8575.667490195035,32.46262698452621,0.9805900867552602,42.0,21.0,162.0,249.0,411.0,21.0,998.0,784.0,21.0,11.0,10.0,0.5238095238095238,70.23490418074334,1214.1398979221983,98.0,88.0,10.0,0.8979591836734694,110.12276014960617,466.5871748188198,26.0,13.0,13.0,0.5,1304.5565314981868,27503.537632400356,17.0,4.0,13.0,0.2352941176470588,1082.9104847699282,17078.396627026894,83.0,41.0,42.0,0.4939759036144578,55.62230432424925,8840.08040385013,0.0,0.0,0.0,0.0,35435.0,35456.0,35477.0,35574.0,35590.0,35615.0,35624.0,35639.0,35807.0,35888.0,0.05977874320761043,-0.0931172379300148,0.044174860195026776,-0.11677980194616996,0.006486061217723851
37,37,36250.98326004539,1287.833994610981,6.318679888225423,36369.45203459914,-1305.1444252360905,15.28779240518434,36407.99017204528,30067.313166907632,11.35688004230358,36431.45203459914,-9280.867659855969,8.270359955241073,36653.12220185354,8364.720772783097,31.429032589489875,0.9825108621808152,40.0,21.0,162.0,251.0,413.0,19.0,805.0,804.0,19.0,10.0,9.0,0.5263157894736842,86.15050636274924,1363.1065181684494,98.0,89.0,9.0,0.9081632653061223,125.33806442666818,587.3661041685408,26.0,14.0,12.0,0.5384615384615384,1351.2753969444063,27077.670826439855,16.0,3.0,13.0,0.1875,1104.2387036381615,17316.68264232829,82.0,41.0,41.0,0.5,54.78153871679512,8602.072195880482,0.0,0.0,0.0,0.0,36241.0,36260.0,36281.0,36378.0,36394.0,36420.0,36428.0,36443.0,36614.0,36694.0,0.06689566102715973,-0.09603386568041733,0.04494167435059122,-0.11898011523367616,0.006549117442753357
38,38,37084.11245388386,1450.0594326363057,7.277467085304371,37200.87669549929,-1018.5430085365028,12.739827004320285,37238.54299474398,30217.49958052735,11.253687062808794,37262.45203459914,-8989.107263888402,8.013101762657561,37483.33043365847,8522.098652907218,33.04189491198251,0.9817342736305452,41.0,20.0,160.0,251.0,411.0,21.0,833.0,831.0,21.0,11.0,10.0,0.5238095238095238,80.96100005187158,1476.7153906227334,94.0,87.0,7.0,0.925531914893617,160.990759197252,1302.7425083358708,26.0,14.0,12.0,0.5384615384615384,1361.0138399444304,26703.64205013756,16.0,3.0,13.0,0.1875,1092.2294067063183,17081.586849089155,85.0,42.0,43.0,0.4941176470588235,56.08084405194598,8832.006508772232,0.0,0.0,0.0,0.0,37073.0,37094.0,37114.0,37208.0,37225.0,37251.0,37259.0,37274.0,37443.0,37525.0,0.05583288396992048,-0.15805985397570216,0.04504058439108873,-0.12150588202391242,0.0065806377438278815
39,39,38724.53528621005,1314.0643415480058,6.830124976657013,38844.83408015029,-1254.9631667494937,12.739827004320285,38881.26379266404,28907.80829932373,11.6230017664947,38905.027373699,-10185.418314308605,8.94895761081608,39129.29233776293,7908.630688205034,29.176079594934446,0.9878824449501687,49.0,29.0,155.0,249.0,404.0,20.0,1641.0,1642.0,21.0,11.0,10.0,0.5238095238095238,78.11516817470297,1283.746107701263,88.0,82.0,6.0,0.9318181818181818,210.25892535425484,1759.6499501406945,26.0,14.0,12.0,0.5384615384615384,1275.3283775224131,25829.310381648294,17.0,4.0,13.0,0.2352941176470588,1066.921777157968,17538.092785284152,77.0,39.0,38.0,0.5064935064935064,51.29049489695026,7978.7962897136385,0.0,0.0,0.0,0.0,38714.0,38734.0,38763.0,38851.0,38867.0,38893.0,38901.0,38918.0,39091.0,39167.0,0.059445466789458,-0.16754190953576023,0.044117089898933926,-0.10474992231385753,0.006485382478846196
40,40,39538.89944123546,1483.3735524804615,8.831936575489655,39654.87669549929,-887.0949866809058,12.739827004320285,39692.93923778335,29712.560750197783,11.282905663095042,39717.027373699,-8897.65867440684,7.946829733337434,39938.10219423483,8461.397801411034,32.46640063328944,0.9855763488768932,50.0,26.0,152.0,251.0,403.0,24.0,812.0,812.0,25.0,13.0,12.0,0.52,65.8298188835242,1469.9543544332737,87.0,80.0,7.0,0.9195402298850576,146.9902611725421,1261.428532183313,26.0,14.0,12.0,0.5384615384615384,1321.044080404375,27005.313785996303,16.0,4.0,12.0,0.25,1049.8271852043858,16541.61497923594,84.0,42.0,42.0,0.5,57.4206012053739,8791.036236619173,0.0,0.0,0.0,0.0,39526.0,39550.0,39576.0,39662.0,39679.0,39705.0,39713.0,39728.0,39898.0,39979.0,0.04437844990120335,-0.16569844647923312,0.044460795268061216,-0.11798915013722665,0.006786183861465343
41,41,40443.95179508672,1383.643205409002,7.213325530544703,40555.45203459914,-961.4223645975476,15.28779240518434,40594.79028584771,29629.821852144218,11.347534558488809,40618.45203459914,-9224.164957559493,8.180579505842681,40841.76311759224,8707.085621085902,32.123416790106226,0.9851384865543118,42.0,21.0,155.0,253.0,408.0,21.0,907.0,902.0,21.0,11.0,10.0,0.5238095238095238,77.92350729446282,1424.329503418954,90.0,81.0,9.0,0.9,103.56043638220932,652.9949965205409,26.0,14.0,12.0,0.5384615384615384,1334.3692271702553,26370.84948383464,16.0,3.0,13.0,0.1875,1090.0515086360977,17129.07356832907,83.0,42.0,41.0,0.5060240963855421,54.84388352251687,8946.39672250027,0.0,0.0,0.0,0.0,40433.0,40454.0,40475.0,40564.0,40581.0,40607.0,40615.0,40630.0,40801.0,40883.0,0.05631763086743797,-0.10771585953854924,0.045034669254134956,-0.1181734621671923,0.006298764696846639
42,42,41412.72935124759,1892.262862437511,8.942095626301981,41528.12330450071,-1028.741973625104,8.874446801582803,41561.296284558506,28791.095707443645,11.536891516128415,41585.45203459914,-9027.01648711963,8.167740177919741,41808.80220912519,8562.519485783392,34.40183861670811,0.986468078290034,113.0,88.0,84.0,255.0,339.0,25.0,968.0,967.0,25.0,13.0,12.0,0.52,83.18870642715228,1808.901830907535,80.0,77.0,3.0,0.9625,305.1726889293662,3648.6425392622336,26.0,14.0,12.0,0.5384615384615384,1245.455177393497,26619.98482821495,16.0,3.0,13.0,0.1875,1046.8239417655088,16441.60684116727,88.0,44.0,44.0,0.5,47.11064841139202,8774.952788785904,0.0,0.0,0.0,0.0,41400.0,41425.0,41513.0,41531.0,41547.0,41573.0,41582.0,41597.0,41766.0,41852.0,0.0439625530250026,-0.2966464835239412,0.04325834591531358,-0.11596566188387818,0.005501961016218561
43,43,42283.28214467309,1334.773694979863,7.020841144118256,42403.12330450071,-1026.338856752457,7.428445944848406,42436.48777664311,28810.03646702335,11.68481386642538,42460.45203459914,-10195.794542960286,8.744488130695514,42682.98381208786,7689.314763135539,30.17715919308835,0.9828696789475893,120.0,100.0,80.0,250.0,330.0,20.0,871.0,875.0,20.0,10.0,10.0,0.5,79.27167048610177,1427.338366311079,14.0,11.0,3.0,0.7857142857142857,306.6232666761294,3726.042278985727,26.0,14.0,12.0,0.5384615384615384,1247.8415626362018,26213.67609096991,18.0,4.0,14.0,0.2222222222222222,1083.4450882200056,17592.22637177475,81.0,41.0,40.0,0.5061728395061729,47.89573026879646,7808.338134531175,0.0,0.0,0.0,0.0,42273.0,42293.0,42393.0,42406.0,42422.0,42448.0,42457.0,42473.0,42643.0,42723.0,0.059389595992373596,-0.2987544168856153,0.04331273804753808,-0.10626391927131106,0.006228868468022709
44,44,43139.57563168272,1578.0419058461655,9.343768628510269,43189.246609001435,-449.5173892347977,11.494384625209612,43290.97622629893,29701.59765014316,11.04917207855962,43315.45203459914,-8405.458422444137,7.36378199331372,43536.00526933213,9122.31771760038,34.353293477462444,0.9828873958981744,49.0,24.0,151.0,253.0,404.0,25.0,855.0,855.0,26.0,14.0,12.0,0.5384615384615384,65.71551966084299,1489.918167286627,46.0,15.0,31.0,0.3260869565217391,17.279562702207325,453.2611117035199,26.0,14.0,12.0,0.5384615384615384,1309.056360965286,27316.86753481306,16.0,4.0,12.0,0.25,1061.6891633586752,16253.469567019349,88.0,44.0,44.0,0.5,59.09628969542363,9522.426816048182,0.0,0.0,0.0,0.0,43126.0,43151.0,43175.0,43209.0,43277.0,43303.0,43312.0,43326.0,43494.0,43579.0,0.041643710105154344,-0.03844025418376339,0.044073600901363516,-0.12630948961971755,0.0064782099818124815
45,45,44026.825716530766,1678.852830609096,8.67886782020099,44138.87669549933,-861.040915148968,12.739827004320285,44177.028773335034,29928.022490426483,11.36613237741957,44200.45203459914,-9052.381138181714,7.990800830951335,44423.232134146405,9017.702623302846,33.55439459478755,0.9838737794393356,48.0,24.0,150.0,253.0,403.0,24.0,888.0,885.0,24.0,13.0,11.0,0.5416666666666666,75.53467416931316,1642.265856980697,85.0,78.0,7.0,0.9176470588235294,149.09572971200768,1275.2203294700907,26.0,14.0,12.0,0.5384615384615384,1332.6643709224277,27119.367550936364,16.0,3.0,13.0,0.1875,1100.1700744823809,16952.24467700764,86.0,43.0,43.0,0.5,60.31862552786121,9394.288595910046,0.0,0.0,0.0,0.0,44014.0,44038.0,44062.0,44146.0,44163.0,44189.0,44197.0,44212.0,44382.0,44465.0,0.04499183775501562,-0.1731575434905004,0.04452898187137913,-0.12153377743254898,0.006688912691796966
46,46,44923.26557640578,1132.6623547012873,5.7534619850769335,45035.027373699,-1670.528730696563,17.8357578060484,45074.35583199385,28396.592686072232,11.709186442159425,45098.45203459914,-10241.72694399227,9.073196110706307,45322.77836288525,7112.583834211112,29.09776842953283,0.9814619910241956,37.0,19.0,160.0,250.0,410.0,18.0,898.0,897.0,18.0,9.0,9.0,0.5,86.93264998293937,1211.9926168843067,95.0,85.0,10.0,0.8947368421052632,119.03539547675555,262.758140007061,26.0,14.0,12.0,0.5384615384615384,1241.1336886376491,25528.05941552554,18.0,4.0,14.0,0.2222222222222222,1062.2432331810217,17599.606049911472,78.0,39.0,39.0,0.5,49.855718590234574,7290.417143608204,0.0,0.0,0.0,0.0,44914.0,44932.0,44951.0,45045.0,45060.0,45086.0,45095.0,45111.0,45285.0,45361.0,0.07675071888997828,-0.071256119867583,0.04370713424524316,-0.10371719915889055,0.007009508745672913
47,47,46577.02779142436,1681.371522107131,8.437931929869498,46692.87669549929,-745.8698064141572,12.739827004320285,46730.32081212692,30065.965313867935,11.259856658828578,46754.45203459914,-8674.728849877209,7.839711672069462,46975.92532779154,8922.440158225994,33.61877791900409,0.9848148728709676,45.0,22.0,156.0,252.0,408.0,23.0,1652.0,1657.0,23.0,12.0,11.0,0.5217391304347826,79.14992470378412,1675.621494813681,90.0,83.0,7.0,0.9222222222222224,163.2929844310997,1608.3296578364543,27.0,14.0,13.0,0.5185185185185185,1321.505538478605,28073.79706715646,16.0,3.0,13.0,0.1875,1072.3994315664688,16667.933343609402,86.0,43.0,43.0,0.5,55.985113043454355,9248.181061441124,0.0,0.0,0.0,0.0,46565.0,46588.0,46610.0,46700.0,46717.0,46743.0,46751.0,46766.0,46935.0,47018.0,0.04707461953714532,-0.21892960812577583,0.04395353765239197,-0.12362339505074545,0.0062746414714632956
48,48,47454.88240853318,1711.1756533283087,9.5450775367705,47501.52059170187,-623.2184512016983,33.12355021123273,47603.83580701515,30440.404378650965,11.095383583440071,47628.027373699,-8678.803683731592,7.74559709737678,47850.097775065144,8994.057129190087,33.69830657432512,0.9831569576617384,42.0,20.0,156.0,254.0,410.0,22.0,877.0,873.0,23.0,14.0,9.0,0.6086956521739131,73.42563462449586,1277.690968835716,90.0,19.0,71.0,0.2111111111111111,11.077375916444446,615.3491737807511,26.0,14.0,12.0,0.5384615384615384,1348.908806641156,27502.879349567356,16.0,4.0,12.0,0.25,1062.6548886771247,16590.125410995603,88.0,44.0,44.0,0.5,51.62568634331073,9164.354756860535,0.0,0.0,0.0,0.0,47441.0,47463.0,47483.0,47573.0,47590.0,47616.0,47624.0,47639.0,47807.0,47893.0,0.04290946664749461,-0.017774467195386945,0.04431310405282257,-0.12244255399728307,0.005739977587618416
49,49,49133.277936621125,1636.3732390200817,9.943569160644154,49253.69864360057,-850.5831167815826,6.292725045393582,49287.00356001523,29608.87446968209,11.402692685567247,49311.45203459914,-9123.495948482265,7.699076124187531,49531.60514379982,8901.945022956763,35.57905601044022,0.9849138612976508,125.0,98.0,79.0,252.0,331.0,27.0,1678.0,1683.0,27.0,14.0,13.0,0.5185185185185185,65.34095938738525,1624.5552379705562,13.0,11.0,2.0,0.8461538461538461,316.5356778471303,4058.63397080034,26.0,14.0,12.0,0.5384615384615384,1282.649156402325,27102.54242273327,17.0,4.0,13.0,0.2352941176470588,1081.7543070659,16706.7951673564,90.0,46.0,44.0,0.5111111111111111,52.13935257172541,9240.740566254904,0.0,0.0,0.0,0.0,49119.0,49146.0,49244.0,49256.0,49273.0,49299.0,49308.0,49323.0,49488.0,49575.0,0.03993035196940384,-0.3721396199877925,0.043319753937816494,-0.11856796048074696,0.005857074205386121
50,50,49937.614298844106,995.2239504460924,5.7405508616256995,50055.45203459914,-1487.485420534381,15.28779240518434,50093.69693312611,29916.69859661194,11.390548563559369,50117.45203459914,-9487.09872651323,8.639148230943842,50339.8104095352,8425.575072884436,30.323909420423877,0.9819279738039572,40.0,22.0,162.0,249.0,411.0,18.0,807.0,807.0,18.0,10.0,8.0,0.5555555555555556,75.63929106671688,1063.6649152240343,97.0,88.0,9.0,0.9072164948453608,137.06222832555085,572.5844224464802,26.0,14.0,12.0,0.5384615384615384,1351.6821014182376,26262.666304163235,18.0,4.0,14.0,0.2222222222222222,1089.7385127451785,17533.956153393327,80.0,40.0,40.0,0.5,55.08735529506945,8592.04533464916,0.0,0.0,0.0,0.0,49928.0,49946.0,49968.0,50064.0,50080.0,50106.0,50114.0,50130.0,50301.0,50379.0,0.07600228173047166,-0.09214357763339358,0.04518152619859316,-0.11486530752544276,0.006538112214126968
51,51,50785.07955425865,263.1301469188778,2.668609826859966,50900.178051898714,-2831.949536441484,22.93168860777651,50940.65907578194,30154.906169707974,11.504983589888155,50964.027373699,-10661.606014241384,9.88428883908757,51187.772687190365,7907.000583351237,28.579547499760576,0.9678986513160952,29.0,19.0,168.0,249.0,417.0,10.0,848.0,847.0,10.0,5.0,5.0,0.5,83.19954729747336,480.1083307476327,106.0,93.0,13.0,0.8773584905660378,97.08062080624327,1091.0439237983728,25.0,14.0,11.0,0.56,1381.419980301839,25037.56618873172,18.0,4.0,14.0,0.2222222222222222,1092.9718048678285,18573.697130611108,77.0,39.0,38.0,0.5064935064935064,51.713847137983585,7984.469336544563,0.0,0.0,0.0,0.0,50780.0,50790.0,50809.0,50913.0,50927.0,50952.0,50960.0,50977.0,51150.0,51226.0,0.31619161951489927,-0.03428049107408565,0.04581078689243412,-0.1025147434080641,0.006540260948869897
52,52,51650.009834288176,1497.022335484419,7.474824338591002,51769.147494932666,-1035.247144966343,12.739827004320285,51803.62495755678,29370.46341472023,11.5854294521036,51827.45203459914,-9806.602856916195,8.405154481625988,52048.37274900495,8445.683126368282,34.556699999960465,0.9789606462375422,85.0,63.0,116.0,252.0,368.0,22.0,864.0,863.0,22.0,11.0,11.0,0.5,80.50528969827361,1481.5155426088754,50.0,46.0,4.0,0.92,259.35728710978435,2799.2194981473954,27.0,15.0,12.0,0.5555555555555556,1306.030026023928,25669.47189770444,17.0,3.0,14.0,0.1764705882352941,1094.8484046871324,17379.626309885563,89.0,44.0,45.0,0.4943820224719101,55.2081391844203,8801.943875236382,0.0,0.0,0.0,0.0,51639.0,51661.0,51724.0,51773.0,51789.0,51816.0,51824.0,51840.0,52006.0,52092.0,0.053776946268622665,-0.25052692815512795,0.044467464049932445,-0.11164400360263194,0.006536847091984173
53,53,52458.12330450071,1914.6446697799756,11.419423525893126,52489.68483389583,-1688.2556843861562,73.89099662505764,52611.142850668795,30438.821900708015,11.53227433515092,52635.45203459914,-9811.189883621151,8.01054693735437,52853.57610810915,8327.036981887031,32.71436603457884,0.9648221119425932,24.0,12.0,174.0,250.0,424.0,12.0,807.0,808.0,12.0,9.0,3.0,0.75,64.00401702918907,265.8315840223056,107.0,18.0,89.0,0.1682242990654205,25.758908798637684,1508.904478296731,26.0,14.0,12.0,0.5384615384615384,1313.5752361055709,27539.39562931533,17.0,4.0,13.0,0.2352941176470588,1120.2177726072432,17716.43093572839,86.0,43.0,43.0,0.5,45.201102306705735,8421.108398348253,0.0,0.0,0.0,0.0,52449.0,52461.0,52473.0,52565.0,52597.0,52623.0,52632.0,52647.0,52813.0,52897.0,0.033428665923972305,-0.01525770594873106,0.043154601725075854,-0.11417756519801336,0.005428233644815936
54,54,53240.41760931888,1154.5858973919271,6.824766805175385,53360.45203459914,-1217.0392634520344,15.28779240518434,53399.10080716745,29621.90257625465,11.447987692878806,53423.027373699,-9409.15372621175,8.294916501833994,53644.31806983043,8515.56292438683,32.072751468378236,0.9818898210016412,42.0,22.0,163.0,251.0,414.0,20.0,784.0,787.0,20.0,10.0,10.0,0.5,71.06681541668583,1245.7287674500285,97.0,88.0,9.0,0.9072164948453608,122.24191639866186,714.8757666435026,26.0,14.0,12.0,0.5384615384615384,1310.7853764989345,26916.73185581275,17.0,4.0,13.0,0.2352941176470588,1064.7290311738032,16976.914995823725,83.0,41.0,42.0,0.4939759036144578,52.87597762728462,8752.882907927875,0.0,0.0,0.0,0.0,53230.0,53250.0,53272.0,53369.0,53385.0,53411.0,53419.0,53435.0,53604.0,53686.0,0.06155177850103431,-0.10044204823099334,0.04425054647062674,-0.11315885170498506,0.006209334379511029
55,55,54083.97426810906,1585.33312922016,10.256682735708027,54133.94525260201,-751.2078512294091,35.6715156120968,54236.27108462003,30634.064571438816,11.080013612033458,54260.45203459914,-8653.44345820957,7.800762443272814,54482.80299372566,8955.419349344613,32.56326139442916,0.9831840146045756,44.0,22.0,158.0,252.0,410.0,22.0,840.0,838.0,23.0,15.0,8.0,0.6521739130434783,64.94281589859955,1067.9014053729102,92.0,21.0,71.0,0.2282608695652173,11.65458334110765,698.0815051413282,26.0,14.0,12.0,0.5384615384615384,1350.9763466087704,28424.45868912176,16.0,4.0,12.0,0.25,1086.501451352709,16955.008862765004,84.0,42.0,42.0,0.5,54.6957854082073,9218.545967217382,0.0,0.0,0.0,0.0,54070.0,54092.0,54114.0,54205.0,54223.0,54248.0,54257.0,54272.0,54442.0,54524.0,0.04096477560558236,-0.015514458910452056,0.04410046023955737,-0.1255571214626634,0.006107562725380372
56,56,54972.43472007971,1982.3524476573716,10.129547801187854,55091.69864360057,-651.5023985836788,5.426328323369711,55125.364763634665,30110.79975408567,11.379684463067012,55149.45203459914,-8953.892267721769,7.987320381955766,55373.05517159769,8639.696484372382,35.30984807235607,0.986471262659138,127.0,100.0,76.0,256.0,332.0,27.0,891.0,889.0,27.0,14.0,13.0,0.5185185185185185,80.48546157908821,1966.9712225577937,9.0,7.0,2.0,0.7777777777777778,300.20603189384855,3984.258500982437,27.0,14.0,13.0,0.5185185185185185,1304.6155605358197,28011.551654487634,16.0,3.0,13.0,0.1875,1081.2021843669547,16841.185975517532,88.0,43.0,45.0,0.4886363636363636,50.982568986392714,9007.959394077505,0.0,0.0,0.0,0.0,54958.0,54985.0,55085.0,55094.0,55111.0,55138.0,55146.0,55161.0,55331.0,55417.0,0.040600984791680825,-0.4607903709126409,0.043327164047138905,-0.12075219938312438,0.005900967595170824
57,57,55549.84932180029,32.76436952232067,4.011019080163943,55797.26017304303,-2099.8261292397747,76.4389620259217,55925.86872869552,29646.80774121227,11.197855319351037,55950.25713322731,-9711.17881579965,8.452326220578236,56171.23125610328,7807.74006270043,30.914585072760296,0.9567759635992946,233.0,227.0,182.0,250.0,432.0,6.0,578.0,800.0,10.0,4.0,6.0,0.4,5.661641042264666,1402.111261832554,119.0,18.0,101.0,0.1512605042016806,30.914281081122866,2231.7210954915795,26.0,14.0,12.0,0.5384615384615384,1310.990105217746,25822.26842836005,17.0,4.0,13.0,0.2352941176470588,1079.1351348989251,17752.172848723265,83.0,41.0,42.0,0.4939759036144578,55.486806262817936,8059.522842275759,0.0,0.0,0.0,0.0,55547.0,55553.0,55780.0,55897.0,55912.0,55938.0,55946.0,55962.0,56132.0,56212.0,0.17279871777809375,-0.014722305171197738,0.04422027884625595,-0.11112298057401855,0.007106641078881787
58,58,56555.43863155021,1557.2892134280055,9.965210517889828,56600.246609001435,-301.0060501739838,25.47965400864057,56710.61371054273,30240.648335350448,11.241571905737512,56734.87669549929,-8365.734996575478,7.31997110124713,56954.319973717415,9010.328768719322,35.69505303788553,0.9766666754286653,45.0,20.0,160.0,252.0,412.0,25.0,1003.0,785.0,26.0,14.0,12.0,0.5384615384615384,63.55368281178695,1415.5146893356882,51.0,14.0,37.0,0.2745098039215686,14.358646210282162,447.16240989016273,26.0,14.0,12.0,0.5384615384615384,1322.207589129462,27273.238820595005,15.0,4.0,11.0,0.2666666666666666,1045.4772880034463,15857.857631094514,89.0,44.0,45.0,0.4943820224719101,56.81615682532805,9444.03318778646,0.0,0.0,0.0,0.0,56541.0,56566.0,56586.0,56636.0,56697.0,56723.0,56732.0,56746.0,56912.0,56998.0,0.040810455928021544,-0.04770218473011673,0.0437228585335533,-0.12497136096606137,0.0063056696690773
59,59,57384.346103375115,275.827159099438,2.7873564893623928,57499.60271279886,-2550.907648160348,20.38372320691245,57539.37124670869,29586.58024872139,11.469734273952003,57563.027373699,-10108.08083114244,9.51593227868768,57788.10609095243,7741.564291354644,27.988269190287937,0.9691159416247608,25.0,16.0,171.0,249.0,420.0,9.0,832.0,829.0,9.0,4.0,5.0,0.4444444444444444,84.13483060389932,535.13698946118,107.0,96.0,11.0,0.897196261682243,121.1593626914888,500.7711406651738,25.0,13.0,12.0,0.52,1333.277460458186,26402.871515444345,17.0,4.0,13.0,0.2352941176470588,1062.6919939693385,17892.36438208219,76.0,38.0,38.0,0.5,56.079779576557,7876.175060436088,0.0,0.0,0.0,0.0,57380.0,57389.0,57405.0,57511.0,57526.0,57551.0,57559.0,57576.0,57751.0,57825.0,0.3050273616223847,-0.04749656961468831,0.04506358792567129,-0.10513291412304925,0.0072439855132616846
60,60,58268.20778079351,1429.936065556626,7.260817614034708,58381.45203459914,-1212.1316572615578,15.28779240518434,58419.55694743357,29886.075305938673,11.350454250646871,58443.45203459914,-9018.906235578075,8.051888005838842,58667.391374427905,8839.854698585874,33.270794429056146,0.9839792625368896,41.0,19.0,157.0,254.0,411.0,22.0,884.0,880.0,22.0,11.0,11.0,0.5,80.97868220359867,1472.4833805522658,93.0,84.0,9.0,0.9032258064516128,134.25748069408726,818.5960925732319,26.0,14.0,12.0,0.5384615384615384,1342.69595837279,26458.627634595057,16.0,3.0,13.0,0.1875,1083.0926449519077,16942.627745815502,86.0,43.0,43.0,0.5,52.66211186568283,9074.302368129196,0.0,0.0,0.0,0.0,58257.0,58279.0,58298.0,58390.0,58406.0,58432.0,58440.0,58455.0,58626.0,58709.0,0.056630981030663344,-0.11076146711439014,0.04492714231051886,-0.12009135217298174,0.005957350393339302
61,61,59152.79649174976,1364.4406647686983,6.744029439864827,59265.45203459914,-1212.3520970218349,15.28779240518434,59303.6536914817,29091.164207473048,11.462787082637195,59328.027373699,-9317.592642263542,8.122746997079465,59552.31067641822,7826.031663435166,31.555693810552594,0.9822955440215612,43.0,24.0,154.0,253.0,407.0,19.0,884.0,884.0,20.0,11.0,9.0,0.55,83.08040421918889,1385.1454691640274,89.0,80.0,9.0,0.898876404494382,131.9012836285285,697.1908496939138,26.0,14.0,12.0,0.5384615384615384,1284.6815296647694,25866.64377910857,16.0,4.0,12.0,0.25,1043.0380303127863,16594.838325030734,83.0,41.0,42.0,0.4939759036144578,50.86717798529074,8007.508817864951,0.0,0.0,0.0,0.0,59143.0,59162.0,59186.0,59274.0,59290.0,59316.0,59324.0,59340.0,59512.0,59593.0,0.06088971573804038,-0.10879783517721164,0.04416054031054404,-0.11194286661360191,0.006499740886936695
62,62,59968.50138751459,1517.644125086914,8.528253953312184,60086.12330450071,-831.6764759946439,7.054851868913962,60120.33360400988,29119.89417921833,11.450591447272808,60145.027373699,-9209.267350497152,8.013188256360735,60367.78235625691,8322.750956708085,33.4472747299885,0.9881625615646618,119.0,95.0,82.0,252.0,334.0,24.0,815.0,817.0,24.0,13.0,11.0,0.5416666666666666,68.02973268036452,1433.8865100212477,16.0,13.0,3.0,0.8125,263.48074175995106,3229.285114766898,27.0,14.0,13.0,0.5185185185185185,1252.7779680634012,27065.671149187525,16.0,4.0,12.0,0.25,1032.4265731557898,16444.549763386094,85.0,43.0,42.0,0.5058823529411764,56.15819485448701,8686.41712623888,0.0,0.0,0.0,0.0,59956.0,59980.0,60075.0,60089.0,60106.0,60133.0,60141.0,60157.0,60326.0,60409.0,0.0448258795035157,-0.3168067744670079,0.04302137776851735,-0.11210735163422696,0.006747551998924569
63,63,60787.93533594728,1255.184817583791,6.754043548865618,60902.45203459914,-1289.4036908069504,15.28779240518434,60940.89304766297,29640.96663254617,11.422769590132203,60964.45203459914,-9243.22432178941,8.367251588630333,61188.50329466573,8485.086802377276,31.593859533573383,0.9842022325991068,42.0,21.0,157.0,252.0,409.0,21.0,820.0,820.0,21.0,11.0,10.0,0.5238095238095238,77.32053630118888,1306.5955294930027,93.0,84.0,9.0,0.9032258064516128,127.71108579818534,701.584273405138,26.0,14.0,12.0,0.5384615384615384,1328.138836581444,26486.087095616575,17.0,3.0,14.0,0.1764705882352941,1085.5591597657608,17111.39254249276,81.0,41.0,40.0,0.5061728395061729,58.15071309275642,8783.608713198886,0.0,0.0,0.0,0.0,60777.0,60798.0,60819.0,60911.0,60927.0,60953.0,60961.0,60976.0,61149.0,61228.0,0.06160091742507655,-0.09904662652102354,0.04480754130073242,-0.11744377524266399,0.006853284409119335
64,64,61618.88704984376,1157.8679131162846,5.876846877841818,61733.45203459914,-1475.8545323865667,15.28779240518434,61771.791449456585,29910.300891127485,11.317287851943464,61795.45203459914,-9431.069269151503,8.544877275236821,62018.82856756723,8505.679380705707,31.27909970441488,0.979163432186621,37.0,19.0,161.0,251.0,412.0,18.0,831.0,831.0,18.0,9.0,9.0,0.5,85.55306605800787,1239.5960426372244,96.0,87.0,9.0,0.90625,128.33548790437828,517.4641126148373,26.0,14.0,12.0,0.5384615384615384,1358.206969951384,26460.386783653033,17.0,3.0,14.0,0.1764705882352941,1095.295270967464,17515.236798727572,82.0,41.0,41.0,0.5,54.680239887549455,8712.68824222029,0.0,0.0,0.0,0.0,61610.0,61628.0,61647.0,61742.0,61758.0,61784.0,61792.0,61808.0,61979.0,62059.0,0.07388845056406342,-0.08695673258315659,0.04540933823752603,-0.11613691297445064,0.006428674000055324
65,65,62458.81069612465,1439.4551887561154,7.963556386793056,62572.87669549929,-871.4279290035281,12.739827004320285,62610.37292992404,29361.637182333154,11.355265606758095,62634.45203459914,-8749.74043755177,8.097795769662245,62855.79704766882,8341.043690058883,34.07365556952531,0.9835154725063896,42.0,19.0,157.0,253.0,410.0,23.0,839.0,839.0,23.0,12.0,11.0,0.5217391304347826,71.2635561593977,1418.9998691357446,92.0,85.0,7.0,0.9239130434782608,158.37536107081402,1526.1932811004156,27.0,14.0,13.0,0.5185185185185185,1282.0333988826194,27343.214964853098,16.0,3.0,13.0,0.1875,1053.0957632538718,16490.44024478403,88.0,44.0,44.0,0.5,43.87368037637807,8429.199488643975,0.0,0.0,0.0,0.0,62447.0,62470.0,62489.0,62580.0,62596.0,62623.0,62631.0,62646.0,62814.0,62899.0,0.049507311318929687,-0.1817423516043549,0.04366355291843251,-0.12035737182948186,0.005259974891231908
66,66,64084.54796540086,2304.6242927306316,12.518802901917368,64114.65746019704,-2214.4613257516735,56.055238818366746,64238.41346075719,29042.181466233236,11.138140518222224,64262.027373711215,-9650.550372633616,9.04583900176724,64484.192269312894,8225.850131355095,30.160303683217514,0.9663631810217892,26.0,14.0,172.0,249.0,421.0,12.0,1625.0,1627.0,12.0,9.0,3.0,0.75,67.23582805940744,232.40875303340425,111.0,16.0,95.0,0.1441441441441441,33.52560227065592,1879.98411605836,26.0,14.0,12.0,0.5384615384615384,1296.0727001589364,25817.06686866303,17.0,4.0,13.0,0.2352941176470588,1060.3101936021417,17548.987778130147,79.0,39.0,40.0,0.4936708860759494,54.73775478069037,8419.950440568373,0.0,0.0,0.0,0.0,64076.0,64088.0,64102.0,64209.0,64224.0,64250.0,64258.0,64274.0,64446.0,64523.0,0.029174311956827955,-0.015139393892677731,0.04462725025204647,-0.1098704377119152,0.0066543583832195455
67,67,64963.80939346723,1688.937947405847,8.756385097886012,65081.97053338117,-812.7109875701622,6.346571192760282,65115.982026390375,29990.79935029584,11.153083957280971,65140.45203459914,-8692.739934381996,7.685069183805129,65362.89443751395,9133.724849824564,33.54049476600515,0.9845214865966916,119.0,95.0,81.0,254.0,335.0,24.0,880.0,878.0,24.0,13.0,11.0,0.5416666666666666,75.98436899306316,1648.9758492738642,16.0,13.0,3.0,0.8125,271.7184665224761,3296.135970631404,26.0,14.0,12.0,0.5384615384615384,1326.7832596744136,27524.4118082654,16.0,4.0,12.0,0.25,1067.8082954569331,16636.654899814184,86.0,43.0,43.0,0.5,55.62614275420019,9454.700022821611,0.0,0.0,0.0,0.0,64951.0,64975.0,65070.0,65085.0,65102.0,65128.0,65137.0,65151.0,65322.0,65405.0,0.04498943795405429,-0.334335908678752,0.04423967644801457,-0.12283909371698558,0.006090192519349718
68,68,65937.85422143474,1737.7839099378127,9.31889461311571,66053.01188759384,-924.4592566089232,12.73982700351012,66088.81932868714,29547.23078015211,11.359466293363331,66112.45203459915,-9174.9098870741,8.178275278751869,66338.06932787414,8861.892638361667,32.89868010193807,0.9858089577845432,113.0,88.0,86.0,256.0,342.0,25.0,974.0,973.0,26.0,14.0,12.0,0.5384615384615384,73.46921720041996,1680.3282720486056,20.0,15.0,5.0,0.75,215.9893129747645,2029.3922835093583,26.0,14.0,12.0,0.5384615384615384,1327.6204140060065,26351.426514372448,16.0,3.0,13.0,0.1875,1086.1796171463766,17047.349868399197,86.0,43.0,43.0,0.5,56.93001582682203,9145.197008445735,0.0,0.0,0.0,0.0,65925.0,65950.0,66038.0,66058.0,66075.0,66101.0,66109.0,66124.0,66297.0,66380.0,0.042277533345932,-0.23363854213224142,0.04493214351910822,-0.11838586215180384,0.006424137388031695
69,69,66897.5531354788,876.732667914114,4.956610332775076,67011.027373699,-1990.3057582965048,17.8357578060484,67049.41609218056,28335.148833033378,11.599336468572716,67074.027373699,-9849.996986991286,9.383652245308443,67301.14493188486,7912.591591865985,29.829261146978624,0.9756363595149806,34.0,18.0,164.0,253.0,417.0,16.0,961.0,961.0,16.0,9.0,7.0,0.5625,81.46554681225622,915.1156072114416,99.0,89.0,10.0,0.898989898989899,141.1849009222043,218.21801005332057,26.0,14.0,12.0,0.5384615384615384,1241.944301745269,25736.740165325995,18.0,5.0,13.0,0.2777777777777778,1000.6560889992832,17054.36836019291,81.0,41.0,40.0,0.5061728395061729,56.23473835691632,8100.583434311544,0.0,0.0,0.0,0.0,66889.0,66905.0,66923.0,67021.0,67035.0,67061.0,67070.0,67087.0,67262.0,67340.0,0.09291948366207874,-0.07093628721802218,0.04383051979234353,-0.10158948173495197,0.0071069936700290095
70,70,67745.54324717981,1057.9248609041488,6.052537941505793,67862.45203459915,-1686.2497958523077,15.28779240518434,67900.62056439543,28476.44094549825,11.628887482314168,67925.027373699,-10346.710002008478,9.074063804299156,68149.19484788529,7948.445730377295,30.15818051520542,0.9776222908844214,41.0,22.0,161.0,251.0,412.0,19.0,847.0,851.0,19.0,10.0,9.0,0.5263157894736842,73.85174670251769,1076.1999472184757,95.0,86.0,9.0,0.9052631578947368,137.7260341164496,502.75483115054976,26.0,15.0,11.0,0.5769230769230769,1272.758589174122,24453.646812969324,17.0,4.0,13.0,0.2352941176470588,1042.3786884720926,17540.726050211877,81.0,41.0,40.0,0.5061728395061729,50.12253946168591,8057.88123120375,0.0,0.0,0.0,0.0,67736.0,67755.0,67777.0,67871.0,67886.0,67912.0,67921.0,67938.0,68110.0,68189.0,0.0698081210034149,-0.08167593820038778,0.0446951426131547,-0.10074494097831567,0.0063059547944232745
71,71,68546.88451766304,1576.4151130762743,8.58549762046565,68668.16415609585,-800.6085336845239,7.128387877371514,68702.94621523573,30310.568218378397,11.152409397823195,68727.45203459915,-8436.891996815742,7.510603366320078,68949.20353310059,8980.222863141995,33.82844974494964,0.9826495555769532,48.0,24.0,156.0,253.0,409.0,24.0,800.0,802.0,24.0,13.0,11.0,0.5416666666666666,73.46127708254504,1569.722987353098,90.0,86.0,4.0,0.9555555555555556,238.0127727468815,2768.6005110174056,26.0,14.0,12.0,0.5384615384615384,1331.6997619043225,27919.101816027047,16.0,4.0,12.0,0.25,1066.217685214543,16410.742481947753,85.0,42.0,43.0,0.4941176470588235,58.12574070898754,9363.170308461622,0.0,0.0,0.0,0.0,68534.0,68558.0,68582.0,68672.0,68689.0,68715.0,68724.0,68738.0,68908.0,68991.0,0.04660021112027403,-0.2972898273410977,0.04393516321798496,-0.12637564705308016,0.006472638997363429
72,72,69373.3672287817,1393.3887469126682,7.201675584948716,69488.45203459915,-967.6035844283372,15.28779240518434,69526.91966812122,30254.621778946643,11.27975514171614,69551.027373699,-9009.64101324622,8.06693110661855,69773.83865755108,8929.71341900998,32.95064780338594,0.9811768899004316,40.0,18.0,161.0,253.0,414.0,22.0,828.0,824.0,22.0,11.0,11.0,0.5,79.73969576098074,1474.8314035586204,95.0,86.0,9.0,0.9052631578947368,122.5155171467724,884.2958876277153,26.0,14.0,12.0,0.5384615384615384,1348.7077575043636,27457.31538933199,16.0,4.0,12.0,0.25,1061.4210054143143,16824.258839441285,86.0,43.0,43.0,0.5,53.68393375328639,9159.888735224851,0.0,0.0,0.0,0.0,69362.0,69384.0,69402.0,69497.0,69513.0,69539.0,69547.0,69563.0,69733.0,69816.0,0.057227170764555114,-0.12661746930087583,0.044578569428453146,-0.11780946697585222,0.006011831649490743
73,73,70289.88018535593,1872.5614658952384,9.275000045938976,70404.12330450071,-855.5340899205423,6.4214737853052934,70437.70832433084,29484.809501485473,11.27925760366502,70462.45203459915,-8561.699511415949,7.883032438316025,70686.65442681956,8732.001084762327,35.30746418893847,0.9855200393473365,117.0,92.0,80.0,256.0,336.0,25.0,916.0,911.0,25.0,13.0,12.0,0.52,80.37017571304168,1821.650999958881,14.0,11.0,3.0,0.7857142857142857,282.86530401323085,3460.7458870158102,26.0,14.0,12.0,0.5384615384615384,1289.8198756198542,26593.52712073471,16.0,4.0,12.0,0.25,1034.1019134029027,16275.32745833028,88.0,44.0,44.0,0.5,60.18159033840772,9238.607657775246,0.0,0.0,0.0,0.0,70277.0,70302.0,70394.0,70407.0,70424.0,70450.0,70459.0,70474.0,70645.0,70730.0,0.04291991327217562,-0.3306300793221483,0.043745233475389146,-0.12078231804609096,0.006892073163324141
74,74,71892.73613492945,834.72351887581,5.512806131009958,72010.027373699,-1527.192155517519,17.8357578060484,72049.00246203117,29627.445228259523,11.352154713449377,72073.027373699,-9589.256282183806,8.24700701102227,72294.89015595325,8539.980966747944,31.549510398373215,0.9761389171729846,37.0,20.0,164.0,250.0,414.0,17.0,1604.0,1611.0,17.0,9.0,8.0,0.5294117647058824,67.90416112008441,924.3233682219912,100.0,90.0,10.0,0.9,121.79887125524584,377.28420969009176,26.0,14.0,12.0,0.5384615384615384,1330.3224870825284,26767.218723158796,16.0,4.0,12.0,0.25,1072.6954152180294,17197.13565613905,83.0,42.0,41.0,0.5060240963855421,55.21644668474534,8770.38031174291,0.0,0.0,0.0,0.0,71884.0,71901.0,71921.0,72020.0,72035.0,72061.0,72069.0,72085.0,72255.0,72335.0,0.08134928462484975,-0.07975346836035306,0.04490169425116776,-0.111864297256402,0.006465640485586699
75,75,72723.01645055451,1229.0078026729109,6.53347062327491,72838.45203459915,-1343.513925822236,15.28779240518434,72876.82541206792,30176.421194684204,11.344262962914955,72900.45203459915,-9386.489278833618,8.471353671517875,73123.7774466494,8693.703722470691,31.86291100824842,0.9814746425844249,40.0,20.0,159.0,253.0,412.0,20.0,830.0,828.0,20.0,10.0,10.0,0.5,78.33422858628674,1289.5985501932048,94.0,85.0,9.0,0.9042553191489362,132.05111411652646,584.7619351337314,26.0,14.0,12.0,0.5384615384615384,1363.2489337646684,26808.76279541592,17.0,3.0,14.0,0.1764705882352941,1100.069291628518,17506.924020622635,83.0,42.0,41.0,0.5060240963855421,54.25258686416661,8932.793837575007,0.0,0.0,0.0,0.0,72713.0,72733.0,72753.0,72847.0,72863.0,72889.0,72897.0,72912.0,73084.0,73165.0,0.06373777970808756,-0.09828786406937363,0.045175964537664086,-0.11719709669398509,0.00624044579802501
76,76,73625.43242115494,1726.2567282588725,9.84383955293491,73692.32897580891,300.1254975487214,157.9738548535715,73774.56712430537,30393.861417726457,11.269052950938786,73798.45203459915,-8469.13909116947,7.458776904185796,74021.09526249809,9017.043468307842,36.62812274815192,0.9858235427061792,-7.0,-37.0,205.0,257.0,462.0,30.0,901.0,898.0,31.0,15.0,16.0,0.4838709677419355,70.60459534564778,2007.477843521889,72.0,25.0,47.0,0.3472222222222222,6.7030041960246916,101.967596868933,26.0,14.0,12.0,0.5384615384615384,1337.5888748163752,27407.84965588601,15.0,3.0,12.0,0.2,1090.8148825699802,16192.060008576787,92.0,46.0,46.0,0.5,57.82442092222785,9474.77951733429,0.0,0.0,0.0,0.0,73611.0,73641.0,73604.0,73833.0,73761.0,73787.0,73795.0,73809.0,73977.0,74066.0,0.0409004026978424,0.022334004444046103,0.04400852055067475,-0.128798791804865,0.006412791634582117
77,77,75298.080607777,1111.8678092924383,6.316260794218434,75414.45203459915,-1215.69714656223,15.28779240518434,75453.17566098268,29388.020923869823,11.423507881178145,75477.027373699,-9675.433467095105,8.517131739449514,75700.0675332161,8707.01677768834,31.41216718593756,0.9791291989473578,40.0,21.0,161.0,251.0,412.0,19.0,1675.0,1678.0,19.0,10.0,9.0,0.5263157894736842,74.88696298474898,1203.4660369896224,97.0,87.0,10.0,0.8969072164948454,122.5915994521602,555.0004177309286,26.0,14.0,12.0,0.5384615384615384,1307.9236126879116,26564.7097930148,17.0,4.0,13.0,0.2352941176470588,1067.720062216575,17261.382223007255,81.0,40.0,41.0,0.4938271604938271,56.48124687431764,8977.543576239614,0.0,0.0,0.0,0.0,75288.0,75307.0,75328.0,75423.0,75439.0,75465.0,75473.0,75489.0,75661.0,75740.0,0.06735239779304786,-0.10084057513734147,0.04450533147761499,-0.11035371860576092,0.006486865515069452
78,78,76148.3835533618,1188.708600543242,6.40132550776164,76264.45203459915,-1318.3512562353424,15.28779240518434,76302.62470475184,29724.74799682254,11.236124974306778,76326.45203459915,-9081.60499467926,8.095026466588799,76550.68881748372,8663.173011561115,31.676140377411457,0.9806931062948064,42.0,22.0,158.0,253.0,411.0,20.0,849.0,850.0,20.0,10.0,10.0,0.5,79.13862813426097,1297.5385515126238,94.0,85.0,9.0,0.9042553191489362,130.96748101771874,611.9313968859633,26.0,14.0,12.0,0.5384615384615384,1352.7128417723986,26338.831245225218,16.0,3.0,13.0,0.1875,1085.7351358623637,17100.90873524972,82.0,41.0,41.0,0.5,60.40579762140442,9004.45809753954,0.0,0.0,0.0,0.0,76138.0,76158.0,76180.0,76273.0,76289.0,76315.0,76323.0,76338.0,76511.0,76591.0,0.06657529700558612,-0.09934187144608704,0.045507966692165,-0.1195532217596422,0.0069727105231295865
79,79,77046.96878424846,2216.4592009038583,10.88691371621596,77086.97088811894,-55.00476351803139,2.5247498849477976,77197.38336335699,30280.705568482044,11.292423182318766,77221.87669549929,-8132.808053612812,7.143957593895106,77444.67284898406,8774.513713397459,37.23054034744076,0.9842602723781924,51.0,23.0,149.0,259.0,408.0,28.0,898.0,895.0,29.0,15.0,14.0,0.5172413793103449,81.27259380712957,2132.0794984491076,9.0,4.0,5.0,0.4444444444444444,21.49855172401349,185.0272312862503,27.0,14.0,13.0,0.5185185185185185,1291.1834889986428,28793.73078297048,15.0,4.0,11.0,0.2666666666666666,1032.7206669986745,15464.092286337753,92.0,46.0,46.0,0.5,51.118635634375096,9235.599956791086,0.0,0.0,0.0,0.0,77032.0,77060.0,77083.0,77092.0,77183.0,77210.0,77219.0,77232.0,77400.0,77491.0,0.036667759900108746,-0.3908489074217352,0.042640469062999085,-0.1269820534544538,0.005825808392814301
80,80,78649.7698534293,949.0930459394176,5.816812608983153,78769.45203459915,-1178.0617542375876,15.28779240518434,78807.26717606022,29548.534430110427,11.338311914052282,78831.45203459915,-9242.544897326432,8.005444995921431,79053.19914403875,8383.660647675099,32.35000862317785,0.97840434795805,37.0,19.0,166.0,251.0,417.0,18.0,1603.0,1610.0,19.0,10.0,9.0,0.5263157894736842,71.71067830417822,1050.5727182099513,101.0,92.0,9.0,0.9108910891089108,138.22806745771655,877.9879652166686,26.0,14.0,12.0,0.5384615384615384,1306.302160394845,27363.79840509848,17.0,4.0,13.0,0.2352941176470588,1081.3663747523058,17030.89582012615,84.0,42.0,42.0,0.5,53.4383664513289,8639.112455143295,0.0,0.0,0.0,0.0,78640.0,78658.0,78677.0,78778.0,78793.0,78819.0,78828.0,78843.0,79012.0,79094.0,0.0755570579839183,-0.1173351625757296,0.04420869547640584,-0.11699876892836192,0.006374108959926483
81,81,79510.45262624901,1630.013413416782,8.837037827405535,79578.75363670907,672.3715443126973,160.5218202544356,79661.67320474751,30317.005736445873,11.153040719651749,79686.45203459915,-7806.034585598167,6.972386313340598,79906.79269815149,9577.554519538468,39.63782011806834,0.977531733885263,-7.0,-39.0,207.0,258.0,465.0,32.0,861.0,854.0,32.0,14.0,18.0,0.4375,75.01996487227926,2311.404495670915,192.0,89.0,103.0,0.4635416666666667,5.015738675604674,509.1617810026937,26.0,14.0,12.0,0.5384615384615384,1311.5254893074814,28364.980678119733,14.0,3.0,11.0,0.2142857142857142,1044.856964501031,15042.952023218422,96.0,48.0,48.0,0.5,56.87018192069069,10240.356568701842,0.0,0.0,0.0,0.0,79496.0,79528.0,79489.0,79701.0,79648.0,79674.0,79683.0,79696.0,79861.0,79954.0,0.04602413958976252,0.007459772380361212,0.04326038991808544,-0.13385246414725754,0.00593786042195573
82,82,81301.0746618509,247.12010477841383,2.6890382984261545,81414.60271279907,-2685.482391913425,20.383723206911448,81453.98988331272,28694.54430779568,11.8671840015717,81477.027373699,-11317.146416920818,10.55885021948766,81703.7846622953,7236.299781007628,27.45901233569481,0.9655639832523678,27.0,17.0,168.0,250.0,418.0,10.0,1791.0,1792.0,10.0,5.0,5.0,0.5,76.57574035179992,415.0859769673002,104.0,93.0,11.0,0.8942307692307693,141.7456286722959,427.26291821852874,25.0,14.0,11.0,0.56,1272.503221459218,23374.970661821855,19.0,4.0,15.0,0.2105263157894736,1066.909638231825,18494.17164246263,75.0,38.0,37.0,0.5066666666666667,52.31572436664889,7307.832178332669,0.0,0.0,0.0,0.0,81296.0,81306.0,81323.0,81426.0,81440.0,81465.0,81473.0,81491.0,81667.0,81741.0,0.30987256346651115,-0.052782185092377816,0.04434652133902355,-0.09427373287639333,0.007229623695794996
83,83,82971.78048791974,1335.8201207079333,7.1213362168395085,83087.87669549929,-1065.8509271644164,12.739827004320285,83125.9709583344,29738.75386783663,11.408975491656236,83149.45203459915,-9314.34107245807,8.199113343972266,83372.60765799742,8867.945152944121,32.333446516747145,0.9823854845735216,42.0,21.0,158.0,253.0,411.0,21.0,1670.0,1672.0,21.0,11.0,10.0,0.5238095238095238,76.31066660662928,1334.2392568674268,92.0,85.0,7.0,0.9239130434782608,152.22470391400597,1273.13785430674,26.0,14.0,12.0,0.5384615384615384,1332.9993603610585,26723.10204218825,16.0,3.0,13.0,0.1875,1098.9616295495273,17192.082006551205,84.0,42.0,42.0,0.5,56.528665315111354,9145.638506978012,0.0,0.0,0.0,0.0,82961.0,82982.0,83003.0,83095.0,83112.0,83138.0,83146.0,83161.0,83332.0,83414.0,0.05712645394664932,-0.14281988225031028,0.04482364547906421,-0.11798597678574267,0.006374494241920753
84,84,83846.52141424685,1672.175648124828,8.710299600812851,83959.45203459915,-824.0924234906141,15.28779240518434,83998.76871843234,29794.690484113853,11.331877608015962,84022.45203459915,-9035.472569893678,8.015284538608253,84246.4092723782,9215.501272738687,34.38852341054489,0.9818168845037356,47.0,23.0,153.0,255.0,408.0,24.0,875.0,873.0,24.0,13.0,11.0,0.5416666666666666,74.17417427384375,1598.2042554111551,88.0,79.0,9.0,0.8977272727272727,105.16973247115656,656.8282493151913,26.0,14.0,12.0,0.5384615384615384,1333.2198161329547,26611.26517472857,16.0,3.0,13.0,0.1875,1089.590169539088,16937.131635966194,87.0,43.0,44.0,0.4942528735632184,57.56070901707596,9553.23565640597,0.0,0.0,0.0,0.0,83834.0,83858.0,83881.0,83968.0,83985.0,84011.0,84019.0,84034.0,84205.0,84289.0,0.044357884506345015,-0.12761885617839852,0.04474689263322975,-0.12059028026598385,0.006246074664147913
85,85,84745.70964691383,1379.6991104052377,7.91689592863001,84858.45203459915,-1117.617193064592,15.28779240518434,84897.06976787253,28476.70042896229,11.545171268632265,84921.45203459915,-9549.71860154076,8.844982002588276,85147.09644426528,7656.701327589954,30.560422901969623,0.983887352503675,46.0,24.0,154.0,253.0,407.0,22.0,900.0,898.0,22.0,12.0,10.0,0.5454545454545454,69.18210549548232,1354.4394405688531,88.0,79.0,9.0,0.8977272727272727,122.5442708122559,666.151978036267,26.0,14.0,12.0,0.5384615384615384,1247.1119226661226,25511.862387220623,18.0,4.0,14.0,0.2222222222222222,1036.1810365476872,17018.895448911393,81.0,40.0,41.0,0.4938271604938271,48.60869649167022,7805.808698111104,0.0,0.0,0.0,0.0,84734.0,84756.0,84780.0,84867.0,84883.0,84909.0,84918.0,84934.0,85108.0,85187.0,0.05014289345679329,-0.10964780389269972,0.04379411602749259,-0.10850382925215292,0.006348516732200972
86,86,86384.92839863649,1000.9414646688376,5.661663724446487,86501.45203459915,-1476.326863338205,15.28779240518434,86539.95118739258,29843.547424544267,11.37726215421221,86563.45203459915,-9524.703441520252,8.556881739881291,86787.55642134849,8628.16087884574,31.439646641617628,0.9784465792685264,35.0,17.0,165.0,252.0,417.0,18.0,1640.0,1643.0,18.0,9.0,9.0,0.5,78.89752733263224,1077.857181944229,100.0,91.0,9.0,0.91,126.94743512502306,512.2938871056945,26.0,14.0,12.0,0.5384615384615384,1350.9651734295423,26611.183237226265,17.0,3.0,14.0,0.1764705882352941,1099.1397221716811,17550.140443262164,83.0,42.0,41.0,0.5060240963855421,53.95886652396321,8830.075882248682,0.0,0.0,0.0,0.0,86376.0,86394.0,86411.0,86510.0,86526.0,86552.0,86560.0,86576.0,86747.0,86828.0,0.07882331796368887,-0.08598870499313081,0.0452682502589644,-0.11539883933606711,0.0062538085788661985
87,87,87273.94825867885,1761.2528617293815,9.191315904111097,87320.02400093582,-429.81011497988226,9.389070548614193,87423.69206289512,30371.63336669823,11.048189662418476,87448.45203459915,-8171.023764767769,7.276975591164523,87671.28560251635,9318.733007623388,36.035856191899256,0.9810596682853736,46.0,21.0,152.0,257.0,409.0,25.0,888.0,884.0,25.0,13.0,12.0,0.52,77.45472285094044,1726.634037518519,26.0,14.0,12.0,0.5384615384615384,19.7483597441155,431.4544470413,26.0,14.0,12.0,0.5384615384615384,1337.3557894491207,27671.463898173715,15.0,4.0,11.0,0.2666666666666666,1053.3366299654583,16119.843927016567,91.0,45.0,46.0,0.4945054945054945,55.68120675687769,9705.099337077749,0.0,0.0,0.0,0.0,87261.0,87286.0,87307.0,87331.0,87410.0,87436.0,87445.0,87459.0,87628.0,87716.0,0.043977060042864786,-0.04594670775730777,0.044033054571095256,-0.12891121850694992,0.005975190695057632
88,88,88152.84263998109,646.5335115660303,4.155945537824348,88264.60271279886,-2082.4685500153064,20.383723206912453,88304.64643634426,28975.520314957448,11.889555596351032,88328.027373699,-10987.229669802044,9.961917621513624,88555.39628198718,7330.666264051937,29.57567843761956,0.9779218070911522,27.0,13.0,169.0,252.0,421.0,14.0,879.0,880.0,14.0,7.0,7.0,0.5,80.72236097424465,708.3265483856518,103.0,92.0,11.0,0.8932038834951457,118.85752864952958,77.14662888451721,26.0,15.0,11.0,0.5769230769230769,1281.596136770811,23732.86772206735,19.0,4.0,15.0,0.2105263157894736,1067.266151918605,18176.60805571657,80.0,40.0,40.0,0.5,53.046892215620936,7482.281506413103,0.0,0.0,0.0,0.0,88146.0,88160.0,88173.0,88276.0,88290.0,88316.0,88324.0,88342.0,88517.0,88594.0,0.1248541019609631,-0.05707530548235937,0.04423030623230046,-0.09713696573140204,0.007236298899017115
89,89,89004.12330450071,1887.6635121603256,10.619959917396276,89073.71245330531,-2102.5994489585955,94.2747198319701,89155.71899397807,29703.44788116755,11.50049171838206,89180.027373699,-9440.48301959246,8.36896541679826,89405.01778273295,8235.401018916145,30.751909513129057,0.9687051549671076,24.0,14.0,172.0,252.0,424.0,10.0,850.0,852.0,10.0,7.0,3.0,0.7,72.18796061945977,268.2404595823945,108.0,54.0,54.0,0.5,6.527047927617635,1658.603237183802,26.0,14.0,12.0,0.5384615384615384,1297.1602175200833,24995.05325113234,17.0,4.0,13.0,0.2352941176470588,1052.0509118242696,17867.7620271594,82.0,41.0,41.0,0.5,52.94898815839233,8403.023508087948,0.0,0.0,0.0,0.0,88997.0,89007.0,89021.0,89127.0,89142.0,89168.0,89176.0,89193.0,89365.0,89445.0,0.03824196428782198,-0.0031042754866365254,0.043670358495402246,-0.1114403690617184,0.006429436530992501
90,90,0.0,0.0,0.0,0.0,0.0,0.0,0.0,0.0,0.0,0.0,0.0,0.0,0.0,0.0,0.0,0.0,0.0,0.0,0.0,0.0,0.0,0.0,0.0,0.0,0.0,0.0,0.0,0.0,0.0,0.0,0.0,0.0,0.0,0.0,0.0,0.0,0.0,0.0,0.0,0.0,0.0,0.0,0.0,0.0,0.0,0.0,0.0,0.0,0.0,0.0,0.0,0.0,0.0,0.0,0.0,0.0,0.0,0.0,89885.0,89915.0,89852.0,,90034.0,90060.0,90069.0,90082.0,90250.0,90341.0,,,,,
91,91,90823.56780531924,777.2413382720065,4.708910463037168,90934.60271279886,-2038.6175877690105,20.383723206912453,90974.30776168432,30010.64907500074,11.46765572080778,90998.027373699,-10017.464836951243,9.371416938793878,91225.12793766057,8276.296355551569,30.38315520670994,0.9760182167102333,34.0,19.0,161.0,254.0,415.0,15.0,1821.0,1818.0,15.0,8.0,7.0,0.5333333333333333,80.98017737824635,871.9422201356416,97.0,86.0,11.0,0.8865979381443299,121.2989581636711,61.84059256626483,25.0,13.0,12.0,0.52,1344.3442696967688,26824.11716706286,18.0,4.0,14.0,0.2222222222222222,1069.4724748435226,17863.095828394664,82.0,41.0,41.0,0.5,55.549603402569815,8469.627159312422,0.0,0.0,0.0,0.0,90816.0,90831.0,90850.0,90946.0,90961.0,90986.0,90994.0,91011.0,91185.0,91265.0,0.10418923105439125,-0.05950059436915597,0.04479557460876863,-0.1067607915027142,0.00671189152927182
92,92,91688.98987388522,92.36097698521624,-1.5105972986632248,91801.17805189872,-3256.0475337033276,22.931688607776096,91841.58479705369,29475.569822269623,11.761054379144612,91865.027373699,-11634.08909305788,11.654659840893604,92093.92725847648,6140.873108222656,24.822580373915088,0.9587283278914036,23.0,17.0,171.0,248.0,419.0,6.0,866.0,867.0,6.0,3.0,3.0,0.5,86.62678023435019,272.7679205847996,106.0,93.0,13.0,0.8773584905660378,107.758619536283,1514.0558475517255,26.0,15.0,11.0,0.5769230769230769,1298.8777021755652,22478.382262238734,20.0,4.0,16.0,0.2,1068.492280124202,19286.12705923342,71.0,36.0,35.0,0.5070422535211268,49.20548511730531,6135.54653517853,0.0,0.0,0.0,0.0,91686.0,91692.0,91709.0,91814.0,91827.0,91853.0,91861.0,91880.0,92059.0,92128.0,0.9379153735913395,-0.03309491597431371,0.04406624570813985,-0.09184150745087354,0.00801278323947436
93,93,92493.66422895787,318.28772858832735,3.260167670695175,92609.60271279886,-2497.209011084917,20.383723206912453,92649.65326167198,29347.41711272624,11.769057053455873,92673.027373699,-11201.898895385411,10.028207802523216,92899.13315913489,8000.168387686188,29.358043868485172,0.970896300972865,32.0,21.0,167.0,251.0,418.0,11.0,804.0,809.0,11.0,6.0,5.0,0.5454545454545454,69.78803670869978,480.9544697004132,103.0,92.0,11.0,0.8932038834951457,126.9495827708415,544.4366738530267,26.0,15.0,11.0,0.5769230769230769,1316.2677733497512,23969.130093084015,18.0,4.0,14.0,0.2222222222222222,1090.6481821020675,18656.25557048853,79.0,40.0,39.0,0.5063291139240507,56.34802127276343,8164.61656156939,0.0,0.0,0.0,0.0,92488.0,92499.0,92520.0,92621.0,92635.0,92661.0,92669.0,92687.0,92861.0,92938.0,0.21926084621051625,-0.050836586848486506,0.04485123063109236,-0.09736279467326354,0.007043354407326473
94,94,93314.60844792654,1346.8871261254649,7.304032908824594,93429.45203459916,-862.8053338474664,15.28779240518434,93468.08793569956,30091.779517795243,11.266841921157864,93492.45203459916,-8795.260727203144,7.857828984784231,93715.96096231464,8947.250785405397,33.424182877817714,0.9814040844175376,42.0,20.0,159.0,254.0,413.0,22.0,819.0,819.0,22.0,12.0,10.0,0.5454545454545454,73.43322529558155,1357.7175385436483,93.0,84.0,9.0,0.9032258064516128,120.68927381577892,853.33366013454,26.0,14.0,12.0,0.5384615384615384,1325.855126187375,27782.018065725573,16.0,4.0,12.0,0.25,1069.9524323200417,16761.390587067333,86.0,43.0,43.0,0.5,54.453544033912685,9218.06272704154,0.0,0.0,0.0,0.0,93303.0,93325.0,93345.0,93438.0,93454.0,93480.0,93489.0,93504.0,93675.0,93758.0,0.05452069729616015,-0.1398800738488658,0.04406037620351797,-0.12165101928254969,0.006086064349815295
95,95,94179.04236426436,1779.1841292753331,9.792231233759788,94224.09593080172,-574.8950372141109,30.57558481036868,94328.07097648068,30553.594136857864,11.06900089930572,94352.45203459916,-8237.747939655983,7.47295508727886,94576.13711572591,9267.738859011875,34.74072090902988,0.9804780408532516,42.0,19.0,156.0,257.0,413.0,23.0,864.0,860.0,24.0,14.0,10.0,0.5833333333333334,74.49854316955246,1397.138737697035,90.0,17.0,73.0,0.1888888888888888,12.540453157591053,620.2374963443938,26.0,14.0,12.0,0.5384615384615384,1336.7256938923751,28292.116538422964,15.0,3.0,12.0,0.2,1067.954778546733,16388.162979427623,89.0,44.0,45.0,0.4943820224719101,55.15126510157331,9525.925701587334,0.0,0.0,0.0,0.0,94165.0,94188.0,94207.0,94279.0,94314.0,94340.0,94349.0,94363.0,94534.0,94620.0,0.041872306493592616,-0.021813465669074043,0.04375019475302372,-0.12964159456805763,0.005950886828014652
96,96,95024.73152660948,883.753558739936,4.824443683314028,95136.60271279886,-1833.6508615154423,20.383723206912453,95177.39180721767,29016.063608423367,11.824687152262754,95201.027373699,-10689.481702941324,9.4220300574878,95425.98816063658,7529.56960475237,30.08221486930511,0.9770819782251916,30.0,15.0,167.0,252.0,419.0,15.0,849.0,848.0,15.0,8.0,7.0,0.5333333333333333,86.85716558205489,934.3531917613972,102.0,91.0,11.0,0.8921568627450981,104.4090090789686,179.9270579441519,26.0,14.0,12.0,0.5384615384615384,1269.1613375336915,25683.76873871567,18.0,4.0,14.0,0.2222222222222222,1069.8899192283657,17904.092163010155,82.0,41.0,41.0,0.5,46.68801597142659,7603.654487832728,0.0,0.0,0.0,0.0,95017.0,95032.0,95047.0,95148.0,95163.0,95189.0,95197.0,95214.0,95387.0,95466.0,0.09828211125497094,-0.05694050665276515,0.04373995572456816,-0.10008810052352436,0.00620062213674988
97,97,96619.4728423444,1673.3668888246368,9.336780394333712,96739.69864360055,-860.4776767373901,6.5913348886999685,96773.6544085708,30303.626053441665,11.346642866319774,96797.45203459916,-8485.329382521266,7.690709661368262,97020.04047119434,8984.884999272592,34.69699453611897,0.9836593215953006,123.0,98.0,80.0,254.0,334.0,25.0,1592.0,1597.0,26.0,13.0,13.0,0.5,72.04670480678722,1696.094991625771,15.0,12.0,3.0,0.8,296.7610761368574,3664.4002262267054,26.0,14.0,12.0,0.5384615384615384,1334.088115767361,27191.275996879613,16.0,3.0,13.0,0.1875,1081.474944441853,16422.375102517115,88.0,44.0,44.0,0.5,56.67645906308038,9346.495714868322,0.0,0.0,0.0,0.0,96606.0,96631.0,96729.0,96742.0,96760.0,96786.0,96794.0,96809.0,96978.0,97063.0,0.04305493630114338,-0.3448794595835008,0.04402404231805932,-0.12745232337940332,0.006307978239862709
98,98,97446.67857312012,907.255955398628,5.249184977392213,97563.45203459916,-1745.1828023594842,15.287792405184176,97601.3048821644,29741.175895422977,11.32186743612568,97625.027373699,-9477.662621218024,8.718136409607691,97850.13545950055,8281.219355938307,30.34386159496302,0.9784680977090432,33.0,16.0,166.0,253.0,419.0,17.0,829.0,828.0,17.0,9.0,8.0,0.5294117647058824,79.58395526048875,934.7246840816504,102.0,93.0,9.0,0.9117647058823528,143.66564812489318,436.69712997642273,25.0,13.0,12.0,0.52,1339.561590389026,27130.006368289593,17.0,4.0,13.0,0.2352941176470588,1064.0190818909955,17309.001847922656,80.0,40.0,40.0,0.5,56.22129382167841,8492.347470494904,0.0,0.0,0.0,0.0,97438.0,97455.0,97471.0,97572.0,97588.0,97613.0,97621.0,97637.0,97811.0,97890.0,0.08771940794317667,-0.0823212605181861,0.04504063978839445,-0.11226597995891237,0.006789011545909984
99,99,98287.36643658204,2129.424209626253,10.797059058418425,98333.68483389584,-463.0528331229696,73.89099662505764,98438.78171832512,30224.383149855617,11.158399452754772,98463.45203459916,-8175.248849903637,7.373829541428099,98686.48641966427,8718.698567132744,34.6938950654582,0.9827108763559173,43.0,19.0,157.0,256.0,413.0,24.0,839.0,837.0,24.0,13.0,11.0,0.5416666666666666,81.67616754850293,1673.0349422734591,73.0,17.0,56.0,0.2328767123287671,7.841053669694687,470.8433042948109,26.0,14.0,12.0,0.5384615384615384,1318.5269142912182,27534.970948174436,16.0,4.0,12.0,0.25,1048.679688391125,16137.384040921082,89.0,44.0,45.0,0.4943820224719101,53.92751465629399,9041.933246528384,0.0,0.0,0.0,0.0,98274.0,98298.0,98317.0,98388.0,98425.0,98451.0,98460.0,98474.0,98644.0,98730.0,0.038355987115802716,-0.01693338882479614,0.04362460956618454,-0.12827495623004626,0.006185271143515258
100,100,100669.54637458618,1489.7045376273486,8.151414124243432,100739.1782976092,1206.5266975969053,163.06978565529965,100822.2200002041,30440.988134832685,11.216046981797517,100846.87669549928,-7637.179665590917,6.8037125801011635,101065.82252864828,9786.903130206372,42.45412601099304,0.9736484747996332,-6.0,-48.0,208.0,259.0,467.0,42.0,2383.0,2384.0,43.0,16.0,27.0,0.3720930232558139,71.51787398765137,2603.3875215227154,194.0,90.0,104.0,0.4639175257731959,10.560694017641746,1273.7367672433606,27.0,14.0,13.0,0.5185185185185185,1296.8130157376102,29938.845893404985,13.0,3.0,10.0,0.2307692307692307,1017.183706836004,13999.867449627953,101.0,51.0,50.0,0.504950495049505,58.92478403667713,10716.516772636594,0.0,0.0,0.0,0.0,100654.0,100696.0,100648.0,100843.0,100808.0,100835.0,100844.0,100856.0,101018.0,101115.0,0.048008093001822925,0.008752971681999218,0.04260088437318849,-0.13318839563496124,0.006020779326486969
101,101,101499.0365860172,284.47684761119166,2.8100669880538236,101614.60271279886,-2707.2871230375863,20.383723206912453,101653.73231212216,29473.170135789347,11.570588424191332,101677.027373699,-10636.937071711707,10.31903644387102,101903.16976686516,7750.809802026099,27.62735837290289,0.9660299157530228,27.0,17.0,169.0,250.0,419.0,10.0,831.0,831.0,10.0,5.0,5.0,0.5,82.93545058094493,489.31247633720346,106.0,95.0,11.0,0.8962264150943396,139.40552910404796,373.4633148059564,25.0,14.0,11.0,0.56,1340.533019867952,24276.114533916963,18.0,4.0,14.0,0.2222222222222222,1070.546879740169,18394.967706438125,76.0,38.0,38.0,0.5,57.45308145001988,7888.560207558852,0.0,0.0,0.0,0.0,101494.0,101504.0,101521.0,101626.0,101640.0,101665.0,101673.0,101690.0,101867.0,101940.0,0.2915367323470093,-0.051492702018112665,0.045483163626166535,-0.10064428063481018,0.007412526293059258
102,102,103165.53052829484,2030.8913047423105,11.528792049742195,103262.143133231,2297.707879961907,140.1380970475231,103318.63606632028,29131.18723111121,11.149161778297785,103343.87669549928,-8716.617422471703,7.695401609972451,103566.95329468974,9160.615279173157,37.83935643582394,0.9936792295716168,-111.0,-244.0,319.0,258.0,577.0,133.0,1665.0,1665.0,134.0,21.0,113.0,0.1567164179104477,67.6037230535665,3833.398173850591,204.0,127.0,77.0,0.6225490196078431,9.5303840706562,2031.1116002990843,28.0,15.0,13.0,0.5357142857142857,1261.911350135227,28112.761980536263,14.0,4.0,10.0,0.2857142857142857,999.2187757286202,13996.937600933596,94.0,49.0,45.0,0.5212765957446809,55.20029305548226,9918.23184435998,0.0,0.0,0.0,0.0,103145.0,103278.0,103034.0,103339.0,103304.0,103332.0,103341.0,103353.0,103519.0,103611.0,0.03328771111270497,0.0041477788163455315,0.043318225931675884,-0.11463377676214216,0.006025828110146842
103,103,0.0,0.0,0.0,0.0,0.0,0.0,0.0,0.0,0.0,0.0,0.0,0.0,0.0,0.0,0.0,0.0,0.0,0.0,0.0,0.0,0.0,0.0,0.0,0.0,0.0,0.0,0.0,0.0,0.0,0.0,0.0,0.0,0.0,0.0,0.0,0.0,0.0,0.0,0.0,0.0,0.0,0.0,0.0,0.0,0.0,0.0,0.0,0.0,0.0,0.0,0.0,0.0,0.0,0.0,0.0,0.0,0.0,0.0,,103732.0,103965.0,104084.0,104098.0,104122.0,104130.0,104149.0,104326.0,104396.0,,,,,
104,104,0.0,0.0,0.0,0.0,0.0,0.0,0.0,0.0,0.0,0.0,0.0,0.0,0.0,0.0,0.0,0.0,0.0,0.0,0.0,0.0,0.0,0.0,0.0,0.0,0.0,0.0,0.0,0.0,0.0,0.0,0.0,0.0,0.0,0.0,0.0,0.0,0.0,0.0,0.0,0.0,0.0,0.0,0.0,0.0,0.0,0.0,0.0,0.0,0.0,0.0,0.0,0.0,0.0,0.0,0.0,0.0,0.0,0.0,,104522.0,104754.0,104867.0,104881.0,104906.0,104914.0,104931.0,105106.0,105180.0,,,,,
105,105,106316.95480381067,1743.929589962661,10.392219359140524,106403.87644978878,829.3326239079308,198.74130126739644,106472.30543810855,29479.30796345383,11.30646489042037,106496.63078895686,-9412.6493532212,8.337544623999143,106716.70333013203,8918.89667821263,38.024707279306234,0.9907258315880968,-12.0,-51.0,220.0,255.0,475.0,39.0,3151.0,3153.0,40.0,17.0,23.0,0.425,67.29186846354835,2466.430344855867,146.0,113.0,33.0,0.773972602739726,8.866083224803424,495.0105763294057,27.0,14.0,13.0,0.5185185185185185,1277.455637496179,27694.11405237657,15.0,4.0,11.0,0.2666666666666666,1033.915315552455,15969.01435010137,95.0,49.0,46.0,0.5157894736842106,48.0746622837587,9554.603900419896,0.0,0.0,0.0,0.0,106300.0,106339.0,106288.0,106515.0,106458.0,106485.0,106493.0,106508.0,106670.0,106763.0,0.038586344799040384,0.010690623965840394,0.043333976465114776,-0.1098431777019961,0.005390202848878947
106,106,107887.15235076415,503.3459735095699,3.6009261846612763,108006.45203459916,-2107.529223189403,15.28779240518434,108044.0411229454,29619.747384262,11.25523093834772,108068.027373699,-9748.373966811632,8.936519149976824,108291.04255045833,8122.709555498845,29.720815676851583,0.9718801020765134,27.0,15.0,172.0,250.0,422.0,12.0,1571.0,1572.0,12.0,6.0,6.0,0.5,83.56362970550465,685.2185218393302,109.0,99.0,10.0,0.908256880733945,149.51117721987725,250.41543566085352,26.0,14.0,12.0,0.5384615384615384,1358.4457579615255,26496.831671499887,17.0,4.0,13.0,0.2352941176470588,1059.1718603956854,17606.617923133,80.0,40.0,40.0,0.5,56.27860595196165,8325.09511222637,0.0,0.0,0.0,0.0,107881.0,107893.0,107908.0,108015.0,108030.0,108056.0,108064.0,108080.0,108252.0,108330.0,0.16601628721266784,-0.07094144915040199,0.045862840770995734,-0.1086511313580746,0.006928550820072426
107,107,108741.04264441913,1919.0449593122544,10.146689756600129,108897.7674464138,557.9339686936071,132.4128104970383,108892.55730181148,30503.825457462804,11.040912419987825,108917.45203459916,-8263.752311288707,7.437317152555826,109139.16891216332,8987.234492472782,36.14939515707468,0.9859615479316812,-34.0,-65.0,236.0,256.0,492.0,31.0,853.0,849.0,32.0,15.0,17.0,0.46875,72.8542590645205,2166.2834828201385,28.0,20.0,8.0,0.7142857142857143,1391.0438806755635,16504.57418173122,26.0,14.0,12.0,0.5384615384615384,1338.8816761421906,27995.02956734424,15.0,4.0,11.0,0.2666666666666666,1052.9154210400015,15732.35165628971,91.0,46.0,45.0,0.5054945054945055,52.911551505619535,9494.987425211704,0.0,0.0,0.0,0.0,108726.0,108757.0,108692.0,108953.0,108879.0,108905.0,108914.0,108928.0,109094.0,109184.0,0.037963810441747,2.493205215543103,0.04389225469471834,-0.12741371974589139,0.005887411922982022
108,108,110352.82194810128,1933.42823806078,11.491378764474955,110388.93144289912,-1253.1354013553414,48.41134261641693,110506.35972767428,29957.303748887585,11.158874940368657,110530.45203459916,-8977.459981830523,8.121042236640706,110752.94483118568,8565.904132576408,32.498156038347595,0.9754490216721796,38.0,18.0,164.0,252.0,416.0,20.0,1610.0,1614.0,20.0,13.0,7.0,0.65,60.767394251371144,801.8938651710092,99.0,12.0,87.0,0.1212121212121212,24.95840114217884,1201.5958639161108,26.0,14.0,12.0,0.5384615384615384,1314.7733561257514,27611.05499035793,17.0,4.0,13.0,0.2352941176470588,1081.5819276802654,17081.00014307151,84.0,42.0,42.0,0.5,55.69003265686697,8872.69826944996,0.0,0.0,0.0,0.0,110340.0,110360.0,110378.0,110476.0,110492.0,110518.0,110527.0,110542.0,110712.0,110794.0,0.031429867969819544,-0.019916763276486185,0.043888240648979414,-0.12047749918899985,0.00650136071977224
109,109,111180.44513370046,1221.2493778734736,6.522102295496706,111296.45203459916,-1222.5881594139826,15.28779240518434,111334.90147108426,30563.836130564447,11.280840030135488,111358.45203459916,-9278.950224117629,8.296362953042369,111582.80994497713,8650.375170493508,32.163351612034,0.9815086774478928,40.0,20.0,160.0,254.0,414.0,20.0,831.0,828.0,20.0,10.0,10.0,0.5,79.7802227188426,1339.4963161171936,96.0,87.0,9.0,0.90625,129.5236110604935,600.5973511806878,26.0,14.0,12.0,0.5384615384615384,1381.148787586031,27408.031231955218,16.0,3.0,13.0,0.1875,1112.5524156322565,17521.76153140928,84.0,42.0,42.0,0.5,56.3904754636781,8914.76350499754,0.0,0.0,0.0,0.0,111170.0,111190.0,111210.0,111305.0,111321.0,111347.0,111355.0,111370.0,111542.0,111624.0,0.06532672537181686,-0.10594214418253277,0.045188986804076424,-0.11990067720597708,0.006518847373929679
110,110,112037.96122163642,1548.4743731351991,7.978868535239162,112150.87669549928,-794.2299374771754,12.739827004320285,112188.8737074508,30692.302326105175,11.17488449045847,112213.027373699,-8661.830409978496,7.775715042971012,112436.78735989296,8637.015801248825,33.71967547238414,0.984499913845115,43.0,20.0,155.0,255.0,410.0,23.0,857.0,854.0,23.0,12.0,11.0,0.5217391304347826,76.85130890584509,1572.1341214660329,89.0,82.0,7.0,0.9213483146067416,146.50800390293278,1401.3277830472418,26.0,14.0,12.0,0.5384615384615384,1367.904549557868,28005.48174181688,16.0,4.0,12.0,0.25,1062.1303028139707,16603.136415254416,86.0,43.0,43.0,0.5,56.79528286899943,8972.523643092372,0.0,0.0,0.0,0.0,112026.0,112049.0,112069.0,112158.0,112175.0,112201.0,112209.0,112224.0,112396.0,112479.0,0.04963033953880947,-0.18446547654487416,0.044568326449541194,-0.12262192314344879,0.006575799347361088
111,111,112866.37319102183,385.6847004121733,3.236093125606575,112982.027373699,-2227.551360432853,17.8357578060484,113020.71569505852,29075.426463474963,11.66879699896186,113044.60271279886,-10960.231227778382,10.226387814382091,113272.36628892584,6869.121294359236,26.95624620845389,0.9752596184735663,24.0,13.0,173.0,250.0,423.0,11.0,829.0,832.0,11.0,5.0,6.0,0.4545454545454545,78.25661740252936,566.6292466993146,107.0,97.0,10.0,0.9065420560747663,140.1891935513435,2.6669275792002054,25.0,14.0,11.0,0.56,1301.3275546559828,24044.394322959575,19.0,5.0,14.0,0.2631578947368421,1037.3054827951128,18166.924987673097,74.0,37.0,37.0,0.5,54.133349722134575,6981.264054313222,0.0,0.0,0.0,0.0,112861.0,112872.0,112885.0,112992.0,113007.0,113032.0,113040.0,113058.0,113236.0,113308.0,0.20290308980080912,-0.06293421379253955,0.04475695502835469,-0.09464266412245873,0.007880680425105847
112,112,0.0,0.0,0.0,0.0,0.0,0.0,0.0,0.0,0.0,0.0,0.0,0.0,0.0,0.0,0.0,0.0,0.0,0.0,0.0,0.0,0.0,0.0,0.0,0.0,0.0,0.0,0.0,0.0,0.0,0.0,0.0,0.0,0.0,0.0,0.0,0.0,0.0,0.0,0.0,0.0,0.0,0.0,0.0,0.0,0.0,0.0,0.0,0.0,0.0,0.0,0.0,0.0,0.0,0.0,0.0,0.0,0.0,0.0,,113424.0,113661.0,113775.0,113789.0,113814.0,113822.0,113839.0,114014.0,114088.0,,,,,
113,113,114460.05205580064,1360.1195675381746,7.063548786128802,114575.87669549928,-890.9696671448429,12.739827004320285,114613.16912267638,30191.77355453571,11.211140666032785,114637.45203459916,-8823.002158647945,7.985515670204143,114861.1250369999,8757.465608987126,32.63336535955778,0.9841145763500024,42.0,21.0,158.0,254.0,412.0,21.0,1593.0,1593.0,21.0,11.0,10.0,0.5238095238095238,79.23221236813892,1418.4339999804236,92.0,85.0,7.0,0.9239130434782608,168.4726065609243,1530.6279879325425,26.0,14.0,12.0,0.5384615384615384,1338.510992451804,27934.953660810635,17.0,4.0,13.0,0.2352941176470588,1072.8646772561249,16910.370655328203,85.0,43.0,42.0,0.5058823529411764,56.7568927306557,9049.961907413695,0.0,0.0,0.0,0.0,114449.0,114470.0,114491.0,114583.0,114599.0,114625.0,114634.0,114649.0,114820.0,114903.0,0.058253858160095255,-0.18908904845302224,0.04433363247223744,-0.1215985962560994,0.006480972380001171
114,114,115334.60186423286,1848.9585175724385,9.59811483967237,115448.69864360055,-614.0110848717164,5.372849359669552,115482.7503859799,30336.831808831732,11.102511784978947,115507.45203459916,-8189.855343592948,7.378886778994167,115730.30344695644,8549.74684082006,35.785522659226885,0.9831984799725968,120.0,94.0,77.0,257.0,334.0,26.0,873.0,869.0,26.0,14.0,12.0,0.5384615384615384,74.06154720502508,1735.021749879899,11.0,9.0,2.0,0.8181818181818182,273.99433663467886,3609.2392620009114,26.0,14.0,12.0,0.5384615384615384,1334.6859935227849,27752.817961245462,16.0,4.0,12.0,0.25,1051.0699271246945,16134.44948348347,91.0,45.0,46.0,0.4945054945054945,50.89251723780377,8893.330983579934,0.0,0.0,0.0,0.0,115321.0,115347.0,115441.0,115451.0,115469.0,115495.0,115504.0,115518.0,115687.0,115775.0,0.04005581872234919,-0.4462367917867862,0.043995562949135245,-0.1283380332165406,0.005952517447045526
115,115,116995.62988932682,1744.1269065470908,9.486805714411398,117068.02761940948,489.0176852827178,168.16571645702774,117147.65188211086,30102.932291378103,11.057960951476405,117172.45203459916,-8104.030522328897,7.053057084480019,117393.72399358032,9075.455727491037,36.11170342972883,0.9839433412667892,-7.0,-38.0,208.0,256.0,464.0,31.0,1661.0,1665.0,32.0,15.0,17.0,0.46875,71.63637561223541,2106.697918723102,194.0,94.0,100.0,0.4845360824742268,8.649535157450874,389.57225570990977,26.0,14.0,12.0,0.5384615384615384,1317.382630864833,27852.104253962774,14.0,3.0,11.0,0.2142857142857142,1054.0660282025,15484.127933208674,90.0,45.0,45.0,0.5,58.99719929461483,9651.1701555455,0.0,0.0,0.0,0.0,116981.0,117012.0,116974.0,117188.0,117134.0,117160.0,117169.0,117182.0,117351.0,117438.0,0.04107291467342618,0.01768757126329753,0.04376260153374326,-0.13006688774163053,0.006500742339131542
116,116,117822.41418687649,343.4702216545114,2.86042393961079,117937.027373699,-2464.6154153114794,17.8357578060484,117975.64486995178,29268.652298900874,11.565576986154737,117999.027373699,-10185.62330268971,9.654088960623978,118224.335619962,7363.735975065926,28.056253533884963,0.9700555748507392,24.0,14.0,171.0,250.0,421.0,10.0,830.0,828.0,10.0,5.0,5.0,0.5,83.1485728171058,506.1647392547315,107.0,97.0,10.0,0.9065420560747663,144.61444719346483,159.60410967146686,25.0,14.0,11.0,0.56,1330.3697624931858,24647.00119861524,18.0,4.0,14.0,0.2222222222222222,1061.268500757919,17808.563603684917,78.0,39.0,39.0,0.5,54.74463220486135,7467.785029252207,0.0,0.0,0.0,0.0,117817.0,117827.0,117841.0,117947.0,117962.0,117987.0,117995.0,118012.0,118187.0,118262.0,0.24208378943762696,-0.058676273099260955,0.045453741733887255,-0.10419278911263787,0.007434355657268283
117,117,0.0,0.0,0.0,0.0,0.0,0.0,0.0,0.0,0.0,0.0,0.0,0.0,0.0,0.0,0.0,0.0,0.0,0.0,0.0,0.0,0.0,0.0,0.0,0.0,0.0,0.0,0.0,0.0,0.0,0.0,0.0,0.0,0.0,0.0,0.0,0.0,0.0,0.0,0.0,0.0,0.0,0.0,0.0,0.0,0.0,0.0,0.0,0.0,0.0,0.0,0.0,0.0,0.0,0.0,0.0,0.0,0.0,0.0,,118395.0,118634.0,118746.0,118760.0,118785.0,118794.0,118811.0,118986.0,119060.0,,,,,
118,118,119451.24660900142,1440.055586267263,9.689275372643555,119496.09593080172,-587.4373210077805,30.57558481036868,119600.31446517208,29704.91821264387,11.136975988405808,119624.45203459916,-8513.471947320035,7.704013113716604,119846.82591157874,8982.44744840881,34.44258743100737,0.979582838136745,42.0,20.0,157.0,254.0,411.0,22.0,1624.0,1625.0,23.0,14.0,9.0,0.6086956521739131,60.685444076416125,1080.4776191328947,91.0,17.0,74.0,0.1868131868131868,12.36257642656595,609.3446191963508,27.0,14.0,13.0,0.5185185185185185,1298.3060382825213,27620.48476997326,16.0,3.0,13.0,0.1875,1065.629189458318,16455.336840053624,87.0,43.0,44.0,0.4942528735632184,57.19835685583448,9383.725727931647,0.0,0.0,0.0,0.0,119437.0,119459.0,119479.0,119569.0,119586.0,119613.0,119621.0,119636.0,119805.0,119890.0,0.04214104278690905,-0.021044928513151463,0.043706770339798424,-0.12516975401484334,0.006367791983683339
119,119,120287.60821408956,1584.4048305238778,8.136069418988928,120401.9442419216,-736.9704797252621,12.739827004320285,120439.39543520512,30045.844844573632,11.21700626937058,120463.45203459916,-8572.797409014041,7.6370394671421,120686.61756608504,9072.642496368624,34.339115300275104,0.983276684982904,45.0,21.0,155.0,254.0,409.0,24.0,840.0,839.0,24.0,13.0,11.0,0.5416666666666666,76.13081428365007,1530.8698709088144,89.0,82.0,7.0,0.9213483146067416,159.1515426604105,1501.5699756101762,26.0,13.0,13.0,0.5,1319.3664019426951,28280.39604311558,15.0,3.0,12.0,0.2,1078.6902544435372,16511.340601018062,87.0,44.0,43.0,0.5057471264367817,54.07530081667877,9398.57037685588,0.0,0.0,0.0,0.0,120275.0,120299.0,120320.0,120409.0,120426.0,120452.0,120460.0,120475.0,120644.0,120729.0,0.04805010235829544,-0.21595375532509958,0.0439117757802366,-0.12582710205064762,0.00596025919001247
120,120,121168.97842882368,1616.1885324856808,8.829484769559189,121285.69864360055,-931.3483638003588,6.929491930058775,121318.85386990564,28674.484546967848,11.404298569326112,121343.45203459916,-8791.56345334743,8.163118261692654,121567.28747190948,8384.48180962664,33.36919586542895,0.98491832989757,119.0,95.0,80.0,254.0,334.0,24.0,880.0,879.0,25.0,13.0,12.0,0.52,72.52144583197335,1603.612677163171,87.0,85.0,2.0,0.9770114942528736,315.4428742154881,3953.817460311549,26.0,14.0,12.0,0.5384615384615384,1249.7402869540022,25853.073396359563,17.0,4.0,13.0,0.2352941176470588,1023.2992015903096,16284.168244355526,86.0,43.0,43.0,0.5,51.11804929390313,8646.86720459427,0.0,0.0,0.0,0.0,121156.0,121180.0,121275.0,121288.0,121305.0,121331.0,121340.0,121355.0,121526.0,121609.0,0.04487189729061877,-0.33869482835437237,0.043583705398678375,-0.11639558845482524,0.006096745207940215
121,121,0.0,0.0,0.0,0.0,0.0,0.0,0.0,0.0,0.0,0.0,0.0,0.0,0.0,0.0,0.0,0.0,0.0,0.0,0.0,0.0,0.0,0.0,0.0,0.0,0.0,0.0,0.0,0.0,0.0,0.0,0.0,0.0,0.0,0.0,0.0,0.0,0.0,0.0,0.0,0.0,0.0,0.0,0.0,0.0,0.0,0.0,0.0,0.0,0.0,0.0,0.0,0.0,0.0,0.0,0.0,0.0,0.0,0.0,,121783.0,122022.0,122132.0,122146.0,122172.0,122180.0,122198.0,122373.0,122447.0,,,,,
122,122,122836.62679569804,1128.8642623833505,6.36682628274096,122952.45203459916,-1084.536368629883,15.28779240518434,122991.14781327608,29109.739428849032,11.356724243755526,123015.45203459916,-9026.219215871532,8.134766113389478,123238.89233348877,8678.183220184317,32.636747965492795,0.9811006528844084,38.0,19.0,162.0,254.0,416.0,19.0,1669.0,1673.0,19.0,10.0,9.0,0.5263157894736842,74.39983861107541,1169.9587932852085,97.0,88.0,9.0,0.9072164948453608,116.4030875433519,681.4842683325318,26.0,14.0,12.0,0.5384615384615384,1283.124575762612,26730.569059565445,17.0,4.0,13.0,0.2352941176470588,1052.629080870832,16715.97878453139,84.0,42.0,42.0,0.5,52.99000788073442,8909.609894256915,0.0,0.0,0.0,0.0,122827.0,122846.0,122865.0,122961.0,122977.0,123003.0,123012.0,123027.0,123198.0,123281.0,0.06590680659337766,-0.10732981475799312,0.04407887535025405,-0.1166190467676554,0.006106117667288541
123,123,124542.42293921905,2025.6765584673935,9.610304887591436,124646.36754474192,2143.0958682546084,137.59013164665905,124694.09859769171,29004.305794074415,11.17185187671278,124718.87669549928,-8456.440514853817,7.908654538592727,124941.75915192372,9016.992892343547,38.67662606882451,0.9890861555470702,-11.0,-62.0,215.0,259.0,474.0,51.0,1706.0,1702.0,51.0,17.0,34.0,0.3333333333333333,86.60852470700557,3780.5012480190226,197.0,129.0,68.0,0.6548223350253807,17.438414547896816,1799.8985330737014,28.0,15.0,13.0,0.5357142857142857,1250.03222530134,28554.51772060085,13.0,3.0,10.0,0.2307692307692307,991.0296020067898,13970.079171783338,97.0,50.0,47.0,0.5154639175257731,50.61879400865413,9681.780542685256,0.0,0.0,0.0,0.0,124525.0,124576.0,124514.0,124714.0,124679.0,124707.0,124716.0,124729.0,124893.0,124988.0,0.04275535713980553,0.008137020282764626,0.043098160465427235,-0.11719228678615276,0.005613711202061082
124,124,126171.75997585396,574.5673239450177,3.9272919417375007,126288.60271279886,-2276.866289754984,20.383723206912453,126328.12457027272,29874.929879004645,11.520590547115804,126351.45203459916,-10203.977103552694,9.301501333791144,126577.13519012665,8094.290858600503,29.330508061958376,0.9737218403796288,33.0,20.0,166.0,252.0,418.0,13.0,1629.0,1634.0,13.0,7.0,6.0,0.5384615384615384,81.20857103016321,738.4768750307397,103.0,92.0,11.0,0.8932038834951457,127.25021867275504,148.93004646746658,26.0,14.0,12.0,0.5384615384615384,1352.1575457967012,26238.92806014132,18.0,4.0,14.0,0.2222222222222222,1105.9635731003675,18176.369266463666,78.0,39.0,39.0,0.5,54.07912447532784,8214.010366605175,0.0,0.0,0.0,0.0,126165.0,126178.0,126198.0,126300.0,126314.0,126340.0,126348.0,126364.0,126539.0,126616.0,0.14133865196610856,-0.055888314234934094,0.045260609858266604,-0.10838554044925354,0.006681144206458388
125,125,126975.73923714733,1852.2419267090563,9.914245589497304,127010.47940829814,-575.561163904626,33.12355021123273,127128.73680596646,30806.33815644189,11.15955381202831,127152.45203459916,-8462.019758168235,7.548791212099812,127374.87331501192,8914.038779275435,34.92188666571377,0.9782048309616532,41.0,18.0,161.0,255.0,416.0,23.0,802.0,801.0,23.0,14.0,9.0,0.6086956521739131,75.11211602440757,1269.1974139004371,58.0,8.0,50.0,0.1379310344827586,26.40755173493087,804.9603218234412,26.0,14.0,12.0,0.5384615384615384,1364.7504554525976,27762.342065240897,16.0,3.0,13.0,0.1875,1103.372907524474,16676.37957315263,88.0,43.0,45.0,0.4886363636363636,53.74436312457695,9240.531753395526,0.0,0.0,0.0,0.0,126962.0,126985.0,127003.0,127058.0,127115.0,127141.0,127149.0,127164.0,127334.0,127419.0,0.040552000762590405,-0.04588139956452441,0.04430096327976637,-0.13039119962576404,0.006029182108734946
126,126,128527.17110469894,458.1374831231128,4.098079843176434,128645.60271279886,-1946.8093812140344,20.383723206912453,128685.25348344631,29404.585335198382,11.547915734704889,128709.027373699,-10226.277745165671,8.960214850121464,128932.9437510111,8086.532334749832,30.298364819313587,0.9732021710673042,34.0,20.0,168.0,251.0,419.0,14.0,1554.0,1556.0,14.0,7.0,7.0,0.5,71.04516103641615,716.5059873147065,104.0,93.0,11.0,0.8942307692307693,123.17853559747677,62.837655720514135,26.0,14.0,12.0,0.5384615384615384,1311.2647873644837,26311.03209886348,17.0,4.0,13.0,0.2352941176470588,1075.0908392276929,17743.16252025437,80.0,40.0,40.0,0.5,49.06536828953843,8169.221867198036,0.0,0.0,0.0,0.0,128520.0,128534.0,128554.0,128657.0,128671.0,128697.0,128705.0,128722.0,128894.0,128973.0,0.15507388863295554,-0.06327200638444755,0.044593888076185556,-0.10513022098738976,0.006067541222668757
127,127,129347.91102607004,1311.4300810396176,6.807823788425025,129463.45203459916,-988.7180967818916,15.28779240518434,129501.9341352185,30376.855286211685,11.07826223893323,129526.45203459916,-8548.272215822952,7.706038355281403,129748.70583898398,8791.0784206531,33.28874398345512,0.9792771755632096,41.0,20.0,159.0,254.0,413.0,21.0,820.0,817.0,21.0,11.0,10.0,0.5238095238095238,80.04900996692173,1358.3718493424528,95.0,86.0,9.0,0.9052631578947368,118.80164981346024,760.2603246713888,26.0,14.0,12.0,0.5384615384615384,1357.1539404827504,27937.256839281144,16.0,4.0,12.0,0.25,1064.3830631005578,16682.040238065514,86.0,43.0,43.0,0.5,54.05938284382164,9061.324543514702,0.0,0.0,0.0,0.0,129337.0,129358.0,129378.0,129472.0,129488.0,129514.0,129523.0,129537.0,129707.0,129791.0,0.061039479819971806,-0.12015725230491817,0.04467723626081776,-0.12451440902061733,0.006149345991137854
128,128,130227.37214624838,1729.0081800714925,8.962408743314153,130344.69864360055,-796.3199602044228,5.8377777480967366,130378.0774482928,30643.27775763512,11.101102385926133,130402.45203459916,-8406.766773675366,7.569159433572029,130625.99139683276,8729.05972873955,34.68689175658698,0.9840665592312502,121.0,96.0,78.0,257.0,335.0,25.0,878.0,877.0,25.0,13.0,12.0,0.52,77.83561974709043,1749.9110766929805,13.0,11.0,2.0,0.8461538461538461,307.92574736578047,3900.885336808051,26.0,14.0,12.0,0.5384615384615384,1350.366536012997,28403.975838447368,15.0,3.0,12.0,0.2,1073.9097154352794,16563.287268202173,90.0,45.0,45.0,0.5,53.397365771938134,9050.932817091145,0.0,0.0,0.0,0.0,130214.0,130239.0,130335.0,130347.0,130364.0,130390.0,130399.0,130413.0,130583.0,130670.0,0.04501749653022001,-0.38668595885344004,0.04406730072067887,-0.12774348859041504,0.0061171956008197175
129,129,131910.59240751687,660.335518392898,4.54814055718205,132026.45203459918,-1510.09682114804,15.28779240518434,132064.5056567222,29542.181988085867,11.436915278389664,132088.45203459918,-9817.424701972162,8.721240536665658,132312.08611511346,8652.64490873564,32.32579852725981,0.975533837671864,34.0,19.0,164.0,253.0,417.0,15.0,1686.0,1686.0,15.0,8.0,7.0,0.5333333333333333,72.49976929344415,819.0312073392523,99.0,90.0,9.0,0.9090909090909092,141.77366102983217,547.6483730258424,25.0,14.0,11.0,0.56,1335.7359337632893,25443.071559040953,18.0,4.0,14.0,0.2222222222222222,1089.0839576139244,17727.22146148297,84.0,42.0,42.0,0.5,54.51137708096027,8876.401384936116,0.0,0.0,0.0,0.0,131903.0,131918.0,131937.0,132035.0,132051.0,132076.0,132085.0,132101.0,132271.0,132354.0,0.1097923211368239,-0.09388382191418017,0.04521453203091028,-0.11093377241743907,0.006299966964543527
130,130,132741.82194810128,1606.4626468787983,9.573644279259463,132789.79457421912,-1174.3965623958406,40.767446413824906,132892.83515335637,30581.755737549476,11.14801269247686,132916.45203459918,-8940.682825343165,8.304591687520292,133141.48987777106,8785.978736948497,32.15481124199265,0.9774161814723696,38.0,19.0,161.0,255.0,416.0,19.0,827.0,828.0,19.0,13.0,6.0,0.6842105263157895,68.4688761029919,766.7781553310829,96.0,23.0,73.0,0.2395833333333333,13.05946138302645,1060.6193949133894,26.0,14.0,12.0,0.5384615384615384,1366.6263346756125,27123.67878973155,16.0,3.0,13.0,0.1875,1101.3100532050642,17338.46111388036,83.0,41.0,42.0,0.4939759036144578,58.28369189816758,9103.228823626729,0.0,0.0,0.0,0.0,132729.0,132748.0,132767.0,132863.0,132879.0,132905.0,132913.0,132928.0,133101.0,133183.0,0.04262089519231606,-0.0111201461254147,0.04468763488937345,-0.1231796356854649,0.006633716475213141
131,131,133578.91262180393,1364.197668368466,7.067320709745603,133692.45203459918,-1207.561787152287,15.28779240518434,133731.00916846065,30245.19505994932,11.21678366026455,133755.02737369903,-8949.715347324707,8.256289508550283,133979.23089894705,8395.903374492395,32.19257889480005,0.981517505257324,42.0,21.0,157.0,254.0,411.0,21.0,839.0,838.0,21.0,11.0,10.0,0.5238095238095238,78.60501769742297,1404.7100236355964,93.0,84.0,9.0,0.9032258064516128,123.36862041234608,577.1267059689213,26.0,14.0,12.0,0.5384615384615384,1357.535443339052,27519.81365354988,16.0,4.0,12.0,0.25,1055.5258044777077,16881.478707671617,85.0,42.0,43.0,0.4941176470588235,52.000219250108145,8556.259078577446,0.0,0.0,0.0,0.0,133568.0,133589.0,133610.0,133701.0,133717.0,133743.0,133751.0,133767.0,133939.0,134021.0,0.05761996191609966,-0.10216340209247439,0.04488433421071568,-0.11793959511720455,0.0061935228325864355
132,132,135211.6073978472,375.8601279550176,3.308953459187776,135329.02737369903,-2107.3506354825604,17.835757806048395,135367.39557001847,29308.225414873297,11.6174318176859,135391.02737369903,-10327.585149141518,9.301468460643028,135615.2605533926,8083.894598446027,29.99506789466159,0.970997427748343,26.0,15.0,172.0,250.0,422.0,11.0,1635.0,1636.0,11.0,6.0,5.0,0.5454545454545454,78.7504365841159,584.8936621842273,107.0,97.0,10.0,0.9065420560747663,145.716928885514,271.65042420221994,26.0,14.0,12.0,0.5384615384615384,1305.1041185026625,26267.627728917847,18.0,4.0,14.0,0.2222222222222222,1070.371422647477,17836.94593760581,80.0,40.0,40.0,0.5,53.67114068842578,8202.50127052857,0.0,0.0,0.0,0.0,135206.0,135217.0,135232.0,135339.0,135353.0,135379.0,135387.0,135404.0,135577.0,135654.0,0.20952059217502486,-0.06914697840596726,0.04453030164836763,-0.10364198476121514,0.006639267748337914
133,133,136061.35857517566,1528.1843662910803,8.124044963832729,136180.12330450068,-887.7866606492063,6.654273744957341,136213.85271188317,30151.19462208891,11.377497097986916,136237.45203459918,-8837.980325520108,7.957884016270511,136461.01794273948,9215.197201396291,34.27818796361734,0.9821928624901348,120.0,97.0,80.0,255.0,335.0,23.0,848.0,847.0,23.0,12.0,11.0,0.5217391304347826,76.8460610674107,1585.0806756463664,16.0,13.0,3.0,0.8125,289.82602953960634,3523.2194023464476,26.0,14.0,12.0,0.5384615384615384,1334.6219742622563,27130.744935560244,16.0,3.0,13.0,0.1875,1090.16010439543,16782.631024573966,88.0,44.0,44.0,0.5,56.166499524276695,9545.17605807677,0.0,0.0,0.0,0.0,136049.0,136072.0,136169.0,136183.0,136200.0,136226.0,136234.0,136249.0,136419.0,136504.0,0.050285857362823906,-0.32645909471952084,0.044264314929813954,-0.12334946042452011,0.006094986173032339
134,134,136984.34773139792,1669.485719735675,8.549707994234735,137096.87669549932,-1099.93039761582,12.739827004320285,137134.45909771754,29194.898226865724,11.445522485825018,137158.45203459918,-9087.794883155084,8.445763234456672,137384.6772344162,8434.872948398446,32.07484948829378,0.9857817779977064,47.0,23.0,152.0,255.0,407.0,24.0,922.0,921.0,24.0,12.0,12.0,0.5,77.9096944924409,1706.7628072876018,85.0,78.0,7.0,0.9176470588235294,161.96501132783592,1331.1651801550793,27.0,14.0,13.0,0.5185185185185185,1275.5327375087468,27060.95497418808,17.0,3.0,14.0,0.1764705882352941,1055.5310375052927,16810.20640276923,83.0,41.0,42.0,0.4939759036144578,50.42340212992279,8585.666484910285,0.0,0.0,0.0,0.0,136972.0,136996.0,137019.0,137104.0,137120.0,137146.0,137155.0,137171.0,137345.0,137426.0,0.04666688284388328,-0.14725023663216052,0.04369026148325382,-0.11614820218508666,0.005977968184985742
135,135,137856.221489423,631.6102804531229,4.4061380835712445,137971.45203459918,-1633.4273379632868,15.28779240518434,138009.41446286862,28408.16174265977,11.533684352470704,138034.02737369903,-9955.61765788395,8.989167665247853,138259.72283913926,7818.668416283012,29.829589442567585,0.9761951977775616,28.0,14.0,169.0,253.0,422.0,14.0,874.0,875.0,14.0,7.0,7.0,0.5,77.34292251028795,816.0788381944143,105.0,95.0,10.0,0.9047619047619048,137.6632063431808,557.9362371743459,26.0,14.0,12.0,0.5384615384615384,1247.4005658239062,25957.09757274547,17.0,4.0,13.0,0.2352941176470588,1021.350177700219,17168.274382785152,81.0,41.0,40.0,0.5061728395061729,54.3247076776864,7967.873149384774,0.0,0.0,0.0,0.0,137849.0,137863.0,137877.0,137980.0,137995.0,138021.0,138030.0,138046.0,138220.0,138299.0,0.12245355229937271,-0.08427874515363042,0.04390993606427967,-0.10259033771665607,0.006948076678191235
136,136,138705.03332576086,1548.8886114350964,9.470240490896105,138753.0959308017,-512.113986938022,30.57558481036868,138856.2121760506,29745.74470775887,11.156310973386468,138880.45203459918,-8430.928395550265,7.51919289594716,139104.41661508667,8934.47402253993,33.51765348529179,0.980258458689424,45.0,22.0,155.0,256.0,411.0,23.0,845.0,847.0,23.0,14.0,9.0,0.6086956521739131,67.7740577604623,1263.3162734334765,89.0,17.0,72.0,0.1910112359550561,10.155573807201336,580.3912755482111,27.0,14.0,13.0,0.5185185185185185,1296.1125663292212,27620.937435822492,15.0,3.0,12.0,0.2,1065.4032731562302,16308.070834957529,85.0,42.0,43.0,0.4941176470588235,56.771247838715986,9273.625663013469,0.0,0.0,0.0,0.0,138691.0,138714.0,138736.0,138825.0,138842.0,138869.0,138877.0,138891.0,139063.0,139147.0,0.04375657310674355,-0.01983069017099586,0.043573041423674415,-0.12636844048142268,0.0063541790703619755
137,137,139568.24140503648,1696.7354888314912,8.848616230678877,139685.67002240996,-800.5020119787607,6.990809432823753,139719.63767662825,29845.3573399331,11.364456920766347,139743.45203459918,-8587.64395261052,7.625601189063166,139968.2759782089,9088.712040119204,34.814048625951415,0.9832382320008538,48.0,23.0,152.0,257.0,409.0,25.0,866.0,863.0,25.0,13.0,12.0,0.52,76.97166196818893,1713.3782038180743,87.0,84.0,3.0,0.9655172413793104,290.6025123747733,3699.653170884882,26.0,14.0,12.0,0.5384615384615384,1316.5414767873688,26729.42234725479,16.0,3.0,13.0,0.1875,1077.6688233710745,16361.32058348022,89.0,44.0,45.0,0.4943820224719101,58.60341809214694,9439.94928530325,0.0,0.0,0.0,0.0,139555.0,139580.0,139603.0,139688.0,139706.0,139732.0,139740.0,139755.0,139926.0,140012.0,0.045364561815818334,-0.3630253366339868,0.04411210299116894,-0.12549062691909563,0.0064479342984419515
138,138,141171.4196790181,1854.228540425294,11.283704268195452,141290.65742892574,-1081.0738225016237,12.739827004320285,141327.48226694867,29072.621541216035,11.496210784963717,141352.02737369903,-9732.746881454936,8.543240408957757,141574.743953772,8336.711700576763,33.74841746745742,0.9878206346573551,91.0,62.0,117.0,253.0,370.0,29.0,1601.0,1608.0,30.0,15.0,15.0,0.5,66.74328825143756,1822.6989726920804,50.0,44.0,6.0,0.88,197.34798674966393,1723.410067454361,27.0,14.0,13.0,0.5185185185185185,1264.620873295115,26921.178373886236,17.0,4.0,13.0,0.2352941176470588,1041.4320628835512,17067.1214962725,86.0,43.0,43.0,0.5,48.18631896017314,8574.826953799316,0.0,0.0,0.0,0.0,141156.0,141185.0,141247.0,141297.0,141313.0,141340.0,141348.0,141364.0,141533.0,141617.0,0.035995179017214905,-0.18254811340542615,0.0434986872959589,-0.10700289194491709,0.005780015033606049
139,139,141945.081159117,1210.8340536560345,7.1358295861728775,142063.45203459918,-1390.4789748563269,15.28779240518434,142101.58666980197,29324.15367175731,11.335758123700762,142125.45203459918,-9211.395081631334,8.321985769729173,142348.57096804105,8575.09399011387,31.82663079720531,0.98012876353348,47.0,26.0,156.0,252.0,408.0,21.0,775.0,774.0,21.0,11.0,10.0,0.5238095238095238,70.2470209473674,1311.5942027084593,92.0,83.0,9.0,0.9021739130434784,135.02818601412042,517.4996763272973,26.0,14.0,12.0,0.5384615384615384,1324.5132438758303,25755.2419158121,17.0,4.0,13.0,0.2352941176470588,1073.3281337922274,17043.538188461982,83.0,42.0,41.0,0.5060240963855421,51.109557517048415,8767.106260082177,0.0,0.0,0.0,0.0,141934.0,141955.0,141981.0,142072.0,142088.0,142114.0,142122.0,142137.0,142309.0,142389.0,0.058015399166600166,-0.0971091174018452,0.045167995595095246,-0.1165217781107421,0.005960232922924466
140,140,142743.65999577392,1113.9607209535263,6.175244229946719,142860.02737369903,-1386.899380358158,17.8357578060484,142899.39659059286,29610.4651939398,11.278886095428945,142923.45203459918,-9216.213283012949,8.29126456070867,143146.1904999838,8578.831361768223,31.481908193097937,0.9775772017361112,37.0,18.0,164.0,252.0,416.0,19.0,800.0,798.0,19.0,10.0,9.0,0.5263157894736842,76.25202327488371,1166.3266245616082,99.0,89.0,10.0,0.898989898989899,110.80762694258188,349.00438656169547,25.0,13.0,12.0,0.52,1323.068189298884,27468.268628217895,17.0,4.0,13.0,0.2352941176470588,1075.4678012038796,17167.43414115856,83.0,41.0,42.0,0.4939759036144578,56.194425745333504,8773.29471914156,0.0,0.0,0.0,0.0,142734.0,142753.0,142771.0,142870.0,142886.0,142911.0,142920.0,142935.0,143106.0,143187.0,0.06845126748240604,-0.07989593802685709,0.04468245198557936,-0.11669302436675918,0.006550359061231273
141,141,144362.12330450068,1634.6153339189657,10.576071928825373,144391.109494796,-1449.0561713670286,71.3430312241936,144518.40830639133,29350.72954659016,11.367596762426018,144543.02737369903,-9474.25403331949,8.289747174931218,144765.77096560755,7566.96847312644,29.15140774420224,0.9764855004861333,21.0,10.0,180.0,250.0,430.0,11.0,1617.0,1619.0,11.0,8.0,3.0,0.7272727272727273,60.77734099467679,303.0131439530479,116.0,18.0,98.0,0.1551724137931034,17.28675999285589,1080.4755711238877,27.0,14.0,13.0,0.5185185185185185,1263.0014725325832,26884.110875837676,16.0,4.0,12.0,0.25,1044.749770540073,16986.701035052472,79.0,40.0,39.0,0.5063291139240507,46.39841698236099,7612.040639487452,0.0,0.0,0.0,0.0,144354.0,144365.0,144375.0,144489.0,144504.0,144531.0,144539.0,144555.0,144727.0,144805.0,0.037181433291075296,-0.011929668659116018,0.043031348523304876,-0.1102725097792237,0.00613170480981145
