Unnamed: 0,cycle,p_center,p_height,p_width,q_center,q_height,q_width,r_center,r_height,r_width,s_center,s_height,s_width,t_center,t_height,t_width,r_squared,pr_interval,pr_segment,qrs_duration,st_segment,qt_interval,p_duration,pp_interval,rr_interval,fwhm_p,rise_time_p,decay_time_p,rise_decay_symmetry_p,sharpness_deriv_p,sharpness_diff_p,fwhm_q,rise_time_q,decay_time_q,rise_decay_symmetry_q,sharpness_deriv_q,sharpness_diff_q,fwhm_r,rise_time_r,decay_time_r,rise_decay_symmetry_r,sharpness_deriv_r,sharpness_diff_r,fwhm_s,rise_time_s,decay_time_s,rise_decay_symmetry_s,sharpness_deriv_s,sharpness_diff_s,fwhm_t,rise_time_t,decay_time_t,rise_decay_symmetry_t,sharpness_deriv_t,sharpness_diff_t,Average_Heart_Rate,SDNN,RMSSD,NN50,p_on,p_off,q_on,q_off,r_on,r_off,s_on,s_off,t_on,t_off,sharpness_deriv_p_norm,sharpness_deriv_q_norm,sharpness_deriv_r_norm,sharpness_deriv_s_norm,sharpness_deriv_t_norm
0,0,0.0,0.0,0.0,0.0,0.0,0.0,0.0,0.0,0.0,0.0,0.0,0.0,0.0,0.0,0.0,0.0,0.0,0.0,0.0,0.0,0.0,0.0,0.0,0.0,0.0,0.0,0.0,0.0,0.0,0.0,0.0,0.0,0.0,0.0,0.0,0.0,0.0,0.0,0.0,0.0,0.0,0.0,0.0,0.0,0.0,0.0,0.0,0.0,0.0,0.0,0.0,0.0,0.0,0.0,65.66196969175756,210.1887594518844,302.37765375951165,459.0,,,,,,,,,,,,,,,
1,1,1203.301356399424,1579.3029056548366,10.191861603456228,1295.027373698997,-3327.1667219045316,17.835757805740165,1330.6629686674817,41804.3536604416,9.608680876205732,1359.5479654008248,-6057.737692227539,15.28779240518434,1598.3664611811064,8446.803962651564,24.04144232769584,0.9585262450216868,97.0,81.0,224.0,117.0,341.0,16.0,,,29.0,23.0,6.0,0.7931034482758621,114.44202827695187,1356.325964591426,20.0,10.0,10.0,0.5,356.6273888664224,1097.5809749124678,23.0,12.0,11.0,0.5217391304347826,2206.1673949257533,37382.51534045468,164.0,9.0,155.0,0.0548780487804878,456.1494188700275,9798.067789704572,64.0,31.0,33.0,0.484375,111.95252101178107,7839.1835899429825,0.0,0.0,0.0,0.0,1193.0,1209.0,1290.0,1305.0,1319.0,1342.0,1351.0,1514.0,1567.0,1631.0,0.07246363434600282,-0.1071865099270656,0.05277362766676126,-0.075300292294811,0.01325383204189312
2,2,2059.103376496216,2719.0841856654074,17.368555001038263,2156.3593247999006,-2532.5610127383065,4.703775657579805,2188.7886963369942,42447.42922293039,9.750649006989567,2212.3013563994245,-4945.00011069332,10.191861603454898,2454.9060665483603,9847.006620713504,28.732895395559503,0.988459946445531,111.0,81.0,85.0,253.0,338.0,30.0,855.0,857.0,32.0,21.0,11.0,0.65625,118.34793025182243,2313.566919032294,11.0,6.0,5.0,0.5454545454545454,462.8365121570623,2559.4254315492262,23.0,12.0,11.0,0.5217391304347826,2192.368763951941,39702.87834866624,109.0,2.0,107.0,0.018348623853211,1167.005599759438,18562.83063791022,70.0,36.0,34.0,0.5142857142857142,116.21242597758685,9802.383405419092,0.0,0.0,0.0,0.0,2039.0,2069.0,2150.0,2161.0,2177.0,2200.0,2210.0,2235.0,2420.0,2488.0,0.043524923161899313,-0.18275433832751967,0.051649035149756696,-0.23599708263622599,0.011801802360235055
3,3,2903.6465235728383,1895.370825909064,4.944445017069559,2996.4520345991364,-3714.794332490508,15.28779240518434,3031.297020667665,39637.2968886353,9.661683892046469,3059.12330450072,-6658.8941168924775,12.739827004320285,3297.899059494235,8158.709202149661,23.09963066919462,0.9554724495977156,88.0,77.0,213.0,128.0,341.0,11.0,844.0,843.0,11.0,6.0,5.0,0.5454545454545454,154.3164361801518,1677.5389024871183,59.0,49.0,10.0,0.8305084745762712,361.42754806435033,961.439431714976,23.0,11.0,12.0,0.4782608695652174,2149.2766386955213,36624.81262313787,158.0,8.0,150.0,0.050632911392405,642.9826645321845,12307.727717556158,62.0,32.0,30.0,0.5161290322580645,121.88119872983825,7875.471867369852,0.0,0.0,0.0,0.0,2898.0,2909.0,2986.0,3005.0,3020.0,3042.0,3052.0,3199.0,3268.0,3327.0,0.08141754324309496,-0.0972940937545898,0.0542235926111237,-0.09655997726424981,0.014938784519703794
4,4,3753.188113731325,2004.8807497819755,8.558436109261482,3845.452034599136,-3350.6481714890497,15.28779240518434,3880.613000708684,40861.15626465208,9.961475350366015,3903.567886850499,-7319.239088079849,10.191861603456228,4147.375103318053,8598.190639834496,24.435028831030422,0.9634058330698616,87.0,74.0,222.0,123.0,345.0,13.0,850.0,849.0,14.0,7.0,7.0,0.5,159.7276353778996,2097.9095556339103,36.0,26.0,10.0,0.7222222222222222,337.37766677903346,545.3767180955765,23.0,12.0,11.0,0.5217391304347826,2189.1109894553374,36986.49610424383,155.0,3.0,152.0,0.0193548387096774,1114.5302544826743,19848.020061645748,65.0,33.0,32.0,0.5076923076923077,77.24533651167512,8463.2224013349,0.0,0.0,0.0,0.0,3747.0,3760.0,3834.0,3854.0,3869.0,3892.0,3901.0,4056.0,4114.0,4179.0,0.07966939449903415,-0.10069026931857804,0.05357437697741021,-0.15227406033200966,0.008983906003875483
5,5,4580.547965400863,2054.974165312547,10.38591898675334,4668.027373698993,-2894.8565784484135,17.8357578060484,4704.40597639032,40971.83281982862,9.709226766911147,4732.123304496986,-5661.707464272757,12.739827004320285,4971.160451359732,8412.591885375095,24.86241425939036,0.9676732247545552,91.0,78.0,213.0,127.0,340.0,13.0,824.0,824.0,16.0,11.0,5.0,0.6875,172.11561348198654,2252.6327615303,33.0,22.0,11.0,0.6666666666666666,310.39458768154094,705.4691394535339,24.0,12.0,12.0,0.5,2167.5301244833045,38000.7396379136,151.0,7.0,144.0,0.0463576158940397,661.6471186276873,11994.922150287295,65.0,33.0,32.0,0.5076923076923077,125.98033131368362,8455.507027544872,0.0,0.0,0.0,0.0,4571.0,4584.0,4662.0,4678.0,4693.0,4716.0,4725.0,4875.0,4938.0,5002.0,0.08375560938295737,-0.10722278609322551,0.052902932949446,-0.11686352973955279,0.014975210140966737
6,6,5360.45371052875,2753.4295807493418,13.515002095536069,5448.452034599137,-2178.631134642447,15.287792405182024,5484.045460355705,40920.60334482512,9.82971523700346,5507.726017299569,-5511.5299480110525,7.64389620259217,5748.776950458945,9688.168808554094,28.76332807070926,0.9840022447385384,95.0,65.0,117.0,221.0,338.0,30.0,780.0,780.0,41.0,20.0,21.0,0.4878048780487805,140.22396178031687,2890.376015903385,16.0,6.0,10.0,0.375,305.1042579737208,178.94877774835277,23.0,12.0,11.0,0.5217391304347826,2183.695558147723,39291.47519307933,108.0,3.0,105.0,0.0277777777777777,1122.4812752318298,18201.536632921696,71.0,37.0,34.0,0.5211267605633803,119.1584658528348,9802.438922618148,0.0,0.0,0.0,0.0,5349.0,5379.0,5444.0,5457.0,5472.0,5495.0,5506.0,5561.0,5714.0,5782.0,0.0509270194381202,-0.14004401806356906,0.05336420726122741,-0.2036605599207349,0.01229937960490787
7,7,6153.151865466863,1567.4448674836788,11.44097951557235,6243.452034599137,-3320.017125839781,15.287792405184014,6277.7571630267585,39825.92690698485,9.758457114252431,6305.123304500719,-6346.273843416124,12.739827004320285,6543.715585409539,8922.046296865114,24.914920252456444,0.9619988601442444,88.0,76.0,199.0,143.0,342.0,12.0,794.0,794.0,13.0,8.0,5.0,0.6153846153846154,127.19749349721113,2001.6408216822624,19.0,10.0,9.0,0.5263157894736842,372.8477393942378,665.3715786399957,23.0,12.0,11.0,0.5217391304347826,2132.758612952296,36237.65403109579,148.0,7.0,141.0,0.0472972972972973,695.9200172166503,13254.35060146081,64.0,33.0,31.0,0.515625,118.31895537732238,9003.3129699079,0.0,0.0,0.0,0.0,6145.0,6157.0,6233.0,6252.0,6266.0,6289.0,6298.0,6432.0,6511.0,6575.0,0.0811495805280919,-0.11230295666017925,0.0535520144435921,-0.10965805043830962,0.013261414639699348
8,8,7763.324894019348,2900.0740137079574,15.403885735709684,7853.890440428188,-2924.8147514174407,5.6339953312782445,7887.348857357179,41552.87316408739,9.745577674332274,7911.301356399425,-5280.586382712822,10.191861603456228,8152.376328857341,9223.361685394097,26.451072172966455,0.9822399730735016,96.0,70.0,112.0,226.0,338.0,26.0,1608.0,1609.0,37.0,14.0,23.0,0.3783783783783784,159.33451710196303,3329.7437658940535,13.0,7.0,6.0,0.5384615384615384,444.27888604123814,1805.89334722069,24.0,12.0,12.0,0.5,2202.5765037297174,38732.905977863295,150.0,2.0,148.0,0.0133333333333333,1109.3856987752963,17787.90645671081,67.0,34.0,33.0,0.5074626865671642,128.39055746194208,9560.651275646896,0.0,0.0,0.0,0.0,7751.0,7777.0,7847.0,7860.0,7875.0,7899.0,7909.0,7959.0,8118.0,8185.0,0.05494153471560616,-0.15189983769944032,0.053006599448177816,-0.21008759603045563,0.013920147755374097
9,9,8621.301356399426,1938.017121218537,10.191861603456228,8714.027373698993,-2986.7523993281216,17.835757806044494,8750.611811723811,41524.49012577572,9.995503376920206,8773.301356399426,-7101.807635866436,10.191861603456228,9017.110911606798,8391.706377870436,24.357121168697116,0.9670372911421966,83.0,68.0,235.0,118.0,353.0,15.0,863.0,863.0,16.0,9.0,7.0,0.5625,117.48617326071438,2068.3880777552577,32.0,22.0,10.0,0.6875,288.4328381414661,747.4923010129261,23.0,12.0,11.0,0.5217391304347826,2222.976673732788,37882.54794608177,167.0,2.0,165.0,0.0119760479041916,1244.2750735042746,20456.870899119447,63.0,31.0,32.0,0.492063492063492,100.20765855539746,8179.242628753947,0.0,0.0,0.0,0.0,8612.0,8627.0,8695.0,8724.0,8739.0,8762.0,8771.0,8930.0,8986.0,9048.0,0.060621844861125075,-0.09657072283807318,0.053534111243738254,-0.17520540365248438,0.011941273209898361
10,10,9523.17777011436,2816.5938819961752,17.403483807314736,9617.347163510232,-2270.4384434683625,4.217548478894196,9650.493209775608,41566.05480805153,9.841839228324426,9674.72601729957,-4900.909905542081,7.64389620259217,9917.47456601173,9420.544347759987,28.275059399943995,0.988497300881377,98.0,75.0,78.0,262.0,340.0,23.0,901.0,900.0,23.0,10.0,13.0,0.4347826086956521,172.76523110830456,3276.115017808314,11.0,6.0,5.0,0.5454545454545454,422.0108307085507,2282.0564474453586,24.0,12.0,12.0,0.5,2152.6967965058348,40391.93675578927,106.0,3.0,103.0,0.0283018867924528,1055.6601363496698,16827.761784939376,70.0,36.0,34.0,0.5142857142857142,117.6971601540783,9635.8014902401,0.0,0.0,0.0,0.0,9513.0,9536.0,9611.0,9622.0,9638.0,9662.0,9673.0,9689.0,9882.0,9951.0,0.06133835346750894,-0.1858719543454697,0.0517897790985169,-0.21540084529117762,0.012493668710562811
11,11,10407.301356399426,1567.0464167427308,10.191861306280746,10501.45203459918,-3308.5618029255374,15.287792390451342,10534.9962266272,40094.52886626485,9.612080020137828,10564.54796540086,-6114.488437214874,15.28779240518434,10803.171466649086,8243.00749317945,24.181861463005447,0.9557002607546587,94.0,82.0,225.0,114.0,339.0,12.0,885.0,885.0,14.0,7.0,7.0,0.5,136.56221098259053,1772.019731634154,20.0,11.0,9.0,0.55,411.7212178192966,193.8449733747884,23.0,12.0,11.0,0.5217391304347826,2137.1442220391327,36621.20781013864,166.0,10.0,156.0,0.0602409638554216,410.2893283488216,9057.841089658808,66.0,34.0,32.0,0.5151515151515151,103.15053156011513,8122.02571044906,0.0,0.0,0.0,0.0,10401.0,10413.0,10495.0,10510.0,10523.0,10546.0,10556.0,10720.0,10770.0,10834.0,0.08714624501452185,-0.12444114462520826,0.053302639598723535,-0.0671011700425599,0.012513701054556296
12,12,11248.151171128857,925.3731416989516,2.334929573716057,11341.027373698991,-5116.87012203929,17.8357578060484,11375.28424971818,39275.56424200593,9.900413785326826,11403.54796540086,-7711.057235806477,15.28779240518434,11643.448159563974,7595.936324844759,21.77034798594846,0.934155842863365,40.0,35.0,270.0,116.0,386.0,5.0,840.0,840.0,6.0,3.0,3.0,0.5,145.1960686458633,840.3465587223534,66.0,56.0,10.0,0.8484848484848485,443.80155205710554,1355.002971292516,23.0,11.0,12.0,0.4782608695652174,2088.635807954327,34835.66125679818,161.0,9.0,152.0,0.0559006211180124,532.4420600598626,12035.509725375834,57.0,28.0,29.0,0.4912280701754385,125.42919223016546,7613.459182163875,0.0,0.0,0.0,0.0,11246.0,11251.0,11286.0,11351.0,11364.0,11386.0,11395.0,11556.0,11615.0,11672.0,0.1569054277707786,-0.08673301089773053,0.053179014694345064,-0.06904916456688392,0.016512670310296327
13,13,12095.644322947008,2745.508870394008,13.234160326877262,12188.876695499284,-3177.4402950721524,7.792757919611712,12221.972642735172,42203.99341558049,9.450766732449102,12250.123304500705,-5015.2767181658555,12.739827004320285,12489.390462612731,9145.21452140679,25.71176923664684,0.97545253824131,102.0,71.0,208.0,132.0,340.0,31.0,847.0,847.0,31.0,17.0,14.0,0.5483870967741935,135.42084098348033,3191.7841537794966,15.0,8.0,7.0,0.5333333333333333,458.02908977166504,1365.839211633218,23.0,12.0,11.0,0.5217391304347826,2225.1226118091713,39055.782499479785,149.0,7.0,142.0,0.046979865771812,616.37818564957,11236.617514087013,67.0,34.0,33.0,0.5074626865671642,105.93467776366673,9163.619360092089,0.0,0.0,0.0,0.0,12079.0,12110.0,12181.0,12196.0,12210.0,12233.0,12243.0,12389.0,12455.0,12521.0,0.049324495886274834,-0.1441503371383613,0.05272303475878472,-0.1229001349849718,0.011583618680097513
14,14,12982.614335884407,2086.818737623894,12.063491001721989,13075.027373698991,-2371.335366708525,17.835757805935145,13111.289941804178,42775.67851257333,9.864949467522251,13134.876695499284,-5959.816315362455,12.739827004320285,13379.382756744351,8765.58093171524,25.337378444328756,0.9726124358032052,94.0,77.0,227.0,115.0,342.0,17.0,888.0,889.0,17.0,9.0,8.0,0.5294117647058824,133.7098393101094,2336.9517532647615,36.0,26.0,10.0,0.7222222222222222,292.2042131692245,11.80948186708099,23.0,12.0,11.0,0.5217391304347826,2209.096326192311,39250.23868535173,167.0,3.0,164.0,0.0179640718562874,1124.262323047686,18762.10760208845,69.0,35.0,34.0,0.5072463768115942,130.6264280053037,8739.700892566409,0.0,0.0,0.0,0.0,12974.0,12991.0,13068.0,13085.0,13099.0,13122.0,13132.0,13295.0,13344.0,13410.0,0.06407352823674321,-0.12322348718427438,0.05164374717149086,-0.18864043177802411,0.014902198613291777
15,15,13866.123546632432,3048.5372753821825,17.438309474581065,13961.78707176086,-3085.924528331495,5.062845610362991,13994.15568294184,41664.891616081026,9.804470727678524,14017.301356399426,-5345.552970748865,10.191861603456228,14261.322582486944,9480.801025777118,26.99067370556496,0.9829923281726518,111.0,72.0,194.0,145.0,339.0,39.0,883.0,883.0,40.0,22.0,18.0,0.55,134.83996713517132,3237.316431524257,11.0,7.0,4.0,0.6363636363636364,521.8246540348083,2267.5769236596643,23.0,12.0,11.0,0.5217391304347826,2151.8329846596325,38953.44743692424,160.0,2.0,158.0,0.0125,1160.369251069303,18861.499929888538,67.0,33.0,34.0,0.4925373134328358,120.09222834825542,9530.398138871697,0.0,0.0,0.0,0.0,13844.0,13883.0,13955.0,13966.0,13982.0,14005.0,14015.0,14149.0,14228.0,14294.0,0.044231037692746264,-0.16909832020971352,0.05164619182230415,-0.21707188338024183,0.012666886270657889
16,16,14726.728607855384,1866.1348491747376,9.92426403923138,14821.45203459914,-3367.4530512318456,15.28779240518434,14855.526275914925,39706.412741511944,9.675187751884422,14884.123304500716,-6125.060884866382,12.739827004320285,15123.884468325528,8753.886167930334,24.43737668221705,0.9584559249149768,73.0,59.0,236.0,125.0,361.0,14.0,862.0,862.0,15.0,7.0,8.0,0.4666666666666667,127.67129576531812,1920.5736675322687,39.0,30.0,9.0,0.7692307692307693,366.2202452563088,375.6326219171817,23.0,12.0,11.0,0.5217391304347826,2147.3726455873284,36414.552358177934,157.0,8.0,149.0,0.0509554140127388,564.6858638225755,11256.115786996805,62.0,31.0,31.0,0.5,119.79810582065603,8782.443764293663,0.0,0.0,0.0,0.0,14721.0,14735.0,14794.0,14830.0,14844.0,14867.0,14877.0,15030.0,15093.0,15155.0,0.06841482855420566,-0.10875288821690982,0.054081255326858334,-0.0921926939890156,0.013685134067602309
17,17,15557.754628000292,1853.298530789098,6.626311147836682,15650.45203459914,-3620.0810311932255,15.28779240518434,15684.70893175979,39145.382979682116,9.645098291569257,15713.547965365304,-6358.571892985095,15.28779240518424,15951.3622631152,8522.10274963216,23.99647333888251,0.952461135732231,53.0,39.0,253.0,124.0,377.0,14.0,829.0,829.0,14.0,7.0,7.0,0.5,169.27908349618582,2182.722316331671,61.0,52.0,9.0,0.8524590163934426,346.50317624511604,333.2608665304085,23.0,12.0,11.0,0.5217391304347826,2111.5070980972296,34987.74047973282,153.0,9.0,144.0,0.0588235294117647,468.69113288154927,9783.807084540596,63.0,32.0,31.0,0.5079365079365079,103.2271219654721,8016.391170498706,0.0,0.0,0.0,0.0,15551.0,15565.0,15604.0,15659.0,15673.0,15696.0,15705.0,15857.0,15919.0,15981.0,0.09133935018235304,-0.0957169669019547,0.053940131309819575,-0.07371012560204263,0.012112869909944196
18,18,16420.08927352645,2160.5601757355803,12.877974643268754,16514.876695499283,-2989.97933397775,7.83360217406114,16548.872744339144,41779.04541227584,9.64997987382991,16572.30135639943,-6173.591010534244,10.191861603456228,16815.806566219468,9125.575120425126,25.36146333228282,0.9725938460790224,96.0,71.0,214.0,126.0,340.0,25.0,864.0,863.0,26.0,9.0,17.0,0.3461538461538461,135.06899465905158,2296.5540299036984,14.0,7.0,7.0,0.5,411.3442938230069,988.660049506012,23.0,12.0,11.0,0.5217391304347826,2249.7366207756327,38916.54294459421,168.0,3.0,165.0,0.0178571428571428,1161.082989979922,19285.20058610336,66.0,34.0,32.0,0.5151515151515151,144.0131228081113,9344.83182538057,0.0,0.0,0.0,0.0,16412.0,16437.0,16508.0,16522.0,16537.0,16560.0,16570.0,16722.0,16782.0,16848.0,0.06251572910394233,-0.13757429328977028,0.0538484448022979,-0.1880725477276872,0.01578126538959467
19,19,17325.931383218587,2184.044726799563,12.167058542282422,17421.876695499283,-3092.3154129213403,7.9186455027595475,17454.997473159696,41780.895460682215,9.71739640707023,17478.30135639943,-6037.843566809685,10.191861603456228,17723.08094132822,8925.002683911374,26.345153807833228,0.9767235985723478,96.0,79.0,177.0,165.0,342.0,17.0,906.0,906.0,30.0,20.0,10.0,0.6666666666666666,148.64524027107515,1786.5504307987676,15.0,8.0,7.0,0.5333333333333333,449.14371047760955,1480.678100811262,23.0,12.0,11.0,0.5217391304347826,2217.222055282472,38776.326403410974,157.0,3.0,154.0,0.019108280254777,1198.2750258285655,19377.91202783818,68.0,34.0,34.0,0.5,96.9274215532446,8612.323563490838,0.0,0.0,0.0,0.0,17319.0,17336.0,17415.0,17429.0,17443.0,17466.0,17476.0,17592.0,17689.0,17757.0,0.06805961363661983,-0.14524511587687594,0.053067844306232785,-0.1984607604634775,0.010860212034218263
20,20,18251.876695499283,2782.6465038628185,12.739827004320285,18347.444134220754,-2886.27036512815,4.518127582687456,18380.407047948254,41413.19280320555,9.795015487104765,18403.72601729957,-5164.5301581052345,7.64389620259217,18647.097473861115,9921.305572567524,28.682091508326632,0.9884792946774889,114.0,83.0,76.0,264.0,340.0,31.0,926.0,926.0,33.0,25.0,8.0,0.7575757575757576,147.22539445525044,2449.683845492982,10.0,5.0,5.0,0.5,445.8995562655868,1634.1450846603077,24.0,12.0,12.0,0.5,2162.107534682219,39764.932183595854,18.0,2.0,16.0,0.1111111111111111,1136.4599845999212,18027.61922933375,72.0,37.0,35.0,0.5138888888888888,124.23933320147124,10602.824434687664,0.0,0.0,0.0,0.0,18228.0,18259.0,18342.0,18352.0,18368.0,18392.0,18402.0,18418.0,18611.0,18682.0,0.05290840724859405,-0.15448987788979668,0.05220818266672892,-0.22005099201838454,0.012522478245705265
21,21,19151.876695499283,1719.621258702036,11.553389017646676,19246.027373698995,-2844.7630201637376,17.83575780602382,19281.08046696482,40654.776464040086,9.691355969295817,19310.54796539356,-5630.538129561117,15.28779240518434,19548.930259401244,9186.70079061001,25.588566103487356,0.9699784881005016,108.0,82.0,174.0,166.0,340.0,26.0,900.0,901.0,27.0,20.0,7.0,0.7407407407407407,145.13925041306163,1378.7213228243252,21.0,11.0,10.0,0.5238095238095238,347.97139073173787,113.9485065709589,24.0,12.0,12.0,0.5,2125.556852265037,36898.93628335952,148.0,9.0,139.0,0.0608108108108108,468.1741187528532,8576.864103657615,66.0,34.0,32.0,0.5151515151515151,114.35587036173688,9055.4617899562,0.0,0.0,0.0,0.0,19133.0,19159.0,19241.0,19256.0,19269.0,19292.0,19302.0,19415.0,19516.0,19581.0,0.08440187028311817,-0.12231999230350987,0.05228307808173861,-0.0831490894795425,0.012447980288921925
22,22,20027.655762088256,1954.805028943737,8.189729580641277,20124.45203459914,-3463.104623151513,15.28779240518434,20157.91455131606,39174.33115796932,9.827486542836116,20186.12330449318,-6588.995519114265,12.739827004320285,20426.21267161512,8604.65769177284,23.435512765117235,0.9542472651255473,88.0,74.0,222.0,124.0,346.0,14.0,876.0,877.0,18.0,8.0,10.0,0.4444444444444444,150.47196566058338,1285.179806032311,43.0,34.0,9.0,0.7906976744186046,418.9654181008489,109.49539286969024,23.0,12.0,11.0,0.5217391304347826,2125.963607641263,35949.89737846917,160.0,7.0,153.0,0.04375,635.7543444061944,12218.507666906551,61.0,31.0,30.0,0.5081967213114754,124.09314125319852,8423.272376908131,0.0,0.0,0.0,0.0,20022.0,20036.0,20110.0,20133.0,20146.0,20169.0,20179.0,20332.0,20396.0,20456.0,0.07697543408811962,-0.12097971724561407,0.05426930198420946,-0.09648729348227823,0.014421624392083318
23,23,20910.757130047463,3082.828404159882,15.026016648383798,21007.20115610804,-2961.877187882057,5.318699889228875,21040.049987775135,42325.615996412525,9.646362472452283,21064.30135639943,-4826.129178642891,10.191861603415598,21307.77729072007,9726.35681776211,27.871815949851193,0.9836755971996805,110.0,80.0,79.0,262.0,341.0,30.0,883.0,882.0,31.0,21.0,10.0,0.6774193548387096,148.07137337088804,3092.8702406241705,11.0,6.0,5.0,0.5454545454545454,469.0730572415262,1614.133659243384,23.0,12.0,11.0,0.5217391304347826,2246.6263780945756,39422.72974558421,139.0,3.0,136.0,0.0215827338129496,1083.7861655992413,17284.16522884517,68.0,34.0,34.0,0.5,116.1333719349311,9486.701220323424,0.0,0.0,0.0,0.0,20891.0,20921.0,21001.0,21012.0,21028.0,21051.0,21062.0,21080.0,21274.0,21342.0,0.04803101371814425,-0.15837019143151754,0.05307959081528777,-0.22456633991384423,0.011940069042382888
24,24,21860.17734085331,1908.011110095001,13.11565915551198,21952.45203459914,-2804.0076192245706,15.28779240518434,21987.738096418125,41778.90054606726,9.918084015907011,22011.30135639943,-6126.552608717564,10.191861603456228,22257.012502735754,9098.38899067012,25.393233870133233,0.9721059286241144,97.0,78.0,216.0,125.0,341.0,19.0,947.0,947.0,19.0,10.0,9.0,0.5263157894736842,125.84343847861288,2261.872672795216,29.0,19.0,10.0,0.6551724137931034,335.3103570044779,260.0519454833934,23.0,12.0,11.0,0.5217391304347826,2222.371057293694,38707.67122276552,156.0,3.0,153.0,0.0192307692307692,1156.753112178391,19127.595132663,66.0,34.0,32.0,0.5151515151515151,120.637286815514,9235.03522033074,0.0,0.0,0.0,0.0,21850.0,21869.0,21947.0,21961.0,21976.0,21999.0,22009.0,22163.0,22223.0,22288.0,0.06595529649318817,-0.1195825413260488,0.053193622336787184,-0.1888097901146608,0.013259192032701686
25,25,22847.602712798853,2889.36019098484,19.37137803294204,22946.440868730944,-2475.3620250866793,4.405172206157634,22978.15653324592,41841.05255287463,9.782227827099424,23001.72601729957,-5179.492966913507,7.64389620259217,23247.45214613822,10036.23145240728,28.674942179607672,0.9854399093681284,115.0,81.0,170.0,172.0,342.0,34.0,991.0,991.0,36.0,24.0,12.0,0.6666666666666666,148.78505426457488,2642.885118990883,10.0,6.0,4.0,0.6,497.7572339891986,2842.815086639363,24.0,12.0,12.0,0.5,2179.556223205695,39648.828167522035,110.0,2.0,108.0,0.0181818181818181,1106.66967062779,18029.19494837164,70.0,35.0,35.0,0.5,123.12612073556072,10623.933927203996,0.0,0.0,0.0,0.0,22825.0,22859.0,22940.0,22950.0,22966.0,22990.0,23000.0,23110.0,23212.0,23282.0,0.051494117877308135,-0.2010846207321003,0.052091333516320726,-0.2136637075669709,0.012268162738118978
26,26,23818.876695499283,2109.0117493717707,12.739827004320285,23914.327598850537,-3734.324926291645,6.939065359232451,23947.49255161659,40412.535031872154,9.627054379359288,23973.0876055993,-6284.791383374931,10.191861603456228,24217.409805895055,9528.570932387212,26.1250379770284,0.9721690339657962,112.0,81.0,170.0,173.0,343.0,31.0,970.0,969.0,32.0,24.0,8.0,0.75,141.72982769047653,1952.2286906909703,15.0,7.0,8.0,0.4666666666666667,458.2922517391428,534.9946822614697,24.0,12.0,12.0,0.5,2153.7454295887896,38045.475138056936,108.0,4.0,104.0,0.037037037037037,910.8599559263416,16889.908315554447,70.0,36.0,34.0,0.5142857142857142,101.20863865962988,9710.757980629129,0.0,0.0,0.0,0.0,23795.0,23826.0,23907.0,23922.0,23935.0,23959.0,23969.0,24077.0,24182.0,24250.0,0.06720200953488988,-0.12272425693664742,0.053293994744209816,-0.14493081796411358,0.010621596814232234
27,27,24727.764036963636,1714.7424419289669,11.18309188686714,24825.876695499283,-3859.5861468783287,8.65086098965514,24859.33479387307,39454.2217073811,9.674852209003156,24887.123304500717,-6414.990923126999,12.739827004320285,25129.253743150628,8850.162681867641,24.197509453759704,0.9562588511394114,100.0,80.0,221.0,120.0,341.0,20.0,910.0,913.0,33.0,21.0,12.0,0.6363636363636364,113.7159773644808,1285.863932405013,15.0,8.0,7.0,0.5333333333333333,489.0519265193166,571.8342811195878,24.0,12.0,12.0,0.5,2103.5173176777175,36143.491454644136,160.0,7.0,153.0,0.04375,641.5522006077996,12967.608640679256,64.0,33.0,31.0,0.515625,103.02084364843134,8481.444591960946,0.0,0.0,0.0,0.0,24719.0,24739.0,24819.0,24833.0,24847.0,24871.0,24880.0,25040.0,25096.0,25160.0,0.06631665175124386,-0.12671097571299622,0.053315392539708656,-0.10000827877946143,0.011640559315310908
28,28,25613.45203459914,2579.43816753699,9.813114777231569,25708.21494807668,-3959.315088305206,6.161114831349981,25741.84949434879,41233.06293799268,9.677513408904217,25765.30135639943,-6187.966907992376,10.191861603456228,26010.33331916545,9519.385077263316,26.330439629417963,0.9747760181799128,97.0,79.0,194.0,148.0,342.0,18.0,885.0,882.0,19.0,10.0,9.0,0.5263157894736842,144.47216825133063,2346.0118437069236,15.0,8.0,7.0,0.5333333333333333,474.0437066963625,227.52711210927487,23.0,12.0,11.0,0.5217391304347826,2210.9403448904955,37560.650691382696,146.0,3.0,143.0,0.0205479452054794,1151.1510325184452,18860.359897559065,70.0,35.0,35.0,0.5,105.7604351511447,8951.777493347572,0.0,0.0,0.0,0.0,25604.0,25622.0,25701.0,25715.0,25730.0,25753.0,25763.0,25895.0,25976.0,26043.0,0.05600916124664533,-0.11972871472052457,0.05362057017727165,-0.18603057347181653,0.011110007032255625
29,29,26545.60271329869,2536.6559108765787,16.451789466131682,26642.45369248753,-3253.7584389202516,5.341912081682991,26675.35818305801,42730.91111787709,9.874135428661004,26699.30135639943,-5916.169357307008,10.191861603456228,26945.11398933336,9787.862756509934,27.35690539531039,0.981058843872034,113.0,79.0,139.0,202.0,341.0,34.0,933.0,933.0,38.0,23.0,15.0,0.6052631578947368,133.92821075823005,2417.9802731663226,12.0,6.0,6.0,0.5,472.7536770987225,1535.1751235547188,24.0,12.0,12.0,0.5,2211.0307427296752,40391.18848022058,81.0,2.0,79.0,0.0246913580246913,1183.40334522282,19398.085889872116,68.0,35.0,33.0,0.5147058823529411,116.18719294687791,9918.64012895714,0.0,0.0,0.0,0.0,26523.0,26557.0,26636.0,26648.0,26663.0,26687.0,26697.0,26775.0,26910.0,26977.0,0.05279715320630506,-0.1452946449385481,0.0517431218967072,-0.20002864586038416,0.011870537607364947
30,30,27508.184861929396,2388.796438582361,14.95877532327784,27604.80762392849,-2967.2911259189095,5.45894437317794,27637.68732201824,42730.426218496155,9.728190340024138,27660.30135639943,-5967.489940237151,10.191861603287732,27906.992707104208,9686.260182634396,26.936514733939273,0.9806333786483872,111.0,81.0,196.0,147.0,343.0,30.0,961.0,962.0,30.0,21.0,9.0,0.7,126.54800641038048,2340.573279979991,13.0,7.0,6.0,0.5384615384615384,484.3679482816009,2250.1288292983236,23.0,12.0,11.0,0.5217391304347826,2241.3809792444295,38773.067667385665,161.0,2.0,159.0,0.0124223602484472,1230.4489544823268,19662.28258023904,69.0,35.0,34.0,0.5072463768115942,96.60205579557878,9705.398369446528,0.0,0.0,0.0,0.0,27487.0,27517.0,27598.0,27611.0,27626.0,27649.0,27658.0,27794.0,27872.0,27941.0,0.05297563424260662,-0.16323573512915826,0.052453981333662254,-0.20619204503148741,0.009973101483353473
31,31,28464.45203459914,2308.7508719713633,14.727812851025224,28557.45203459914,-2444.7658529687924,15.287792405183644,28593.428400827812,41253.71305483483,9.995241503612895,28617.30135639943,-6565.585264012122,10.191861603456228,28863.14806364231,9640.327416980756,26.37039007145579,0.9738616538181676,97.0,81.0,184.0,157.0,341.0,16.0,957.0,956.0,33.0,23.0,10.0,0.696969696969697,164.45719298691122,1999.213093065075,33.0,23.0,10.0,0.696969696969697,313.255904406516,157.02215247345873,24.0,12.0,12.0,0.5,2178.0897350002847,38932.41330979396,155.0,3.0,152.0,0.0193548387096774,1150.2718652213027,19273.430643642143,68.0,35.0,33.0,0.5147058823529411,113.12571350737043,9613.57519458201,0.0,0.0,0.0,0.0,28457.0,28473.0,28554.0,28566.0,28581.0,28605.0,28615.0,28738.0,28828.0,28895.0,0.07123210866250236,-0.1281332950663209,0.05279742291572996,-0.17519715592245472,0.011734633961509179
32,32,29365.027373698995,1533.8694797975295,11.528079473406905,29462.45203459914,-3569.940326081359,15.28779240518434,29496.13009930057,40056.48682322646,9.838402158736288,29525.54796540086,-6088.360433254166,15.28779240518434,29765.75652851299,8830.480118511025,24.10746018904422,0.9548985000286934,97.0,82.0,195.0,144.0,339.0,15.0,901.0,903.0,17.0,6.0,11.0,0.3529411764705882,134.71375969239975,1089.984943023375,39.0,29.0,10.0,0.7435897435897436,428.9960108685746,85.06741039297708,24.0,12.0,12.0,0.5,2091.452728054784,36259.54182562739,167.0,9.0,158.0,0.0538922155688622,446.2138169430139,8991.632539784154,66.0,35.0,31.0,0.5303030303030303,113.6048746955005,8825.89507741496,0.0,0.0,0.0,0.0,29360.0,29375.0,29457.0,29471.0,29484.0,29508.0,29517.0,29652.0,29731.0,29796.0,0.08782609046382613,-0.12016895849334086,0.05221258512471619,-0.0732896519243223,0.01286508470330561
33,33,30220.234483031465,1878.5152666084985,11.067098030228214,30316.45203459914,-3129.677992463306,15.28779240518434,30350.837504151263,40864.30743774851,9.730049527737366,30376.831471331527,-6473.882442800184,12.739827004320285,30620.014713139368,9232.369500341309,24.428425123717822,0.9627186508756966,91.0,59.0,232.0,127.0,359.0,32.0,856.0,855.0,33.0,20.0,13.0,0.6060606060606061,98.83103471169086,1625.4179614979294,61.0,51.0,10.0,0.8360655737704918,347.26289477331557,442.4168360715,23.0,12.0,11.0,0.5217391304347826,2207.505407298032,36997.74855404225,152.0,5.0,147.0,0.0328947368421052,835.4640895960584,15747.90665952466,63.0,32.0,31.0,0.5079365079365079,133.59048619529491,9208.274466361672,0.0,0.0,0.0,0.0,30201.0,30233.0,30292.0,30325.0,30339.0,30362.0,30372.0,30524.0,30588.0,30651.0,0.052611249143650556,-0.11095802686716405,0.05402037978157053,-0.1290514767572286,0.014469794150933435
34,34,31110.48672140789,2223.249104437856,13.998687979697449,31206.400337682076,-3190.6674027833865,7.078489866748876,31239.647553352406,42498.33889812268,9.74855176810676,31263.30135639943,-5754.665678149759,10.191861603456228,31508.208521316446,9510.239166482446,26.25877213690948,0.9778668216919144,111.0,77.0,208.0,132.0,340.0,34.0,887.0,888.0,36.0,22.0,14.0,0.6111111111111112,97.61375839589252,2205.3375211477014,13.0,6.0,7.0,0.4615384615384615,457.01427089049486,764.1642109945869,23.0,12.0,11.0,0.5217391304347826,2237.6563489743194,38971.91910948447,149.0,2.0,147.0,0.0134228187919463,1158.1212646135573,19042.0794245673,66.0,33.0,33.0,0.5,144.4458700355218,9750.154225779615,0.0,0.0,0.0,0.0,31089.0,31123.0,31200.0,31213.0,31228.0,31251.0,31261.0,31408.0,31476.0,31540.0,0.043905902492457745,-0.14323469456321813,0.05265279554427868,-0.20124909584424663,0.015188458198254548
35,35,32013.0240232815,2347.822863696675,14.76823895633268,32106.61517206873,-3169.8445707497026,6.895510463174576,32140.887456771583,42188.67687601989,9.749143924220316,32164.30135639943,-5843.6675247288695,10.191861603456228,32409.485814215117,9561.873039378375,26.70036443975997,0.9793296460067435,109.0,79.0,193.0,149.0,342.0,30.0,903.0,901.0,46.0,22.0,24.0,0.4782608695652174,107.12685174217007,2688.131699005863,14.0,7.0,7.0,0.5,433.752801822281,1144.36684653326,23.0,12.0,11.0,0.5217391304347826,2230.7236225103034,39186.760733880874,153.0,2.0,151.0,0.0130718954248366,1205.1668781125445,19514.58007319041,66.0,33.0,33.0,0.5,117.33095664523071,9908.257932822142,0.0,0.0,0.0,0.0,31991.0,32021.0,32100.0,32114.0,32129.0,32152.0,32162.0,32293.0,32376.0,32442.0,0.04562816616135068,-0.13683724616178697,0.05287493677665559,-0.20623467591415737,0.012270708485882437
36,36,32918.86796826565,1691.6199879988071,6.295704296746119,33012.45203459914,-3360.173235546998,15.28779240518434,33046.40688131323,40184.107632434134,9.833237954622138,33072.0248938643,-6536.174308988002,10.191861603456228,33316.040165436614,9127.76390092606,24.591330089453624,0.964433504347284,88.0,76.0,221.0,125.0,346.0,12.0,905.0,906.0,12.0,6.0,6.0,0.5,136.70589298506704,2093.4393236526585,59.0,50.0,9.0,0.847457627118644,371.9156312644142,307.2846620970604,24.0,12.0,12.0,0.5,2144.2897505275605,37748.763487586344,154.0,4.0,150.0,0.0259740259740259,913.2322132803488,16962.234225570464,66.0,33.0,33.0,0.5,125.5520180543961,8484.996089660985,0.0,0.0,0.0,0.0,32913.0,32925.0,33001.0,33021.0,33035.0,33058.0,33068.0,33222.0,33285.0,33347.0,0.0808135952252436,-0.11068346933126813,0.05336163664853471,-0.13971968465170032,0.01375495898197566
37,37,33785.33510743119,6616.962682003061,24.788845239727827,33877.68474709631,-1272.4608798199629,2.101235291028249,33908.36407682496,41909.54280749528,10.20529015431124,33933.30135639943,-3893.150613405344,9.050718376445356,34175.51027082942,9734.321868897146,28.525349238964196,0.9692928473232202,127.0,63.0,72.0,264.0,336.0,64.0,858.0,863.0,78.0,39.0,39.0,0.5,165.46891397704076,5191.31163198173,6.0,4.0,2.0,0.6666666666666666,595.5528379753389,5579.733246202875,24.0,12.0,12.0,0.5,2104.0545012488524,40008.78111995614,16.0,2.0,14.0,0.125,1047.162529450204,15549.058485377262,71.0,37.0,34.0,0.5211267605633803,95.0635673674188,9828.500179591552,0.0,0.0,0.0,0.0,33747.0,33811.0,33874.0,33880.0,33896.0,33920.0,33931.0,33946.0,34139.0,34210.0,0.025006777569879034,-0.46803233594073407,0.050204663670837146,-0.26897560188000263,0.00976581303225276
38,38,34629.87669549929,1648.2368936706112,5.7436388863831125,34722.027373699,-3585.6083372764083,17.83575780604798,34758.0220392098,41161.08582632766,9.678366756922072,34786.123304478286,-6615.338903908183,12.739827004320285,35027.57493626367,8781.063283648871,23.3597255108552,0.9542893765217048,86.0,71.0,227.0,122.0,349.0,15.0,855.0,849.0,17.0,10.0,7.0,0.5882352941176471,141.6228204783909,1143.6362980478675,61.0,50.0,11.0,0.819672131147541,333.2726677796128,1342.4032346480697,23.0,12.0,11.0,0.5217391304347826,2224.1674659172986,37538.20161105561,168.0,7.0,161.0,0.0416666666666666,624.0498255406912,12493.837072307031,62.0,33.0,29.0,0.532258064516129,111.4963720608231,8706.04797049833,0.0,0.0,0.0,0.0,34622.0,34637.0,34708.0,34732.0,34746.0,34769.0,34779.0,34935.0,34995.0,35057.0,0.08592382625473087,-0.0929473150524754,0.05403568495014448,-0.09433376499759032,0.01269736573570075
39,39,35532.87669549929,1787.0473828030983,11.91620253216488,35626.45203459914,-2619.636837577856,15.287792403630757,35662.45121028078,41890.845040543645,9.903307264770756,35686.30135639943,-6079.331310709723,10.191861603456228,35931.80622372582,9606.045193117892,25.946823752668404,0.9752995471368836,94.0,79.0,216.0,130.0,346.0,15.0,903.0,904.0,29.0,21.0,8.0,0.7241379310344828,155.04790533665545,1324.9611872274409,61.0,51.0,10.0,0.8360655737704918,296.8803435405724,215.7300533790317,24.0,12.0,12.0,0.5,2215.7755632027793,39362.60182561507,157.0,3.0,154.0,0.019108280254777,1139.4847389764768,18959.06410840224,69.0,35.0,34.0,0.5072463768115942,100.59443645354222,9270.35194071386,0.0,0.0,0.0,0.0,35525.0,35540.0,35619.0,35635.0,35650.0,35674.0,35684.0,35835.0,35899.0,35965.0,0.0867620561316359,-0.11332881691153462,0.05289402878023259,-0.18743586765358397,0.01047199283692852
40,40,36463.11132166815,2527.66811579292,16.031578925716587,36558.98174377505,-2745.4533921798925,5.752833150768415,36592.60993965446,41686.43646233938,9.79447081930848,36616.30135639943,-5480.555626369661,10.191861603456228,36862.38879971519,9667.318166004232,27.240255491766437,0.9840106241924416,97.0,74.0,151.0,191.0,342.0,23.0,931.0,930.0,47.0,23.0,24.0,0.4893617021276595,150.4697910717406,2272.1344324820147,14.0,8.0,6.0,0.5714285714285714,426.9282846551532,1716.464596412285,24.0,13.0,11.0,0.5416666666666666,2163.5114891100525,38248.71405818935,91.0,2.0,89.0,0.0219780219780219,1136.0332282753327,18513.36758171863,67.0,34.0,33.0,0.5074626865671642,103.35716457498262,9904.766318583082,0.0,0.0,0.0,0.0,36456.0,36479.0,36553.0,36565.0,36580.0,36604.0,36614.0,36704.0,36828.0,36895.0,0.05952909329021574,-0.15550374516326126,0.05189965064691067,-0.207284316723165,0.010691399910519648
41,41,37347.45203459914,1766.508910975669,13.146437088729298,37444.87669549929,-3538.92974561127,7.748627422843054,37477.09834871232,40055.01284259411,9.697414695599669,37503.34095901221,-5656.2947884893765,12.739827004320285,37746.34112915462,9375.235266477606,25.88253155408837,0.970304108429869,93.0,78.0,180.0,165.0,345.0,15.0,884.0,885.0,35.0,23.0,12.0,0.6571428571428571,143.5296320562413,1255.6918534513395,19.0,12.0,7.0,0.631578947368421,501.24327435281185,1969.9859709504472,23.0,12.0,11.0,0.5217391304347826,2141.312662531881,36714.922104363475,116.0,5.0,111.0,0.043103448275862,852.1802624709293,15467.100285521909,68.0,34.0,34.0,0.5,142.3466807212447,9172.010445286,0.0,0.0,0.0,0.0,37341.0,37356.0,37434.0,37452.0,37465.0,37488.0,37498.0,37614.0,37715.0,37779.0,0.0812504432694697,-0.14163696664914535,0.05345929287169845,-0.1506605108710256,0.015183264918185476
42,42,38185.87669549929,1314.3654256972573,9.088099976254098,38279.0273736994,-3513.0400062585054,17.835757801455195,38314.63286138927,39617.51260492084,9.774737110417952,38343.54796540086,-6638.841975211465,15.28779240518434,38583.65156400643,8410.673098678293,23.990922516870903,0.9509893806705236,92.0,80.0,214.0,129.0,343.0,12.0,838.0,838.0,16.0,8.0,8.0,0.5,160.1154635803192,992.786137173756,21.0,10.0,11.0,0.4761904761904761,358.5908631792462,1312.5450815015822,23.0,12.0,11.0,0.5217391304347826,2122.903125066698,34881.642615156634,166.0,9.0,157.0,0.0542168674698795,478.26626651650054,10021.888873217937,68.0,36.0,32.0,0.5294117647058824,102.066434541151,8270.133890451458,0.0,0.0,0.0,0.0,38181.0,38193.0,38273.0,38289.0,38303.0,38326.0,38335.0,38487.0,38548.0,38616.0,0.12181959480209212,-0.10207423272732848,0.05358496749245724,-0.07204061616503027,0.012135346760438278
43,43,39040.027373699,1663.3148418342712,10.744588561821464,39136.027373699,-3042.307989319566,17.8357578060484,39171.28924473219,42027.6632391591,9.8378192785861,39195.511514323305,-6483.519187159959,12.739827004320285,39439.971651708904,9052.19777343211,24.65152456132403,0.9660843941600264,109.0,81.0,211.0,129.0,340.0,28.0,855.0,856.0,32.0,19.0,13.0,0.59375,123.28541324016868,1098.28223961638,17.0,7.0,10.0,0.4117647058823529,399.15107955706105,369.9019802349562,23.0,12.0,11.0,0.5217391304347826,2224.874508281152,37887.68005542776,158.0,4.0,154.0,0.0253164556962025,992.2023149613703,17748.527994052976,63.0,31.0,32.0,0.492063492063492,119.93444281950345,8932.710190001018,0.0,0.0,0.0,0.0,39022.0,39050.0,39131.0,39146.0,39159.0,39182.0,39192.0,39342.0,39409.0,39471.0,0.07412031092334385,-0.13120008919489248,0.05293833482057919,-0.1530345305256966,0.013249207078915899
44,44,39949.87669549929,2003.0779475015636,12.73982700432026,40043.02737369933,-2598.1068859258107,17.835757800215255,40078.754876401494,42306.36480115526,9.873613919753645,40102.30135639943,-6181.279281855511,10.191861603456228,40348.178302527405,9187.246200016116,26.30785368923403,0.9764154887570852,97.0,80.0,196.0,148.0,344.0,17.0,909.0,908.0,29.0,21.0,8.0,0.7241379310344828,126.96284605529044,1857.3796468193616,57.0,47.0,10.0,0.8245614035087719,312.8342814251515,34.348899217185135,23.0,12.0,11.0,0.5217391304347826,2218.6123488077224,38739.28623459239,165.0,3.0,162.0,0.0181818181818181,1175.6539407569762,19115.735407475324,70.0,35.0,35.0,0.5,123.17391790543046,9350.746397093151,0.0,0.0,0.0,0.0,39940.0,39957.0,40037.0,40053.0,40067.0,40090.0,40100.0,40233.0,40314.0,40381.0,0.06338387690486585,-0.12040854944028832,0.052441573726210076,-0.1901958942719161,0.013407055305126621
45,45,40864.027373699,2241.228264918473,15.937160892579262,40961.14983707143,-2923.627135968874,6.129947832357983,40993.84949029559,42231.38170310876,9.634509874643395,41017.30135639943,-5440.838925006,10.191861603456228,41263.44251744807,9314.407486936205,27.255772193244507,0.9792561092736568,113.0,80.0,206.0,136.0,342.0,33.0,915.0,914.0,35.0,24.0,11.0,0.6857142857142857,131.2458544055216,1665.5727137226468,14.0,7.0,7.0,0.5,450.4671427367341,1977.6441969426169,23.0,12.0,11.0,0.5217391304347826,2240.4384682986883,39312.40954871579,146.0,2.0,144.0,0.0136986301369863,1176.6091341066444,19030.08673848911,69.0,36.0,33.0,0.5217391304347826,117.53850444606036,9521.489373562374,0.0,0.0,0.0,0.0,40841.0,40874.0,40954.0,40968.0,40982.0,41005.0,41015.0,41160.0,41228.0,41296.0,0.058559789049553064,-0.15407817816256922,0.053051507621730595,-0.21625509417288014,0.012618999610110721
46,46,41782.45203459914,1665.090509328222,12.711811282697775,41875.027373699,-3021.10029485829,17.8357578060484,41911.46606709828,40631.33301350335,9.850024625666812,41936.28272376319,-6517.843793120963,10.191861603456228,42180.92952588111,9452.858233628158,26.544001422778955,0.9684194437071916,95.0,79.0,180.0,164.0,344.0,16.0,918.0,918.0,20.0,11.0,9.0,0.55,140.99939205646214,1263.829224335466,35.0,24.0,11.0,0.6857142857142857,315.49307727207156,1105.744124819785,24.0,12.0,12.0,0.5,2169.566419240286,38108.80286875739,151.0,3.0,148.0,0.0198675496688741,1036.8711128599,18221.81880256502,69.0,36.0,33.0,0.5217391304347826,121.12783806322751,9871.17923973829,0.0,0.0,0.0,0.0,41775.0,41791.0,41870.0,41885.0,41900.0,41923.0,41933.0,42050.0,42146.0,42214.0,0.0846797163676995,-0.10442985881965575,0.053396387918635504,-0.15908192122588616,0.01281388497209449
47,47,42647.47932758989,1763.3082511216098,9.92994858023774,42743.45203459914,-3441.5881949903614,15.28779240518434,42777.62718861737,40116.18743783744,9.930202050943162,42803.824495581546,-6461.602681022889,12.739827004320285,43046.91342302776,9040.712279408632,24.983873285589866,0.9649171352689332,92.0,78.0,198.0,147.0,345.0,14.0,864.0,867.0,18.0,8.0,10.0,0.4444444444444444,140.2399208093328,1329.0352545465798,23.0,14.0,9.0,0.6086956521739131,406.8726689243805,594.0193973737776,23.0,12.0,11.0,0.5217391304347826,2158.329253714101,36505.567554290494,133.0,5.0,128.0,0.037593984962406,830.6507377808629,15698.867005354425,68.0,35.0,33.0,0.5147058823529411,122.01245029123103,8942.813119152168,0.0,0.0,0.0,0.0,42642.0,42656.0,42734.0,42752.0,42766.0,42789.0,42799.0,42932.0,43013.0,43079.0,0.07953227730893259,-0.11822235720026927,0.05380195356446991,-0.12855181272912444,0.013495889098155446
48,48,43483.30389806224,1916.2078964596903,8.982762537190702,43577.027373699,-3454.926931953417,17.835757806034696,43611.65624119375,39800.263496393214,9.711022706119108,43640.12330449133,-6458.638430822014,12.739827004320285,43880.74696922114,8628.219333587158,24.126089102438332,0.9558967392310296,82.0,68.0,229.0,124.0,353.0,14.0,835.0,834.0,15.0,7.0,8.0,0.4666666666666667,135.53351800326192,1917.8823975355376,58.0,48.0,10.0,0.8275862068965517,364.74374563276734,559.9487317575818,23.0,12.0,11.0,0.5217391304347826,2148.3196672610725,36156.521888136485,158.0,8.0,150.0,0.050632911392405,576.3835096929853,11995.160541279758,64.0,32.0,32.0,0.5,116.20984669649624,8203.932614585414,0.0,0.0,0.0,0.0,43477.0,43491.0,43559.0,43587.0,43600.0,43623.0,43633.0,43788.0,43850.0,43912.0,0.07073006966189226,-0.10557205776463154,0.053977523728096874,-0.08924226303524889,0.013468578185550405
49,49,44378.27925429619,2876.2744361042096,19.763270194829033,44474.43840451487,-2665.0586759488665,4.140253953135079,44506.808492329925,42406.72194549059,9.750118004098502,44531.30135639943,-4580.825854746296,10.191861603456063,44776.696994598686,9690.034716111144,27.38515361587435,0.9851936363327056,114.0,81.0,89.0,255.0,344.0,33.0,896.0,895.0,34.0,23.0,11.0,0.6764705882352942,150.74285168851924,2970.9560650122357,10.0,5.0,5.0,0.5,486.0296612513696,2383.780536173013,23.0,12.0,11.0,0.5217391304347826,2216.341471172721,39457.45309717441,154.0,3.0,151.0,0.0194805194805194,1064.7477226121428,17134.98612713263,72.0,36.0,36.0,0.5,134.64680654303842,9497.269436056791,0.0,0.0,0.0,0.0,44355.0,44388.0,44469.0,44479.0,44495.0,44518.0,44529.0,44558.0,44741.0,44813.0,0.052409064238214335,-0.18237109210299987,0.05226391877263223,-0.23243575642783582,0.01389538948907663
50,50,45326.87669549929,1893.1771207581332,12.739827004320285,45420.177605854915,-3344.9107564841024,7.212459211552877,45454.52033013254,42023.13656226679,9.633422903514171,45478.30135639943,-5687.1560408441455,10.191861603456228,45724.42571391325,9215.166817261772,26.204367929986866,0.9759843083457284,98.0,79.0,184.0,158.0,342.0,19.0,949.0,947.0,30.0,23.0,7.0,0.7666666666666667,141.15663150146253,2070.698571363506,16.0,8.0,8.0,0.5,402.0996126993779,128.52208844836014,24.0,13.0,11.0,0.5416666666666666,2230.874442464591,38247.845695136,122.0,3.0,119.0,0.0245901639344262,1145.7083914663567,18644.387182340575,69.0,35.0,34.0,0.5072463768115942,156.47904115298329,9368.968645819456,0.0,0.0,0.0,0.0,45315.0,45334.0,45413.0,45428.0,45442.0,45466.0,45476.0,45597.0,45690.0,45755.0,0.07456071064546542,-0.12021235900536617,0.05308681419244005,-0.20145541694971658,0.016980597774949455
51,51,46278.027373699,2783.2593841172466,17.835757805791253,46375.867916596355,-2514.108228037948,4.793198891947348,46407.76443142762,41342.27019622615,9.79370984289849,46431.726017299574,-4941.70675380613,7.64389620259128,46678.3441171763,9906.19252858187,28.695035058798243,0.9879332622092668,119.0,82.0,75.0,267.0,342.0,37.0,952.0,953.0,38.0,27.0,11.0,0.7105263157894737,106.55117356254723,2254.0045561456714,10.0,6.0,4.0,0.6,492.957447503846,3310.1654757584743,23.0,12.0,11.0,0.5217391304347826,2133.4822182840044,38978.94646575931,27.0,3.0,24.0,0.1111111111111111,1091.8835812630828,17173.98544653898,70.0,35.0,35.0,0.5,133.25850402925036,10341.753053963545,0.0,0.0,0.0,0.0,46251.0,46288.0,46370.0,46380.0,46396.0,46419.0,46430.0,46445.0,46643.0,46712.0,0.03828287588666177,-0.19607646242363969,0.051605347460545486,-0.2209527265902834,0.013452040594281393
52,52,47178.30135639943,1495.4407686859602,10.191861603456228,47273.9262666961,-3796.4771777929927,6.996677232156132,47306.62785807388,40230.70845257662,9.486701729829988,47335.12330450064,-5454.572173310591,12.739827004320285,47576.96901728112,9181.341903983914,25.154674146321813,0.9689845610935864,104.0,82.0,217.0,125.0,342.0,22.0,899.0,900.0,23.0,16.0,7.0,0.6956521739130435,113.42310276363035,1351.3648340359107,15.0,8.0,7.0,0.5333333333333333,486.5766007808377,881.6236564146138,23.0,12.0,11.0,0.5217391304347826,2141.650008097274,36995.30298959797,164.0,7.0,157.0,0.0426829268292682,557.8639014475881,10824.640154880335,64.0,33.0,31.0,0.515625,137.16415758338653,9480.484515995626,0.0,0.0,0.0,0.0,47162.0,47184.0,47266.0,47281.0,47295.0,47318.0,47328.0,47483.0,47545.0,47608.0,0.07584593461584903,-0.1281652906086214,0.05323421064339,-0.10227454761296134,0.01493944556447343
53,53,48032.30135639943,1565.2470465382437,4.642544597297835,48125.45203459914,-4013.4848151109177,15.28779240518434,48159.514710724754,39123.75217764389,9.774095988092016,48187.12330450071,-7296.292224314866,12.739827004320285,48430.079469332646,8642.911670790272,23.546331258949497,0.9421547839897558,90.0,77.0,225.0,120.0,345.0,13.0,854.0,853.0,13.0,7.0,6.0,0.5384615384615384,145.57378642418044,1269.6094846430587,51.0,42.0,9.0,0.8235294117647058,394.2755842989886,695.4938669003393,23.0,12.0,11.0,0.5217391304347826,2135.8001741793387,35312.95719789801,167.0,7.0,160.0,0.0419161676646706,673.6012302251036,13829.14008432255,62.0,32.0,30.0,0.5161290322580645,133.3258016548403,8461.220525089264,0.0,0.0,0.0,0.0,48025.0,48038.0,48115.0,48134.0,48148.0,48171.0,48180.0,48340.0,48398.0,48460.0,0.09300371257440583,-0.09823771671304861,0.054590882911270934,-0.09232103231560956,0.015426028488226993
54,54,48891.68733320553,2178.3111921111563,12.909523164679992,48987.93663630916,-3561.6085225471784,6.64590985830411,49021.67724016104,42158.40673267059,9.613162701907116,49045.30135639943,-5687.666513253651,10.191861603456228,49291.39728130775,9147.250980587674,26.43750417119459,0.9739327973455724,98.0,80.0,219.0,125.0,344.0,18.0,860.0,861.0,30.0,21.0,9.0,0.7,147.594930765537,2142.8392892708844,15.0,8.0,7.0,0.5333333333333333,467.20691377151707,856.7965823872266,23.0,12.0,11.0,0.5217391304347826,2251.7772964809255,38556.96459582489,164.0,3.0,161.0,0.0182926829268292,1139.38790632948,18914.750715098453,69.0,36.0,33.0,0.5217391304347826,118.31618906201416,9412.376405085604,0.0,0.0,0.0,0.0,48882.0,48900.0,48980.0,48995.0,49010.0,49033.0,49043.0,49199.0,49256.0,49324.0,0.06775658652448655,-0.13117862640259567,0.05341229593327858,-0.200326074616792,0.01293461711208156
55,55,49787.83596377878,3144.0748193821382,17.8357578060484,49881.573379287605,-1814.5990020423335,2.9305174799217903,49913.53905677472,43989.32526236959,9.503777239035122,50024.65123355136,-2559.9846584012953,163.0697856549886,50181.14885087219,10665.861186087175,32.9493044838666,0.990681448543266,96.0,79.0,228.0,116.0,344.0,17.0,893.0,892.0,18.0,12.0,6.0,0.6666666666666666,152.44930228188417,2238.015788606447,14.0,9.0,5.0,0.6428571428571429,499.7231550167984,2312.919817850233,23.0,12.0,11.0,0.5217391304347826,2228.835832499081,39706.547894734875,170.0,90.0,80.0,0.5294117647058824,93.9736311923982,2629.4662283740836,69.0,32.0,37.0,0.463768115942029,103.6536515257266,9378.91566796888,0.0,0.0,0.0,0.0,49777.0,49794.0,49873.0,49887.0,49902.0,49925.0,49936.0,50101.0,50150.0,50217.0,0.048487809940808896,-0.2753904055134822,0.05066765219074014,-0.03670866967268645,0.009718263693599828
56,56,50678.30135639943,2006.718070467606,10.191861603456228,50771.45203459914,-2766.979777357996,15.287792403831872,50805.93691683596,40949.68606565338,9.913871355795928,50829.30135639943,-6187.120908549296,10.191861603456228,51075.63929231099,9480.1032889179,26.19608727211854,0.9748415764855108,110.0,81.0,211.0,132.0,343.0,29.0,893.0,892.0,29.0,23.0,6.0,0.7931034482758621,106.55437171590675,1697.4905042534688,18.0,9.0,9.0,0.5,366.3744080597314,194.30517773638985,23.0,12.0,11.0,0.5217391304347826,2149.326272680259,38264.38526316286,150.0,2.0,148.0,0.0133333333333333,1153.459918295227,19058.43657409383,68.0,36.0,32.0,0.5294117647058824,117.2547559308686,9451.239156703285,0.0,0.0,0.0,0.0,50655.0,50684.0,50765.0,50780.0,50794.0,50817.0,50827.0,50976.0,51040.0,51108.0,0.05309882503379133,-0.13240949972159097,0.0524870024457406,-0.18642918658683214,0.01236851037983285
57,57,51528.2332245779,2068.376421714306,12.584340040722884,51626.87669549929,-3407.8307406652125,8.621161058533469,51660.34933328595,40230.20006652236,9.564841121929296,51689.54796540086,-5192.5758237070795,15.28779240518434,51928.96541396767,9488.8487077705,26.058033381826657,0.9737754957792673,106.0,77.0,176.0,170.0,346.0,29.0,847.0,855.0,30.0,19.0,11.0,0.6333333333333333,107.48217655435356,1638.7870424597174,20.0,12.0,8.0,0.6,451.35259986884944,545.2772854517041,24.0,12.0,12.0,0.5,2112.697297016933,36965.26137751071,139.0,9.0,130.0,0.0647482014388489,467.5488599986596,8399.487618426188,68.0,35.0,33.0,0.5147058823529411,125.165718264851,9447.569379716666,0.0,0.0,0.0,0.0,51510.0,51539.0,51616.0,51634.0,51648.0,51672.0,51681.0,51792.0,51895.0,51962.0,0.05196451449841537,-0.13244572111018194,0.052515207319961066,-0.09004179734151047,0.013190822418988692
58,58,52360.03733465038,1635.4453689782615,6.405074668969124,52452.027373699,-3928.39613712128,17.8357578060484,52487.400962552965,40298.53403829374,9.747095172629836,52515.12330450071,-6531.2591556874495,12.739827004320285,52755.926536364714,8510.977332654182,24.885155427446666,0.9561932601188858,86.0,74.0,230.0,117.0,347.0,12.0,834.0,828.0,13.0,7.0,6.0,0.5384615384615384,160.96998411756346,1874.2562975647895,57.0,47.0,10.0,0.8245614035087719,355.3201048303434,1264.6875117098707,24.0,12.0,12.0,0.5,2132.8104389742134,36823.97591000512,163.0,7.0,156.0,0.0429447852760736,651.2964592916064,12781.65792302859,66.0,34.0,32.0,0.5151515151515151,93.177166364378,8210.87467623403,0.0,0.0,0.0,0.0,52354.0,52366.0,52440.0,52462.0,52476.0,52499.0,52508.0,52670.0,52723.0,52787.0,0.09842577879451202,-0.09044915340200929,0.05292526117569207,-0.09971989225453634,0.010947880921605079
59,59,53228.30135639943,1897.4518668434823,10.191861603353177,53318.027373699,-3006.1785229730663,17.83575780579793,53354.01019485424,41958.045331731766,9.992053809923146,53377.30135639943,-7123.952419571679,10.191861603456228,53623.65396726351,9475.862995548074,25.408412247638243,0.970474285771709,73.0,57.0,219.0,143.0,362.0,16.0,869.0,866.0,17.0,10.0,7.0,0.5882352941176471,128.5490254506826,1930.8805188929375,56.0,46.0,10.0,0.8214285714285714,304.2301178067213,306.59133141701705,23.0,12.0,11.0,0.5217391304347826,2222.530112413839,38833.178289995165,168.0,3.0,165.0,0.0178571428571428,1202.5443400584868,20486.45905161403,66.0,35.0,31.0,0.5303030303030303,137.7343992477983,9630.988846026,0.0,0.0,0.0,0.0,53218.0,53234.0,53291.0,53328.0,53342.0,53365.0,53375.0,53510.0,53590.0,53653.0,0.06774824052034116,-0.10120161377037655,0.05297029675338565,-0.1688029718944682,0.01453528816451951
60,60,54128.87669549929,2078.078960440259,12.739827004320285,54223.45203459914,-2705.3587423990944,15.28779240475458,54258.1985892294,40852.02869832778,9.918795557271649,54281.30135639943,-6927.401245689287,10.191861603456228,54528.21624248595,9136.282780291738,24.98991661105056,0.9638324219263188,111.0,82.0,215.0,127.0,342.0,29.0,901.0,904.0,30.0,23.0,7.0,0.7666666666666667,155.63534584230553,1592.53906692917,40.0,31.0,9.0,0.775,366.09436662953726,457.5158705556489,23.0,12.0,11.0,0.5217391304347826,2184.9968668313463,38239.466201859614,171.0,3.0,168.0,0.0175438596491228,1174.3590999472715,19859.64986435664,64.0,32.0,32.0,0.5,152.76601876506643,9131.72617266141,0.0,0.0,0.0,0.0,54107.0,54136.0,54218.0,54232.0,54246.0,54269.0,54279.0,54433.0,54496.0,54560.0,0.07489385572208133,-0.1353219300982195,0.053485639182486576,-0.16952375909769046,0.016720806748079697
61,61,54990.726017299574,1276.3677968712016,2.8271829662146684,55084.027373699,-5126.356157035768,17.8357578060484,55118.152796437775,39446.94179705181,9.73279108808385,55147.54796540086,-7546.226000648157,15.28779240518434,55388.07820884794,7658.27515004175,21.44630930747492,0.9229894004578884,47.0,38.0,278.0,107.0,385.0,9.0,861.0,860.0,9.0,5.0,4.0,0.5555555555555556,152.28485122709665,934.0234881030452,64.0,54.0,10.0,0.84375,410.6460643109747,1967.3487496628345,22.0,11.0,11.0,0.5,2118.135618254133,35463.01257382165,176.0,10.0,166.0,0.0568181818181818,451.87717067211935,10263.579551474868,61.0,31.0,30.0,0.5081967213114754,130.2210995098594,7706.693727727714,0.0,0.0,0.0,0.0,54986.0,54995.0,55033.0,55094.0,55107.0,55129.0,55139.0,55311.0,55357.0,55418.0,0.11931110421337568,-0.0801048642996401,0.0536958132052822,-0.05988121355407417,0.01700397242963378
62,62,55837.87669549929,1832.1034347978396,12.348822154754396,55932.87669549929,-3047.605798284139,12.73982700432028,55966.717834538926,41205.172761039976,9.785320439555408,55990.30135639943,-6699.0887330905025,10.191861603456228,56236.17285290441,9051.79318231303,25.66608888014744,0.9663328127445598,110.0,81.0,206.0,136.0,342.0,29.0,848.0,848.0,30.0,22.0,8.0,0.7333333333333333,121.17127532274012,1572.8911941388392,16.0,8.0,8.0,0.5,434.3322251238163,620.9448410614792,23.0,12.0,11.0,0.5217391304347826,2248.675051598974,37986.435944430385,152.0,3.0,149.0,0.0197368421052631,1123.434859285262,19450.943162539243,69.0,36.0,33.0,0.5217391304347826,128.53917653730483,9107.382920342328,0.0,0.0,0.0,0.0,55816.0,55845.0,55926.0,55940.0,55955.0,55978.0,55988.0,56132.0,56200.0,56268.0,0.06613779168866116,-0.14251588094771106,0.05457263981490026,-0.16769965349704896,0.014200410233462588
63,63,56724.87669549929,2052.3538460028385,12.739827004320285,56821.30135639943,-3327.879251469559,5.919284507854954,56853.37739844752,41352.130023330734,9.53920764608542,56876.726017299574,-5873.875332683245,7.64389620259217,57123.140147307735,9137.64964155572,26.477548000236546,0.9749288288682708,113.0,83.0,210.0,131.0,341.0,30.0,887.0,887.0,31.0,24.0,7.0,0.7741935483870968,132.3377974818997,1794.2658485696527,12.0,6.0,6.0,0.5,498.168447605315,1826.196712974578,24.0,12.0,12.0,0.5,2228.0627452574313,39623.248035643934,152.0,3.0,149.0,0.0197368421052631,1117.0709053953365,18600.476755704614,69.0,35.0,34.0,0.5072463768115942,94.64803083372745,9250.0711514165,0.0,0.0,0.0,0.0,56702.0,56732.0,56815.0,56827.0,56842.0,56864.0,56875.0,57025.0,57089.0,57156.0,0.06448098496253003,-0.14969546968548472,0.05388024133219657,-0.1901761345154473,0.010358027999157698
64,64,57611.60271279886,1778.9732539231516,9.179769236143402,57710.027373699,-3462.2248334188675,17.8357578060484,57745.50902310139,39952.587573383586,9.640120741699633,57772.69864360057,-6360.534424389275,10.191861603456228,58016.008777876275,9107.341632410957,25.18846245377248,0.9595328579376018,86.0,60.0,247.0,117.0,364.0,26.0,888.0,892.0,28.0,17.0,11.0,0.6071428571428571,130.62120808772272,1101.361328740547,60.0,50.0,10.0,0.8333333333333334,324.69037861031666,1035.536830558466,23.0,12.0,11.0,0.5217391304347826,2173.563704487775,37203.95875194718,163.0,6.0,157.0,0.0368098159509202,675.2575724940554,13149.681115752472,64.0,33.0,31.0,0.515625,137.7430805099484,9255.655445646018,0.0,0.0,0.0,0.0,57597.0,57623.0,57683.0,57720.0,57734.0,57757.0,57767.0,57930.0,57983.0,58047.0,0.07342505447997327,-0.09378084735464517,0.054403577753141655,-0.10616365346672771,0.015124400299177549
65,65,58459.88253102203,1313.7973632117385,8.131488612407605,58553.027373699,-3924.150612308583,17.8357578060484,58587.86798490057,39618.023276731634,9.69644653259207,58616.54796540086,-6767.909980325585,15.28779240518434,58858.27356818562,8211.857315014146,22.51055293989296,0.9401679840279784,53.0,40.0,272.0,107.0,379.0,13.0,847.0,843.0,14.0,7.0,7.0,0.5,132.319370670484,1253.623241275331,57.0,47.0,10.0,0.8245614035087719,358.1783392801873,1183.4706235324052,23.0,12.0,11.0,0.5217391304347826,2147.8863911218973,35295.16232589889,176.0,9.0,167.0,0.0511363636363636,479.1715352690644,10031.659112815303,59.0,30.0,29.0,0.5084745762711864,124.90513208048964,8225.200424284141,0.0,0.0,0.0,0.0,58454.0,58467.0,58507.0,58563.0,58576.0,58599.0,58608.0,58779.0,58829.0,58886.0,0.10071520492856913,-0.0912753802457828,0.054214880336631764,-0.07080051842622363,0.01521033881727577
66,66,59285.94809200713,1631.1599733201492,11.513907059256502,59376.027373699,-2836.1882505347585,17.8357578060484,59411.71953956353,42232.78968375004,9.753137470192248,59451.09593080172,-4969.075201524757,30.57558481036868,59681.68980083066,8731.131028119442,26.091254173574843,0.9719076540721522,87.0,74.0,227.0,122.0,349.0,13.0,824.0,824.0,13.0,8.0,5.0,0.6153846153846154,172.2702750646019,2116.4428808309035,37.0,27.0,10.0,0.7297297297297297,315.2133443122356,516.300687606637,23.0,12.0,11.0,0.5217391304347826,2167.8821134895347,36952.70635940677,164.0,17.0,147.0,0.1036585365853658,99.273514873604,3929.642654208841,70.0,37.0,33.0,0.5285714285714286,107.80456229914796,8867.553327828973,0.0,0.0,0.0,0.0,59278.0,59291.0,59365.0,59386.0,59400.0,59423.0,59434.0,59592.0,59646.0,59714.0,0.1056121274935124,-0.11113978215402404,0.051331728965175925,-0.019978267755565864,0.012347147460272108
67,67,60162.39728720114,2914.692532450222,16.666685374718377,60253.72089046889,-1507.1555474574168,2.8308750746022824,60285.70553433233,44090.09006483725,9.66602266692105,60332.38248889938,-3584.886139219339,109.56251223715444,60554.04394382971,9217.65321619134,28.50084953051629,0.9867880762101484,92.0,76.0,216.0,131.0,347.0,16.0,873.0,874.0,17.0,11.0,6.0,0.6470588235294118,160.32777911219674,1867.167823215912,17.0,11.0,6.0,0.6470588235294118,501.8975631962141,1316.7030973300646,23.0,12.0,11.0,0.5217391304347826,2184.321631037007,38359.396487785525,154.0,25.0,129.0,0.1623376623376623,78.7026083562742,3260.2005901096572,72.0,34.0,38.0,0.4722222222222222,86.30896255742677,8516.26900160568,0.0,0.0,0.0,0.0,60151.0,60167.0,60243.0,60260.0,60274.0,60297.0,60307.0,60459.0,60522.0,60590.0,0.05500675537032305,-0.3330097971924127,0.04954223563219819,-0.02195400503666006,0.009363442140112203
68,68,61055.875937629775,3182.567948413159,19.837078658616157,61153.103376422136,-2767.277476923545,4.540872891694129,61185.161761447875,41805.119697746544,9.63471779590049,61208.726017299574,-5196.222972544999,7.64389620259217,61455.28469576634,9914.928225056943,29.502636238388508,0.9850824266272912,113.0,79.0,173.0,171.0,344.0,34.0,899.0,899.0,35.0,22.0,13.0,0.6285714285714286,132.49911638950448,3197.990644517404,11.0,6.0,5.0,0.5454545454545454,507.24890814723926,2477.9716397965412,23.0,12.0,11.0,0.5217391304347826,2229.421604485215,39921.6653914059,115.0,2.0,113.0,0.017391304347826,1113.5849709683976,17933.913467425802,76.0,39.0,37.0,0.5131578947368421,92.47451967725463,10007.889092637237,0.0,0.0,0.0,0.0,61034.0,61068.0,61147.0,61158.0,61173.0,61196.0,61207.0,61320.0,61417.0,61491.0,0.0416327690522897,-0.18330251027488623,0.053328913315021306,-0.21430661787459584,0.00932679668255728
69,69,61912.58853553032,1962.9612672566705,8.739196652682644,62005.45203459914,-3496.2021471147004,15.28779240518434,62040.00513581426,39243.91376034487,9.73834812037818,62067.648050484546,-6485.672089875094,12.739827004320285,62309.98185777921,8540.35409112876,24.346804711026557,0.9559519816089144,91.0,76.0,218.0,127.0,345.0,15.0,855.0,855.0,15.0,8.0,7.0,0.5333333333333333,168.15289445430346,2450.1254270447007,60.0,50.0,10.0,0.8333333333333334,351.5824157045618,708.9916304240112,23.0,12.0,11.0,0.5217391304347826,2125.6285607463906,36012.378271152105,157.0,7.0,150.0,0.0445859872611464,622.7603708380194,12073.115105694797,62.0,31.0,31.0,0.5,124.56769420280794,8561.578215457415,0.0,0.0,0.0,0.0,61905.0,61920.0,61996.0,62014.0,62028.0,62051.0,62061.0,62214.0,62279.0,62341.0,0.08566286928794319,-0.10056123785482801,0.05416454061455747,-0.09602094620389805,0.014585776289088746
70,70,62759.403700021714,1948.398100122466,9.822601936257024,62852.87669549929,-3246.3794774745247,12.739827004320285,62886.82400842523,40947.84882973545,9.89598940629772,62911.31414952651,-6527.370632976815,12.739827004320285,63156.3206492222,8956.735297113262,25.80857579201088,0.9704048344137308,91.0,76.0,177.0,171.0,348.0,15.0,848.0,847.0,15.0,7.0,8.0,0.4666666666666667,144.27096106233842,1966.0585748451624,56.0,48.0,8.0,0.8571428571428571,435.22312704138614,1030.055118734443,23.0,12.0,11.0,0.5217391304347826,2159.301748301632,37172.35101856901,114.0,4.0,110.0,0.0350877192982456,1040.1606661449198,18426.421608542307,67.0,32.0,35.0,0.4776119402985074,102.37516368106786,8665.588503699377,0.0,0.0,0.0,0.0,62752.0,62767.0,62843.0,62860.0,62875.0,62898.0,62907.0,63020.0,63124.0,63191.0,0.07404593601957953,-0.13406415672020014,0.052732971572699405,-0.15935370069074098,0.011429964187293017
71,71,63666.747583189404,2349.447045603315,14.355580379703872,63761.903608416214,-2960.5292072538277,6.297084335262198,63795.757982513154,43242.74390273673,9.414624791338712,63831.246609001435,-4036.574193446216,25.47965400864057,64066.35031220144,9366.118902969263,27.68035155426853,0.9815919632644012,109.0,80.0,184.0,161.0,345.0,29.0,908.0,908.0,31.0,21.0,10.0,0.6774193548387096,131.84930153321935,1935.497617150602,13.0,6.0,7.0,0.4615384615384615,428.55265027378,949.6862457393252,23.0,12.0,11.0,0.5217391304347826,2207.3908950779314,38728.547856007564,150.0,14.0,136.0,0.0933333333333333,174.0687343262322,4030.435568644277,73.0,38.0,35.0,0.5205479452054794,81.88202002515636,9429.439814811803,0.0,0.0,0.0,0.0,63647.0,63676.0,63756.0,63769.0,63784.0,63807.0,63817.0,63940.0,64029.0,64101.0,0.0561192906134906,-0.14475542049163004,0.051046503895379104,-0.04312288737535167,0.008742363926129315
72,72,64569.34013781486,2641.067249761394,14.86522885769068,64664.30135639943,-3522.7233576711487,6.007733341424955,64697.14853197052,40413.57921219709,9.738038534818456,64721.89841822688,-5718.4319041235985,10.191861603456228,64967.00083270927,9331.575382695868,26.3116815937674,0.9757067910735544,108.0,73.0,210.0,132.0,342.0,35.0,900.0,902.0,35.0,19.0,16.0,0.5428571428571428,139.39827498900095,3180.223214289988,13.0,6.0,7.0,0.4615384615384615,477.7037971999319,1254.7700873257231,23.0,12.0,11.0,0.5217391304347826,2127.531490099764,38062.4540554495,153.0,4.0,149.0,0.0261437908496732,962.2059869215652,17090.70486024791,70.0,37.0,33.0,0.5285714285714286,106.11510292020743,9363.900107199264,0.0,0.0,0.0,0.0,64550.0,64585.0,64658.0,64670.0,64685.0,64708.0,64719.0,64868.0,64932.0,65000.0,0.05278103955951702,-0.13560638991412002,0.052643975900497846,-0.16826395820639434,0.011371617178057994
73,73,65434.74472256834,1762.0099686394694,9.08965158135598,65529.87669549929,-3531.466345717448,12.739827004320285,65561.85856047267,40009.96881227858,9.709376847954166,65590.54796540085,-6143.581973776106,15.28779240518434,65832.07037605971,8559.36091023172,24.589870376389957,0.9597224698599964,93.0,79.0,210.0,132.0,342.0,14.0,865.0,865.0,14.0,8.0,6.0,0.5714285714285714,154.96056442232668,2406.508026616426,39.0,32.0,7.0,0.8205128205128205,489.0154145201708,1291.906298742921,23.0,12.0,11.0,0.5217391304347826,2122.871171306699,35991.946699908636,155.0,9.0,146.0,0.0580645161290322,500.00273798217,10078.164468730363,62.0,32.0,30.0,0.5161290322580645,121.83026497163937,8828.7525871996,0.0,0.0,0.0,0.0,65427.0,65441.0,65520.0,65537.0,65550.0,65573.0,65582.0,65730.0,65800.0,65862.0,0.08794533923209243,-0.1384737575407428,0.05305855601305081,-0.08138619133209793,0.014233570268780868
74,74,66267.84328575394,2825.042527213528,11.937910513351676,66361.87669549929,-3494.079440126541,7.706108899097934,66395.72120983401,40397.8503041256,9.722539142198883,66420.30135639943,-5935.13638300269,10.191861603456228,66664.74659252135,9519.550141788564,26.87754826633358,0.9758156650640368,94.0,79.0,191.0,153.0,344.0,15.0,835.0,833.0,20.0,9.0,11.0,0.45,164.0303241047735,3224.075341296137,17.0,10.0,7.0,0.5882352941176471,445.89266713421546,703.1556209262599,23.0,12.0,11.0,0.5217391304347826,2176.5316607415607,37360.99228367203,129.0,3.0,126.0,0.0232558139534883,1026.9479840683011,17533.715859074713,69.0,36.0,33.0,0.5217391304347826,117.84715053004592,9694.107406008116,0.0,0.0,0.0,0.0,66260.0,66275.0,66354.0,66369.0,66384.0,66407.0,66418.0,66545.0,66630.0,66698.0,0.05806295746866661,-0.12761377489404394,0.05387741289093505,-0.17302854017126226,0.012379487347067475
75,75,67152.80587595548,1929.3603431970807,12.506380332807163,67246.45203459915,-2857.020734151404,15.28779240518434,67280.94650369171,41539.365376716465,9.632461169339887,67309.12330450071,-5653.342474059248,12.739827004320285,67551.33536483117,8961.728510061434,25.263686392753577,0.9694082123765811,97.0,78.0,210.0,132.0,342.0,19.0,886.0,886.0,20.0,9.0,11.0,0.45,140.13267743014998,1821.734708280273,16.0,7.0,9.0,0.4375,385.2169706084734,224.2323506525104,23.0,12.0,11.0,0.5217391304347826,2190.1500308960453,38668.21352884184,154.0,7.0,147.0,0.0454545454545454,600.0397072869954,11256.048459679643,64.0,32.0,32.0,0.5,90.19334766152768,8718.523025357217,0.0,0.0,0.0,0.0,67144.0,67163.0,67241.0,67255.0,67269.0,67292.0,67302.0,67451.0,67519.0,67583.0,0.07263167708627236,-0.13483170283077803,0.052724686837022854,-0.10613892755309252,0.010064280295957035
76,76,68054.83073796575,2058.130312204979,12.11757522554646,68150.45203459915,-2717.238082172858,15.287792401713755,68185.21791134613,40479.84237815508,9.64621934821697,68213.12330450064,-5392.216545187765,12.739827004320285,68456.01934889557,9427.923642515812,25.866796435982295,0.9680682074649428,97.0,80.0,215.0,129.0,344.0,17.0,902.0,904.0,31.0,20.0,11.0,0.6451612903225806,139.24739000515348,1736.8933782606764,19.0,9.0,10.0,0.4736842105263157,342.1926686727591,344.6482867423806,24.0,12.0,12.0,0.5,2131.3893277019565,38101.370189353634,159.0,7.0,152.0,0.0440251572327044,631.2428679916991,11555.197491786816,67.0,34.0,33.0,0.5074626865671642,103.2957081041923,9494.523830206395,0.0,0.0,0.0,0.0,68048.0,68065.0,68145.0,68159.0,68173.0,68197.0,68206.0,68360.0,68422.0,68489.0,0.0676572271344523,-0.12593400295609078,0.05265310343333153,-0.11706556342865089,0.010956358156993746
77,77,68922.30135639943,1691.5371253755234,4.7484598287818365,69016.027373699,-4189.835255394616,17.835757805957652,69050.81894536778,39603.52662507982,9.793105802397909,69079.54796540081,-7265.456724577038,15.28779240518434,69321.22643428581,7864.063493824608,22.47106344192623,0.938338859249116,92.0,80.0,218.0,126.0,344.0,12.0,867.0,866.0,14.0,7.0,7.0,0.5,146.9113292688955,1282.0709885225765,64.0,54.0,10.0,0.84375,390.7353820991621,1339.7275668333746,23.0,12.0,11.0,0.5217391304347826,2115.508981998136,34972.21867035971,169.0,9.0,160.0,0.0532544378698224,500.2324112481025,10659.276182467338,63.0,31.0,32.0,0.492063492063492,102.51568777893868,7316.84497370767,0.0,0.0,0.0,0.0,68916.0,68928.0,69008.0,69026.0,69039.0,69062.0,69071.0,69226.0,69292.0,69352.0,0.08685078622574188,-0.09325793456820798,0.053417186858769346,-0.06885078670360173,0.0130359689821224
78,78,69762.84969843099,1839.2872132017944,9.78266343383135,69857.45203459915,-3575.3582441173367,15.287792404140308,69891.86067471169,40511.31096458338,10.020035885011213,69915.30135639943,-7069.7836283314955,10.191861603456228,70160.81104740762,8776.500914309545,24.59444511510774,0.9632910217719498,87.0,72.0,219.0,130.0,349.0,15.0,840.0,841.0,16.0,8.0,8.0,0.5,117.30603120499954,1953.5243047421452,32.0,23.0,9.0,0.71875,369.7403639939758,487.68621950954366,23.0,12.0,11.0,0.5217391304347826,2174.700634656109,37106.98765287675,170.0,3.0,167.0,0.0176470588235294,1148.5512932086103,19225.14391423388,66.0,34.0,32.0,0.5151515151515151,100.11570309596046,8494.469873332731,0.0,0.0,0.0,0.0,69756.0,69771.0,69843.0,69866.0,69880.0,69903.0,69913.0,70062.0,70128.0,70192.0,0.06377798440777259,-0.10341351516378049,0.05368131968272564,-0.16245918596516853,0.011407245788891556
79,79,70643.69864360057,2881.6133383398687,10.191861603456228,70735.3813420691,-1730.9851549702398,2.8779078908034927,70767.34842585589,44362.249859329946,9.642274850060064,70830.01746487676,-3988.9530248640954,107.01454683629038,71035.28226318999,9160.746326315651,27.545398592052457,0.9823238375206578,93.0,79.0,231.0,114.0,345.0,14.0,878.0,875.0,17.0,13.0,4.0,0.7647058823529411,143.4398872953959,1441.7354405207418,16.0,10.0,6.0,0.625,490.7830570732368,807.2731791612164,23.0,11.0,12.0,0.4782608695652174,2189.6290070945593,39354.12009614237,167.0,41.0,126.0,0.2455089820359281,91.88644093126992,4048.546794477985,67.0,31.0,36.0,0.4626865671641791,129.04848764546946,8807.257034418402,0.0,0.0,0.0,0.0,70632.0,70646.0,70725.0,70741.0,70756.0,70779.0,70789.0,70956.0,71005.0,71070.0,0.04977763164367961,-0.2835281721879785,0.04935793414530919,-0.023035227629535825,0.014087115072137502
80,80,71529.87669549929,1600.1802225925458,11.954467753031716,71625.87669549929,-3224.599255628206,12.739827004320285,71659.32817519462,39543.04265370797,9.85076835805768,71685.19124433857,-6483.168961416957,10.191861603456228,71929.90194499995,9284.213142223962,25.733258454942423,0.9649651096920406,91.0,79.0,215.0,132.0,347.0,12.0,890.0,892.0,14.0,6.0,8.0,0.4285714285714285,155.3741466361531,1796.9438996426038,19.0,12.0,7.0,0.631578947368421,441.79192019071,629.9400962781403,24.0,12.0,12.0,0.5,2114.38109875802,37616.803253690174,150.0,4.0,146.0,0.0266666666666666,890.4412628048714,16475.94686962195,68.0,34.0,34.0,0.5,103.92698708805568,9092.619514169512,0.0,0.0,0.0,0.0,71525.0,71537.0,71616.0,71633.0,71648.0,71671.0,71681.0,71831.0,71896.0,71963.0,0.09709790462503178,-0.13700676740516135,0.05347036942185716,-0.13734660751618868,0.011193946702430053
81,81,72391.21110829413,1881.2250187744191,6.963200693173843,72484.027373699,-3924.201167512212,17.8357578060484,72519.14216575664,39625.24957918617,9.718161385478837,72547.12330450071,-6634.3185200113985,12.739827004320285,72788.70381939868,8339.019093992254,23.499471586884855,0.9483643076688072,71.0,57.0,252.0,113.0,365.0,14.0,860.0,860.0,14.0,7.0,7.0,0.5,179.07579145116875,1856.348521273286,42.0,32.0,10.0,0.7619047619047619,355.1454072782854,984.8716052060518,24.0,12.0,12.0,0.5,2152.1073405041084,36315.72169345074,168.0,7.0,161.0,0.0416666666666666,639.6676014966193,12927.656740113029,67.0,35.0,32.0,0.5223880597014925,115.9177834826134,8071.081180327713,0.0,0.0,0.0,0.0,72384.0,72398.0,72455.0,72494.0,72508.0,72530.0,72540.0,72707.0,72755.0,72820.0,0.09519105352310968,-0.09050132552287922,0.05431151509098731,-0.09641798167621296,0.01390064972583226
82,82,73240.87878624414,1862.3011637157615,10.756397252582955,73334.45203459915,-3254.9232779798526,15.287792405174022,73368.71232912444,40648.5991798642,10.02438170765019,73392.30135639943,-6812.810313602563,10.191861603456228,73638.12570796155,9098.721016877833,25.278511111801254,0.9671313930795058,91.0,77.0,218.0,128.0,346.0,14.0,851.0,850.0,15.0,8.0,7.0,0.5333333333333333,133.6804031430074,2179.8188121315115,23.0,14.0,9.0,0.6086956521739131,386.2274791310966,14.921858756969073,23.0,12.0,11.0,0.5217391304347826,2176.2380777409803,37212.370930839825,169.0,3.0,166.0,0.0177514792899408,1122.0481052262191,19114.4762572315,69.0,35.0,34.0,0.5072463768115942,127.0362499811754,9003.441994704017,0.0,0.0,0.0,0.0,73234.0,73248.0,73325.0,73343.0,73357.0,73380.0,73390.0,73543.0,73604.0,73671.0,0.07178237642094429,-0.11865947248096312,0.05353783701404912,-0.16469680698226993,0.013961989794557638
83,83,74160.87669549929,1515.003057980078,12.126499628212745,74254.45203459915,-2998.6492584763328,15.28779240518434,74289.71408702647,41560.40837157127,9.65326644617763,74318.12330450071,-5544.339650477337,12.739827004320285,74560.51731451538,9034.552963283337,26.039525027528203,0.9690490673246094,90.0,74.0,226.0,124.0,350.0,16.0,920.0,920.0,31.0,23.0,8.0,0.7419354838709677,126.18776746400958,1351.1320216938443,26.0,16.0,10.0,0.6153846153846154,329.47220312528344,710.9112857422053,23.0,12.0,11.0,0.5217391304347826,2201.1277648357964,38505.040000184,159.0,7.0,152.0,0.0440251572327044,571.7857044595016,10777.777946564129,65.0,34.0,31.0,0.5230769230769231,148.97195617084066,9271.828988226864,0.0,0.0,0.0,0.0,74152.0,74168.0,74242.0,74263.0,74278.0,74301.0,74311.0,74468.0,74527.0,74592.0,0.08329208762934981,-0.10987353795845205,0.05296213033222846,-0.10312963139086799,0.016489134191394597
84,84,75106.87669549929,1487.4634950330396,12.739827004320285,75201.87669549929,-3205.920577644494,12.739827004320285,75234.94019472178,40360.54839346096,9.762109040628948,75259.79638729246,-6651.298283712392,10.191861603456228,75506.90060462244,9063.1477455748,25.270925567098484,0.963304016296332,97.0,80.0,215.0,130.0,345.0,17.0,946.0,946.0,33.0,25.0,8.0,0.7575757575757576,120.13517480053235,1226.692805106359,15.0,8.0,7.0,0.5333333333333333,462.2089878989115,829.4280339627384,23.0,12.0,11.0,0.5217391304347826,2184.038691456979,37905.48005832527,153.0,4.0,149.0,0.0261437908496732,960.3693275701974,17560.44012752682,66.0,34.0,32.0,0.5151515151515151,122.47190691471113,9213.81802254744,0.0,0.0,0.0,0.0,75097.0,75114.0,75194.0,75209.0,75223.0,75246.0,75256.0,75409.0,75475.0,75539.0,0.08076512479243325,-0.1441735616041097,0.05411320654431017,-0.14438825122637133,0.013513175593381407
85,85,75996.80378910482,789.4038718989451,3.837216007340372,76092.027373699,-4693.235649960333,17.8357578060484,76126.5982309762,38825.32786584022,9.905024780210828,76154.12330450071,-8146.371473120316,12.739827004320285,76398.06343349,7793.735652241797,21.853801509335103,0.9257795103955956,49.0,42.0,273.0,111.0,384.0,7.0,889.0,892.0,7.0,2.0,5.0,0.2857142857142857,106.03416144084404,346.6877878312403,59.0,49.0,10.0,0.8305084745762712,381.33342562621414,1583.2271736097018,23.0,12.0,11.0,0.5217391304347826,2115.761587530587,34813.298312522835,172.0,7.0,165.0,0.0406976744186046,710.0714799464554,14892.926614945402,58.0,28.0,30.0,0.4827586206896552,128.1263283051313,8134.680094704185,0.0,0.0,0.0,0.0,75995.0,76002.0,76044.0,76102.0,76115.0,76138.0,76147.0,76317.0,76370.0,76428.0,0.13432181575924412,-0.0812517107743007,0.05449436498879131,-0.08716414200965424,0.01643965538762877
86,86,76853.45203459915,1837.267736626532,11.455972382307529,76948.45203459915,-3184.940450911579,15.287792405184335,76982.69268371431,40903.19707977195,9.671024700580206,77011.12330450071,-5952.894023722,12.739827004320285,77253.37782936821,8930.095811549128,24.730155447394047,0.9616606601793544,108.0,80.0,218.0,124.0,342.0,28.0,858.0,856.0,29.0,19.0,10.0,0.6551724137931034,124.10173791239528,1631.0759733826176,21.0,11.0,10.0,0.5238095238095238,401.485292814468,323.89734534637773,23.0,12.0,11.0,0.5217391304347826,2177.493682831354,37356.01803009714,161.0,8.0,153.0,0.0496894409937888,593.6314236615966,11351.22706698791,64.0,32.0,32.0,0.5,108.23920996825048,8550.614729375624,0.0,0.0,0.0,0.0,76834.0,76862.0,76942.0,76957.0,76971.0,76994.0,77004.0,77160.0,77222.0,77284.0,0.06754689882067084,-0.12605739385160458,0.05323529304041126,-0.09972148358361556,0.012120722134724099
87,87,77757.45203459915,1447.3066266479111,10.229328894477677,77851.027373699,-3090.515094051313,17.8357578060484,77888.14302436625,41495.17281320652,9.675559949676424,77916.12330450071,-5766.003313685606,12.739827004320285,78158.80284744124,8918.988438506924,24.89998375367607,0.9641427102246412,109.0,81.0,216.0,128.0,344.0,28.0,904.0,905.0,30.0,20.0,10.0,0.6666666666666666,143.35123416513883,755.3167520688193,22.0,10.0,12.0,0.4545454545454545,296.18152913583594,1230.7513517910338,24.0,12.0,12.0,0.5,2173.226090161684,38455.98324275424,160.0,7.0,153.0,0.04375,642.5744980167945,12094.837864208394,67.0,34.0,33.0,0.5074626865671642,105.64993317999284,8662.581922676467,0.0,0.0,0.0,0.0,77738.0,77766.0,77847.0,77863.0,77876.0,77899.0,77909.0,78063.0,78126.0,78191.0,0.09904689961736225,-0.09583565202639917,0.052372985646899614,-0.11144192312405443,0.01184550623744043
88,88,78687.0568752332,2955.8226950492494,18.02863138162399,78784.29691701093,-2471.407421868363,4.391518111952578,78816.29197447356,42006.69512515507,9.81296737927598,78840.30135639943,-4140.581042223585,10.19186160345622,79086.75231689545,10062.584095167877,29.188623793302447,0.9895391042470976,115.0,72.0,183.0,158.0,341.0,43.0,931.0,928.0,49.0,24.0,25.0,0.4897959183673469,138.26719865988963,2749.605825189227,9.0,5.0,4.0,0.5555555555555556,497.3624519615419,2844.5059427015863,24.0,12.0,12.0,0.5,2150.237083517538,40126.87246449532,125.0,2.0,123.0,0.016,1095.145263137532,17105.402671026248,71.0,37.0,34.0,0.5211267605633803,134.51710255001416,10310.883300055204,0.0,0.0,0.0,0.0,78664.0,78707.0,78779.0,78788.0,78804.0,78828.0,78838.0,78962.0,79052.0,79120.0,0.046777906838416046,-0.2012466449524296,0.051187961278817695,-0.26449072049786865,0.01336804753906208
89,89,79571.87669549929,1602.7457535338922,11.378989515000704,79666.027373699,-3194.6494670585735,17.835757806025544,79701.35688115245,39397.40826802971,9.73756294200234,79730.12330450004,-5882.791864745222,12.739827004320285,79972.41885668604,8907.010433567668,25.13373679959557,0.9598569178432318,95.0,80.0,217.0,130.0,347.0,15.0,883.0,886.0,17.0,9.0,8.0,0.5294117647058824,150.20855486838428,1326.944040490015,57.0,47.0,10.0,0.8245614035087719,346.3199818434828,736.0148597684315,24.0,12.0,12.0,0.5,2070.7402028022284,36332.7324655178,166.0,8.0,158.0,0.0481927710843373,544.4292106254995,10563.571774196138,70.0,36.0,34.0,0.5142857142857142,124.34294026963238,8459.819339953086,0.0,0.0,0.0,0.0,79564.0,79579.0,79659.0,79676.0,79690.0,79713.0,79723.0,79876.0,79939.0,80006.0,0.09371951511160745,-0.10840625408657177,0.05256031535664738,-0.09254606029633487,0.013960120648452784
90,90,80413.87669549929,1641.7449418174604,10.143153541167614,80508.45203459915,-3427.117729644277,15.28779240518434,80542.17921465571,39257.84580678116,9.677077954835886,80569.69864359916,-6670.144385732242,10.191861603456228,80812.06638003896,9005.843900169095,24.879857067206817,0.9620968550775748,62.0,48.0,226.0,149.0,375.0,14.0,842.0,840.0,14.0,7.0,7.0,0.5,159.00734451839725,2016.7173175533353,57.0,48.0,9.0,0.8421052631578947,363.4432754426604,14.58157033749626,24.0,12.0,12.0,0.5,2143.6459280636304,36738.17597613625,134.0,6.0,128.0,0.044776119402985,639.2523962991861,12936.77781110873,65.0,33.0,32.0,0.5076923076923077,146.85301438182026,9229.579998097008,0.0,0.0,0.0,0.0,80407.0,80421.0,80469.0,80517.0,80531.0,80554.0,80564.0,80695.0,80779.0,80844.0,0.09685264773367987,-0.10604925307902527,0.0546042678606005,-0.09583786486939887,0.01630641348103568
91,91,81311.027373699,1950.1268025755528,12.794056204909928,81406.87669549929,-2817.48420740793,12.739827002124358,81440.82898211756,41231.57543584695,9.913641232883784,81464.30135639943,-6486.927923249468,10.191861603456228,81711.78216925511,9478.31342780262,26.510969029445494,0.970652502548794,110.0,78.0,213.0,133.0,346.0,32.0,898.0,898.0,34.0,23.0,11.0,0.6764705882352942,107.63776859652098,1462.3570536237632,15.0,8.0,7.0,0.5333333333333333,430.4754015260314,747.5111500501688,23.0,12.0,11.0,0.5217391304347826,2195.0580940679415,38168.47433684062,165.0,3.0,162.0,0.0181818181818181,1164.9039397315998,19541.00544524491,68.0,35.0,33.0,0.5147058823529411,107.16582846425636,9534.198278889302,0.0,0.0,0.0,0.0,81289.0,81321.0,81399.0,81414.0,81429.0,81452.0,81462.0,81612.0,81677.0,81745.0,0.05519526651003548,-0.15278715685227084,0.053237308321707894,-0.17957713628303576,0.011306423793700277
92,92,82208.87669549929,1540.9660262192062,9.265753822413632,82303.02737369902,-3121.064408523262,17.835757806017963,82339.28532188124,40939.90335644167,9.935330844907837,82362.30135639943,-6973.521431184946,10.191861603456228,82610.53743878106,9070.883747889882,24.984933712923564,0.9668488485632616,99.0,82.0,212.0,133.0,345.0,17.0,897.0,899.0,27.0,19.0,8.0,0.7037037037037037,125.60657105565124,1236.8674742731414,57.0,46.0,11.0,0.8070175438596491,312.3726810167345,1120.008688650506,23.0,12.0,11.0,0.5217391304347826,2172.1474972661244,38141.83501496857,162.0,3.0,159.0,0.0185185185185185,1195.889846027854,20025.535093056213,66.0,34.0,32.0,0.5151515151515151,132.34305174066168,9317.094750162512,0.0,0.0,0.0,0.0,82199.0,82216.0,82298.0,82313.0,82327.0,82350.0,82360.0,82510.0,82578.0,82643.0,0.0815115771006514,-0.1000853042839107,0.053056976670277096,-0.17149009404057247,0.014589874087124977
93,93,83123.45203459915,2025.5685833271957,15.28779240518434,83217.45203459915,-2339.663181196104,9.110175286855126,83252.22830185015,40859.16041784833,9.763145094851795,83276.30135639943,-5808.538680531963,10.191861603456228,83523.20184850642,9600.363255166976,26.945412573508804,0.975044920566135,113.0,80.0,203.0,141.0,344.0,33.0,915.0,913.0,33.0,24.0,9.0,0.7272727272727273,108.13561826203912,2158.48311837004,15.0,6.0,9.0,0.4,331.2898646903348,405.0642806452131,23.0,12.0,11.0,0.5217391304347826,2156.5187916151585,38420.45924857904,147.0,3.0,144.0,0.0204081632653061,1112.3736907509376,18258.470916865324,69.0,35.0,34.0,0.5072463768115942,117.66716742248428,9894.248445611338,0.0,0.0,0.0,0.0,83099.0,83132.0,83212.0,83226.0,83240.0,83263.0,83274.0,83415.0,83488.0,83556.0,0.05338531568475244,-0.141597246711798,0.05277932217797446,-0.19150663392828834,0.012256532830583788
94,94,83993.89045218729,1516.0786465539063,4.46796664491357,84088.027373699,-4158.3315538580555,17.8357578060484,84122.69460234947,40205.598130129765,9.756483102513862,84152.972626301,-6588.563571745053,17.8357578060484,84393.60396408565,8548.006572649654,23.67996112727471,0.9459058642733896,53.0,41.0,264.0,118.0,382.0,12.0,868.0,871.0,12.0,6.0,6.0,0.5,136.2299805487036,1101.4568357007388,63.0,52.0,11.0,0.8253968253968254,378.53952853985015,995.3193355069934,23.0,12.0,11.0,0.5217391304347826,2104.514553152121,35269.5433822476,171.0,10.0,161.0,0.0584795321637426,430.93421013328503,9028.47274259884,60.0,31.0,29.0,0.5166666666666667,103.43671152176192,8455.439270088222,0.0,0.0,0.0,0.0,83988.0,84000.0,84041.0,84098.0,84111.0,84134.0,84143.0,84305.0,84363.0,84423.0,0.08985680317993962,-0.09103158890460411,0.05234381904581129,-0.06540639783477833,0.012100682263478805
95,95,84827.3001883289,2448.815083643548,10.870837629188363,84924.30135639943,-3537.02080317763,7.719610759104231,84957.00646991935,41416.8940489212,9.719186805245652,84980.87669549929,-6155.7162691643425,12.739827004320285,85226.28597291869,9329.871638251663,26.415044445257102,0.9732482862127454,99.0,80.0,176.0,168.0,344.0,19.0,834.0,834.0,20.0,12.0,8.0,0.6,129.18488995461587,2583.71949933459,17.0,10.0,7.0,0.5882352941176471,476.88266815886186,1340.002687094927,23.0,12.0,11.0,0.5217391304347826,2196.395058193681,37507.53192437202,115.0,3.0,112.0,0.0260869565217391,1055.4138181857402,18283.276510764077,70.0,36.0,34.0,0.5142857142857142,108.39715729391284,9404.546771790428,0.0,0.0,0.0,0.0,84816.0,84835.0,84915.0,84930.0,84945.0,84968.0,84978.0,85091.0,85191.0,85259.0,0.0527540404408176,-0.13482608519871708,0.053031380276833955,-0.17145264207068722,0.011618290314894999
96,96,85726.2525967537,2256.9719840408616,11.661085935278216,85822.87669549929,-2891.8180991759327,12.739827004278142,85855.8666842485,41248.4871066052,10.021274919274774,85879.30135639943,-6448.231265847359,10.191861603456228,86126.70622803437,9471.214064098647,26.595497649598514,0.9727839113047072,99.0,80.0,211.0,133.0,344.0,19.0,900.0,898.0,30.0,19.0,11.0,0.6333333333333333,124.90417690404128,2139.3246584782273,15.0,8.0,7.0,0.5333333333333333,490.32321583993024,1525.035116085147,23.0,12.0,11.0,0.5217391304347826,2157.0638524957003,37951.958406183076,160.0,3.0,157.0,0.01875,1167.2497486214852,19312.36591882753,69.0,35.0,34.0,0.5072463768115942,118.18129104947548,9658.497834233063,0.0,0.0,0.0,0.0,85717.0,85736.0,85816.0,85830.0,85844.0,85867.0,85877.0,86027.0,86095.0,86160.0,0.05534148309648665,-0.16955534512342088,0.052294374989338345,-0.181018592618374,0.012477945303490773
97,97,86640.87669549929,2843.0399657046173,12.7398270043194,86737.65000928205,-3284.2459121081415,5.15534655988241,86769.61937957004,42134.02154274496,9.645794741111034,86793.30135639943,-5461.752684299957,10.191861603456228,87041.22913469892,9991.603329840147,28.49651110582153,0.9811570673466912,114.0,83.0,179.0,168.0,347.0,31.0,915.0,914.0,33.0,25.0,8.0,0.7575757575757576,152.750618994564,2680.1318665189483,12.0,7.0,5.0,0.5833333333333334,535.3901848226344,2539.4908909596147,24.0,13.0,11.0,0.5416666666666666,2224.5299821135627,38803.26914604838,141.0,3.0,138.0,0.0212765957446808,1159.5162763236813,18832.95563437794,73.0,36.0,37.0,0.4931506849315068,80.45156218043758,9717.248840498209,0.0,0.0,0.0,0.0,86617.0,86648.0,86731.0,86743.0,86757.0,86781.0,86791.0,86910.0,87005.0,87078.0,0.05372791829773184,-0.16301769086437565,0.052796526433081574,-0.21229746994161064,0.008051917147287781
98,98,87532.87669549929,1606.3053698112628,12.739827004320285,87628.87669549929,-3120.1471082561993,12.739827004320285,87661.57540514288,39850.45680588788,9.694639814853176,87689.52154977359,-5721.970952173061,12.739827004320285,87932.81297991835,9413.532279464103,25.450205429052417,0.9646673636657144,97.0,82.0,203.0,139.0,342.0,15.0,892.0,892.0,16.0,8.0,8.0,0.5,144.13918383364302,1544.7951430012956,15.0,8.0,7.0,0.5333333333333333,468.6059385155699,1113.108675775664,23.0,12.0,11.0,0.5217391304347826,2099.504574820286,36675.83517878153,153.0,8.0,145.0,0.0522875816993464,602.0132446601662,10757.95188760056,64.0,33.0,31.0,0.515625,118.79987494140885,9608.49006841241,0.0,0.0,0.0,0.0,87525.0,87540.0,87622.0,87636.0,87650.0,87673.0,87683.0,87825.0,87900.0,87964.0,0.08973336361975745,-0.15018712972718337,0.05268457987939766,-0.1052108180366656,0.012620116595401097
99,99,88369.77700870651,1906.254446899964,4.56028380588253,88463.027373699,-4192.82694203513,17.8357578060484,88497.9213571409,39736.04224576636,9.7833592217727,88526.54796540085,-6992.327288478111,15.28779240518434,88768.64621481035,8380.629190137814,23.299846525664883,0.9370810045370324,50.0,38.0,273.0,111.0,384.0,12.0,836.0,837.0,12.0,6.0,6.0,0.5,169.00210267345358,1800.0973580845873,64.0,54.0,10.0,0.84375,364.50599406389904,1230.0964076184016,23.0,12.0,11.0,0.5217391304347826,2118.1895366277995,35012.59128759301,173.0,9.0,164.0,0.0520231213872832,486.593118291314,11014.652389607863,64.0,34.0,30.0,0.53125,115.51974021781564,8385.858833243212,0.0,0.0,0.0,0.0,88364.0,88376.0,88414.0,88473.0,88486.0,88509.0,88518.0,88687.0,88735.0,88798.0,0.08865663392853579,-0.08693561625679064,0.053306505049668856,-0.06958957986607942,0.013784136918234893
100,100,89222.038423673,1546.4267969299317,11.22726219421554,89315.45203459915,-3048.317376323921,15.28779240518434,89350.34687105316,41594.10898352168,9.68617553735364,89378.1233030964,-5763.927657363714,12.739827004320285,89620.0083270234,9342.562977887968,26.000360179488084,0.9682253033827178,91.0,79.0,159.0,185.0,344.0,12.0,853.0,852.0,15.0,8.0,7.0,0.5333333333333333,143.2974573386165,1689.5084318942645,33.0,23.0,10.0,0.696969696969697,369.94096134310456,401.080365280008,24.0,12.0,12.0,0.5,2203.288724899807,38408.70148528408,153.0,7.0,146.0,0.0457516339869281,653.9227765078791,12140.190166618073,68.0,35.0,33.0,0.5147058823529411,121.01832450096342,9432.503460279306,0.0,0.0,0.0,0.0,89217.0,89229.0,89308.0,89324.0,89339.0,89362.0,89371.0,89467.0,89586.0,89652.0,0.09266358913535387,-0.12135906983190513,0.05297117257092064,-0.11345089934854735,0.012953439520545944
101,101,90126.027373699,2118.047969193044,12.037197227384524,90221.45203459916,-2784.9263538158357,15.287792405059204,90255.80006344982,41396.106025542045,9.997604239187272,90279.30135639945,-6552.967656240684,10.191861603456228,90526.34468129335,9191.951083080716,25.713872088375407,0.9711000880068512,97.0,79.0,214.0,130.0,344.0,18.0,905.0,905.0,32.0,21.0,11.0,0.65625,147.57716732069147,1831.9147856280424,16.0,7.0,9.0,0.4375,363.4933497503331,176.75100252132347,23.0,12.0,11.0,0.5217391304347826,2187.9892170361777,38080.97673775906,162.0,3.0,159.0,0.0185185185185185,1181.6449251728764,19465.281076736897,67.0,34.0,33.0,0.5074626865671642,124.97447689929152,9355.80798745508,0.0,0.0,0.0,0.0,90118.0,90136.0,90215.0,90230.0,90244.0,90267.0,90277.0,90429.0,90493.0,90559.0,0.0696760269206353,-0.13052170993760165,0.052854952484809904,-0.18032210551925174,0.013596077238631895
102,102,91009.87669549928,1902.911060924084,12.739827004320285,91106.38918748868,-3555.2712217659696,5.9064481187684725,91139.09485492534,41418.0186510631,9.77436716677896,91162.30135639945,-5731.636216187883,10.191861603456228,91408.36553520104,9396.033876740446,26.64104192961913,0.9809481474750196,112.0,82.0,174.0,168.0,342.0,30.0,883.0,883.0,33.0,24.0,9.0,0.7272727272727273,122.69283757012867,1450.211434715147,13.0,7.0,6.0,0.5384615384615384,489.9621911632454,1084.3779858314997,23.0,12.0,11.0,0.5217391304347826,2147.1791471933375,38809.2825175309,152.0,2.0,150.0,0.0131578947368421,1168.2155356203484,18933.255791514708,72.0,37.0,35.0,0.5138888888888888,122.10411712632089,9473.425627604103,0.0,0.0,0.0,0.0,90987.0,91017.0,91099.0,91112.0,91127.0,91150.0,91160.0,91273.0,91373.0,91441.0,0.0644763909830589,-0.13781288700665487,0.05184166739801843,-0.20381885583054846,0.01299528276803954
103,103,91870.79721266568,1214.1997816495038,10.14934040706752,91966.45203459916,-3480.4007596936226,15.28779240518434,92000.96739335408,39588.0589013966,9.633592377264538,92029.12330450068,-6020.549219425175,12.739827004320285,92270.41189940626,9004.583643401887,24.547870529377754,0.9610584308770288,93.0,78.0,219.0,126.0,345.0,15.0,861.0,863.0,31.0,21.0,10.0,0.6774193548387096,122.55992592549951,891.4147849747867,63.0,53.0,10.0,0.8412698412698413,377.3255682392047,490.8094064455295,23.0,12.0,11.0,0.5217391304347826,2127.3417197700996,36547.67874470631,155.0,7.0,148.0,0.0451612903225806,585.5852959429122,11913.998256181088,66.0,34.0,32.0,0.5151515151515151,117.88161195295196,9173.294602045004,0.0,0.0,0.0,0.0,91864.0,91879.0,91957.0,91975.0,91989.0,92012.0,92022.0,92176.0,92236.0,92302.0,0.1009388469490585,-0.10841440233233958,0.05373695449601977,-0.09726443130030955,0.013091289572209123
104,104,93509.37252159492,1631.4133000734005,9.595458978221057,93603.027373699,-3665.771414227213,17.8357578060484,93638.1491315005,41155.29575670429,9.618250979216164,93666.12330450072,-6275.5638283030885,12.739827004320285,93908.34426266956,8501.369830332684,23.150888227638905,0.94815832980868,53.0,39.0,272.0,110.0,382.0,14.0,1638.0,1637.0,16.0,7.0,9.0,0.4375,129.95454667783918,1256.3959022891877,61.0,51.0,10.0,0.8360655737704918,337.60501490439407,935.4837638506888,23.0,12.0,11.0,0.5217391304347826,2224.29722280092,37647.655682631026,170.0,7.0,163.0,0.0411764705882352,654.5705203105218,12508.319394619244,61.0,30.0,31.0,0.4918032786885246,114.84792707891944,8463.725852315638,0.0,0.0,0.0,0.0,93503.0,93517.0,93556.0,93613.0,93627.0,93649.0,93659.0,93828.0,93878.0,93938.0,0.07965764817044968,-0.09209658125275252,0.0540464400000959,-0.10430465504284697,0.013509343714132373
105,105,94372.87669549928,1742.527844637565,10.44431340613474,94465.45203459916,-3274.6524303460196,15.28779240518434,94500.5461279774,41729.103104133326,9.740724825155018,94526.2225178546,-6069.2057128291035,12.739827004320285,94771.35503764666,9064.651621667615,25.04531724701876,0.9682005899093034,94.0,79.0,211.0,134.0,345.0,15.0,864.0,862.0,20.0,12.0,8.0,0.6,123.7842489219639,1654.67161673953,20.0,10.0,10.0,0.5,377.334001101106,1122.9297337079302,23.0,12.0,11.0,0.5217391304347826,2205.47276972525,37443.731536455314,149.0,5.0,144.0,0.0335570469798657,928.2259688762598,16789.155962781686,66.0,33.0,33.0,0.5,118.404385503224,9051.077781851724,0.0,0.0,0.0,0.0,94365.0,94380.0,94459.0,94474.0,94489.0,94512.0,94521.0,94670.0,94738.0,94804.0,0.07103717125835096,-0.11522871789517967,0.052852148876087274,-0.15294027139567426,0.013062210269636514
106,106,95249.45203459916,1710.3717677712866,10.411827397088006,95343.45203459937,-2799.102055368791,15.2877923906814,95379.25643252212,40957.53683828004,9.934104389716268,95402.30135644833,-6722.854859104546,10.191861603456228,95649.30095735272,9504.092639117023,26.467925412592916,0.9734684082448934,94.0,80.0,180.0,164.0,344.0,14.0,877.0,878.0,18.0,7.0,11.0,0.3888888888888889,134.53878577498713,1439.2799471133665,58.0,49.0,9.0,0.8448275862068966,310.3809369131578,528.0491714391849,23.0,12.0,11.0,0.5217391304347826,2166.8550973381916,38664.28165383713,166.0,3.0,163.0,0.0180722891566265,1184.1210460605614,19703.729803474307,68.0,34.0,34.0,0.5,109.2544955773674,9487.07784267586,0.0,0.0,0.0,0.0,95244.0,95258.0,95338.0,95352.0,95367.0,95390.0,95400.0,95518.0,95616.0,95682.0,0.07866055106270782,-0.1108858951097673,0.05290491725354415,-0.17613366209400524,0.011495520900932386
107,107,96114.87669549928,1565.7856438824265,9.658588904933424,96211.87669549928,-3437.8262902996257,12.739827004320285,96244.64404304474,39926.934381278785,9.913946326181856,96269.56243452312,-6389.909694883038,12.739827004320285,96514.17324498732,9391.241836685433,26.40835596653038,0.9673912706911152,93.0,81.0,214.0,129.0,343.0,12.0,865.0,866.0,17.0,9.0,8.0,0.5294117647058824,148.6865330885255,1033.9762329565428,17.0,10.0,7.0,0.5882352941176471,483.3958598248624,1019.7627367943128,23.0,12.0,11.0,0.5217391304347826,2108.173809346323,36208.49650269348,152.0,5.0,147.0,0.0328947368421052,906.4920138635752,16655.562704417083,70.0,36.0,34.0,0.5142857142857142,118.27713622873227,9654.725000581984,0.0,0.0,0.0,0.0,96110.0,96122.0,96203.0,96219.0,96233.0,96256.0,96265.0,96417.0,96482.0,96546.0,0.09495969877450879,-0.14061090322941586,0.05280079329944295,-0.14186303987824475,0.012594408522917698
108,108,97740.01497355931,2161.0008828616415,8.996534980872283,97831.027373699,-3248.6440137076747,17.8357578060484,97867.00408811032,41545.06607925344,9.811521953447569,97892.31903518304,-6306.730639716704,12.739827004320285,98135.3597902744,8985.69525661119,25.855155070077505,0.9681081314733077,63.0,50.0,222.0,150.0,372.0,13.0,1624.0,1623.0,13.0,7.0,6.0,0.5384615384615384,152.84941241317105,2728.1786806019236,53.0,42.0,11.0,0.7924528301886793,317.28885638460287,635.5260793087191,23.0,12.0,11.0,0.5217391304347826,2214.2051447689287,37880.621907920446,130.0,4.0,126.0,0.0307692307692307,982.447217631484,17486.984705039664,64.0,31.0,33.0,0.484375,116.25933051179364,9208.934180223316,0.0,0.0,0.0,0.0,97733.0,97746.0,97796.0,97841.0,97855.0,97878.0,97888.0,98018.0,98104.0,98168.0,0.07073084218770181,-0.09766809014647355,0.053296464628194366,-0.15577757696587075,0.01293826767898191
109,109,98588.61588291884,1442.656722886554,10.530677684085374,98678.60271279886,-3045.8998343557714,20.383723206907906,98716.04080056604,41642.44270968888,10.038092380156703,98739.30135639945,-6908.983277092485,10.191861603456228,98985.09986302524,9195.491598718394,25.51525084855393,0.971127186490918,49.0,36.0,237.0,148.0,385.0,13.0,849.0,848.0,13.0,7.0,6.0,0.5384615384615384,137.94036122984485,1853.0142438753503,64.0,53.0,11.0,0.828125,296.2367338517823,280.0995174155296,23.0,12.0,11.0,0.5217391304347826,2182.8117177097283,38584.4031671114,162.0,3.0,159.0,0.0185185185185185,1213.8588156134392,19879.67173459502,63.0,32.0,31.0,0.5079365079365079,123.32474179589956,9674.63525628197,0.0,0.0,0.0,0.0,98582.0,98595.0,98631.0,98690.0,98704.0,98727.0,98737.0,98868.0,98953.0,99016.0,0.09561551202135288,-0.0972575429140592,0.05241795571233041,-0.17569282873185196,0.01341143542701814
110,110,99443.48384365247,1047.395403786408,2.13746608693344,99533.60271279886,-4188.340420645982,20.383723206912453,99569.54474686952,40184.670608502194,9.734755764076182,99598.54796540084,-6636.492764709956,15.28779240518434,99839.36273151534,8362.597397108944,23.56061452971234,0.95163738786463,41.0,34.0,263.0,126.0,389.0,7.0,854.0,854.0,7.0,3.0,4.0,0.4285714285714285,144.00809683205037,806.1899972721917,66.0,55.0,11.0,0.8333333333333334,316.0334192347634,996.977609831812,23.0,12.0,11.0,0.5217391304347826,2124.636742212203,35876.21839811742,163.0,9.0,154.0,0.0552147239263803,488.6855066538649,9891.146858151922,65.0,34.0,31.0,0.5230769230769231,120.76931609676429,8264.738497065688,0.0,0.0,0.0,0.0,99440.0,99447.0,99481.0,99545.0,99558.0,99581.0,99590.0,99744.0,99806.0,99870.0,0.1374916257140818,-0.07545552354744377,0.0528718217678429,-0.07363610930949649,0.014441603530802018
111,111,100266.60610840654,1779.5846273320485,10.583449485224268,100363.45203459916,-3683.992097588487,15.28779240518434,100397.28633398729,39004.76273480287,9.809323911226604,100425.12330450072,-6954.765990900767,12.739827004320285,100666.69012747824,8429.606625159844,23.818918606789108,0.951888696233422,106.0,79.0,218.0,124.0,342.0,27.0,825.0,828.0,29.0,19.0,10.0,0.6551724137931034,135.97934707575334,1289.1926324919602,19.0,10.0,9.0,0.5263157894736842,406.84515190439,700.361813709322,24.0,12.0,12.0,0.5,2092.7561393813257,35876.092161257315,163.0,7.0,156.0,0.0429447852760736,640.7755085450324,13243.510989861232,62.0,32.0,30.0,0.5161290322580645,103.6035192136782,8506.676437301408,0.0,0.0,0.0,0.0,100249.0,100276.0,100355.0,100372.0,100386.0,100409.0,100418.0,100573.0,100635.0,100697.0,0.07641072247270052,-0.11043594587803478,0.053653861545323984,-0.09213473312881955,0.012290433447327519
112,112,101084.74157951868,2528.7373010790407,12.711785694412496,101175.45203459916,-2430.139891379069,15.287792405071809,101211.15704465754,41488.3100911863,9.79657885609532,101235.87669549928,-5450.386753934013,12.739827004320285,101480.08674937036,9164.242318867397,26.324461373052085,0.9758761100588712,94.0,78.0,154.0,190.0,344.0,16.0,814.0,814.0,19.0,11.0,8.0,0.5789473684210527,157.13731820102774,2864.511944012516,36.0,26.0,10.0,0.7222222222222222,318.4721604735005,25.31002989592662,23.0,12.0,11.0,0.5217391304347826,2191.886566354165,37876.554004924095,156.0,4.0,152.0,0.0256410256410256,973.2823763195936,16403.553361717262,68.0,34.0,34.0,0.5,122.0969677189414,9229.772347569608,0.0,0.0,0.0,0.0,101075.0,101091.0,101169.0,101184.0,101199.0,101222.0,101233.0,101323.0,101446.0,101513.0,0.06214062573205033,-0.13105095784949736,0.05283142556389168,-0.17857125012589098,0.013323192847876517
113,113,101939.64894486636,2444.062187048096,14.28500791791925,102035.30135640218,-2965.191951925,5.748615778941535,102067.93591714998,42157.8368533343,9.665146410211449,102091.30135639945,-5435.581939879128,10.191861603456228,102337.41106315816,9391.729406561592,27.17319260116793,0.9829752600801408,99.0,81.0,82.0,259.0,341.0,18.0,858.0,856.0,29.0,21.0,8.0,0.7241379310344828,156.23770875840955,2918.8957744155155,13.0,7.0,6.0,0.5384615384615384,448.4335584017396,1887.066416008735,23.0,12.0,11.0,0.5217391304347826,2211.8001384878016,39302.247902414165,146.0,3.0,143.0,0.0205479452054794,1184.0427161362866,19082.199503835076,71.0,36.0,35.0,0.5070422535211268,101.6233438962592,9311.596564665828,0.0,0.0,0.0,0.0,101930.0,101948.0,102029.0,102041.0,102056.0,102079.0,102089.0,102111.0,102302.0,102370.0,0.06392542284167951,-0.15123255616238165,0.05246474448351276,-0.21783182173178983,0.010820514465127095
114,114,102798.027373699,2376.1968519849192,16.888040994486694,102893.95739159473,-2468.1294801369863,5.07748305300357,102926.28462199507,41509.399037407726,9.73147133047501,102950.30135639945,-4745.997169821912,10.191861603456228,103194.84893409572,9792.094467327512,28.569226143032804,0.9875023363379536,114.0,79.0,154.0,187.0,341.0,35.0,860.0,859.0,36.0,25.0,11.0,0.6944444444444444,124.57294052448842,2015.0372805014267,12.0,7.0,5.0,0.5833333333333334,461.76543440430186,2758.1928865111795,24.0,12.0,12.0,0.5,2159.6236085368846,39524.48159284163,107.0,3.0,104.0,0.02803738317757,1084.378157324804,17480.000412433714,70.0,36.0,34.0,0.5142857142857142,125.39673089478666,10205.882001995536,0.0,0.0,0.0,0.0,102773.0,102808.0,102887.0,102899.0,102914.0,102938.0,102948.0,103041.0,103159.0,103228.0,0.052425345324579625,-0.1870912519462605,0.0520273397981662,-0.22848268098851268,0.012805915150552087
115,115,103629.6351830856,1530.7489002844277,6.520140927761435,103722.027373699,-3880.090751367592,17.8357578060484,103757.18159943476,38982.0322526408,9.769106419310557,103785.12330450072,-6326.12422760942,12.739827004320285,104026.95818368004,8559.655837907001,23.949040649682892,0.9567250875732024,53.0,40.0,257.0,124.0,381.0,13.0,829.0,831.0,13.0,7.0,6.0,0.5384615384615384,142.4429925154837,1865.2003444239533,59.0,49.0,10.0,0.8305084745762712,331.70840776445095,878.6092512618186,24.0,12.0,12.0,0.5,2079.6466869806604,35700.31330415141,160.0,7.0,153.0,0.04375,613.3246459476748,12324.894854140904,64.0,33.0,31.0,0.515625,97.12318218908968,8004.9033383679,0.0,0.0,0.0,0.0,103623.0,103636.0,103676.0,103732.0,103746.0,103768.0,103778.0,103933.0,103996.0,104057.0,0.09305444706771727,-0.0854898581038435,0.05334885245342171,-0.0969510910441675,0.011346622344203753
116,116,104439.03787512273,1739.0525745854225,8.734767783936752,104530.45203459916,-3756.88797464121,15.28779240518434,104563.92295265704,38686.10200838989,9.741877271267008,104592.12330450072,-6148.119429646611,12.739827004320285,104833.52268658324,8548.48434474234,24.416317169105184,0.9590560707328492,78.0,66.0,225.0,130.0,355.0,12.0,809.0,807.0,12.0,8.0,4.0,0.6666666666666666,172.3547198740759,2458.657146684658,34.0,25.0,9.0,0.7352941176470589,399.2032734672654,447.7158711168204,23.0,12.0,11.0,0.5217391304347826,2083.2656715357307,35219.680751093474,152.0,7.0,145.0,0.0460526315789473,597.3631098910049,11926.370888321464,63.0,32.0,31.0,0.5079365079365079,119.37329723953358,8612.905355585783,0.0,0.0,0.0,0.0,104431.0,104443.0,104509.0,104539.0,104552.0,104575.0,104585.0,104734.0,104802.0,104864.0,0.09910840097238809,-0.10625903038947816,0.05385049315860075,-0.0971619235323379,0.013964264590711092
117,117,105275.6724007054,1743.059343213773,4.083311066963351,105367.45203459916,-3727.47823372397,15.28779240518434,105401.847888274,41102.75596120016,9.641051354399064,105429.12330450072,-6312.985511045577,12.739827004320285,105671.47750602658,8575.577838089195,24.158934757079862,0.9593697364047332,70.0,59.0,235.0,128.0,363.0,11.0,837.0,838.0,11.0,6.0,5.0,0.5454545454545454,158.47265610472877,1739.8727787127364,37.0,28.0,9.0,0.7567567567567568,352.49634370162954,725.1630600295009,23.0,12.0,11.0,0.5217391304347826,2216.8965821994975,37592.0779363754,155.0,7.0,148.0,0.0451612903225806,708.0348523312986,13649.157564919586,66.0,34.0,32.0,0.5151515151515151,114.87397254805174,8590.40106637307,0.0,0.0,0.0,0.0,105270.0,105281.0,105340.0,105376.0,105390.0,105413.0,105422.0,105575.0,105638.0,105703.0,0.09091638602076746,-0.09456697574044985,0.05393547294717136,-0.11215531084183203,0.013395478965607277
118,118,106155.87669549928,2265.8581691947606,12.739827004320285,106248.50744175226,-3170.20633682782,7.029610374534661,106282.42847891182,41074.69521442343,9.74836685704669,106306.30135639945,-5518.621330498256,10.191861603456228,106551.60183223926,9588.828024607174,27.927127347105564,0.981352147770834,95.0,78.0,190.0,157.0,347.0,17.0,882.0,880.0,17.0,10.0,7.0,0.5882352941176471,154.90945176425748,2247.7801952259524,15.0,8.0,7.0,0.5333333333333333,435.0702709455896,952.841829962339,24.0,12.0,12.0,0.5,2155.6809945063487,38867.37774407257,148.0,2.0,146.0,0.0135135135135135,1094.5644940585416,18407.257869897636,74.0,38.0,36.0,0.5135135135135135,83.2500902588412,9370.247181846524,0.0,0.0,0.0,0.0,106146.0,106163.0,106241.0,106256.0,106270.0,106294.0,106304.0,106431.0,106514.0,106588.0,0.06836679094495536,-0.13723720941802506,0.05248197176517036,-0.1983402064587239,0.008681988043293926
119,119,107028.30135639945,1345.3369970731758,6.944072165117584,107122.027373699,-3936.069310701221,17.8357578060484,107156.8739102754,39530.416103351155,9.688715785626748,107185.12330450072,-6549.752215044361,12.739827004320285,107427.55236077998,8587.613877907945,23.6374967215885,0.9537516491783086,98.0,78.0,214.0,132.0,346.0,20.0,872.0,875.0,22.0,15.0,7.0,0.6818181818181818,119.08242387863828,830.510766636964,60.0,49.0,11.0,0.8166666666666667,380.9351007959194,1053.5589014905695,23.0,12.0,11.0,0.5217391304347826,2134.721548714368,35971.38826343039,162.0,7.0,155.0,0.0432098765432098,609.7971004690306,12118.855559968051,64.0,34.0,30.0,0.53125,116.43971567182716,8483.042823286352,0.0,0.0,0.0,0.0,107014.0,107034.0,107112.0,107132.0,107145.0,107168.0,107178.0,107326.0,107394.0,107458.0,0.08851494022516734,-0.09678058761827414,0.054002000462964994,-0.09310231600340022,0.013559030171509457
120,120,107846.77667043738,1261.2538839326828,3.3195515448473585,107940.45203459916,-4363.45596064346,15.28779240518434,107973.9633299059,38963.414636173875,9.713348697833151,108002.54796540084,-7029.483152896552,15.28779240518434,108243.71921088362,7963.374438046665,22.36162843688202,0.9373405847397704,48.0,39.0,273.0,109.0,382.0,9.0,818.0,817.0,9.0,4.0,5.0,0.4444444444444444,145.35953385904756,1339.9082884389832,63.0,54.0,9.0,0.8571428571428571,412.0247466818456,671.8874027083191,23.0,12.0,11.0,0.5217391304347826,2129.4021160219327,34845.9778722183,172.0,9.0,163.0,0.0523255813953488,491.1259426814401,10563.365036937772,60.0,31.0,29.0,0.5166666666666667,102.3183755418356,7738.669878678171,0.0,0.0,0.0,0.0,107843.0,107852.0,107891.0,107949.0,107963.0,107985.0,107994.0,108164.0,108214.0,108273.0,0.1152500188192133,-0.09442624158422494,0.05465132191070807,-0.06986657937704395,0.012848620435702287
121,121,108676.04429559207,1843.8782340119024,12.671012699501253,108768.45203459916,-2791.291641122703,15.28779240518434,108803.42882607706,41661.645263324936,9.62064043367987,108829.6859185972,-5884.048640444449,12.739827004320285,109073.40204893229,8921.921792222814,24.627477477838873,0.967735765590764,93.0,79.0,221.0,121.0,342.0,14.0,829.0,829.0,14.0,6.0,8.0,0.4285714285714285,142.1398958275398,1818.7271724842344,17.0,7.0,10.0,0.4117647058823529,352.6586852653306,459.972952032153,24.0,12.0,12.0,0.5,2219.356302063615,38111.96736445362,160.0,6.0,154.0,0.0375,772.1077799125542,14144.14184959478,64.0,32.0,32.0,0.5,108.92509742933046,8770.144152202036,0.0,0.0,0.0,0.0,108670.0,108684.0,108763.0,108777.0,108792.0,108814.0,108824.0,108984.0,109043.0,109105.0,0.07708746337239006,-0.12634247173236457,0.053270971130305586,-0.13122049580035988,0.012208703457172178
122,122,109532.87669549928,1790.5157107333794,12.39190972619156,109623.45203459916,-2507.85390977362,15.287792405176436,109659.5258634346,41441.25202431311,9.842111293335783,109683.30135639945,-5433.313379367265,10.191861603456228,109928.90865532609,9196.234870257373,26.554123021699723,0.9809641062132832,93.0,76.0,217.0,129.0,346.0,17.0,858.0,856.0,19.0,11.0,8.0,0.5789473684210527,133.17645477461411,1975.9327622911528,38.0,28.0,10.0,0.7368421052631579,294.4619863194765,363.0522957641152,23.0,12.0,11.0,0.5217391304347826,2194.0804313516155,38438.066319498,153.0,2.0,151.0,0.0130718954248366,1106.2302678135418,18516.663632066273,69.0,36.0,33.0,0.5217391304347826,96.2097772443265,9330.255284821247,0.0,0.0,0.0,0.0,109523.0,109540.0,109616.0,109632.0,109648.0,109671.0,109681.0,109833.0,109893.0,109962.0,0.07437882503698681,-0.11741592489574368,0.052944356750234615,-0.20360141051579975,0.010461866035576134
123,123,110383.85865993686,1381.722736236564,8.19270389178301,110475.027373699,-2809.834028360426,17.8357578060484,110511.07917915664,40493.54296943508,9.834822154780433,110536.29624169886,-5834.2630741882485,12.739827004320285,110779.7314557948,8921.185293352832,25.853193318044976,0.9737682444581724,90.0,76.0,176.0,169.0,345.0,14.0,849.0,852.0,14.0,7.0,7.0,0.5,123.94785325446486,1671.622691318578,62.0,51.0,11.0,0.8225806451612904,310.3904358100015,16.98204535747243,23.0,12.0,11.0,0.5217391304347826,2129.309702279362,37076.8679217415,111.0,4.0,107.0,0.036036036036036,953.1310100598702,16933.416728098415,67.0,35.0,32.0,0.5223880597014925,95.72058787592437,9101.78785952942,0.0,0.0,0.0,0.0,110377.0,110391.0,110467.0,110485.0,110499.0,110522.0,110532.0,110643.0,110745.0,110812.0,0.08970530049470346,-0.11046575444568812,0.05258393181072315,-0.16336784919361633,0.010729581858057101
124,124,112013.87669549928,1542.9771242972238,10.874608389058569,112106.027373699,-3137.5713521496573,17.8357578060484,112142.11511746576,40984.41677061967,9.975475262584032,112165.30135639945,-7182.873704207401,10.191861603456228,112411.2033752247,8793.739570846114,25.218022776572234,0.9653319040615151,90.0,77.0,213.0,131.0,344.0,13.0,1632.0,1631.0,13.0,6.0,7.0,0.4615384615384615,120.91034808469286,1450.4118862214425,62.0,52.0,10.0,0.8387096774193549,323.0529377627114,371.9847009228247,23.0,12.0,11.0,0.5217391304347826,2192.78181692527,37884.672357212505,151.0,3.0,148.0,0.0198675496688741,1179.4126776056394,19915.038589571617,66.0,34.0,32.0,0.5151515151515151,121.44741778301348,8878.927518693528,0.0,0.0,0.0,0.0,112008.0,112021.0,112098.0,112116.0,112130.0,112153.0,112163.0,112311.0,112377.0,112442.0,0.0783617243449177,-0.10296273821514108,0.053502818624887705,-0.16419788599579485,0.01381066801041597
125,125,112865.027373699,2438.8844868943406,15.18336763277052,112959.95688337684,-2660.3837980030385,5.7417507406042585,112993.21225536431,42143.73503883492,9.686619031082586,113016.87669549928,-4575.045964983159,12.739827004320285,113261.76938876156,9888.539908591356,28.751606695551573,0.9868603108214652,110.0,78.0,178.0,165.0,343.0,32.0,852.0,850.0,33.0,22.0,11.0,0.6666666666666666,130.6936778174775,2365.024064586122,13.0,7.0,6.0,0.5384615384615384,427.51077417192937,1980.25949549273,23.0,12.0,11.0,0.5217391304347826,2169.1163914331705,39342.10933032588,118.0,3.0,115.0,0.0254237288135593,1081.233909267691,17606.46087491468,72.0,38.0,34.0,0.5277777777777778,136.67274758456134,10132.8595930317,0.0,0.0,0.0,0.0,112843.0,112875.0,112953.0,112966.0,112981.0,113004.0,113014.0,113131.0,113227.0,113296.0,0.05358748170312156,-0.16069515026096287,0.05146948625778795,-0.23633290627970138,0.013821327399995361
126,126,113714.87669549928,1242.8851716968263,12.580246346080768,113808.45203459916,-3212.775264973585,15.28779240518434,113842.28838231308,39092.86741333764,9.735805496537555,113871.12330450072,-5865.359482550371,12.739827004320285,114111.54564391232,8288.420025206859,24.03156425270685,0.9612913959420816,70.0,55.0,235.0,129.0,364.0,15.0,849.0,850.0,16.0,8.0,8.0,0.5,132.05602755805828,1262.4680151782677,56.0,47.0,9.0,0.8392857142857143,360.01160060390487,43.51917951126711,24.0,12.0,12.0,0.5,2067.763754165973,36168.50548089912,156.0,7.0,149.0,0.0448717948717948,544.7253070253735,10771.844183812673,63.0,33.0,30.0,0.5238095238095238,124.70550662236684,8359.690772462052,0.0,0.0,0.0,0.0,113707.0,113722.0,113777.0,113817.0,113831.0,113854.0,113864.0,114012.0,114079.0,114141.0,0.1062495800619869,-0.11205626628442834,0.05289363229110425,-0.09287159783572489,0.015045751330544388
127,127,114511.59668115168,1201.853713722129,4.655275326785187,114605.027373699,-4140.002599757071,17.8357578060484,114639.75218235196,39380.221911130975,9.74302627060104,114668.54796540084,-6524.7577167730615,15.28779240518434,114909.35485799811,8221.440812865976,23.528784888421963,0.9446047721800568,46.0,35.0,272.0,114.0,386.0,11.0,796.0,798.0,11.0,6.0,5.0,0.5454545454545454,109.01088307906244,985.7561002005268,63.0,53.0,10.0,0.8412698412698413,376.8734718764311,1136.0900559387296,23.0,12.0,11.0,0.5217391304347826,2106.0131217562603,34972.07044740788,166.0,9.0,157.0,0.0542168674698795,500.65527347308705,9947.819820739249,62.0,31.0,31.0,0.5,127.20334479657836,8029.3296308477875,0.0,0.0,0.0,0.0,114506.0,114517.0,114552.0,114615.0,114628.0,114651.0,114660.0,114824.0,114879.0,114938.0,0.09070228916750343,-0.091032182419051,0.05347895515949308,-0.07673162670639291,0.015472147485087295
128,128,115338.23221781453,1935.5109180811971,10.480385808329766,115429.87669549928,-3142.106460396347,12.73982700289727,115463.79888451243,40630.052307334416,9.850964378102166,115487.30135639945,-6742.28407355249,10.191861603456225,115733.40671726516,8699.082901828482,25.12823877153536,0.9664979275231,56.0,41.0,254.0,126.0,380.0,15.0,826.0,823.0,16.0,9.0,7.0,0.5625,150.006619458629,2330.143375246471,54.0,46.0,8.0,0.8518518518518519,402.95314863798234,753.5790396187087,23.0,12.0,11.0,0.5217391304347826,2183.432138301157,37534.065000104325,166.0,3.0,163.0,0.0180722891566265,1152.80950697896,19683.92053932945,68.0,35.0,33.0,0.5147058823529411,100.33370266947196,8656.324605827915,0.0,0.0,0.0,0.0,115329.0,115344.0,115385.0,115437.0,115452.0,115475.0,115485.0,115639.0,115698.0,115765.0,0.07750233700946554,-0.12824299676566453,0.053739338600531664,-0.170982043236803,0.011533825324090493
129,129,116189.87669549928,1621.2668983873623,9.771581329228743,116284.45203459916,-3316.9080267814206,15.28779240518434,116318.37098809444,40841.7969007485,9.80469142882549,116343.38570323928,-6237.700910743691,12.739827004320285,116588.50527878084,8774.702284422567,24.82284578680113,0.9658731295762932,88.0,74.0,212.0,136.0,348.0,14.0,853.0,855.0,16.0,8.0,8.0,0.5,129.31507626945086,1562.545500071836,30.0,21.0,9.0,0.7,402.01210570893255,144.19942762249207,22.0,11.0,11.0,0.5,2170.0747474365576,38185.40164251648,148.0,4.0,144.0,0.027027027027027,1017.9719459993032,17847.652273428543,63.0,32.0,31.0,0.5079365079365079,112.0122864037315,8857.381061226974,0.0,0.0,0.0,0.0,116183.0,116197.0,116271.0,116293.0,116307.0,116329.0,116339.0,116483.0,116557.0,116619.0,0.07976174459496932,-0.12120086009711495,0.053133674620393284,-0.1631966586031672,0.012765366023025434
130,130,117043.70427176951,2250.4782394789177,14.327488576062551,117137.45203459916,-2845.2344201748024,15.28779240518434,117171.6177974517,39792.327184470545,9.919729280951804,117195.92533287853,-6201.07254423501,10.191861603456228,117441.43515109977,9022.371920319272,26.547939753046524,0.9715827336340738,110.0,79.0,214.0,129.0,343.0,31.0,853.0,853.0,32.0,23.0,9.0,0.71875,129.5827126393835,2176.6845053045063,15.0,6.0,9.0,0.4,380.68622918652727,224.94797620833197,23.0,12.0,11.0,0.5217391304347826,2115.30381248186,36763.96274416636,152.0,3.0,149.0,0.0197368421052631,1023.8493282519636,17898.670669413852,71.0,37.0,34.0,0.5211267605633803,110.28728025664972,9044.43852383212,0.0,0.0,0.0,0.0,117021.0,117052.0,117131.0,117146.0,117160.0,117183.0,117193.0,117345.0,117405.0,117474.0,0.05758007803238633,-0.13379784332959782,0.05315858513817669,-0.16510842615505472,0.0122237568159069
131,131,117865.33407579485,2079.318936260871,10.68194044632717,117957.45203459916,-3305.8268642040093,15.28779240518434,117991.25094349222,38183.71090612033,9.77707190074038,118018.69864360055,-6396.679728615847,10.191861603456228,118261.1336710258,8814.9276045748,25.026950372962055,0.9614699148914811,92.0,77.0,216.0,127.0,343.0,15.0,820.0,821.0,15.0,8.0,7.0,0.5333333333333333,139.0745795866864,2413.680318366373,23.0,14.0,9.0,0.6086956521739131,373.08816100119986,428.1664235179291,24.0,12.0,12.0,0.5,2044.867456982152,35478.267498426554,153.0,6.0,147.0,0.0392156862745098,628.7484854058226,12663.202931198826,63.0,32.0,31.0,0.5079365079365079,109.08517957023226,9012.252050401312,0.0,0.0,0.0,0.0,117857.0,117872.0,117949.0,117966.0,117980.0,118003.0,118013.0,118165.0,118229.0,118292.0,0.06688467899819969,-0.11285774371339728,0.05355339773050679,-0.09829294447759933,0.012375051102361735
132,132,118676.57765781422,2056.4276890282285,9.41390903143198,118766.45203459916,-3163.206099983813,15.28779240518434,118800.43862949088,39480.915570187026,9.667268129070008,118827.7903050833,-6001.647015693653,12.739827004320285,119069.33085591478,8647.137927402688,24.92050900406098,0.9659456174506572,91.0,75.0,196.0,148.0,344.0,16.0,809.0,809.0,17.0,11.0,6.0,0.6470588235294118,162.2920733250376,2215.5276332263425,59.0,49.0,10.0,0.8305084745762712,350.6766548050535,143.2393730334927,24.0,12.0,12.0,0.5,2115.692404716892,36440.91929293374,146.0,7.0,139.0,0.047945205479452,657.5369553988396,12583.14104962753,65.0,33.0,32.0,0.5076923076923077,105.17124831003431,8651.58108091884,0.0,0.0,0.0,0.0,118666.0,118682.0,118757.0,118775.0,118789.0,118812.0,118822.0,118953.0,119038.0,119101.0,0.07891941651579747,-0.11086114648262975,0.0535877239461615,-0.10955941821960741,0.01216255010536466
133,133,119539.76359957184,1820.5355933111707,12.739827004320226,119631.45203459916,-3075.4251988297915,15.28779240338202,119665.68272848932,40994.52294207525,9.913049393507832,119689.30135639945,-6631.031256117806,10.191861603456228,119935.8050406553,8820.45883180986,25.502109805181725,0.9699721273702532,90.0,76.0,214.0,132.0,346.0,14.0,867.0,865.0,14.0,8.0,6.0,0.5714285714285714,150.72776444005916,2246.6806605964384,19.0,10.0,9.0,0.5263157894736842,379.9028639976535,185.43589796348024,23.0,12.0,11.0,0.5217391304347826,2193.563116694456,37483.282865020534,162.0,3.0,159.0,0.0185185185185185,1128.0625966231678,19506.544737399498,67.0,35.0,32.0,0.5223880597014925,106.83631097725498,9029.131909417942,0.0,0.0,0.0,0.0,119532.0,119546.0,119622.0,119640.0,119654.0,119677.0,119687.0,119836.0,119902.0,119968.0,0.08279308847014472,-0.12352856578732843,0.053508687484763104,-0.17011872709579137,0.012112330323674711
134,134,120433.45203459916,1574.5020550140352,11.659458499107863,120527.45203459916,-3009.7120914219076,15.28779240518434,120562.84088897516,40886.39632959172,9.975235340228949,120585.30135639945,-6225.984119056211,10.191861603456228,120832.98621801547,9009.810625849595,26.28903285134811,0.9746190796693438,91.0,75.0,215.0,134.0,349.0,16.0,895.0,896.0,32.0,22.0,10.0,0.6875,116.09870616102596,1303.8010563270225,29.0,19.0,10.0,0.6551724137931034,333.98188353432306,344.6614716806404,23.0,12.0,11.0,0.5217391304347826,2157.8049579469516,37842.12748356115,166.0,2.0,164.0,0.0120481927710843,1215.290275490272,19444.144105484167,71.0,37.0,34.0,0.5211267605633803,103.27048722350342,9122.792098527643,0.0,0.0,0.0,0.0,120426.0,120442.0,120517.0,120536.0,120551.0,120574.0,120583.0,120732.0,120798.0,120866.0,0.07373677652011133,-0.11096805056078861,0.05277562102936497,-0.19519649460244629,0.011462004198758102
