Unnamed: 0,cycle,p_center,p_height,p_width,q_center,q_height,q_width,r_center,r_height,r_width,s_center,s_height,s_width,t_center,t_height,t_width,r_squared,pr_interval,pr_segment,qrs_duration,st_segment,qt_interval,p_duration,pp_interval,rr_interval,fwhm_p,rise_time_p,decay_time_p,rise_decay_symmetry_p,sharpness_deriv_p,sharpness_diff_p,fwhm_q,rise_time_q,decay_time_q,rise_decay_symmetry_q,sharpness_deriv_q,sharpness_diff_q,fwhm_r,rise_time_r,decay_time_r,rise_decay_symmetry_r,sharpness_deriv_r,sharpness_diff_r,fwhm_s,rise_time_s,decay_time_s,rise_decay_symmetry_s,sharpness_deriv_s,sharpness_diff_s,fwhm_t,rise_time_t,decay_time_t,rise_decay_symmetry_t,sharpness_deriv_t,sharpness_diff_t,Average_Heart_Rate,SDNN,RMSSD,NN50,p_on,p_off,q_on,q_off,r_on,r_off,s_on,s_off,t_on,t_off,sharpness_deriv_p_norm,sharpness_deriv_q_norm,sharpness_deriv_r_norm,sharpness_deriv_s_norm,sharpness_deriv_t_norm
0,0,0.0,0.0,0.0,0.0,0.0,0.0,0.0,0.0,0.0,0.0,0.0,0.0,0.0,0.0,0.0,0.0,0.0,0.0,0.0,0.0,0.0,0.0,0.0,0.0,0.0,0.0,0.0,0.0,0.0,0.0,0.0,0.0,0.0,0.0,0.0,0.0,0.0,0.0,0.0,0.0,0.0,0.0,0.0,0.0,0.0,0.0,0.0,0.0,0.0,0.0,0.0,0.0,0.0,0.0,65.35304455720761,636.2545547867592,1011.5613137567892,258.0,,,,,,,,,,,,,,,
1,1,1794.671269901584,3395.4580041060076,28.027619409504595,1929.452034599136,-2511.207942414592,15.287792405183556,1964.698643600576,9264.359624342707,10.191861603456228,1990.12330450072,-8464.636156319384,9.645643257313992,2219.287546694672,6845.978074509215,55.11407496293524,0.8555186789963485,138.0,73.0,87.0,268.0,355.0,65.0,,,67.0,18.0,49.0,0.2686567164179104,172.86642802598678,4024.992077804892,62.0,52.0,10.0,0.8387096774193549,252.2464670673643,304.6236089353856,18.0,7.0,11.0,0.3888888888888889,746.4292426265799,7018.812156450264,21.0,7.0,14.0,0.3333333333333333,677.3006876157192,12543.174911217306,132.0,78.0,54.0,0.5909090909090909,105.02636395059967,7284.316833242879,0.0,0.0,0.0,0.0,1779.0,1844.0,1917.0,1938.0,1959.0,1976.0,1983.0,2004.0,2146.0,2272.0,0.05091107821594185,-0.10044825950368043,0.08056997708349842,-0.08001533380853842,0.01534132344677849
2,2,0.0,0.0,0.0,0.0,0.0,0.0,0.0,0.0,0.0,0.0,0.0,0.0,0.0,0.0,0.0,0.0,0.0,0.0,0.0,0.0,0.0,0.0,0.0,0.0,0.0,0.0,0.0,0.0,0.0,0.0,0.0,0.0,0.0,0.0,0.0,0.0,0.0,0.0,0.0,0.0,0.0,0.0,0.0,0.0,0.0,0.0,0.0,0.0,0.0,0.0,0.0,0.0,0.0,0.0,0.0,0.0,0.0,0.0,,,,,,,,,,,,,,,
3,3,3559.8219481012957,2663.676343894707,22.93168860770964,3691.027373698993,-3680.192772484263,17.835757805946294,3732.301356399425,8888.876839277831,9.172808619455523,3758.904069198272,-8571.652504781907,13.116521444859814,3977.5889030940975,6738.690887173139,50.41948814737261,0.8645757190793828,102.0,78.0,127.0,260.0,387.0,24.0,1766.0,1771.0,77.0,29.0,48.0,0.3766233766233766,271.16764758746933,2385.7298105119853,54.0,43.0,11.0,0.7962962962962963,262.74076454567466,3457.1448982007955,18.0,11.0,7.0,0.6111111111111112,863.6143240500576,4246.798025557435,31.0,13.0,18.0,0.4193548387096774,372.34390955668016,9247.31343162409,128.0,68.0,60.0,0.53125,108.68760653384705,6716.515453154358,0.0,0.0,0.0,0.0,3547.0,3571.0,3649.0,3701.0,3721.0,3738.0,3746.0,3776.0,3915.0,4036.0,0.10180202568866917,-0.07139320703798763,0.09715674315949023,-0.043438987913819296,0.016128890366633387
4,4,4458.35864726623,2811.317236175672,20.183907021948084,4579.876695499281,-4351.0461562835035,12.739827004320285,4612.698643600575,8009.991254047473,7.578085592842512,4638.972626301007,-9438.001568574453,9.924916442650591,4881.383477496401,5082.031810607286,34.106258660034115,0.7426635326217692,127.0,83.0,91.0,265.0,356.0,44.0,908.0,877.0,65.0,32.0,33.0,0.4923076923076923,148.4673817025755,2315.643358610789,56.0,49.0,7.0,0.875,277.13661909040724,3590.080603692497,16.0,7.0,9.0,0.4375,728.4817318071962,5748.45293524929,24.0,11.0,13.0,0.4583333333333333,592.2265717480171,10977.341970583684,106.0,63.0,43.0,0.5943396226415094,147.93459355651072,4246.0097270951765,0.0,0.0,0.0,0.0,4434.0,4478.0,4561.0,4587.0,4607.0,4622.0,4629.0,4652.0,4819.0,4917.0,0.05281061126510952,-0.0636942494140597,0.09094663261200094,-0.06274914953605681,0.029109340332687333
5,5,0.0,0.0,0.0,0.0,0.0,0.0,0.0,0.0,0.0,0.0,0.0,0.0,0.0,0.0,0.0,0.0,0.0,0.0,0.0,0.0,0.0,0.0,0.0,0.0,0.0,0.0,0.0,0.0,0.0,0.0,0.0,0.0,0.0,0.0,0.0,0.0,0.0,0.0,0.0,0.0,0.0,0.0,0.0,0.0,0.0,0.0,0.0,0.0,0.0,0.0,0.0,0.0,0.0,0.0,0.0,0.0,0.0,0.0,,,,,,,,,,,,,,,
6,6,7918.273982700431,4690.66305167328,7.64389620259217,8053.849321800287,-1531.682493623143,3.4415138319612955,8094.876695499281,8134.187644973852,6.517633139115464,8124.726017299569,-3805.051129001627,6.9567885108004734,8341.697889863726,5720.908669276572,50.87589297959381,0.6527847232734831,137.0,117.0,78.0,272.0,350.0,20.0,3453.0,3486.0,20.0,4.0,16.0,0.2,538.7356287943782,4113.299487525886,10.0,4.0,6.0,0.4,535.1861273203979,1321.6661845592969,19.0,10.0,9.0,0.5263157894736842,775.3314420795789,6832.155615654113,7.0,3.0,4.0,0.4285714285714285,687.8729567649651,4050.9546137708858,130.0,67.0,63.0,0.5153846153846153,226.42701957342425,5558.07653604446,0.0,0.0,0.0,0.0,7914.0,7934.0,8051.0,8060.0,8086.0,8102.0,8122.0,8129.0,8307.0,8401.0,0.11485276662586055,-0.3494106184202923,0.09531762431847259,-0.1807788997950863,0.03957885585369023
7,7,8796.150678199714,1244.431222099861,5.095930801726929,8921.452034599139,-5260.548722720881,15.28779240518434,8962.69329309792,11574.608489725932,8.182111044789387,8982.547965400861,-11352.715135686009,15.28779240518434,9221.630086497842,4015.051508240617,25.14058409794636,0.6473466853606651,63.0,58.0,148.0,247.0,395.0,5.0,880.0,866.0,5.0,2.0,3.0,0.4,306.6373208635071,1441.3211454417913,75.0,65.0,10.0,0.8666666666666667,330.1573062542332,3379.450480722861,16.0,12.0,4.0,0.75,945.39214923504,3547.1482969524473,34.0,10.0,24.0,0.2941176470588235,619.2667037902543,14690.927002087905,72.0,40.0,32.0,0.5555555555555556,216.01814583770357,3750.7189530075098,0.0,0.0,0.0,0.0,8794.0,8799.0,8857.0,8930.0,8951.0,8967.0,8974.0,9005.0,9213.0,9252.0,0.24640760808466808,-0.06276100149557554,0.08167811032867389,-0.05454789417235157,0.05380208582488698
8,8,9613.123304500716,1845.2180146474016,10.6434851465809,9739.780764697554,-4157.848746570747,32.86983295384998,9792.992921978728,13343.8523039315,10.41881504128811,9817.94252537348,-9724.560383926186,16.923379995009004,10054.082121096975,5190.623580291963,30.4661197607707,0.7993082891255118,94.0,69.0,140.0,244.0,384.0,25.0,814.0,832.0,26.0,8.0,18.0,0.3076923076923077,234.03186165290043,2131.5696537767126,70.0,43.0,27.0,0.6142857142857143,190.5764058990032,3905.065004120479,18.0,11.0,7.0,0.6111111111111112,909.3639693527224,5331.169593725508,34.0,11.0,23.0,0.3235294117647059,526.9491854805357,12467.742193894084,83.0,52.0,31.0,0.6265060240963856,258.317800226428,5607.684909185169,0.0,0.0,0.0,0.0,9606.0,9631.0,9700.0,9764.0,9782.0,9800.0,9808.0,9840.0,10011.0,10084.0,0.12683155041580332,-0.04583533878094632,0.06814853376972678,-0.0541874557488002,0.0497662364127545
9,9,10452.095930801726,3694.798489568951,23.495828654393872,10587.452034629703,-3532.450946307761,15.287792404955196,10624.123304500716,10008.790159409971,9.397998439017748,10648.123304500716,-9988.87747435387,9.20033438103645,10896.931442897265,5625.21287579029,36.671881965187694,0.8112962078169648,149.0,116.0,87.0,262.0,349.0,33.0,836.0,827.0,60.0,26.0,34.0,0.4333333333333333,338.3524621468405,3873.6029810815417,57.0,46.0,11.0,0.8070175438596491,254.50710503910375,2211.696941537107,18.0,7.0,11.0,0.3888888888888889,816.0999052432671,7242.855719912075,22.0,7.0,15.0,0.3181818181818182,751.4135876522757,14550.46559747253,91.0,64.0,27.0,0.7032967032967034,215.10594564505797,5457.77631033742,0.0,0.0,0.0,0.0,10426.0,10459.0,10575.0,10596.0,10617.0,10634.0,10641.0,10662.0,10834.0,10924.0,0.09157534926520822,-0.07204830552710811,0.0815383170438431,-0.07522502799553869,0.03823960984140313
10,10,11295.39728720115,2377.738228360299,15.557616049644109,11435.72601729957,-4874.50101090209,7.6438962025700175,11466.698643600574,7179.709595461099,7.670147123028206,11494.397287201144,-10725.29316592833,9.37227029221772,11737.657460196831,3944.7985465000393,31.579922424793217,0.7478416566986019,98.0,73.0,124.0,263.0,387.0,25.0,845.0,843.0,26.0,12.0,14.0,0.4615384615384615,197.86158416226152,2870.9390033589257,59.0,55.0,4.0,0.9322033898305084,315.6883504110595,3239.68726215665,16.0,6.0,10.0,0.375,717.740272395625,5642.193475333672,25.0,11.0,14.0,0.44,671.621102499277,12648.24806641712,82.0,48.0,34.0,0.5853658536585366,205.06107790775067,4012.760240635092,0.0,0.0,0.0,0.0,11284.0,11309.0,11382.0,11440.0,11461.0,11477.0,11483.0,11506.0,11691.0,11769.0,0.08321419986535183,-0.06476321365099835,0.09996786957084856,-0.06262030250444392,0.0519826489212454
11,11,12155.27398270043,1673.663214628578,7.64389620259217,12294.60271279885,-5204.726883892536,20.383723206912453,12329.27398270043,7555.891604669547,7.64389620259217,12358.095543129424,-10937.328275435557,9.235521650633732,12587.089928712545,4381.4935461005525,31.647696129466738,0.721252779739656,94.0,82.0,124.0,261.0,385.0,12.0,862.0,863.0,12.0,4.0,8.0,0.3333333333333333,267.9898948289898,2575.8303243428113,79.0,65.0,14.0,0.8227848101265823,324.5832657646155,3698.646042750196,16.0,4.0,12.0,0.25,850.5383564871246,5571.215138488517,24.0,12.0,12.0,0.5,602.466209426537,11401.681467772942,89.0,46.0,43.0,0.5168539325842697,283.72313522648494,4260.311535775076,0.0,0.0,0.0,0.0,12151.0,12163.0,12245.0,12306.0,12325.0,12340.0,12346.0,12369.0,12563.0,12630.0,0.160121757165143,-0.06236316967353811,0.11256624644555399,-0.055083489701925864,0.06475489059637968
12,12,13026.972626301009,1882.734047092272,15.262386039390735,13161.60271279885,-4891.922677870609,20.383723206912453,13196.27398270043,7911.877010212225,7.64389620259217,13223.972626301009,-10814.394236709191,9.469291206609984,13482.027373698991,5133.12476965098,17.8357578060484,0.6259219731743708,115.0,99.0,105.0,255.0,360.0,16.0,870.0,867.0,41.0,10.0,31.0,0.2439024390243902,196.3251451856336,2465.2519990335486,69.0,55.0,14.0,0.7971014492753623,246.1076263756058,3253.949922238443,15.0,4.0,11.0,0.2666666666666666,701.3593332127092,6733.80005251235,25.0,10.0,15.0,0.4,673.980648463055,12794.270843697715,71.0,59.0,12.0,0.8309859154929577,265.7427944971193,3619.8273615357,0.0,0.0,0.0,0.0,13017.0,13033.0,13132.0,13173.0,13192.0,13207.0,13214.0,13237.0,13424.0,13492.0,0.1042766212725805,-0.05030897718169439,0.0886463897640765,-0.0623225521199555,0.051770180235690653
13,13,13889.39728720115,2686.0337486356984,20.383723206912435,14025.45203459914,-4242.479418491657,15.28779240518434,14061.123304500716,10016.502379060978,8.911947801669621,14093.086164410755,-7769.300988858166,10.498112594540723,14317.13686849496,4786.268649111086,44.56406896155676,0.8125870533223393,134.0,116.0,94.0,261.0,355.0,18.0,862.0,864.0,22.0,12.0,10.0,0.5454545454545454,272.3110970748276,3574.37157614094,47.0,38.0,9.0,0.8085106382978723,310.46323216759913,3252.148694115214,19.0,7.0,12.0,0.3684210526315789,756.9912403842847,9678.210136191272,27.0,13.0,14.0,0.4814814814814814,479.5294940855589,8232.762987140175,105.0,54.0,51.0,0.5142857142857142,184.9524205922912,5348.258721637958,0.0,0.0,0.0,0.0,13878.0,13896.0,14012.0,14034.0,14054.0,14073.0,14080.0,14106.0,14280.0,14367.0,0.10138037067223783,-0.07317966725174571,0.07557440828514542,-0.061721060205190234,0.03864229823928518
14,14,14785.025155448677,1461.2537322412802,2.7557724066102263,14901.75339099856,-5260.5083630276295,25.47965400864057,14934.72601729957,13425.88290881038,7.64389620259217,14953.396717828144,-10928.97993677352,13.356170001737432,15210.205425597698,4177.749200134358,25.415441152083982,0.6545167916212291,30.0,24.0,156.0,265.0,421.0,6.0,899.0,877.0,6.0,3.0,3.0,0.5,200.06028690278995,1125.0573813078167,77.0,71.0,6.0,0.922077922077922,293.9922667709916,2589.6342933705187,15.0,11.0,4.0,0.7333333333333333,915.8439924043984,2362.010033127209,23.0,8.0,15.0,0.3478260869565217,755.5227009744609,16496.375983283666,73.0,49.0,24.0,0.6712328767123288,231.0205091779675,4131.0960833922345,0.0,0.0,0.0,0.0,14782.0,14788.0,14812.0,14916.0,14924.0,14939.0,14945.0,14968.0,15169.0,15233.0,0.13691002629361038,-0.05588666464960954,0.0682148055829833,-0.06913021209164268,0.05529784056221896
15,15,15617.54796540086,3103.5729775920468,15.287792404798218,15758.45203459914,-3461.7533075072615,15.287792405180708,15798.594537471648,12160.453718215094,9.846045965501045,15820.904069215088,-9631.411542604448,13.961959435655606,16057.383477496402,5961.2653061613,41.003698209895376,0.8427919084608727,89.0,73.0,140.0,255.0,395.0,16.0,830.0,864.0,62.0,10.0,52.0,0.1612903225806451,270.7017783201133,2798.0836365512077,76.0,66.0,10.0,0.868421052631579,232.8391547022442,1788.341041891279,18.0,12.0,6.0,0.6666666666666666,931.493545134496,5655.045815938264,29.0,9.0,20.0,0.3103448275862069,598.1287188941951,12522.93143712782,104.0,67.0,37.0,0.6442307692307693,193.37658199275012,6339.862196704311,0.0,0.0,0.0,0.0,15609.0,15625.0,15698.0,15767.0,15787.0,15805.0,15813.0,15838.0,16028.0,16093.0,0.08722262381925407,-0.06726047006217983,0.07660022945847947,-0.06210187533243482,0.03243884847615902
16,16,16508.55473860481,3072.970920892903,21.59731125764298,16624.876695499283,-3817.1373803521583,12.739827004320285,16659.69864360057,8914.68082367602,10.191861603456228,16686.123304500717,-9538.52906893936,8.737854933529768,16910.074465908503,4968.242404734959,39.48117780028434,0.8225122207946062,131.0,74.0,88.0,258.0,346.0,57.0,899.0,858.0,62.0,32.0,30.0,0.5161290322580645,177.57112983649344,2661.744888847674,22.0,14.0,8.0,0.6363636363636364,313.8226894284897,3109.866804878059,18.0,6.0,12.0,0.3333333333333333,769.8887703049575,8712.672459829919,21.0,7.0,14.0,0.3333333333333333,676.0897736882284,13456.366030894427,99.0,45.0,54.0,0.4545454545454545,240.79230868294843,5145.2710206922375,0.0,0.0,0.0,0.0,16481.0,16538.0,16612.0,16632.0,16654.0,16671.0,16679.0,16700.0,16870.0,16958.0,0.05778483897429696,-0.08221414587900876,0.08636189960500339,-0.07087987768363602,0.04846629634122975
17,17,17365.123304500717,2088.371177609704,12.739827004320285,17501.027373698995,-4956.069129419342,17.8357578060484,17542.507597713564,12783.97430477518,8.244693454715105,17559.678969686007,-12669.853763754105,13.599886276879738,17794.808138396547,4999.2369170405955,31.276915088343316,0.7811578435172062,88.0,76.0,132.0,253.0,385.0,12.0,849.0,883.0,14.0,10.0,4.0,0.7142857142857143,245.35519339373943,2630.566437261242,72.0,61.0,11.0,0.8472222222222222,343.30606592173996,3215.577728006921,16.0,12.0,4.0,0.75,987.2008211235808,1395.0000734372938,24.0,8.0,16.0,0.3333333333333333,808.7482216427358,18469.46735867718,69.0,35.0,34.0,0.5072463768115942,245.8094801069354,6380.119249885281,0.0,0.0,0.0,0.0,17356.0,17368.0,17444.0,17511.0,17532.0,17547.0,17552.0,17576.0,17779.0,17829.0,0.11748639131984512,-0.06926982997147217,0.07722174635119793,-0.0638324827360203,0.04916940008765329
18,18,18251.972626301005,2218.209042516828,17.080488963321343,18390.45203459914,-3856.869402390201,15.28779240518434,18431.30135639943,14187.296053242071,8.420216093980345,18451.47051564791,-9840.424548425037,14.92075424141169,18672.59846327508,5756.63509352998,40.99436430676934,0.8012454958820767,133.0,117.0,96.0,252.0,348.0,16.0,886.0,892.0,29.0,10.0,19.0,0.3448275862068966,240.41228540937163,3309.4008579012852,23.0,15.0,8.0,0.6521739130434783,349.80579572900086,3934.138652208271,17.0,11.0,6.0,0.6470588235294118,1124.608004336502,6577.17197535702,27.0,7.0,20.0,0.2592592592592592,728.3671617815479,15299.85634331864,129.0,65.0,64.0,0.5038759689922481,236.16009586285253,4278.8303855774675,0.0,0.0,0.0,0.0,18242.0,18258.0,18375.0,18399.0,18420.0,18437.0,18444.0,18471.0,18626.0,18723.0,0.10838125749257367,-0.0906968214978234,0.07926866402985278,-0.0740178595138076,0.0410239822441201
19,19,19139.698643596344,2375.3710207586023,10.191861602380875,19278.30135639943,-4651.738680341998,10.191861603455632,19310.69864360057,8679.275602873131,7.000084972776613,19336.972626287312,-11666.90580272796,8.289612583859398,19569.109494795972,5700.274722277848,33.78535761432256,0.7462105598738711,95.0,82.0,124.0,261.0,385.0,13.0,889.0,876.0,15.0,12.0,3.0,0.8,222.28690584664423,2897.6331150622186,61.0,54.0,7.0,0.8852459016393442,273.5513105203671,2704.908319411518,16.0,6.0,10.0,0.375,834.5435662384979,6289.221247193891,22.0,10.0,12.0,0.4545454545454545,751.0502651065461,14111.83337337113,86.0,46.0,40.0,0.5348837209302325,236.96309414272443,5748.560983012393,0.0,0.0,0.0,0.0,19129.0,19142.0,19224.0,19284.0,19305.0,19321.0,19327.0,19348.0,19523.0,19609.0,0.09357986769395474,-0.0588062505910705,0.09615359673130278,-0.06437441750244827,0.041570469089257024
20,20,20034.493218002877,3655.784484365664,24.429055719956057,20164.876695499283,-2845.7869854378555,12.739827004320285,20202.972626301005,9548.582188889874,7.208292626364953,20222.341916544658,-11471.41245146865,9.798403180559507,20456.83551209554,5519.870950200639,38.273146011207274,0.8565607275067546,112.0,70.0,118.0,265.0,383.0,42.0,888.0,891.0,77.0,30.0,47.0,0.3896103896103896,191.07823941155215,2420.256661602307,55.0,48.0,7.0,0.8727272727272727,273.6205893063894,1268.8232966072974,16.0,10.0,6.0,0.625,888.1039422515025,2556.6091540461275,22.0,8.0,14.0,0.3636363636363636,868.2752452646902,16880.71753903698,116.0,69.0,47.0,0.5948275862068966,167.4453813554045,5666.1131098180595,0.0,0.0,0.0,0.0,20006.0,20048.0,20118.0,20172.0,20193.0,20209.0,20214.0,20236.0,20413.0,20501.0,0.05226736976118745,-0.09614935717484485,0.09300898548947341,-0.0756903519020038,0.03033501740639754
21,21,20935.69864360057,2100.5345933321414,10.191861603456228,21085.2418455415,-3443.9023600908963,1.865537415124177,21099.72601729957,10892.939970751211,7.64389620259217,21119.54796540086,-9994.138243496252,15.28779240518434,21335.369913502156,4961.646922042698,35.831962913262835,0.7044732970163,152.0,129.0,59.0,256.0,315.0,23.0,908.0,901.0,25.0,6.0,19.0,0.24,214.28950407140903,1952.405042115406,5.0,3.0,2.0,0.6,591.7579470756316,1733.035442358581,15.0,11.0,4.0,0.7333333333333333,970.7419524948866,3954.093189390526,30.0,9.0,21.0,0.3,574.6864430406807,13434.10492035054,101.0,37.0,64.0,0.3663366336633663,247.6656307330192,4598.465088891807,0.0,0.0,0.0,0.0,20930.0,20953.0,21082.0,21087.0,21089.0,21104.0,21111.0,21141.0,21314.0,21397.0,0.10201665078577693,-0.171827736446051,0.08911661636816504,-0.05750235078193575,0.04991601269182126
22,22,21835.904069198277,3081.9610968871248,20.599642496546643,21957.30135639943,-3399.7330377489498,10.191861603456228,21995.30135639943,11831.529475302475,8.822734350237225,22013.249387616375,-8276.151797635017,13.794387307602516,22235.5889030941,5858.889891790689,46.34579836567616,0.7845314992091679,108.0,81.0,95.0,262.0,357.0,27.0,907.0,896.0,63.0,32.0,31.0,0.5079365079365079,203.27835449374544,3343.39494157615,26.0,20.0,6.0,0.7692307692307693,258.43543810602057,1796.7119201742337,17.0,11.0,6.0,0.6470588235294118,871.630571139671,4980.650868285479,24.0,5.0,19.0,0.2083333333333333,650.0569404296169,13510.84509281471,124.0,63.0,61.0,0.5080645161290323,236.40868200588372,5963.227667140317,0.0,0.0,0.0,0.0,21829.0,21856.0,21937.0,21963.0,21984.0,22001.0,22008.0,22032.0,22186.0,22294.0,0.06595746932012309,-0.07601639165089777,0.07367015168741636,-0.07854579716812063,0.0403504224131491
23,23,23639.67126990158,3251.6998212700896,24.901292362720795,23775.30135639943,-3682.014280632448,10.191861603456228,23807.69864360057,7475.366809956159,10.10372768114812,23840.83531762435,-8488.1597305473,12.823643540370943,24063.142422587087,6335.148108313109,43.08048015531787,0.8497860753371818,97.0,73.0,139.0,253.0,392.0,24.0,1794.0,1809.0,66.0,20.0,46.0,0.303030303030303,221.97127344592585,3590.676367701757,63.0,56.0,7.0,0.8888888888888888,263.7498035598988,1152.109240559757,17.0,6.0,11.0,0.3529411764705882,749.2242079465408,6350.336630014817,34.0,16.0,18.0,0.4705882352941176,399.7553640952144,8251.51584943557,94.0,42.0,52.0,0.4468085106382978,225.11221547663365,6644.854629810367,0.0,0.0,0.0,0.0,23622.0,23646.0,23719.0,23781.0,23802.0,23819.0,23826.0,23858.0,24025.0,24111.0,0.06826315024343961,-0.07163193389749573,0.10022574503617365,-0.04709564579193409,0.03553385203121563
24,24,24534.849321800284,3037.8713364287833,5.095930801728113,24674.45203459914,-4640.829847262502,15.28779240518434,24705.69864360057,9027.001044995968,9.421997375226372,24732.972626301005,-9049.20905669804,13.066119062188314,24961.684833895823,5577.942274468407,36.85409071466208,0.7349731816386044,91.0,82.0,128.0,252.0,380.0,9.0,899.0,898.0,11.0,3.0,8.0,0.2727272727272727,352.98027639789166,3300.8677254701806,64.0,53.0,11.0,0.828125,255.7767171434772,2953.1755335082044,16.0,6.0,10.0,0.375,762.191044815858,6219.703960670162,31.0,11.0,20.0,0.3548387096774194,504.6213629307603,11433.49692523206,109.0,62.0,47.0,0.5688073394495413,234.62613253889052,5622.583192092452,0.0,0.0,0.0,0.0,24532.0,24541.0,24623.0,24683.0,24700.0,24716.0,24723.0,24751.0,24911.0,25003.0,0.11619329369388076,-0.055114435469844444,0.08443458032370245,-0.0557641402435332,0.04206320556826684
25,25,25451.232799296693,4304.035489539273,31.85913672471556,25572.30135639943,-2146.4761636543526,6.125086869297296,25603.27398270043,7510.374949184467,7.64389620259217,25629.87409985416,-8323.284526190322,7.024820731121056,25858.287546694675,6908.392574532009,59.015839533810826,0.8871546309411941,147.0,73.0,83.0,271.0,354.0,74.0,927.0,898.0,89.0,44.0,45.0,0.4943820224719101,200.9172884530814,3105.666352375115,22.0,16.0,6.0,0.7272727272727273,262.8210249928056,363.6511233887052,16.0,4.0,12.0,0.25,745.871031702489,7506.432246827322,20.0,10.0,10.0,0.5,645.9989776541456,10261.067304837106,150.0,84.0,66.0,0.56,151.94532461426238,6399.044453585616,0.0,0.0,0.0,0.0,25410.0,25484.0,25557.0,25578.0,25599.0,25615.0,25621.0,25640.0,25803.0,25911.0,0.04668114120838457,-0.12244302053900082,0.09931208984226296,-0.07761346805115503,0.021994309526417656
26,26,26330.246609001435,3226.0856825149804,21.677638823826044,26467.72601729957,-2803.433460318591,7.64389620259217,26505.30135639943,11355.239713266532,8.805572374749675,26524.83102904359,-7710.907541592956,14.587890113306608,26761.95881659626,6287.768597902104,38.63308127002157,0.8083215940609143,99.0,76.0,129.0,255.0,384.0,23.0,865.0,905.0,57.0,18.0,39.0,0.3157894736842105,203.9929988611035,3427.4140331190297,57.0,53.0,4.0,0.9298245614035088,317.18152115923897,1381.0240446242765,19.0,12.0,7.0,0.631578947368421,970.192501876778,4655.0932383849995,26.0,7.0,19.0,0.2692307692307692,576.1285348510406,11649.652995772443,113.0,69.0,44.0,0.6106194690265486,281.6702030220897,4926.814456666514,0.0,0.0,0.0,0.0,26316.0,26339.0,26415.0,26472.0,26494.0,26511.0,26518.0,26544.0,26718.0,26799.0,0.06323235615430876,-0.11314037791472797,0.0854400722816344,-0.07471604759146434,0.04479652815405264
27,27,27246.08212109698,3075.42808043741,22.81197202050174,27366.72601729957,-3213.140217370783,7.64389620259217,27396.27398270043,6879.532807400293,7.64389620259217,27423.972626301005,-9154.648833887788,8.697849329859444,27648.56152939511,5569.7110006074,40.16854868991329,0.8118253528629863,93.0,33.0,128.0,260.0,388.0,60.0,929.0,888.0,66.0,35.0,31.0,0.5303030303030303,153.63467299296022,2700.331171623445,62.0,58.0,4.0,0.935483870967742,279.11902276886605,1423.2440827837086,16.0,4.0,12.0,0.25,647.0011793909824,6950.147623789464,23.0,10.0,13.0,0.4347826086956521,582.0577457602614,11401.691953647984,112.0,59.0,53.0,0.5267857142857143,231.6403542916827,5953.23668076034,0.0,0.0,0.0,0.0,27216.0,27276.0,27309.0,27371.0,27392.0,27408.0,27414.0,27437.0,27606.0,27697.0,0.04995554081404797,-0.08686798704267591,0.09404725546115648,-0.06358056505735715,0.041589295075888384
28,28,28129.575339099854,1174.8270383849074,1.171885419042516,28282.876695499283,-5682.345904752575,12.739827004320285,28313.72601729957,12880.314037441936,7.64389620259217,28334.972626301005,-12161.670020451103,17.8357578060484,28563.624095337185,4175.448114619493,28.79466041649365,0.6354488375232115,57.0,54.0,172.0,244.0,416.0,3.0,875.0,920.0,3.0,2.0,1.0,0.6666666666666666,310.7180697972182,1803.210084786984,105.0,98.0,7.0,0.9333333333333332,280.13075540423296,1334.1748226059667,15.0,11.0,4.0,0.7333333333333333,969.7424609903234,1785.0194842363485,32.0,10.0,22.0,0.3125,580.405289266322,15910.015567462364,78.0,40.0,38.0,0.5128205128205128,156.71630333423894,5077.634148494084,0.0,0.0,0.0,0.0,28128.0,28131.0,28185.0,28290.0,28303.0,28318.0,28325.0,28357.0,28551.0,28601.0,0.2644798422620386,-0.04929843415022279,0.07528872806760516,-0.047724143829779186,0.0375328106187042
29,29,29027.839473444255,2752.760812344993,16.819429370901553,29149.47940829813,-4267.711142460463,33.12355021123273,29196.54796540086,12818.79202572642,9.738103483098785,29217.52126822779,-10518.150471846224,14.968858401566576,29440.842728705033,6526.307490167967,37.22865470215102,0.8149369088534097,123.0,97.0,100.0,255.0,355.0,26.0,894.0,879.0,30.0,21.0,9.0,0.7,215.62205673943265,2076.0269270622603,81.0,58.0,23.0,0.7160493827160493,288.09741049641127,4632.022697647825,17.0,10.0,7.0,0.5882352941176471,828.2259300137001,2247.9051865179777,23.0,8.0,15.0,0.3478260869565217,779.6240063683455,15320.634577416831,74.0,25.0,49.0,0.3378378378378378,442.4153249032022,5639.844813006546,0.0,0.0,0.0,0.0,29010.0,29036.0,29133.0,29168.0,29188.0,29204.0,29210.0,29233.0,29417.0,29488.0,0.07832938327676599,-0.0675063051081556,0.0646102946636086,-0.07412177725115773,0.06778953115061022
30,30,30758.342539803165,3897.977010164989,22.14083874086828,30887.45203459914,-3216.1713305932785,15.28779240518434,30928.67632196477,13354.591235753487,9.673953732974514,30944.19633064412,-9791.716607246251,12.523865046813617,31181.014188847937,5183.107909522056,38.98927450802739,0.8418686652382058,112.0,55.0,122.0,264.0,386.0,57.0,1725.0,1735.0,62.0,33.0,29.0,0.532258064516129,209.12211493738167,2788.138073158423,57.0,48.0,9.0,0.8421052631578947,244.64022204348984,1982.5844232346992,18.0,13.0,5.0,0.7222222222222222,906.9988713892668,6239.42707396641,22.0,4.0,18.0,0.1818181818181818,728.2328190808128,14180.8708116028,90.0,40.0,50.0,0.4444444444444444,195.12550712735353,6362.309782026192,0.0,0.0,0.0,0.0,30727.0,30784.0,30839.0,30896.0,30916.0,30934.0,30941.0,30961.0,31142.0,31225.0,0.05364888361117609,-0.07606566842891474,0.06791663296747041,-0.07437233411574556,0.03764642961974265
31,31,31591.923438308462,1800.5514790120417,12.310492104846498,31744.72601729957,-4141.527590419325,7.64389620259217,31766.849321800284,6447.943282881883,5.095930801728113,31786.27398270043,-8189.57389433142,7.64389620259217,32032.49292028759,3752.6785935326607,30.218477533830477,0.4539045853695146,79.0,49.0,165.0,255.0,420.0,30.0,846.0,837.0,32.0,20.0,12.0,0.625,221.60092260522887,928.2737750711648,97.0,93.0,4.0,0.9587628865979382,265.1291900414448,1432.5633107962694,16.0,4.0,12.0,0.25,804.3592264019882,6121.330602660673,33.0,3.0,30.0,0.0909090909090909,755.2306384698585,14045.954007469922,71.0,27.0,44.0,0.380281690140845,181.38960054724785,4358.7607269281725,0.0,0.0,0.0,0.0,31573.0,31603.0,31652.0,31749.0,31764.0,31779.0,31782.0,31817.0,32017.0,32072.0,0.12307391662404497,-0.06401724587197566,0.12474663487462982,-0.0922185510765837,0.048336034122360864
32,32,0.0,0.0,0.0,0.0,0.0,0.0,0.0,0.0,0.0,0.0,0.0,0.0,0.0,0.0,0.0,0.0,0.0,0.0,0.0,0.0,0.0,0.0,0.0,0.0,0.0,0.0,0.0,0.0,0.0,0.0,0.0,0.0,0.0,0.0,0.0,0.0,0.0,0.0,0.0,0.0,0.0,0.0,0.0,0.0,0.0,0.0,0.0,0.0,0.0,0.0,0.0,0.0,0.0,0.0,0.0,0.0,0.0,0.0,,,,,,,,,,,,,,,
33,33,32998.461343477364,1071.6284097615537,1.140726832107497,33374.32873009842,-7034.963737793409,28.027619409504627,33407.273982700426,14295.089807710778,7.64389620259217,33436.39728720114,-10250.365073058309,20.383723206912453,33671.150678199716,1619.4188612605749,5.095930801728113,0.3955230187096455,299.0,294.0,165.0,214.0,379.0,5.0,1404.0,1640.0,5.0,2.0,3.0,0.4,327.9035436948935,1068.9675604742956,98.0,81.0,17.0,0.826530612244898,311.95036366135986,4764.7736134849,15.0,4.0,11.0,0.2666666666666666,688.558014524595,6079.5993064333725,37.0,11.0,26.0,0.2972972972972973,595.8893606165566,14797.010723985688,10.0,7.0,3.0,0.7,235.27057632326748,2645.68175372398,0.0,0.0,0.0,0.0,32996.0,33001.0,33295.0,33390.0,33403.0,33418.0,33425.0,33460.0,33664.0,33674.0,0.3059862361878356,-0.04434285311031417,0.0481674493680471,-0.05813347684393903,0.14528086707606336
34,34,34015.821948101286,3752.34960537117,22.93168860777651,34167.150678199716,-1762.224702613211,3.4147259493045308,34198.69864360057,11050.838250025705,10.191861603456228,34231.794358118386,-5045.504031726162,7.841285872243139,34458.68483389583,6004.730614317753,53.389807139713895,0.7369849345981643,155.0,100.0,82.0,260.0,342.0,55.0,1013.0,791.0,94.0,15.0,79.0,0.1595744680851064,331.583322734016,4689.102360155194,17.0,14.0,3.0,0.8235294117647058,298.7822203326398,422.7203546229142,21.0,6.0,15.0,0.2857142857142857,752.8945583357456,12315.577034720063,22.0,12.0,10.0,0.5454545454545454,466.478178423984,5759.317397588442,134.0,86.0,48.0,0.6417910447761194,232.7818040559798,6169.824919677196,0.0,0.0,0.0,0.0,34003.0,34058.0,34158.0,34170.0,34193.0,34213.0,34221.0,34240.0,34391.0,34500.0,0.08836685213429543,-0.16954831009324423,0.06813008581805949,-0.09245422766303747,0.03876640252619027
35,35,34574.09908760051,1955.6768940737545,1.3205545012004951,34960.30135639943,-4210.410029206074,10.191861603456228,34990.8002627521,10156.829352243276,7.64389620259217,35011.36179659017,-11024.39423734627,14.626114186015462,35246.504381766856,3939.813768134833,27.76285828112564,0.6330009322559802,302.0,298.0,154.0,254.0,408.0,4.0,562.0,795.0,4.0,2.0,2.0,0.5,320.86546675000665,3628.5924440956737,93.0,86.0,7.0,0.9247311827956988,283.552517851744,1523.710202121374,15.0,11.0,4.0,0.7333333333333333,902.9722816654267,2346.987394472719,28.0,9.0,19.0,0.3214285714285714,646.6181869089999,14430.410093446597,71.0,31.0,40.0,0.4366197183098591,171.37821900081929,3651.62159630163,0.0,0.0,0.0,0.0,34572.0,34576.0,34874.0,34966.0,34980.0,34995.0,35002.0,35028.0,35217.0,35282.0,0.1640687517055186,-0.06734558294437928,0.08890296866767707,-0.05865339836256165,0.0434990659677684
36,36,0.0,0.0,0.0,0.0,0.0,0.0,0.0,0.0,0.0,0.0,0.0,0.0,0.0,0.0,0.0,0.0,0.0,0.0,0.0,0.0,0.0,0.0,0.0,0.0,0.0,0.0,0.0,0.0,0.0,0.0,0.0,0.0,0.0,0.0,0.0,0.0,0.0,0.0,0.0,0.0,0.0,0.0,0.0,0.0,0.0,0.0,0.0,0.0,0.0,0.0,0.0,0.0,0.0,0.0,0.0,0.0,0.0,0.0,,,,,,,,,,,,,,,
37,37,36381.837582950895,3129.203051092085,20.02894577992733,36510.30135639943,-4050.444557056069,10.191861603456228,36550.412713495294,10440.838233496928,7.12119623240017,36576.178051898714,-7946.900250548998,14.122819665882096,36806.2327992967,5352.689112255481,33.74232949944853,0.783275767823873,91.0,52.0,132.0,250.0,382.0,39.0,1806.0,1559.0,45.0,22.0,23.0,0.4888888888888889,240.14172624536872,3145.572425496035,62.0,55.0,7.0,0.8870967741935484,314.0296035679556,2416.657156979103,15.0,10.0,5.0,0.6666666666666666,1029.8363725053312,8540.455768628979,28.0,12.0,16.0,0.4285714285714285,514.5983181861428,9475.691332905564,101.0,67.0,34.0,0.6633663366336634,176.02236764868903,4967.04017657247,0.0,0.0,0.0,0.0,36366.0,36405.0,36457.0,36516.0,36540.0,36555.0,36564.0,36589.0,36760.0,36839.0,0.07674213604053587,-0.07752966350839217,0.09863541120686535,-0.06475459637870662,0.0328848479628061
38,38,37186.69864360057,1441.8417254432522,10.191861485987545,37322.753390998565,-5635.072770437481,25.47965400864057,37360.69864360057,8372.1330275145,10.191861603450986,37389.397287201115,-11851.175729089488,11.127302068289044,37624.808138396555,5744.820437607941,32.7106813839112,0.7968138482815538,90.0,69.0,130.0,258.0,388.0,21.0,805.0,808.0,22.0,6.0,16.0,0.2727272727272727,157.40048315222603,1498.4521430249567,69.0,53.0,16.0,0.7681159420289855,205.58015566200976,4290.5685889255965,16.0,6.0,10.0,0.375,754.1997342538314,4519.392119641268,25.0,12.0,13.0,0.48,633.7701620348204,13030.363321026023,96.0,60.0,36.0,0.625,90.36341237244385,5109.1398249547,0.0,0.0,0.0,0.0,37181.0,37202.0,37271.0,37337.0,37355.0,37371.0,37378.0,37401.0,37567.0,37659.0,0.10916627003829969,-0.0364822539187989,0.0900845378083698,-0.05347740819328077,0.01572954513615222
39,39,38916.47940829813,2762.733723792233,20.08401493195371,39061.424660900135,-1720.2093812025782,1.4518904998524995,39076.726017299574,10795.38534463115,7.64389620259217,39097.60465833948,-10677.525968705537,14.401672561305393,39322.088868684434,6349.321668996497,37.23107636512131,0.8162327452750764,169.0,125.0,58.0,251.0,309.0,44.0,1737.0,1719.0,64.0,43.0,21.0,0.671875,198.73132414935793,2118.9746626462666,3.0,1.0,2.0,0.3333333333333333,466.3466439399102,3246.797826664193,16.0,12.0,4.0,0.75,889.5943084378208,3311.455093814184,31.0,11.0,20.0,0.3548387096774194,504.47861341310573,13357.201841144572,80.0,33.0,47.0,0.4125,175.64159049916836,6480.183385745123,0.0,0.0,0.0,0.0,38891.0,38935.0,39060.0,39063.0,39065.0,39081.0,39087.0,39118.0,39290.0,39369.0,0.07193285492478507,-0.27109876799642424,0.08240505364454093,-0.04724676998132976,0.02766304806335766
40,40,39808.275934836114,1863.1507967012824,15.530716466980442,39926.027373699,-4618.085374181819,17.8357578060484,39965.30135639943,10711.984615470632,10.191861603456228,39989.63008649785,-10079.019956949796,16.322287676988108,40210.76172715318,5188.868614919922,34.845200536313406,0.7699049587727771,71.0,44.0,143.0,249.0,392.0,27.0,889.0,889.0,27.0,11.0,16.0,0.4074074074074074,130.49472790383325,1943.9095849812256,72.0,62.0,10.0,0.8611111111111112,231.12004243758193,2828.3234518037266,18.0,11.0,7.0,0.6111111111111112,834.3655640050364,3783.11723854244,33.0,11.0,22.0,0.3333333333333333,452.6756375650838,11508.026511658463,102.0,51.0,51.0,0.5,138.41679296006222,5222.542877911436,0.0,0.0,0.0,0.0,39797.0,39824.0,39868.0,39936.0,39954.0,39971.0,39980.0,40011.0,40161.0,40260.0,0.070039810054492,-0.05004672363349913,0.07789084786399111,-0.044912664078311494,0.026675717431361164
41,41,40741.67126990158,2301.9785602212623,19.44775933535545,40876.45203459914,-4459.319523830516,15.28779240518434,40908.69864360057,6896.541125893051,10.191861603456228,40935.29854398387,-13021.065596394348,9.433142574651784,41166.68483389583,6241.780734833892,35.10003049875527,0.80723417655898,95.0,47.0,127.0,260.0,387.0,48.0,926.0,940.0,62.0,29.0,33.0,0.4677419354838709,156.54806191691483,1788.9203399013563,64.0,55.0,9.0,0.859375,239.8676831546237,2724.422408983262,17.0,6.0,11.0,0.3529411764705882,739.6193056589964,2925.2643171208933,23.0,10.0,13.0,0.4347826086956521,809.9737998148836,15370.341215921177,103.0,59.0,44.0,0.5728155339805825,142.43148632775376,5444.093770315305,0.0,0.0,0.0,0.0,40726.0,40774.0,40821.0,40885.0,40903.0,40919.0,40925.0,40948.0,41111.0,41208.0,0.06800587313109802,-0.05379019867779725,0.10724496412877131,-0.06220487822741425,0.022819046739799356
42,42,0.0,0.0,0.0,0.0,0.0,0.0,0.0,0.0,0.0,0.0,0.0,0.0,0.0,0.0,0.0,0.0,0.0,0.0,0.0,0.0,0.0,0.0,0.0,0.0,0.0,0.0,0.0,0.0,0.0,0.0,0.0,0.0,0.0,0.0,0.0,0.0,0.0,0.0,0.0,0.0,0.0,0.0,0.0,0.0,0.0,0.0,0.0,0.0,0.0,0.0,0.0,0.0,0.0,0.0,0.0,0.0,0.0,0.0,,,,,,,,,,,,,,,
43,43,42732.178051898714,3088.4110801836255,22.079047167259624,42848.87669549929,-3181.186269304415,12.739827004320285,42882.69864360057,8872.258880912472,9.24574047587245,42916.39711662673,-7699.981354446387,10.39285079373433,43133.32241683309,6235.25627005289,42.73868417032653,0.8475151387791289,100.0,67.0,103.0,254.0,357.0,33.0,1999.0,1974.0,60.0,30.0,30.0,0.5,162.8641160417434,2500.379195916378,33.0,26.0,7.0,0.7878787878787878,264.86562843970654,1662.6890039818395,18.0,6.0,12.0,0.3333333333333333,754.2991835826971,9331.534016645395,29.0,13.0,16.0,0.4482758620689655,452.2962239965508,7170.766798101949,109.0,57.0,52.0,0.5229357798165137,182.3195394028082,6489.161424566766,0.0,0.0,0.0,0.0,42727.0,42760.0,42827.0,42856.0,42877.0,42894.0,42903.0,42930.0,43085.0,43184.0,0.05273395018128872,-0.08326001875319956,0.08501771574829439,-0.05873991158892488,0.02924010361506147
44,44,43680.94525260201,3277.737157856856,22.29051314698987,43807.178051898714,-4175.192667285306,22.93168860777651,43844.69864360057,9746.834715698424,10.191861603456228,43872.08989210902,-10746.030068262637,11.101148464088938,44094.96052554332,6231.865528236999,41.27931509073631,0.8989655655415403,109.0,50.0,115.0,265.0,380.0,59.0,939.0,962.0,73.0,30.0,43.0,0.410958904109589,149.84023449654345,2557.062837319821,61.0,48.0,13.0,0.7868852459016393,230.56058185455635,2393.3430498683783,17.0,7.0,10.0,0.4117647058823529,750.689884292785,4932.355392679371,26.0,12.0,14.0,0.4615384615384615,659.2140680060188,12559.118554822577,111.0,55.0,56.0,0.4954954954954955,105.0381415168719,6377.301395689133,0.0,0.0,0.0,0.0,43661.0,43720.0,43770.0,43820.0,43839.0,43855.0,43861.0,43885.0,44045.0,44150.0,0.04571453636462915,-0.05522154310652829,0.07701883803197264,-0.0613448933065006,0.016855007708516345
45,45,44641.191861603445,3536.652576001114,27.470156470594496,44767.027373699,-2838.0341707340062,17.8357578060484,44804.12330450071,9379.968919713696,11.583220224580916,44829.337363538005,-11077.492220458123,10.742997410808856,45059.4108511954,7127.5654825113215,42.676738339404245,0.862383484019219,111.0,46.0,125.0,262.0,387.0,65.0,956.0,959.0,79.0,36.0,43.0,0.4556962025316455,125.61239183197068,3241.005493150483,65.0,54.0,11.0,0.8307692307692308,262.5822324550746,305.9099145723385,18.0,8.0,10.0,0.4444444444444444,731.2287440101121,4975.749751521944,24.0,9.0,15.0,0.375,696.9472486019816,13718.361525307364,121.0,68.0,53.0,0.5619834710743802,153.24398930285977,6350.109766101776,0.0,0.0,0.0,0.0,44607.0,44672.0,44718.0,44777.0,44797.0,44813.0,44820.0,44843.0,44999.0,45105.0,0.035517311676116166,-0.09252257607143695,0.07795641438355974,-0.06291561616399478,0.02150018679994868
46,46,45494.712177498215,2589.9629515588003,1.086679083916481,45705.60271279886,-4731.118733399406,20.38372320690772,45741.69864360057,8261.649550665908,10.191861597225149,45778.49785919076,-9453.412483819668,11.461747335423365,45999.835512095546,5956.858794513471,37.46613055131951,0.7556225568217114,161.0,157.0,138.0,252.0,390.0,4.0,864.0,938.0,4.0,2.0,2.0,0.5,369.1141684835851,2197.066820730306,69.0,57.0,12.0,0.8260869565217391,253.35176529069824,3042.9783041321853,19.0,6.0,13.0,0.3157894736842105,685.8959795544316,7728.987765193102,29.0,15.0,14.0,0.5172413793103449,407.6153300144632,9755.277711225708,110.0,65.0,45.0,0.5909090909090909,145.3453060532044,5873.099743522486,0.0,0.0,0.0,0.0,45493.0,45497.0,45654.0,45717.0,45736.0,45754.0,45763.0,45792.0,45949.0,46044.0,0.1425171615916086,-0.053550075482603626,0.08302167446683172,-0.043118326922910864,0.024399656105173053
47,47,46504.67126990158,3307.378242746801,25.639719479118583,46639.30135639943,-3072.3305023759144,10.191861603456228,46673.12330450071,8288.608968360957,11.224016656824794,46699.0958153643,-10240.41281364186,10.049558095333646,46923.86288579454,6910.719868464051,45.06104903264573,0.881838614963175,138.0,77.0,85.0,266.0,351.0,61.0,1005.0,931.0,75.0,28.0,47.0,0.3733333333333333,176.30552404173324,3315.079100113692,19.0,13.0,6.0,0.6842105263157895,327.8446402079213,1452.6509649561856,17.0,7.0,10.0,0.4117647058823529,723.9116914233983,5486.536859415325,22.0,9.0,13.0,0.4090909090909091,657.8422766037464,11758.625753368591,115.0,59.0,56.0,0.5130434782608696,124.34418160143365,6833.595926691373,0.0,0.0,0.0,0.0,46489.0,46550.0,46627.0,46645.0,46666.0,46682.0,46691.0,46712.0,46866.0,46978.0,0.0533067315262104,-0.10670878017660873,0.0873381401133403,-0.06423982007125686,0.017992941975387852
48,48,47455.67126990158,3098.4440118773127,23.526723278178824,47589.87669549929,-3308.6478249970423,12.73982700431129,47623.69864360057,7845.524914704144,10.191861603393749,47650.972626301,-10003.803436855556,12.162099795638923,47879.41085119568,6573.448834340797,39.9029474546339,0.8509508879170058,101.0,40.0,127.0,257.0,384.0,61.0,951.0,951.0,64.0,19.0,45.0,0.296875,177.65435786889236,3036.859281309777,60.0,53.0,7.0,0.8833333333333333,257.9260158579191,862.38566995221,17.0,7.0,10.0,0.4117647058823529,657.3681982730212,4530.144898585596,29.0,11.0,18.0,0.3793103448275862,525.0266369304013,12493.954093008117,107.0,60.0,47.0,0.5607476635514018,184.8376246538919,6588.926304666273,0.0,0.0,0.0,0.0,47440.0,47501.0,47541.0,47597.0,47618.0,47634.0,47641.0,47668.0,47830.0,47925.0,0.057336636449742906,-0.07795511323667385,0.08378893769631356,-0.052482702228646566,0.02811882001549464
49,49,48439.78259318202,6082.893966498142,11.586832554995231,48544.51551876321,-4547.167444971381,2.1709564627439697,48584.04465811059,9292.322462697475,8.997546638214976,48610.2113935099,-8128.44183561893,8.309977367355094,48794.87669549929,8410.09428078354,12.739827004320285,0.4290216188641609,113.0,94.0,75.0,185.0,260.0,19.0,989.0,963.0,19.0,11.0,8.0,0.5789473684210527,595.8597802246499,7806.504034843444,7.0,4.0,3.0,0.5714285714285714,786.5566831381949,3419.5551760922817,21.0,12.0,9.0,0.5714285714285714,897.8094708895585,9973.01535301001,17.0,9.0,8.0,0.5294117647058824,959.3140712818204,9129.462662581274,22.0,14.0,8.0,0.6363636363636364,793.2942593483908,9223.899171769806,0.0,0.0,0.0,0.0,48429.0,48448.0,48542.0,48547.0,48573.0,48592.0,48602.0,48617.0,48781.0,48802.0,0.09795662780025081,-0.17297728589432787,0.0966184153093771,-0.11801942988360876,0.09432644068699814
50,50,49391.726017299574,4204.538573865485,7.64389620259217,49506.726017299574,-3314.464940861184,5.531824414671712,49540.12330450071,9984.417138436169,6.0218166910646005,49565.54796540086,-9323.247589030098,7.948019936574199,49821.178051898714,6943.202868739298,22.93168860777651,0.6392564211674816,122.0,104.0,75.0,259.0,334.0,18.0,953.0,953.0,28.0,14.0,14.0,0.5,608.036793407117,2388.826609239896,11.0,7.0,4.0,0.6363636363636364,580.8254458092655,2552.2919246476285,16.0,7.0,9.0,0.4375,878.7243596115567,7011.111692710603,20.0,10.0,10.0,0.5,678.5339015743344,8622.262490172916,69.0,56.0,13.0,0.8115942028985508,536.0804155803071,6250.884930194054,0.0,0.0,0.0,0.0,49378.0,49396.0,49500.0,49511.0,49533.0,49549.0,49557.0,49575.0,49765.0,49834.0,0.144614392929237,-0.17523958049722257,0.08800958007141003,-0.07277870667863737,0.07720938387007625
51,51,50347.794574402295,4326.694938710365,25.87214699268251,50476.87669549929,-2623.8843041135806,12.739827004320254,50510.69864360057,8502.111765197522,10.191861603456228,50536.972626301,-12772.12704209066,9.298370813461368,50756.51560776057,6693.156949082481,46.57236749681328,0.8455930372277952,122.0,69.0,102.0,262.0,364.0,53.0,948.0,971.0,75.0,33.0,42.0,0.44,152.61298076130865,3811.171662946386,67.0,60.0,7.0,0.8955223880597015,273.06958259953274,811.5619910891817,17.0,7.0,10.0,0.4117647058823529,732.0205846820161,4789.361908450824,23.0,10.0,13.0,0.4347826086956521,782.5788918060183,15159.311437831237,126.0,63.0,63.0,0.5,154.0857064719315,6351.6328994123805,0.0,0.0,0.0,0.0,50325.0,50378.0,50447.0,50484.0,50505.0,50521.0,50527.0,50549.0,50700.0,50811.0,0.035272415301550515,-0.1040707405320537,0.08609867817528151,-0.061272401161296196,0.023021379543931665
52,52,52284.178051898714,4014.6649351518504,22.93168860777453,52392.32873010063,-2963.150804987898,25.14164827022873,52440.87669549929,12510.855727620534,12.73982700396573,52461.90406919828,-10313.105978082662,12.771789980548933,52703.95881659626,6432.042630581105,39.57556319598492,0.8193535414642078,107.0,88.0,97.0,258.0,355.0,19.0,1947.0,1934.0,61.0,44.0,17.0,0.7213114754098361,368.7822365069448,3389.9578457891394,36.0,18.0,18.0,0.5,324.63310737845603,3002.1252490315223,20.0,13.0,7.0,0.65,918.1156181587924,6014.310832658984,28.0,7.0,21.0,0.25,555.6295728168298,12428.618610851625,111.0,72.0,39.0,0.6486486486486487,236.5849541741761,5973.215051454441,0.0,0.0,0.0,0.0,52279.0,52298.0,52386.0,52408.0,52429.0,52448.0,52455.0,52483.0,52650.0,52741.0,0.09185878335149182,-0.10955672820701472,0.07338551719782406,-0.053876065464434256,0.03678224286781534
53,53,53384.30135639943,8650.300887697951,5.8048303550427915,53606.2809104851,5085.591749929464,32.383645754946656,53621.663142601494,5708.904829949296,2.9291759800330524,53648.62595300458,397.5430555816426,6.95463588943055,53669.60271279886,5348.995814682677,14.694557680516374,0.4947628627268028,191.0,173.0,125.0,-4.0,121.0,18.0,1098.0,1177.0,18.0,12.0,6.0,0.6666666666666666,918.673403916613,4280.3940981185115,116.0,36.0,80.0,0.3103448275862069,417.4047677710131,5623.945401914629,15.0,7.0,8.0,0.4666666666666667,536.1651810562261,8050.531415908811,50.0,14.0,36.0,0.28,349.3485166790208,6539.676088389093,50.0,35.0,15.0,0.7,437.6542863042047,4412.660634782585,0.0,0.0,0.0,0.0,53372.0,53390.0,53563.0,53687.0,53616.0,53629.0,53558.0,53688.0,53665.0,53684.0,0.1062013236121193,0.0820759487382766,0.09391734439913374,0.8787690082219932,0.08181989694268775
54,54,53970.9199801288,4381.8842827261715,1.449049713372948,54289.15067819971,-2241.0450110132615,5.095930801728113,54317.726017299574,13532.953660841353,7.64389620259217,54338.09126619929,-11468.45705578453,16.43937666749286,54572.93144289727,6116.900636423403,32.2619753473859,0.6404002156466786,319.0,313.0,71.0,242.0,313.0,6.0,585.0,699.0,6.0,3.0,3.0,0.5,773.6062640438957,1799.633601054537,5.0,2.0,3.0,0.4,501.58967222386815,1001.919119355048,16.0,11.0,5.0,0.6875,1009.8693000268166,3647.121631842907,31.0,10.0,21.0,0.3225806451612903,721.4862346056939,15734.805165888418,92.0,46.0,46.0,0.5,220.2543328307559,4690.600804058515,0.0,0.0,0.0,0.0,53968.0,53974.0,54287.0,54292.0,54307.0,54322.0,54328.0,54358.0,54547.0,54600.0,0.1765464841446246,-0.22381954389978112,0.07462297775754242,-0.06291048840277831,0.03600750542182098
55,55,55053.69864360057,2278.539055941973,10.191861603456228,55179.027373699,-3378.128541018484,17.8357578060484,55219.30135639943,14944.03033254457,10.191861603456228,55236.67799769744,-12282.229882747251,14.924399975604713,55469.3647706509,5644.147739134935,35.57636102259419,0.7779145548342714,127.0,116.0,83.0,257.0,340.0,11.0,1081.0,902.0,11.0,6.0,5.0,0.5454545454545454,272.7422807202082,2717.289019597694,20.0,6.0,14.0,0.3,347.05863155644437,1275.5761009534058,19.0,13.0,6.0,0.6842105263157895,990.8510060967752,2992.0149109426816,28.0,7.0,21.0,0.25,872.9914133400733,18449.89762815477,82.0,35.0,47.0,0.4268292682926829,166.56012089786992,6323.3108689380515,0.0,0.0,0.0,0.0,55048.0,55059.0,55175.0,55192.0,55207.0,55225.0,55230.0,55258.0,55435.0,55515.0,0.11970050722148082,-0.10273695252928665,0.06630413509928013,-0.07107759923679309,0.029510234068287903
56,56,55928.09593080172,2789.975235612694,19.15539595797476,56059.027373699,-4610.148945897822,17.8357578060484,56093.273982700426,8178.130066120468,7.64389620259217,56120.972626301,-10720.791422459308,8.326528399059182,56349.09845573057,5298.280075754354,34.025727142472064,0.7833166851801692,100.0,51.0,122.0,265.0,387.0,49.0,871.0,871.0,52.0,18.0,34.0,0.3461538461538461,119.47744814062716,2267.2375849843343,64.0,53.0,11.0,0.828125,221.16029454919615,3056.585750691233,16.0,4.0,12.0,0.25,664.5957814864579,6968.984595801943,23.0,10.0,13.0,0.4347826086956521,706.0697619559863,12945.268879305884,97.0,47.0,50.0,0.4845360824742268,134.92468859821594,5138.689669220809,0.0,0.0,0.0,0.0,55911.0,55960.0,56011.0,56069.0,56089.0,56105.0,56111.0,56133.0,56304.0,56398.0,0.042823838224639026,-0.04797248356714978,0.08126500509446263,-0.06585985438321462,0.02546575240815403
57,57,56806.58442366951,1967.308338396418,6.888606609124143,56946.45203459914,-4843.597802626658,15.28779240518434,56984.95595555149,13624.568225049014,8.801693485045893,57005.972626301,-12705.495992118264,16.750175202270274,57235.60875617757,6334.166440972288,32.44019480914754,0.7729362742575585,86.0,70.0,141.0,253.0,394.0,16.0,882.0,894.0,19.0,8.0,11.0,0.4210526315789473,204.13464275098573,2112.9324214704443,77.0,67.0,10.0,0.8701298701298701,273.33252794788643,3088.3053038469125,16.0,11.0,5.0,0.6875,910.6695169014804,3249.16572205304,31.0,10.0,21.0,0.3225806451612903,716.2278402985156,16407.646699628134,73.0,29.0,44.0,0.3972602739726027,158.74863130668254,6874.365716450761,0.0,0.0,0.0,0.0,56799.0,56815.0,56885.0,56955.0,56974.0,56990.0,56996.0,57026.0,57207.0,57279.0,0.10376342069356494,-0.05643171441684518,0.06684024784192413,-0.05637149787326846,0.025062276589358896
58,58,57690.15067819971,1742.6482298824649,2.0332995673756353,57809.30135639943,-6271.400141575243,10.191861603456228,57841.69864360057,8509.304338084312,9.910609767711868,57877.955456646174,-12575.661195974664,11.291862939322794,58096.12277230361,6635.1633503822795,31.665734818270437,0.6976213585122042,64.0,59.0,139.0,239.0,378.0,5.0,886.0,854.0,5.0,2.0,3.0,0.4,303.7083655723201,1809.745757659071,63.0,57.0,6.0,0.9047619047619048,329.7035428729139,3608.917329982889,18.0,6.0,12.0,0.3333333333333333,830.9897621460271,10594.086790737689,28.0,15.0,13.0,0.5357142857142857,552.412322404724,11870.203089135895,76.0,41.0,35.0,0.5394736842105263,286.58578474918926,6989.93645019013,0.0,0.0,0.0,0.0,57688.0,57693.0,57752.0,57815.0,57836.0,57854.0,57863.0,57891.0,58082.0,58130.0,0.17427978886639908,-0.05257255723282542,0.09765660377509858,-0.043927099640816133,0.043191971262120904
59,59,0.0,0.0,0.0,0.0,0.0,0.0,0.0,0.0,0.0,0.0,0.0,0.0,0.0,0.0,0.0,0.0,0.0,0.0,0.0,0.0,0.0,0.0,0.0,0.0,0.0,0.0,0.0,0.0,0.0,0.0,0.0,0.0,0.0,0.0,0.0,0.0,0.0,0.0,0.0,0.0,0.0,0.0,0.0,0.0,0.0,0.0,0.0,0.0,0.0,0.0,0.0,0.0,0.0,0.0,0.0,0.0,0.0,0.0,,,,,,,,,,,,,,,
60,60,59342.08350586781,1780.6875859629672,7.64389620259217,59479.753390998565,-5489.651491849174,25.47965400864057,59514.69864360057,14811.83530948386,10.191861603456228,59545.750277963285,-14901.334568091785,10.841357872055683,59758.73505200144,9364.07248754757,42.19857997356978,0.8850705680046153,97.0,88.0,128.0,256.0,384.0,9.0,1650.0,1673.0,17.0,10.0,7.0,0.5882352941176471,200.19826928755384,1740.345202178948,64.0,50.0,14.0,0.78125,264.383934381558,3369.590379701164,18.0,7.0,11.0,0.3888888888888889,956.1328655011608,10848.042615506123,26.0,12.0,14.0,0.4615384615384615,719.3234590669196,15928.534380323108,118.0,61.0,57.0,0.5169491525423728,156.47510950857088,9331.388560154584,0.0,0.0,0.0,0.0,59335.0,59344.0,59432.0,59494.0,59509.0,59526.0,59534.0,59560.0,59698.0,59816.0,0.11242750882619863,-0.048160422346319294,0.06455195089085004,-0.0482724185394244,0.016710155727292043
61,61,60230.23334891876,2420.410938971549,15.090009948308223,60362.60271279886,-5745.305297456028,20.383723206912453,60397.69864360057,10651.53292950208,10.191861603456228,60424.54796540086,-12453.357874507132,9.883872752329795,60649.71980041535,6657.0017375060415,34.1901201548008,0.8327318013458039,96.0,77.0,125.0,255.0,380.0,19.0,886.0,883.0,24.0,14.0,10.0,0.5833333333333334,203.31850277427657,2495.6607549788055,68.0,55.0,13.0,0.8088235294117647,233.3713405697514,3511.665164419322,17.0,6.0,11.0,0.3529411764705882,757.7785829808629,7128.1046675939815,23.0,10.0,13.0,0.4347826086956521,733.1934962988174,15169.91582690082,102.0,52.0,50.0,0.5098039215686274,158.17181260672584,6357.544580606457,0.0,0.0,0.0,0.0,60217.0,60236.0,60313.0,60374.0,60392.0,60409.0,60416.0,60438.0,60605.0,60693.0,0.0840016459604451,-0.04061948469006273,0.0711426785230139,-0.05887516472964406,0.023760218014601694
62,62,0.0,0.0,0.0,0.0,0.0,0.0,0.0,0.0,0.0,0.0,0.0,0.0,0.0,0.0,0.0,0.0,0.0,0.0,0.0,0.0,0.0,0.0,0.0,0.0,0.0,0.0,0.0,0.0,0.0,0.0,0.0,0.0,0.0,0.0,0.0,0.0,0.0,0.0,0.0,0.0,0.0,0.0,0.0,0.0,0.0,0.0,0.0,0.0,0.0,0.0,0.0,0.0,0.0,0.0,0.0,0.0,0.0,0.0,,,,,,,,,,,,,,,
63,63,0.0,0.0,0.0,0.0,0.0,0.0,0.0,0.0,0.0,0.0,0.0,0.0,0.0,0.0,0.0,0.0,0.0,0.0,0.0,0.0,0.0,0.0,0.0,0.0,0.0,0.0,0.0,0.0,0.0,0.0,0.0,0.0,0.0,0.0,0.0,0.0,0.0,0.0,0.0,0.0,0.0,0.0,0.0,0.0,0.0,0.0,0.0,0.0,0.0,0.0,0.0,0.0,0.0,0.0,0.0,0.0,0.0,0.0,,,,,,,,,,,,,,,
64,64,0.0,0.0,0.0,0.0,0.0,0.0,0.0,0.0,0.0,0.0,0.0,0.0,0.0,0.0,0.0,0.0,0.0,0.0,0.0,0.0,0.0,0.0,0.0,0.0,0.0,0.0,0.0,0.0,0.0,0.0,0.0,0.0,0.0,0.0,0.0,0.0,0.0,0.0,0.0,0.0,0.0,0.0,0.0,0.0,0.0,0.0,0.0,0.0,0.0,0.0,0.0,0.0,0.0,0.0,0.0,0.0,0.0,0.0,,,,,,,,,,,,,,,
65,65,64893.67126990158,3698.4137405202937,28.027619409504627,65021.60271279886,-2033.128829352491,20.383723206912453,65063.61399566403,7381.011773496403,12.331053165372069,65095.32873009842,-9540.17130124665,11.472276408990792,65309.91020018657,6257.232197481893,48.43512816788204,0.8616547807627578,139.0,76.0,94.0,261.0,355.0,63.0,4662.0,4666.0,76.0,27.0,49.0,0.3552631578947368,200.4367418358082,4192.875463484293,20.0,6.0,14.0,0.3,180.08201695085214,1402.4292518352142,18.0,7.0,11.0,0.3888888888888889,697.1863273855669,4909.60083746445,29.0,12.0,17.0,0.4137931034482758,397.571740855691,9118.741477933534,117.0,55.0,62.0,0.4700854700854701,152.4266956143497,7050.933790805111,0.0,0.0,0.0,0.0,64878.0,64941.0,65017.0,65036.0,65057.0,65074.0,65083.0,65111.0,65256.0,65372.0,0.05419532694241253,-0.08857383474720806,0.09445674235191039,-0.04167343837984742,0.024360082989359256
66,66,65823.75339099858,2186.6591774653984,16.742830313393203,65939.17805189872,-5549.318148232516,22.93168860777651,65977.12330450071,8740.735058294209,12.418300774051811,66012.06851717045,-9355.174447852329,13.510734173700982,66249.93144289727,4910.477051364419,30.736021173768822,0.7327831655263065,85.0,65.0,125.0,249.0,374.0,20.0,939.0,913.0,26.0,8.0,18.0,0.3076923076923077,148.57052938266722,2114.3532956667277,76.0,62.0,14.0,0.8157894736842105,234.37873362004729,3386.748960126292,18.0,7.0,11.0,0.3888888888888889,716.262017451996,7350.657850203304,30.0,14.0,16.0,0.4666666666666667,391.4335403007066,10689.353002903435,99.0,71.0,28.0,0.7171717171717171,115.00507238351466,4647.459286630647,0.0,0.0,0.0,0.0,65818.0,65838.0,65903.0,65952.0,65970.0,65987.0,65998.0,66028.0,66198.0,66277.0,0.06794407236105188,-0.042235591357236923,0.08194528408366808,-0.041841394030933135,0.023420346166073518
67,67,66709.82194810128,2307.668003052883,18.391164373373297,66831.63008649785,-3919.669503604379,30.08118701218912,66878.69864360057,8180.652594165844,10.191861603393242,66906.0076540621,-10674.713376963387,10.88371008997223,67132.13686849497,6159.858747766706,37.53560950400224,0.8298171829691458,96.0,48.0,126.0,263.0,389.0,48.0,878.0,902.0,64.0,17.0,47.0,0.265625,137.01960946444106,2114.419512142641,67.0,46.0,21.0,0.6865671641791045,116.96305154711284,3915.659286591454,17.0,7.0,10.0,0.4117647058823529,663.9635894854466,4102.476986773199,24.0,11.0,13.0,0.4583333333333333,632.239402491323,12189.423614129517,104.0,54.0,50.0,0.5192307692307693,108.60726753330476,6347.337603735887,0.0,0.0,0.0,0.0,66697.0,66745.0,66793.0,66853.0,66873.0,66889.0,66895.0,66919.0,67079.0,67182.0,0.0593757894476908,-0.02984002897171766,0.08116266787309392,-0.05922776379698681,0.01763145422331007
68,68,67608.82194810128,2050.679535655531,17.38689783608455,67741.17805189872,-4083.9682874553496,22.93168860777651,67776.27398270041,6582.209676760565,7.64389620259217,67804.94801351428,-12298.570041828149,9.984669317683052,68042.53415569612,5698.4486993193905,32.73055277202765,0.7730084128902732,89.0,71.0,132.0,264.0,396.0,18.0,899.0,898.0,56.0,17.0,39.0,0.3035714285714285,135.1446488782616,1956.4348059117444,72.0,59.0,13.0,0.8194444444444444,172.6638760831079,2695.503925903906,15.0,4.0,11.0,0.2666666666666666,604.2567817299879,4066.862096364287,26.0,13.0,13.0,0.5,689.997262610062,12566.976617169195,99.0,60.0,39.0,0.6060606060606061,140.24944942218931,5229.9920249019415,0.0,0.0,0.0,0.0,67596.0,67614.0,67685.0,67754.0,67772.0,67787.0,67793.0,67817.0,67985.0,68081.0,0.06590237359298588,-0.04227845662109482,0.09180150912897884,-0.05610386087678009,0.02461186488156687
69,69,0.0,0.0,0.0,0.0,0.0,0.0,0.0,0.0,0.0,0.0,0.0,0.0,0.0,0.0,0.0,0.0,0.0,0.0,0.0,0.0,0.0,0.0,0.0,0.0,0.0,0.0,0.0,0.0,0.0,0.0,0.0,0.0,0.0,0.0,0.0,0.0,0.0,0.0,0.0,0.0,0.0,0.0,0.0,0.0,0.0,0.0,0.0,0.0,0.0,0.0,0.0,0.0,0.0,0.0,0.0,0.0,0.0,0.0,,,,,,,,,,,,,,,
70,70,69411.67126990156,3350.925087205804,28.027619409504627,69536.60271279886,-3163.330398811316,20.383723206912453,69580.69864360057,8083.952897042282,10.000377813837211,69617.2029323991,-6631.398737407338,11.259373391564248,69852.53415569612,5991.8318333640345,50.90337821305712,0.8239418045693989,136.0,71.0,103.0,256.0,359.0,65.0,1802.0,1804.0,69.0,18.0,51.0,0.2608695652173913,156.53981911550363,3702.631042038896,23.0,5.0,18.0,0.217391304347826,252.34407339088867,3601.9865831778025,18.0,6.0,12.0,0.3333333333333333,726.0829161726978,8894.513491257792,33.0,15.0,18.0,0.4545454545454545,302.5832288365678,6577.582642173937,118.0,80.0,38.0,0.6779661016949152,132.72035169056838,6815.119166319953,0.0,0.0,0.0,0.0,69396.0,69461.0,69532.0,69554.0,69575.0,69593.0,69602.0,69635.0,69774.0,69891.0,0.046715403968053376,-0.07977164620101394,0.08981780639003396,-0.0456288696877347,0.022150213053635435
71,71,70331.972626301,1489.2142643107104,17.8357578060484,70465.60271279886,-5186.986387016485,20.383723206912453,70501.69864360057,8592.337281996202,10.191861603456228,70528.972626301,-9883.720114050036,12.993284190110447,70760.04777521177,5043.690586421832,31.955274670851782,0.7472523384484743,91.0,76.0,130.0,259.0,389.0,15.0,922.0,921.0,56.0,10.0,46.0,0.1785714285714285,114.93058793779936,1775.3522484495795,69.0,58.0,11.0,0.8405797101449275,223.5531784263072,3298.50195545837,17.0,7.0,10.0,0.4117647058823529,754.6285079028223,4513.026719035901,28.0,11.0,17.0,0.3928571428571428,575.4344285711923,11701.865088194332,85.0,42.0,43.0,0.4941176470588235,150.57447279455138,5675.566165356518,0.0,0.0,0.0,0.0,70322.0,70337.0,70413.0,70477.0,70496.0,70512.0,70519.0,70543.0,70718.0,70802.0,0.07717532036331623,-0.04309885581845401,0.08782575487161327,-0.05822042934554501,0.02985402657330217
72,72,71263.24660900142,3108.186713798594,22.695194076557765,71396.027373699,-3509.33464090623,17.835757806048274,71430.27398270041,7674.996063574775,7.64389620259217,71457.972626301,-11052.925305962372,9.11732067484628,71693.83551209555,5228.310755815643,36.94840547143564,0.819636597817164,100.0,80.0,122.0,267.0,389.0,20.0,930.0,929.0,51.0,15.0,36.0,0.2941176470588235,191.5714317430127,3801.942343293368,61.0,51.0,10.0,0.8360655737704918,218.85191044171168,1835.4879468533295,16.0,5.0,11.0,0.3125,623.2617067846757,5722.275037991386,23.0,10.0,13.0,0.4347826086956521,642.798892679096,13178.400382838518,114.0,67.0,47.0,0.5877192982456141,143.62368392397505,5254.950988539389,0.0,0.0,0.0,0.0,71249.0,71269.0,71349.0,71406.0,71426.0,71441.0,71448.0,71471.0,71642.0,71738.0,0.06163446709701953,-0.06236279318896663,0.08120677869043488,-0.05815644952674615,0.02747038013458116
73,73,72191.54796540085,2955.0809198250167,15.287792405184138,72330.027373699,-3564.914780070602,17.8357578060484,72364.27398270041,6674.366652313435,7.64389620259217,72391.972626301,-11443.249704710772,9.156555052874298,72640.2327992967,5611.594436926015,34.78227039969893,0.7957402180721557,113.0,92.0,109.0,268.0,377.0,21.0,930.0,934.0,53.0,12.0,41.0,0.2264150943396226,147.9019456329362,3252.4392085492877,71.0,60.0,11.0,0.8450704225352113,242.11441860371104,1774.714391905913,16.0,4.0,12.0,0.25,528.5781125208881,5083.627132459659,24.0,10.0,14.0,0.4166666666666667,691.6206668162714,13798.224533889506,92.0,57.0,35.0,0.6195652173913043,147.14058163099904,5726.502827403705,0.0,0.0,0.0,0.0,72183.0,72204.0,72296.0,72340.0,72360.0,72376.0,72382.0,72405.0,72585.0,72673.0,0.05005004926961327,-0.06791590642144776,0.07919524653888696,-0.06043918333194776,0.026220815364483365
74,74,73124.24660900142,3096.3851554612315,23.650705007015866,73256.72601729959,-3958.788463281075,7.64389620259038,73295.23253833616,11568.283377946278,9.699337656272588,73321.35725818957,-7972.554371498008,12.762184577363117,73545.71220759483,6051.975172864028,39.7427502106543,0.87098413575025,134.0,112.0,97.0,258.0,355.0,22.0,931.0,933.0,26.0,19.0,7.0,0.7307692307692307,250.2606109686085,3121.360990586433,21.0,16.0,5.0,0.7619047619047619,342.4553478668541,2355.6495498755216,19.0,11.0,8.0,0.5789473684210527,989.6639945268352,9409.615473745758,29.0,11.0,18.0,0.3793103448275862,490.02809703655936,10635.23024429271,120.0,63.0,57.0,0.525,102.67871241257386,5572.595053589126,0.0,0.0,0.0,0.0,73108.0,73130.0,73242.0,73261.0,73284.0,73302.0,73310.0,73339.0,73498.0,73597.0,0.08082347589324047,-0.08650508887838487,0.08554977105881811,-0.06146437819081129,0.01696614898107428
75,75,74044.80475071797,3371.949035824481,22.43199113059218,74164.027373699,-4131.169896194597,17.8357578060484,74199.69864360057,9731.137384728716,10.191861603456228,74227.54796540085,-10162.393753262526,9.466551260758212,74465.2601729957,5754.530352728269,36.75876248302163,0.8664715641590844,132.0,74.0,92.0,266.0,358.0,58.0,934.0,902.0,60.0,28.0,32.0,0.4666666666666667,121.17594453230942,3049.2269413279914,27.0,15.0,12.0,0.5555555555555556,262.0134854270579,3113.9693124243277,18.0,6.0,12.0,0.3333333333333333,709.0386799355887,8452.89094774871,24.0,9.0,15.0,0.375,668.3869510482252,12713.0337594812,96.0,53.0,43.0,0.5520833333333334,126.8884424924775,5859.394084615955,0.0,0.0,0.0,0.0,74018.0,74076.0,74150.0,74174.0,74194.0,74212.0,74219.0,74242.0,74413.0,74508.0,0.035936469752331376,-0.06342355604121004,0.07286287839778097,-0.06577062130008955,0.022050182154712012
76,76,74950.24660900142,2708.21269886554,21.517425291575893,75078.60271279886,-2716.187229633037,20.3837232069038,75115.69864360057,9043.296763955424,10.191861603456172,75142.12330450071,-10581.531592157811,7.929203068462318,75367.06939831664,6129.171213334235,46.28775428645022,0.8473276346702651,122.0,77.0,97.0,273.0,370.0,45.0,892.0,916.0,65.0,20.0,45.0,0.3076923076923077,144.77456654988598,2640.506186690439,62.0,50.0,12.0,0.8064516129032258,223.97513947338533,1284.569843560913,18.0,6.0,12.0,0.3333333333333333,677.833938527993,7434.095053181069,20.0,7.0,13.0,0.35,784.8976314934719,14097.13378030877,119.0,58.0,61.0,0.4873949579831932,109.46784260277576,6426.264470774273,0.0,0.0,0.0,0.0,74936.0,74981.0,75058.0,75090.0,75110.0,75128.0,75135.0,75155.0,75309.0,75428.0,0.05345760567865718,-0.08245938903985085,0.07495429556505198,-0.07417618372704907,0.01786013782167228
77,77,75872.945252602,2671.841124807708,21.27389176948505,76005.87669549929,-3878.343366117303,12.739827004320285,76044.36997860798,12681.33444345507,8.18168134913676,76061.43357055509,-12831.062039580764,13.720899609695891,76303.83551209555,5371.246617972022,34.5036973260437,0.8604391409663898,113.0,82.0,115.0,270.0,385.0,31.0,921.0,929.0,73.0,31.0,42.0,0.4246575342465753,132.39149578477006,2040.3427175097445,56.0,48.0,8.0,0.8571428571428571,233.00686050988955,3013.9832118222157,16.0,11.0,5.0,0.6875,886.4840462330347,1924.2142551189688,24.0,7.0,17.0,0.2916666666666667,829.0700862564146,19390.978650889883,94.0,49.0,45.0,0.5212765957446809,155.88249856108328,5295.7574986136015,0.0,0.0,0.0,0.0,75850.0,75881.0,75963.0,76013.0,76033.0,76049.0,76054.0,76078.0,76256.0,76348.0,0.0495506617349107,-0.06007896633019318,0.06990463426272585,-0.06461429955672658,0.02902166101245572
78,78,76776.54796540085,3546.685906583615,15.28779240518434,76898.47940829814,-3642.0509649168353,29.377746428496152,76951.23186834287,12537.197335594316,11.965802231784922,76973.47940829814,-10455.252212828633,13.515360956826049,77202.13686849497,7182.300146063248,41.52078692042426,0.8910345087996766,98.0,82.0,131.0,259.0,390.0,16.0,907.0,909.0,61.0,14.0,47.0,0.2295081967213114,252.77344609849865,3844.702371851183,70.0,50.0,20.0,0.7142857142857143,165.03650579429342,3561.119113893309,18.0,12.0,6.0,0.6666666666666666,1009.350816765718,8092.135824193731,30.0,8.0,22.0,0.2666666666666666,573.2422639889918,12440.292202516772,113.0,61.0,52.0,0.5398230088495575,140.76750551306006,7144.400772269311,0.0,0.0,0.0,0.0,76764.0,76780.0,76862.0,76917.0,76939.0,76957.0,76966.0,76993.0,77159.0,77252.0,0.0712703218599883,-0.04531416704051036,0.08050848923786766,-0.05482816218298602,0.019599223459105555
79,79,77679.24660900142,2696.7077647619712,20.230036149449113,77811.027373699,-4158.3963059629505,17.8357578060484,77852.30135639943,13080.173688076608,10.191861603456228,77871.01125570656,-12091.178223172708,12.739827004320285,78108.2601729957,6201.572547453457,36.24241085409985,0.844676321232838,108.0,82.0,121.0,263.0,384.0,26.0,901.0,902.0,73.0,28.0,45.0,0.3835616438356164,170.629249047512,2218.7616593603457,56.0,46.0,10.0,0.8214285714285714,235.69421699747016,3021.0747844274056,18.0,12.0,6.0,0.6666666666666666,899.6154081169922,4574.154401170406,23.0,6.0,17.0,0.2608695652173913,733.0531074133938,16181.242662984052,111.0,66.0,45.0,0.5945945945945946,101.48198099178964,6449.431524390275,0.0,0.0,0.0,0.0,77659.0,77685.0,77767.0,77821.0,77841.0,77858.0,77865.0,77888.0,78047.0,78151.0,0.06327317007691148,-0.056679113690894595,0.06877702311682968,-0.06062710299055055,0.016363910962141535
80,80,0.0,0.0,0.0,0.0,0.0,0.0,0.0,0.0,0.0,0.0,0.0,0.0,0.0,0.0,0.0,0.0,0.0,0.0,0.0,0.0,0.0,0.0,0.0,0.0,0.0,0.0,0.0,0.0,0.0,0.0,0.0,0.0,0.0,0.0,0.0,0.0,0.0,0.0,0.0,0.0,0.0,0.0,0.0,0.0,0.0,0.0,0.0,0.0,0.0,0.0,0.0,0.0,0.0,0.0,0.0,0.0,0.0,0.0,,,,,,,,,,,,,,,
81,81,79534.93144289727,3721.130410925816,28.00262701488404,79650.72601729959,-1708.909162772834,3.8646106448030983,79687.45203459915,11633.48967633797,9.154860447601202,79712.90406919828,-7382.258261916015,11.046236593076948,79939.13686849497,8120.612192561087,57.08431502592743,0.8825372375314166,123.0,58.0,110.0,259.0,369.0,65.0,1868.0,1836.0,67.0,39.0,28.0,0.582089552238806,161.11250321655135,3907.42190500672,35.0,31.0,4.0,0.8857142857142857,228.0133397135701,309.548540158827,19.0,10.0,9.0,0.5263157894736842,866.8089950414821,8492.966497175115,29.0,11.0,18.0,0.3793103448275862,475.41478507143455,8919.594797273787,131.0,75.0,56.0,0.5725190839694656,173.89515306858118,8919.226993002398,0.0,0.0,0.0,0.0,79497.0,79562.0,79620.0,79655.0,79677.0,79696.0,79703.0,79730.0,79877.0,79989.0,0.043296655968707805,-0.13342624914223133,0.0745098005119251,-0.06439964143818018,0.021414044772126713
82,82,80435.80813839656,3158.225288579937,24.74712999817711,80559.87669549929,-3105.953632144614,12.739827004320285,80591.27398270041,8589.368576779383,7.64389620259217,80618.54796540085,-11214.722194702385,7.698179124217759,80852.13686849497,7885.5858390269395,44.959625529575206,0.8824583214309731,146.0,82.0,79.0,271.0,350.0,64.0,903.0,900.0,80.0,43.0,37.0,0.5375,176.81485433520237,1931.1486949416153,42.0,34.0,8.0,0.8095238095238095,245.72697747519047,1722.301328285388,16.0,4.0,12.0,0.25,667.1802622866869,8588.22027493266,23.0,10.0,13.0,0.4347826086956521,748.5447969145214,13413.99251731062,118.0,67.0,51.0,0.5677966101694916,97.9006323261856,8086.386283146454,0.0,0.0,0.0,0.0,80406.0,80470.0,80552.0,80567.0,80587.0,80603.0,80610.0,80631.0,80793.0,80902.0,0.05598551027203804,-0.07911482481002774,0.07767512318546338,-0.066746619659301,0.012415137483084742
83,83,0.0,0.0,0.0,0.0,0.0,0.0,0.0,0.0,0.0,0.0,0.0,0.0,0.0,0.0,0.0,0.0,0.0,0.0,0.0,0.0,0.0,0.0,0.0,0.0,0.0,0.0,0.0,0.0,0.0,0.0,0.0,0.0,0.0,0.0,0.0,0.0,0.0,0.0,0.0,0.0,0.0,0.0,0.0,0.0,0.0,0.0,0.0,0.0,0.0,0.0,0.0,0.0,0.0,0.0,0.0,0.0,0.0,0.0,,,,,,,,,,,,,,,
84,84,0.0,0.0,0.0,0.0,0.0,0.0,0.0,0.0,0.0,0.0,0.0,0.0,0.0,0.0,0.0,0.0,0.0,0.0,0.0,0.0,0.0,0.0,0.0,0.0,0.0,0.0,0.0,0.0,0.0,0.0,0.0,0.0,0.0,0.0,0.0,0.0,0.0,0.0,0.0,0.0,0.0,0.0,0.0,0.0,0.0,0.0,0.0,0.0,0.0,0.0,0.0,0.0,0.0,0.0,0.0,0.0,0.0,0.0,,,,,,,,,,,,,,,
85,85,83183.67126990156,2745.5633282951353,22.24993307434777,83307.32873009844,-3343.5553784180993,28.02761940950436,83350.69864360057,8955.329422436136,10.191861603455894,83382.82431959367,-8748.374109069977,11.45970214539003,83603.13686849497,6808.748240235738,38.36466973362565,0.8445657056172771,109.0,59.0,122.0,254.0,376.0,50.0,2733.0,2759.0,63.0,17.0,46.0,0.2698412698412698,167.95045504119142,2760.500880961522,60.0,43.0,17.0,0.7166666666666667,158.1162751331457,3312.5918892472027,17.0,6.0,11.0,0.3529411764705882,728.0481475899378,6882.348185024857,29.0,13.0,16.0,0.4482758620689655,401.36619762592807,8959.642171466709,116.0,61.0,55.0,0.5258620689655172,106.43857550011158,6803.587603254282,0.0,0.0,0.0,0.0,83168.0,83218.0,83277.0,83323.0,83345.0,83361.0,83370.0,83399.0,83555.0,83653.0,0.06117158300824213,-0.04728986280704391,0.08129775167912086,-0.045878947633230166,0.015632620232764897
86,86,84118.32873009844,2323.3692754897365,18.170463882612413,84233.027373699,-4485.639331371695,17.8357578060484,84267.27398270041,6961.328199387159,7.64389620259217,84294.36925794413,-12983.107501252232,8.904782659603928,84519.19810214241,6000.870397114128,36.55843448499426,0.8135202661448852,72.0,45.0,127.0,260.0,387.0,27.0,944.0,917.0,29.0,12.0,17.0,0.4137931034482758,149.1779063022901,2518.416219802889,69.0,59.0,10.0,0.855072463768116,229.7177873401151,2619.012662153146,16.0,5.0,11.0,0.3125,612.3261778759071,4494.115972704113,24.0,11.0,13.0,0.4583333333333333,803.5702649172587,14424.89861406844,97.0,47.0,50.0,0.4845360824742268,82.66643512619166,5621.334573451465,0.0,0.0,0.0,0.0,84107.0,84134.0,84179.0,84243.0,84263.0,84278.0,84284.0,84306.0,84480.0,84566.0,0.06420757469595327,-0.05121182742747801,0.08796111321540813,-0.06189352316768182,0.013775740793526668
87,87,0.0,0.0,0.0,0.0,0.0,0.0,0.0,0.0,0.0,0.0,0.0,0.0,0.0,0.0,0.0,0.0,0.0,0.0,0.0,0.0,0.0,0.0,0.0,0.0,0.0,0.0,0.0,0.0,0.0,0.0,0.0,0.0,0.0,0.0,0.0,0.0,0.0,0.0,0.0,0.0,0.0,0.0,0.0,0.0,0.0,0.0,0.0,0.0,0.0,0.0,0.0,0.0,0.0,0.0,0.0,0.0,0.0,0.0,,,,,,,,,,,,,,,
88,88,0.0,0.0,0.0,0.0,0.0,0.0,0.0,0.0,0.0,0.0,0.0,0.0,0.0,0.0,0.0,0.0,0.0,0.0,0.0,0.0,0.0,0.0,0.0,0.0,0.0,0.0,0.0,0.0,0.0,0.0,0.0,0.0,0.0,0.0,0.0,0.0,0.0,0.0,0.0,0.0,0.0,0.0,0.0,0.0,0.0,0.0,0.0,0.0,0.0,0.0,0.0,0.0,0.0,0.0,0.0,0.0,0.0,0.0,,,,,,,,,,,,,,,
89,89,86897.87669549929,2033.1263078603408,12.739827004320285,87006.87669549929,-4462.915276938745,12.739827004320285,87037.27398270041,10122.70118459872,7.64389620259217,87066.54796540085,-7638.492668262479,14.884245906379874,87289.45178316934,5987.943195843412,36.201298607670424,0.7277232506036087,72.0,46.0,140.0,244.0,384.0,26.0,2777.0,2770.0,26.0,19.0,7.0,0.7307692307692307,150.64982509605986,2059.66032368919,73.0,65.0,8.0,0.8904109589041096,330.3329268532851,2272.337909335723,16.0,4.0,12.0,0.25,728.9474259364466,8912.830193574426,34.0,9.0,25.0,0.2647058823529412,492.48253523699753,11799.54256047702,105.0,50.0,55.0,0.4761904761904761,152.8025961376638,5724.682760501561,0.0,0.0,0.0,0.0,86879.0,86905.0,86951.0,87014.0,87033.0,87049.0,87058.0,87091.0,87249.0,87335.0,0.07409762222525344,-0.0740172972944875,0.07201115716480011,-0.0644737851596344,0.025518377703337803
90,90,87808.90406919828,2542.7639015799105,20.14884392518158,87921.60271279886,-3788.7994946241142,20.383723206912453,87957.69864360057,8671.813220592256,10.191861603456228,87985.07453815991,-10857.103065153382,10.538686659847622,88215.98619029527,6468.537898513658,37.08329435611023,0.8157674078147978,95.0,48.0,124.0,265.0,389.0,47.0,914.0,920.0,48.0,30.0,18.0,0.625,148.80570508642816,2781.253921903053,59.0,48.0,11.0,0.8135593220338984,224.24005502977016,1947.1497235999832,18.0,7.0,11.0,0.3888888888888889,734.580989371486,5120.004396850081,24.0,11.0,13.0,0.4583333333333333,657.9293048173579,12570.943505571708,108.0,58.0,50.0,0.5370370370370371,127.32347015321442,5779.641239781218,0.0,0.0,0.0,0.0,87779.0,87826.0,87874.0,87933.0,87952.0,87968.0,87974.0,87998.0,88168.0,88263.0,0.05852124335805217,-0.05918498863503912,0.08470904189070122,-0.06059897385786336,0.019683500684516488
91,91,88709.54796540085,1683.0871422120338,6.449778874631837,88827.45203459915,-5873.018365410368,15.28779240518434,88861.27398270041,7004.654506007733,7.64389620259217,88893.1417242097,-11594.08481400716,14.363077271686116,89120.69618205263,5202.48834169459,28.821961379693494,0.6897937393543909,74.0,58.0,134.0,251.0,385.0,16.0,893.0,904.0,21.0,9.0,12.0,0.4285714285714285,193.18034443046017,2004.2455193043163,63.0,53.0,10.0,0.8412698412698413,312.65421726552347,4115.45025374945,15.0,4.0,11.0,0.2666666666666666,761.6057245555548,2983.0073155670916,34.0,17.0,17.0,0.5,396.769792820179,10930.320420240549,91.0,48.0,43.0,0.5274725274725275,194.8240687642018,4266.785725657553,0.0,0.0,0.0,0.0,88701.0,88717.0,88775.0,88836.0,88857.0,88872.0,88877.0,88909.0,89085.0,89160.0,0.11477738709153747,-0.05323569548273961,0.1087285210001925,-0.03422174317207251,0.0374482470633932
92,92,89590.52059170186,3398.3612406072325,28.879134453808454,89725.87669549929,-2509.943494467729,12.739827004320285,89759.27398270041,8346.698304659978,7.64389620259217,89787.91337906581,-11076.722756225336,8.930186382393453,90010.8454219043,7598.4629656902525,52.9195270136075,0.8800780791636801,140.0,73.0,87.0,267.0,354.0,67.0,878.0,898.0,77.0,28.0,49.0,0.3636363636363636,181.5372388065837,3814.7372142505847,40.0,33.0,7.0,0.825,284.36023609512876,1324.3362961182463,16.0,5.0,11.0,0.3125,691.4486108664738,7039.232826701878,23.0,11.0,12.0,0.4782608695652174,655.8578292235126,11571.571890141637,128.0,63.0,65.0,0.4921875,120.36300320874028,8058.850883926519,0.0,0.0,0.0,0.0,89572.0,89639.0,89712.0,89733.0,89755.0,89770.0,89777.0,89799.0,89963.0,90066.0,0.053419052876834815,-0.11329348119664805,0.08284097323614018,-0.05921045815242668,0.015840440856555043
93,93,90495.82194810128,2634.96827275103,18.59238072731442,90629.60271279886,-3943.803309452457,20.383723206912453,90664.2739827004,6090.663799649467,7.643896202592169,90692.39728720114,-11106.827120186634,10.25136941709848,90926.83551209555,5382.751232278632,35.98772445086435,0.7868748903037845,95.0,64.0,128.0,265.0,393.0,31.0,907.0,905.0,50.0,14.0,36.0,0.28,173.0713875324983,3363.8087922923196,65.0,53.0,12.0,0.8153846153846154,196.3365751726518,1819.565204815905,15.0,4.0,11.0,0.2666666666666666,560.0496955873518,4180.70694620317,27.0,12.0,15.0,0.4444444444444444,592.7240030014688,12511.105340472575,112.0,68.0,44.0,0.6071428571428571,147.69075767289596,5502.9520273279395,0.0,0.0,0.0,0.0,90483.0,90514.0,90578.0,90641.0,90660.0,90675.0,90681.0,90706.0,90878.0,90971.0,0.06568253186282341,-0.049783561645195346,0.09195216055425422,-0.05336573591968441,0.027437782520440823
94,94,0.0,0.0,0.0,0.0,0.0,0.0,0.0,0.0,0.0,0.0,0.0,0.0,0.0,0.0,0.0,0.0,0.0,0.0,0.0,0.0,0.0,0.0,0.0,0.0,0.0,0.0,0.0,0.0,0.0,0.0,0.0,0.0,0.0,0.0,0.0,0.0,0.0,0.0,0.0,0.0,0.0,0.0,0.0,0.0,0.0,0.0,0.0,0.0,0.0,0.0,0.0,0.0,0.0,0.0,0.0,0.0,0.0,0.0,,,,,,,,,,,,,,,
95,95,92279.39728720114,2938.069879625283,20.169454763580088,92414.87669549928,-3220.212930201392,12.739827004320272,92455.64469432802,9704.150870483463,8.695066263125533,92481.32873009844,-7155.311530959112,14.33725687950418,92707.56152939513,6136.76878255884,38.775257614392075,0.8255964520458373,128.0,111.0,101.0,259.0,360.0,17.0,1784.0,1794.0,21.0,12.0,9.0,0.5714285714285714,255.2045811976621,4467.593828026589,27.0,20.0,7.0,0.7407407407407407,342.9281486913234,1068.3567539104347,18.0,11.0,7.0,0.6111111111111112,889.3373483573448,6684.677717717542,31.0,12.0,19.0,0.3870967741935484,476.88223960000374,8241.903713631998,118.0,64.0,54.0,0.5423728813559322,203.9179551371767,4968.029934556589,0.0,0.0,0.0,0.0,92268.0,92285.0,92396.0,92422.0,92445.0,92462.0,92470.0,92497.0,92661.0,92756.0,0.08686130407157316,-0.10649238299588987,0.09164504553019566,-0.06664730634531597,0.03322888027274661
96,96,93178.027373699,1997.0045839527072,14.856306599106327,93302.7260172996,-2577.1329536272056,7.64389620259217,93332.7260172996,11200.302972610996,7.64389620259217,93356.96107628327,-9846.659601826374,15.095015100167604,93595.80813839656,5581.052575964156,30.665003496642893,0.7275345041426441,45.0,22.0,165.0,255.0,420.0,23.0,905.0,877.0,28.0,14.0,14.0,0.5,168.9907610524334,1681.9817908391146,96.0,93.0,3.0,0.96875,329.7121747821477,884.8946202362137,17.0,13.0,4.0,0.7647058823529411,889.7955776967304,3961.197960825666,31.0,12.0,19.0,0.3870967741935484,471.6931413590438,11398.125282408202,95.0,60.0,35.0,0.631578947368421,136.93246981674994,5114.683751820229,0.0,0.0,0.0,0.0,93165.0,93188.0,93210.0,93307.0,93320.0,93337.0,93345.0,93375.0,93537.0,93630.0,0.08462211975395016,-0.12793758828705046,0.07944388467638949,-0.04790387404796175,0.02453524096986206
97,97,94038.30135639945,2367.145588339354,10.191861603456108,94173.45203459916,-4527.762725108276,15.28779240156866,94216.12330450072,16471.49015874046,10.916642489398862,94229.0273738822,-17452.557828235833,12.773079000779626,94479.78076469756,5160.461207827494,29.62885654553143,0.7225360977365957,99.0,77.0,127.0,256.0,383.0,22.0,859.0,880.0,32.0,19.0,13.0,0.59375,161.65215326925676,1897.636259197243,64.0,53.0,11.0,0.828125,274.45285920211154,3155.715733151722,17.0,14.0,3.0,0.8235294117647058,937.3955619570992,468.9027573460994,25.0,5.0,20.0,0.2,807.5363437113396,17942.30967198225,73.0,48.0,25.0,0.6575342465753424,162.49726706470685,5696.024179035962,0.0,0.0,0.0,0.0,94022.0,94044.0,94121.0,94182.0,94203.0,94219.0,94225.0,94248.0,94432.0,94504.0,0.06828990750106845,-0.06061555692398796,0.05691018559481566,-0.0462703720370923,0.031488903902276724
98,98,94912.5480552467,1688.9584855795151,12.739827004320285,95044.87669549928,-4253.354080940928,12.739827004320285,95083.56106089268,12695.65811589517,9.32156587229159,95104.9432012891,-11409.51016613313,15.885277197002791,95361.45203459916,6163.509964962983,15.28779240518434,0.6121435221455267,80.0,61.0,145.0,245.0,390.0,19.0,874.0,871.0,19.0,13.0,6.0,0.6842105263157895,169.17144771957706,2161.162894502711,75.0,68.0,7.0,0.9066666666666666,313.41495578582,1443.832240185017,17.0,12.0,5.0,0.7058823529411765,952.930167424064,4166.822852261884,30.0,9.0,21.0,0.3,633.4314651814891,14720.25775034996,93.0,75.0,18.0,0.8064516129032258,244.4450159933406,4262.911645336514,0.0,0.0,0.0,0.0,94900.0,94919.0,94980.0,95052.0,95072.0,95089.0,95096.0,95125.0,95289.0,95370.0,0.1001631769898305,-0.0736865423902085,0.0750595328517062,-0.055517849229119835,0.03966003419851836
99,99,95755.39728720114,2062.0710881698747,14.464623291776505,95902.15067819972,-3277.6097898977423,5.095930801728113,95931.7260172996,13516.239214852449,7.64389620259217,95952.54796540084,-11209.49013512687,15.167373658185449,96181.8800317403,5153.862383343952,35.13948960872485,0.7448085007873329,70.0,49.0,159.0,254.0,413.0,21.0,838.0,848.0,23.0,12.0,11.0,0.5217391304347826,154.443244256881,2541.9660287417337,91.0,88.0,3.0,0.967032967032967,290.65560921531113,666.9079086235328,17.0,13.0,4.0,0.7647058823529411,981.5100487702796,3871.1289718045423,31.0,10.0,21.0,0.3225806451612903,623.8893433236503,14067.127055433428,103.0,57.0,46.0,0.5533980582524272,107.42082796095828,5227.425080105026,0.0,0.0,0.0,0.0,95744.0,95765.0,95814.0,95905.0,95919.0,95936.0,95944.0,95973.0,96146.0,96227.0,0.07489714837811541,-0.08867913749561361,0.07261709660271017,-0.05565724540571078,0.020842781582239494
100,100,96615.972626301,1850.741721443842,14.62651874289918,96754.027373699,-4150.711537259154,17.8357578060484,96794.01062239493,16365.502712939424,9.848317947462036,96809.06955502674,-16494.19542652325,13.83809137296001,97047.38347749642,5733.7418407113755,32.926436807506,0.7895419049180787,83.0,67.0,140.0,256.0,396.0,16.0,861.0,859.0,35.0,23.0,12.0,0.6571428571428571,123.38319939898729,1705.6816187046963,79.0,68.0,11.0,0.8607594936708861,216.99545214619977,2502.674181071411,16.0,12.0,4.0,0.75,1005.410215245924,1260.30749715438,25.0,6.0,19.0,0.24,854.3630243303147,20422.35204687932,94.0,56.0,38.0,0.5957446808510638,155.02147525011054,5010.271792277019,0.0,0.0,0.0,0.0,96604.0,96620.0,96687.0,96764.0,96782.0,96798.0,96804.0,96827.0,96996.0,97083.0,0.06666689250552521,-0.05227909725798211,0.06143472845786729,-0.051797799300744844,0.027036703004207335
101,101,97480.39728720114,2558.207629048207,20.38372320672371,97611.60271279886,-3039.2817253133103,20.383723205645538,97652.87669549928,12700.69945387779,9.8540175079666,97678.90406919828,-9442.594994339575,13.730571833136876,97901.83808535036,7017.110079562075,42.02095622693125,0.8960269170294485,101.0,81.0,130.0,257.0,387.0,20.0,864.0,863.0,23.0,16.0,7.0,0.6956521739130435,233.53109923998824,2879.8770383301226,61.0,50.0,11.0,0.819672131147541,268.77987568286443,1681.419547808138,18.0,11.0,7.0,0.6111111111111112,935.1443401096252,8164.445047838211,30.0,11.0,19.0,0.3666666666666666,517.737757579457,11034.995127197775,117.0,63.0,54.0,0.5384615384615384,194.15429064942177,7140.861381880566,0.0,0.0,0.0,0.0,97465.0,97485.0,97566.0,97623.0,97642.0,97660.0,97668.0,97696.0,97853.0,97953.0,0.09128699976822233,-0.08843532780928913,0.07362935746220702,-0.05483002902166388,0.02766869672102088
102,102,98352.2739827004,1239.9870833954762,7.643896182864864,98488.17805189872,-5623.215533907041,22.93168860777651,98523.2739827004,9797.038879345288,7.64389620259217,98550.972626301,-12912.168328267317,9.089378057445307,98795.50678199712,6436.02512800005,30.854039795240418,0.734770103389186,92.0,83.0,127.0,260.0,387.0,9.0,874.0,867.0,9.0,7.0,2.0,0.7777777777777778,174.15017841110338,2238.962608898086,66.0,52.0,14.0,0.7878787878787878,215.39199670085597,3867.391389161368,16.0,4.0,12.0,0.25,782.3950187390396,7410.672293873122,24.0,10.0,14.0,0.4166666666666667,762.533995470829,16139.889902690138,84.0,56.0,28.0,0.6666666666666666,140.91502086851776,6544.375524424539,0.0,0.0,0.0,0.0,98345.0,98354.0,98437.0,98501.0,98519.0,98535.0,98541.0,98564.0,98741.0,98824.0,0.1404451552303474,-0.038304062044586154,0.07986035662148207,-0.059055456534088835,0.02189472820040187
103,103,99238.54796540084,2325.8347497734894,13.829810299666484,99386.7260172996,-3020.69946707117,7.64389620259217,99416.72601730104,14170.280426698042,7.643896202522583,99432.96958084757,-14135.18985666826,13.257934192997826,99677.95881659626,6741.827024012429,32.14966369422689,0.7873449034881066,73.0,44.0,146.0,266.0,412.0,29.0,885.0,896.0,30.0,10.0,20.0,0.3333333333333333,147.40614702888507,3041.3824231271656,87.0,83.0,4.0,0.9540229885057472,243.8871991118308,315.3120440123548,16.0,12.0,4.0,0.75,979.9271648648796,1319.952290349023,22.0,6.0,16.0,0.2727272727272727,939.8693537505332,21205.71621573026,94.0,56.0,38.0,0.5957446808510638,189.86516244816696,5612.225255074244,0.0,0.0,0.0,0.0,99230.0,99259.0,99303.0,99391.0,99405.0,99421.0,99427.0,99449.0,99627.0,99715.0,0.06337773869929529,-0.08073865069016634,0.06915368894313563,-0.06649145595360723,0.028162271409800696
104,104,100125.972626301,1803.5384345187808,16.328913825493615,100242.20542559771,-4336.595595807652,40.532441291445664,100293.87669549928,12589.924575022107,11.353201231700435,100319.47940829814,-10130.88891676809,14.74725409407412,100548.83551209555,5909.33445345993,34.96563538969491,0.8048058260287817,73.0,56.0,152.0,255.0,407.0,17.0,887.0,878.0,18.0,14.0,4.0,0.7777777777777778,258.54964288463947,2568.7298803900494,82.0,57.0,25.0,0.6951219512195121,143.0295988507193,3904.2669581015034,18.0,11.0,7.0,0.6111111111111112,893.2392480564779,6147.030349731695,32.0,10.0,22.0,0.3125,500.64475225715455,11960.854192027764,100.0,55.0,45.0,0.55,182.5529686330039,5214.156204636412,0.0,0.0,0.0,0.0,100113.0,100130.0,100186.0,100265.0,100283.0,100301.0,100309.0,100338.0,100506.0,100593.0,0.14335687997335392,-0.03298200067098517,0.07094873704236702,-0.049417652919727,0.030892306074522265
105,105,101011.82194810128,2467.73266084104,16.731295468906588,101145.45203459916,-3790.2415217650214,15.28779240518434,101181.12330450072,10454.67283787512,10.114632564120214,101207.27251802188,-11283.527764493352,9.747391026396878,101431.36988830268,6376.904875525511,40.40080040497631,0.8055926252594623,105.0,79.0,116.0,269.0,385.0,26.0,885.0,883.0,57.0,19.0,38.0,0.3333333333333333,158.83878707518969,2130.41447468326,63.0,54.0,9.0,0.8571428571428571,262.6155288219929,1955.866947868545,17.0,7.0,10.0,0.4117647058823529,771.1812884158363,7786.47858535859,22.0,9.0,13.0,0.4090909090909091,684.832559722737,14041.589901354646,108.0,50.0,58.0,0.4629629629629629,162.87691450627548,6050.728889856695,0.0,0.0,0.0,0.0,100999.0,101025.0,101104.0,101154.0,101174.0,101191.0,101198.0,101220.0,101385.0,101489.0,0.0643662863468586,-0.06928728085372758,0.07376426793787423,-0.0606931248822506,0.025541687963920437
106,106,101935.027373699,1918.336858645529,15.553066431510178,102049.027373699,-5176.212133846694,17.8357578060484,102083.2739827004,7188.963981197272,7.64389620259217,102111.3768734371,-13078.95834007626,9.246317049811562,102360.20542559771,5510.894281795939,29.5741933355424,0.6792075003241285,66.0,51.0,126.0,261.0,387.0,15.0,930.0,903.0,22.0,11.0,11.0,0.5,248.8622214631507,2082.5767753963805,64.0,54.0,10.0,0.84375,354.3732101608717,3701.7557725364286,15.0,4.0,11.0,0.2666666666666666,731.8364764412785,5567.782101602222,22.0,11.0,11.0,0.5,792.2365675910611,14544.0595498067,89.0,60.0,29.0,0.6741573033707865,194.97020029596308,4967.8866968682305,0.0,0.0,0.0,0.0,101930.0,101945.0,101996.0,102059.0,102079.0,102094.0,102100.0,102122.0,102316.0,102383.0,0.12972811336110368,-0.0684618792656629,0.10179999209279612,-0.060573368841118407,0.035379049266106494
107,107,102837.15067819972,2751.475687237584,5.095930801728113,102946.027373699,-2903.474466843479,17.8357578060484,102982.69864360055,7239.106709395638,9.024170342663068,103009.39728720103,-9805.061977695985,9.8665319884488,103242.38347749642,5874.440471083028,34.144990565935274,0.7190989574486256,103.0,99.0,82.0,257.0,339.0,4.0,900.0,899.0,17.0,13.0,4.0,0.7647058823529411,377.7138990433685,1704.0153901985811,83.0,72.0,11.0,0.8674698795180723,288.4720904333837,31.224989335241503,16.0,6.0,10.0,0.375,826.172939164833,4137.194721034075,26.0,12.0,14.0,0.4615384615384615,754.2712581510144,11015.293109758164,93.0,46.0,47.0,0.4946236559139785,256.39267188121664,5307.19126739265,0.0,0.0,0.0,0.0,102836.0,102840.0,102939.0,102956.0,102977.0,102993.0,102998.0,103021.0,103208.0,103278.0,0.13727684412962565,-0.09935409927919807,0.11412636563190082,-0.0769267200826256,0.04364546260078918
108,108,103437.94354628448,1045.9707019607297,1.0326339992982636,103856.45203459916,-6628.765750307419,15.28779240518434,103888.2739827004,7170.62300313573,7.64389620259217,103918.82194810128,-11157.549159329968,15.122535586274784,104152.33283015642,3731.38048226273,21.94848865358011,0.5131461176423969,343.0,339.0,160.0,243.0,403.0,4.0,600.0,906.0,4.0,2.0,2.0,0.5,268.6725060538812,3304.7172221038963,92.0,83.0,9.0,0.9021739130434784,319.32882083723655,3807.055700323368,15.0,4.0,11.0,0.2666666666666666,753.1848522327458,3938.618540698223,35.0,14.0,21.0,0.4,476.6569016565445,12571.332687350045,53.0,22.0,31.0,0.4150943396226415,167.20377545514074,3453.3307455486056,0.0,0.0,0.0,0.0,103436.0,103440.0,103779.0,103865.0,103884.0,103899.0,103906.0,103939.0,104131.0,104182.0,0.25686427502246456,-0.04817319435709841,0.10503757510377779,-0.0427205737433801,0.04481016509840011
109,109,104613.69864360055,2034.804816649348,10.191861603456228,104751.45203459916,-3838.717221847485,15.28779240518434,104785.2739827004,10391.378902811864,7.64389620259217,104814.54796540084,-5953.364247897249,15.28779240517874,105043.2550159501,5819.705959651825,39.91620095592098,0.6798888640111884,83.0,57.0,151.0,255.0,406.0,26.0,1174.0,897.0,27.0,7.0,20.0,0.2592592592592592,154.7240669017597,3031.120821752729,74.0,64.0,10.0,0.8648648648648649,251.61239136959543,2112.58446343268,17.0,4.0,13.0,0.2352941176470588,721.9359661732233,10149.282232186875,35.0,9.0,26.0,0.2571428571428571,461.213130606354,11175.757122693674,109.0,54.0,55.0,0.4954128440366973,125.30380106419116,5501.422584378984,0.0,0.0,0.0,0.0,104608.0,104634.0,104691.0,104760.0,104781.0,104798.0,104806.0,104842.0,104990.0,105097.0,0.07603877562887786,-0.06554595632561346,0.0694745108349259,-0.07747100822350259,0.021530950521027305
110,110,105500.67126990156,3043.3278418652076,22.634188277045705,105626.027373699,-2489.56401981429,17.8357578060484,105662.69864360055,9541.205722357698,10.191861603456228,105689.54796540084,-10376.980725272835,10.10971862709106,105933.2327992967,6310.081842708738,33.10291699284861,0.7607230507768097,132.0,102.0,95.0,262.0,357.0,30.0,884.0,877.0,66.0,35.0,31.0,0.5303030303030303,160.59422509616113,2767.476733899606,51.0,40.0,11.0,0.7843137254901961,252.9906053348193,1004.5940200275468,17.0,6.0,11.0,0.3529411764705882,692.5857574164802,6677.938509866908,23.0,9.0,14.0,0.391304347826087,724.1213568437653,13282.885928086562,83.0,49.0,34.0,0.5903614457831325,211.3094373670917,5565.518263677566,0.0,0.0,0.0,0.0,105477.0,105507.0,105609.0,105636.0,105657.0,105674.0,105681.0,105704.0,105885.0,105966.0,0.05276928199682078,-0.10162044571711444,0.07258891355770258,-0.06978150735889764,0.03348759059460671
111,111,106347.96895085245,1295.6318120480014,7.64389620259217,106484.45203459916,-6207.236550340295,15.28779240518434,106516.2739827004,7199.123064978091,7.64389620259217,106542.972626301,-9751.594104303244,11.999661970919902,106794.35610379744,4960.7823939376385,26.101026127581335,0.6136695248085536,70.0,63.0,142.0,263.0,405.0,7.0,853.0,854.0,16.0,12.0,4.0,0.75,225.44492715411812,1563.6578170541902,82.0,70.0,12.0,0.8536585365853658,224.90293540259785,4007.446820787331,15.0,4.0,11.0,0.2666666666666666,715.1372121097504,5228.836032896929,28.0,10.0,18.0,0.3571428571428571,665.8271311576788,13057.873939274354,96.0,62.0,34.0,0.6458333333333334,146.39643287036895,4157.087440855897,0.0,0.0,0.0,0.0,106345.0,106352.0,106415.0,106493.0,106512.0,106527.0,106533.0,106557.0,106745.0,106820.0,0.1740038528366774,-0.03623237709384028,0.0993367116598842,-0.06827879873136418,0.029510754805385904
112,112,108090.87669549928,2106.305055087881,12.739827004320285,108208.30135639945,-3767.165384099473,10.191861603456228,108239.69864360055,6045.411680487374,10.191861603456026,108265.972626301,-10450.136360418108,12.112372442627798,108505.2327992967,5417.859279374094,34.964212434296144,0.728925473950109,110.0,57.0,129.0,254.0,383.0,53.0,1744.0,1723.0,57.0,46.0,11.0,0.8070175438596491,146.04083049357422,1612.9577286415938,60.0,54.0,6.0,0.9,236.27563296780048,1559.491459483496,16.0,6.0,10.0,0.375,702.6130198226082,2429.6304546195065,28.0,10.0,18.0,0.3571428571428571,600.9355268684527,13655.830491592547,107.0,66.0,41.0,0.616822429906542,125.63611476685564,5406.719123643959,0.0,0.0,0.0,0.0,108045.0,108098.0,108155.0,108214.0,108234.0,108250.0,108256.0,108284.0,108466.0,108538.0,0.0693350804722258,-0.06271973987791388,0.11622252659656164,-0.05750504167051935,0.023189253963305217
113,113,108916.69864360055,1412.1295954432792,10.19186160328767,109054.60271279886,-5760.740979235199,20.383723206912453,109087.69864360055,7710.119131903518,10.191861603456228,109125.67976083596,-9148.51383231114,12.59334304238189,109354.38347749642,4849.499960103247,31.049945000547535,0.6790054913878377,79.0,71.0,151.0,249.0,400.0,8.0,822.0,848.0,22.0,7.0,15.0,0.3181818181818182,197.70388760214323,1522.39131567162,80.0,67.0,13.0,0.8375,333.78839451412153,3028.916542670734,18.0,6.0,12.0,0.3333333333333333,658.3206632444837,6563.34227355519,32.0,16.0,16.0,0.5,379.5576298219086,8378.663191263271,97.0,58.0,39.0,0.5979381443298969,125.45045830074956,4173.471348004848,0.0,0.0,0.0,0.0,108911.0,108919.0,108990.0,109066.0,109082.0,109100.0,109110.0,109141.0,109298.0,109390.0,0.1400040677853525,-0.05794192026985313,0.08538398071184586,-0.04148844684273959,0.0258687409697553
114,114,109774.90812750024,2032.3171363465028,17.83872478876595,109906.30135639945,-4883.975157023946,10.191861603456228,109937.69864360055,7814.762530997253,10.191861603456228,109964.54796540084,-9020.086254774493,15.287792405150194,110189.87296288282,5036.6938433591,35.31483145856695,0.7548740513036954,93.0,68.0,132.0,255.0,387.0,25.0,857.0,850.0,26.0,18.0,8.0,0.6923076923076923,156.1737961479307,1777.6330722375487,64.0,58.0,6.0,0.90625,301.96572255418204,2657.35013462,17.0,6.0,11.0,0.3529411764705882,739.713809850846,3524.606769838076,30.0,10.0,20.0,0.3333333333333333,579.5013868938998,12697.751775546458,100.0,48.0,52.0,0.48,143.68284197285985,5080.153180859981,0.0,0.0,0.0,0.0,109757.0,109782.0,109850.0,109912.0,109932.0,109948.0,109956.0,109982.0,110157.0,110237.0,0.0768451898352264,-0.06182785801436899,0.09465595492080169,-0.06424565913515067,0.02852721377184881
115,115,110643.15067819972,679.6394953755166,4.661432344653929,110790.7260172996,-3674.332591524761,7.64389620259217,110820.7260172996,10293.321666995773,7.64389620259217,110842.81411672606,-11376.362244702204,15.636075494179083,111064.36187775052,5521.879862971679,36.363179113817395,0.6850771687193342,48.0,43.0,173.0,253.0,426.0,5.0,872.0,886.0,6.0,1.0,5.0,0.1666666666666666,169.40473074538824,940.4201841423412,105.0,101.0,4.0,0.961904761904762,258.5295162731702,189.25479897776768,17.0,13.0,4.0,0.7647058823529411,918.855540294983,2248.495616419538,31.0,11.0,20.0,0.3548387096774194,500.9589755823397,14424.323311507347,101.0,48.0,53.0,0.4752475247524752,140.69755986950915,5910.751387502369,0.0,0.0,0.0,0.0,110642.0,110647.0,110690.0,110795.0,110808.0,110825.0,110832.0,110863.0,111022.0,111116.0,0.24925674846454912,-0.07036094578631669,0.08926715495943127,-0.04403507595898052,0.025480011039898054
116,116,111525.64389620256,3693.770043773377,22.302884940544068,111660.30135639945,-3040.25283573245,10.191861603456102,111692.69864360055,8439.022433080572,9.359596026289076,111720.74835176714,-10021.063579011266,9.060452884034536,111958.95881659626,5669.903116347466,35.2709504065279,0.7786436459773315,130.0,92.0,103.0,263.0,366.0,38.0,874.0,869.0,68.0,30.0,38.0,0.4411764705882353,200.72532072422356,1837.199085360627,37.0,30.0,7.0,0.8108108108108109,246.29701777098128,1025.6695066631269,17.0,6.0,11.0,0.3529411764705882,739.7931058831404,6485.037947571326,24.0,12.0,12.0,0.5,649.1808939141689,10953.250865481066,116.0,75.0,41.0,0.646551724137931,149.12074825412887,5061.416915829603,0.0,0.0,0.0,0.0,111500.0,111538.0,111630.0,111666.0,111687.0,111704.0,111710.0,111733.0,111895.0,111996.0,0.054341585519810075,-0.08101201810462058,0.08766336524751801,-0.064781636080411,0.02630040499707727
117,117,112418.9045721314,3493.946731656616,23.125522571033628,112553.30135639945,-2673.4895393904676,10.191861603456228,112585.69864360055,6496.446723712711,8.805382399183687,112611.972626301,-10799.29097559968,8.687868223614336,112849.4108511954,5707.79134369791,43.68431449619798,0.8198658851252162,127.0,87.0,108.0,270.0,378.0,40.0,893.0,893.0,58.0,30.0,28.0,0.5172413793103449,161.19951527839163,2817.9468347960774,62.0,55.0,7.0,0.8870967741935484,215.3780383226219,1129.7127307011283,16.0,6.0,10.0,0.375,707.416776441675,3761.4590142831994,23.0,10.0,13.0,0.4347826086956521,678.1006344097467,12468.953309890085,110.0,63.0,47.0,0.5727272727272728,112.94946212722682,5971.120003074477,0.0,0.0,0.0,0.0,112390.0,112430.0,112517.0,112559.0,112580.0,112596.0,112602.0,112625.0,112787.0,112895.0,0.04613679819954229,-0.08056064373894137,0.10889287737241493,-0.06279121804772855,0.01978864596231897
118,118,113331.87669549928,2685.923746652189,12.739826998995955,113471.57535202384,-597.0286559928594,0.8650161152221261,113487.15067819972,10207.289025810293,5.095930801724522,113507.00535098431,-12706.986323207624,11.589549331997512,113738.80434594408,5734.134229223814,34.63140410122816,0.7946106947227907,183.0,130.0,51.0,253.0,304.0,53.0,923.0,904.0,58.0,46.0,12.0,0.7931034482758621,170.03041860763332,1717.6181175157633,4.0,3.0,1.0,0.75,467.421840599264,2638.3205570192167,16.0,13.0,3.0,0.8125,991.4086760784868,955.6204058106104,24.0,11.0,13.0,0.4583333333333333,741.0128752625991,15101.187794142686,76.0,41.0,35.0,0.5394736842105263,218.86847786648383,6667.655126266112,0.0,0.0,0.0,0.0,113286.0,113339.0,113469.0,113473.0,113474.0,113490.0,113496.0,113520.0,113702.0,113773.0,0.06330426126935436,-0.7829135769403579,0.0971275206934571,-0.05831539095223841,0.03816940258409514
119,119,114213.7260172996,1779.1918167749143,7.64389620259217,114327.75339099858,-5646.6147832852175,25.47965400864057,114376.14207932397,14130.276776804018,11.908626998877072,114400.054747398,-11694.904512424164,16.950093022293128,114628.44476122833,5508.523108793589,33.876063771965136,0.7651108754370335,77.0,63.0,139.0,252.0,391.0,14.0,881.0,889.0,16.0,12.0,4.0,0.75,214.20103939161797,2285.1127330254394,62.0,48.0,14.0,0.7741935483870968,248.56816104466228,4497.143823218676,18.0,12.0,6.0,0.6666666666666666,946.9031833037064,8007.932526574019,34.0,10.0,24.0,0.2941176470588235,536.8644223819614,12982.834741847431,93.0,44.0,49.0,0.4731182795698925,152.4626824159397,4898.344126167254,0.0,0.0,0.0,0.0,114204.0,114218.0,114281.0,114342.0,114364.0,114382.0,114391.0,114420.0,114591.0,114672.0,0.12039232497139828,-0.04402073996272233,0.06701235922413946,-0.04590584060020496,0.02767759695381041
120,120,115078.33075054102,1301.2093074244317,9.699791030934898,115214.17805189872,-6892.277153413722,22.93168860777651,115250.69864360055,10679.31817021689,10.191861603456228,115279.39728720114,-11358.20283927598,16.08682205984969,115518.38347749642,4119.073611863152,28.77539077152862,0.7495752795622301,90.0,76.0,136.0,256.0,392.0,14.0,862.0,872.0,14.0,6.0,8.0,0.4285714285714285,140.57609938823092,1485.145640377404,80.0,65.0,15.0,0.8125,217.0994601228916,3884.5223704029663,16.0,6.0,10.0,0.375,682.8841553498645,3517.6459647464435,30.0,11.0,19.0,0.3666666666666666,542.5133125982248,15157.5948505479,90.0,54.0,36.0,0.6,103.09682964373704,4211.708854690089,0.0,0.0,0.0,0.0,115072.0,115086.0,115162.0,115227.0,115245.0,115261.0,115268.0,115298.0,115470.0,115554.0,0.10803496300413216,-0.031498945165802414,0.06394454631516945,-0.047764009876830736,0.025029130177914923
121,121,115969.54796540084,1734.6094813213704,15.287792389005435,116131.84825771044,-1294.7427483266983,1.7514227586885245,116146.80120708882,13408.557249575177,7.64389620259217,116164.6018505207,-13367.482461286692,14.6437244782778,116403.93144289729,5113.204662603445,28.3726743773446,0.7571181025323814,168.0,132.0,53.0,249.0,302.0,36.0,890.0,899.0,46.0,18.0,28.0,0.391304347826087,118.30762162982408,1462.7808432112934,4.0,3.0,1.0,0.75,350.528887193926,3064.060931482176,16.0,12.0,4.0,0.75,900.362465055439,1025.9111353656954,25.0,8.0,17.0,0.32,825.2836108819872,19201.38603511249,88.0,47.0,41.0,0.5340909090909091,160.94174759100105,5301.241372930615,0.0,0.0,0.0,0.0,115961.0,115997.0,116129.0,116133.0,116135.0,116151.0,116157.0,116182.0,116377.0,116431.0,0.06820418249974115,-0.270732458356645,0.06714834775262381,-0.06173814802241747,0.03147571009001149
122,122,116861.82194810128,3254.559507855478,22.93168860777651,116997.87669549928,-2698.6733865206893,12.739827004320285,117039.95256370102,14356.208331101245,12.226935413642986,117054.89151842032,-14185.72325803021,12.739827004320285,117297.4108511954,5943.804258802962,46.56470524186644,0.8236163454627321,104.0,53.0,121.0,269.0,390.0,51.0,891.0,891.0,64.0,19.0,45.0,0.296875,176.62436782395076,3306.732806142274,52.0,45.0,7.0,0.8653846153846154,243.64763978168517,1246.6337844492452,18.0,14.0,4.0,0.7777777777777778,945.8757193210208,3463.1758272173447,24.0,4.0,20.0,0.1666666666666666,745.7653208315704,17111.401942936598,116.0,68.0,48.0,0.5862068965517241,116.66893895294106,6245.57074436882,0.0,0.0,0.0,0.0,116849.0,116900.0,116953.0,117005.0,117026.0,117044.0,117051.0,117074.0,117230.0,117343.0,0.05426982281246828,-0.09028422668658398,0.06588617951941242,-0.05257154022156818,0.01962866438277315
123,123,117757.54796540084,2586.4269630296167,15.28779240518434,117893.87669549928,-3090.7145221109095,12.739827004320285,117934.40928363916,12523.047901159593,8.257306666159742,117951.06539310298,-11559.600096391065,12.616124913872047,118189.83551209555,6214.494327950809,37.397996709086115,0.7835278243880633,89.0,69.0,129.0,267.0,396.0,20.0,897.0,896.0,24.0,12.0,12.0,0.5,184.49228714360555,2744.5594614326255,64.0,56.0,8.0,0.875,227.08293796051152,1977.9181378386245,17.0,12.0,5.0,0.7058823529411765,911.861672090983,3444.4851793390662,22.0,6.0,16.0,0.2727272727272727,788.3455765559617,17674.12049184317,104.0,60.0,44.0,0.5769230769230769,108.50181484374892,6377.213859582998,0.0,0.0,0.0,0.0,117749.0,117769.0,117838.0,117901.0,117923.0,117939.0,117945.0,117967.0,118130.0,118234.0,0.0713309479760063,-0.07347263434910108,0.07281467573134075,-0.06819834336674718,0.01745947604389024
124,124,118667.87669549928,1362.0075280517622,12.739827004320285,118796.17805189872,-5281.025272453727,22.93168860777651,118837.64857982213,13133.063448771058,8.160549682723794,118854.94901618964,-13394.00997075158,14.19607075118446,119102.082121097,4942.336825930816,27.36757988461499,0.7949829459737375,91.0,69.0,127.0,261.0,388.0,22.0,915.0,902.0,27.0,19.0,8.0,0.7037037037037037,131.24448039268026,1284.2004584517913,78.0,63.0,15.0,0.8076923076923077,178.82116552298606,3819.539505711849,15.0,11.0,4.0,0.7333333333333333,918.643558396096,824.9324344652778,24.0,8.0,16.0,0.3333333333333333,838.7384075319671,19892.751252048547,78.0,47.0,31.0,0.6025641025641025,92.55049002995494,4911.538620696017,0.0,0.0,0.0,0.0,118653.0,118675.0,118744.0,118809.0,118827.0,118842.0,118847.0,118871.0,119056.0,119132.0,0.09636105358420045,-0.03386106982970378,0.06994891648696475,-0.06262041086750833,0.01872605880367622
125,125,119579.60271279886,2415.678694969531,16.773106891998893,119695.45203459916,-4153.93895390194,15.28779240518434,119734.15046529044,10488.41639194367,9.378656698061016,119760.054747398,-9021.325291587793,15.461342359307311,119989.56152939513,6035.434999695415,34.88160956790617,0.793963432910329,100.0,58.0,131.0,258.0,389.0,42.0,913.0,899.0,45.0,34.0,11.0,0.7555555555555555,239.37298037479147,2118.207962738963,64.0,55.0,9.0,0.859375,287.7633345895618,2033.674126082075,17.0,10.0,7.0,0.5882352941176471,854.1089226631777,5523.659289094968,33.0,12.0,21.0,0.3636363636363636,415.7547082828923,10489.44408873576,98.0,50.0,48.0,0.5102040816326531,125.50432044163924,5921.898102463793,0.0,0.0,0.0,0.0,119549.0,119591.0,119649.0,119704.0,119724.0,119741.0,119749.0,119780.0,119941.0,120038.0,0.0990913985677266,-0.06927481067560119,0.08143354446904236,-0.04608576842590693,0.02079457743277377
126,126,120446.09593080172,2291.6463132680096,19.229736530151524,120587.15067819972,-1447.8572378066026,5.095930801728113,120616.7260172996,11922.512395782622,7.64389620259217,120636.05203221815,-10292.737750748036,13.844319483278952,120878.2327992967,5771.874723885755,34.59837201954369,0.7478265662656851,75.0,48.0,152.0,258.0,410.0,27.0,858.0,882.0,35.0,27.0,8.0,0.7714285714285715,130.1414838588169,2200.941361809909,89.0,86.0,3.0,0.9662921348314608,244.72004278925456,1032.3605583466529,16.0,12.0,4.0,0.75,929.4520872250084,3564.932000149035,25.0,8.0,17.0,0.32,637.0067891056436,14829.704638628082,103.0,65.0,38.0,0.6310679611650486,177.17105530941907,5163.330073705696,0.0,0.0,0.0,0.0,120426.0,120453.0,120501.0,120590.0,120605.0,120621.0,120628.0,120653.0,120814.0,120911.0,0.05678951551351231,-0.1690222187651508,0.07795773712542213,-0.061888955546287816,0.03069558224752036
127,127,121329.09593080172,2440.7716265849017,17.815697508669043,121475.15067819972,-1818.2467805023316,5.095930801728113,121504.7260172996,12048.682694921445,7.643896202591581,121521.2104498231,-12032.426336313409,12.713643926399197,121767.38347749642,5694.932146571393,32.47712965933455,0.7755170101426954,77.0,46.0,148.0,266.0,414.0,31.0,883.0,888.0,40.0,25.0,15.0,0.625,124.72053367349636,1870.986653260519,79.0,76.0,3.0,0.9620253164556962,220.4927919891732,21.18990208253274,16.0,12.0,4.0,0.75,947.5023333161664,1944.4275736919567,23.0,6.0,17.0,0.2608695652173913,822.8264127820805,18363.395975499792,93.0,57.0,36.0,0.6129032258064516,120.08889156771583,5807.0696544619905,0.0,0.0,0.0,0.0,121312.0,121343.0,121389.0,121478.0,121493.0,121509.0,121515.0,121537.0,121710.0,121803.0,0.05109881330766035,-0.12126670282251627,0.07863949589406495,-0.0683840806320851,0.02108697495895799
128,128,122201.39728720114,2374.361336600416,16.608512015112165,122362.96571447376,-2968.2872775231635,1.766848925457822,122377.48694466749,10515.341954118874,7.64389620259217,122394.49399817684,-11776.708436620393,13.173013477794605,122634.10949479598,5621.93085926197,34.556383476793435,0.7771462582067092,170.0,145.0,50.0,264.0,314.0,25.0,874.0,872.0,38.0,24.0,14.0,0.631578947368421,159.60356500204455,2178.014795712964,5.0,3.0,2.0,0.6,426.6854652571463,1616.4280223327037,15.0,11.0,4.0,0.7333333333333333,829.321849165668,1348.4526318417095,23.0,7.0,16.0,0.3043478260869565,752.7449397936944,18330.811291532656,98.0,58.0,40.0,0.5918367346938775,101.99952850958924,5120.903372941271,0.0,0.0,0.0,0.0,122190.0,122215.0,122360.0,122365.0,122366.0,122381.0,122387.0,122410.0,122579.0,122674.0,0.06721957713081832,-0.1437480356056327,0.07886779648100949,-0.06391810953330458,0.018143148868781968
129,129,123093.17805189872,2984.063585737103,22.93168860777651,123194.054747398,-2770.4599873754705,35.6715156120968,123247.98633615022,10024.299820771534,12.725844793078974,123272.90406919828,-8850.560001192242,12.122396499779304,123494.01554811116,7541.39303192926,46.125080983754096,0.8884847316397152,98.0,78.0,104.0,257.0,361.0,20.0,899.0,871.0,29.0,11.0,18.0,0.3793103448275862,258.8396097444553,3024.487176964125,28.0,7.0,21.0,0.25,226.4763159348773,3739.044757302841,19.0,12.0,7.0,0.631578947368421,825.4755913171638,7934.959390356296,29.0,10.0,19.0,0.3448275862068966,456.8572866604774,9852.2585616094,127.0,67.0,60.0,0.5275590551181102,133.26882963905993,7666.125555543357,0.0,0.0,0.0,0.0,123088.0,123108.0,123186.0,123215.0,123237.0,123254.0,123265.0,123290.0,123443.0,123547.0,0.0867406482159523,-0.08174682795163711,0.08234745628883534,-0.051619025982416376,0.0176716462163976
130,130,123942.7260172996,1278.9904028473684,3.820287669991211,124052.90406919828,-6187.089246883661,30.57558481036868,124090.69864360055,11997.94267128712,10.191861603456228,124116.54796540084,-9942.006346382368,15.28779240518434,124355.38347749642,4929.035238377572,31.31021716567316,0.6687560003189671,59.0,53.0,137.0,254.0,391.0,6.0,847.0,840.0,6.0,2.0,4.0,0.3333333333333333,174.15978309742323,842.9437020171238,71.0,54.0,17.0,0.7605633802816901,184.37329951339905,5062.667758337421,16.0,6.0,10.0,0.375,796.8868091311354,5409.997145039031,29.0,9.0,20.0,0.3103448275862069,648.3380250427127,14260.637324167552,105.0,68.0,37.0,0.6476190476190476,159.16443176963776,4996.882205020319,0.0,0.0,0.0,0.0,123941.0,123947.0,124000.0,124070.0,124085.0,124101.0,124108.0,124137.0,124302.0,124391.0,0.13616973411973837,-0.029799683204224825,0.06641862117229524,-0.06521199066410029,0.03229119372699553
131,131,124786.54796540084,1825.148506013231,15.287792399545609,124924.17805189872,-5446.820532914137,22.9316886077765,124957.2739827004,7926.647850777892,7.643896202576062,124985.82194810128,-12555.0963707871,11.303241638884929,125219.10949479598,5207.026166430175,32.77652350460169,0.7971945193409041,87.0,63.0,134.0,260.0,394.0,24.0,840.0,867.0,27.0,10.0,17.0,0.3703703703703703,118.89550733675028,1980.258944807962,73.0,60.0,13.0,0.821917808219178,218.6293392216465,3573.225496955047,14.0,4.0,10.0,0.2857142857142857,733.2078114594788,4461.214908599193,28.0,13.0,15.0,0.4642857142857143,637.0604625245876,13603.881055308751,92.0,51.0,41.0,0.5543478260869565,98.1488224905381,5554.515019724736,0.0,0.0,0.0,0.0,124778.0,124802.0,124865.0,124937.0,124953.0,124961.0,124973.0,124999.0,125172.0,125259.0,0.06514292231291363,-0.04013889165257226,0.0924991024279607,-0.05074118459232896,0.018849304642121055
132,132,125677.28528016672,1071.6520399523824,5.58479431226793,125808.027373699,-5447.378287777904,17.8357578060484,125848.18714773149,10080.454478594873,8.538170232933561,125870.6829393659,-10668.2340934257,16.58706564311511,126104.38347749642,5614.645754822315,31.9067094197671,0.6885740064984428,68.0,56.0,148.0,250.0,398.0,12.0,894.0,893.0,19.0,10.0,9.0,0.5263157894736842,169.2025083065976,1293.1465568178512,76.0,66.0,10.0,0.868421052631579,207.836967940136,3500.0585021633065,17.0,11.0,6.0,0.6470588235294118,820.3509668566221,2669.888584028713,33.0,12.0,21.0,0.3636363636363636,529.7911470428922,12302.534638933184,99.0,57.0,42.0,0.5757575757575758,102.6369672042038,5005.802669751901,0.0,0.0,0.0,0.0,125674.0,125686.0,125742.0,125818.0,125838.0,125853.0,125861.0,125890.0,126060.0,126140.0,0.15788940999367285,-0.03815357718160545,0.08138035528046667,-0.04966062259257847,0.018280221350750546
133,133,127511.04118336864,4735.799967226589,31.666196668781662,127641.15067819972,-1401.8117538529202,2.5332946753097323,127672.69864360055,7868.556164220394,10.191861603456228,127699.54796540084,-9204.879238953195,9.773020681694303,127930.71220759484,6870.507033502735,47.07082687454461,0.8556186094824426,160.0,85.0,79.0,269.0,348.0,75.0,1822.0,1822.0,83.0,39.0,44.0,0.4698795180722891,93.37471235202734,4395.498266506622,10.0,7.0,3.0,0.7,217.02076077260656,836.5241406727198,17.0,6.0,11.0,0.3529411764705882,718.7723528975259,4995.998101632056,24.0,10.0,14.0,0.4166666666666667,608.6286547366719,10917.360482870054,126.0,74.0,52.0,0.5873015873015873,131.9228875216951,7229.560534752839,0.0,0.0,0.0,0.0,127474.0,127549.0,127634.0,127644.0,127667.0,127683.0,127691.0,127713.0,127859.0,127982.0,0.019716777101696312,-0.15481448217003368,0.09134742612194863,-0.06612022156261192,0.019201332140175092
134,134,128437.61652250358,3629.825092753448,27.92521780354971,128565.45203459916,-2017.981903090089,15.28779240493792,128600.69864360055,7291.403158613505,10.191861603456228,128626.99933885036,-11588.191920661044,9.88058070519777,128849.48374228056,6866.640267438347,45.57556483962807,0.8759351921868738,143.0,67.0,95.0,265.0,360.0,76.0,927.0,928.0,79.0,37.0,42.0,0.4683544303797468,147.64973622586413,3646.018111836074,60.0,51.0,9.0,0.85,225.68843154171765,224.73137565765785,17.0,7.0,10.0,0.4117647058823529,751.1335045297458,2532.6065115672263,25.0,11.0,14.0,0.44,761.4573188697952,12952.442231588702,99.0,41.0,58.0,0.4141414141414141,187.57257176942173,7543.031411687891,0.0,0.0,0.0,0.0,128402.0,128478.0,128545.0,128574.0,128595.0,128611.0,128616.0,128640.0,128812.0,128905.0,0.04067681842869807,-0.11183867962151998,0.10301631773610188,-0.06570976077054462,0.02731649896658954
135,135,129357.90406919828,3325.857950301319,24.188428919240028,129465.60271279886,-3260.582470971369,20.383723206912453,129514.22050149192,8724.713742224249,13.864858736431502,129540.90406919828,-9551.254704692465,12.055106987225878,129765.98619029528,7473.47884902001,44.04918805145943,0.881043648118321,111.0,86.0,97.0,255.0,352.0,25.0,936.0,917.0,63.0,34.0,29.0,0.5396825396825397,185.10104892606145,3504.189890020466,49.0,34.0,15.0,0.6938775510204082,186.4914961847644,2877.804619718286,22.0,12.0,10.0,0.5454545454545454,800.861792003743,5517.66228442967,28.0,11.0,17.0,0.3928571428571428,523.8489053853394,10465.845962198222,111.0,63.0,48.0,0.5675675675675675,141.83173331458522,7801.310779601266,0.0,0.0,0.0,0.0,129350.0,129375.0,129461.0,129481.0,129503.0,129523.0,129531.0,129558.0,129716.0,129813.0,0.05565512769698763,-0.05719576113932988,0.09179232874173061,-0.054846082696127466,0.018978006920188646
136,136,130232.82194810128,2068.869901827721,17.70384255781471,130364.17805189872,-4317.656352417042,22.93168860777651,130402.69864360055,9661.66914946908,10.191861603456228,130429.12330450072,-9571.17683893843,12.739827004320285,130652.85621044,6060.32057214494,33.39378378826906,0.8113583864750117,88.0,67.0,144.0,247.0,391.0,21.0,866.0,885.0,30.0,17.0,13.0,0.5666666666666667,174.88596582683405,1768.218819437043,72.0,59.0,13.0,0.8194444444444444,239.27537563777008,3382.2083137649297,18.0,7.0,11.0,0.3888888888888889,684.6833222837965,5041.3857682312555,30.0,7.0,23.0,0.2333333333333333,543.2627172263094,13674.477816131955,90.0,43.0,47.0,0.4777777777777778,163.20356795188107,5829.14588337335,0.0,0.0,0.0,0.0,130220.0,130241.0,130308.0,130377.0,130397.0,130413.0,130422.0,130452.0,130610.0,130699.0,0.0845321233937102,-0.0554178832467347,0.07086594579999882,-0.05676028417071483,0.02692985725903904
137,137,0.0,0.0,0.0,0.0,0.0,0.0,0.0,0.0,0.0,0.0,0.0,0.0,0.0,0.0,0.0,0.0,0.0,0.0,0.0,0.0,0.0,0.0,0.0,0.0,0.0,0.0,0.0,0.0,0.0,0.0,0.0,0.0,0.0,0.0,0.0,0.0,0.0,0.0,0.0,0.0,0.0,0.0,0.0,0.0,0.0,0.0,0.0,0.0,0.0,0.0,0.0,0.0,0.0,0.0,0.0,0.0,0.0,0.0,,,,,,,,,,,,,,,
138,138,0.0,0.0,0.0,0.0,0.0,0.0,0.0,0.0,0.0,0.0,0.0,0.0,0.0,0.0,0.0,0.0,0.0,0.0,0.0,0.0,0.0,0.0,0.0,0.0,0.0,0.0,0.0,0.0,0.0,0.0,0.0,0.0,0.0,0.0,0.0,0.0,0.0,0.0,0.0,0.0,0.0,0.0,0.0,0.0,0.0,0.0,0.0,0.0,0.0,0.0,0.0,0.0,0.0,0.0,0.0,0.0,0.0,0.0,,,,,,,,,,,,,,,
139,139,133106.69864360054,10049.77910713316,9.178891515073191,133140.46669640788,-17815.03076790602,9.837855069698596,133351.32451898855,11462.684499167037,41.37348613308756,133472.2739827004,-4408.14128029242,7.64389620259214,133553.42466044365,1526.8460158038138,0.3582031001184921,0.8528715605868428,27.0,9.0,348.0,112.0,460.0,18.0,2876.0,2946.0,18.0,6.0,12.0,0.3333333333333333,956.9599475274418,7860.6019220007265,24.0,12.0,12.0,0.5,898.3104884621937,17378.869029690348,93.0,44.0,49.0,0.4731182795698925,338.74764145947336,11975.169291607028,9.0,5.0,4.0,0.5555555555555556,444.2739398890283,4954.156079825632,3.0,1.0,2.0,0.3333333333333333,388.1532672179357,90.2547975759652,0.0,0.0,0.0,0.0,133101.0,133119.0,133128.0,133152.0,133307.0,133400.0,133468.0,133476.0,133552.0,133588.0,0.09522198819755234,-0.050424301824979735,0.0295522084276235,-0.10078486864185915,0.25421899995173447
140,140,133821.84932176233,1227.8771753361548,5.095930801728105,133925.75339099858,-5677.373066989444,25.47965400864057,133962.12330450068,15685.991927801986,11.24991065438509,133992.7499056265,-15597.90702917883,12.527496967902644,134215.109494796,9355.093878325886,36.39533620764944,0.8196672710054383,90.0,84.0,101.0,245.0,346.0,6.0,716.0,613.0,6.0,3.0,3.0,0.5,286.7961727238237,1871.6971591500007,31.0,17.0,14.0,0.5483870967741935,299.1695340932868,4257.764922474855,20.0,9.0,11.0,0.45,912.8332760744472,9262.70556191215,30.0,13.0,17.0,0.4333333333333333,619.949595483953,16918.118114787852,92.0,52.0,40.0,0.5652173913043478,219.81644742253863,8565.374390886343,0.0,0.0,0.0,0.0,133819.0,133825.0,133909.0,133940.0,133955.0,133973.0,133980.0,134010.0,134163.0,134255.0,0.2335707336894733,-0.05269506346743006,0.05819416969458806,-0.03974569115742389,0.023496979322870808
141,141,134676.24660900142,2303.002403341605,16.399565142243574,134808.9040691983,-4764.939025808434,30.57558481036868,134845.69864360054,12952.339405283474,8.805206356852413,134872.54796540082,-8539.028288174264,7.977781911335142,135093.67267291408,5894.910335108443,38.10340419808053,0.8153794572587776,102.0,75.0,120.0,257.0,377.0,27.0,851.0,884.0,31.0,14.0,17.0,0.4516129032258064,146.1654655250202,2571.561687916756,68.0,50.0,18.0,0.7352941176470589,192.78765760654105,3835.5732510195103,18.0,7.0,11.0,0.3888888888888889,867.3775986710696,9748.430153397956,22.0,10.0,12.0,0.4545454545454545,664.5238651975918,10775.182685192249,110.0,60.0,50.0,0.5454545454545454,125.25771151620997,6234.893472784981,0.0,0.0,0.0,0.0,134662.0,134689.0,134764.0,134826.0,134840.0,134857.0,134864.0,134884.0,135042.0,135141.0,0.06346735257980513,-0.04045962740810353,0.06696686764687867,-0.07782195383026119,0.021248450679598966
142,142,135587.4724544256,2552.4623809387904,19.85268145126009,135713.02737369903,-4437.593089621513,17.8357578060484,135746.69864360054,7816.074152342563,8.211668185611256,135772.97262630097,-11275.6372890757,8.49164666800171,136005.68483389585,5464.95780605985,36.479634302821424,0.8222767990110605,118.0,79.0,99.0,262.0,361.0,39.0,914.0,901.0,46.0,19.0,27.0,0.4130434782608695,171.3918951610007,2621.830107454968,38.0,28.0,10.0,0.7368421052631579,236.79934071860373,3517.5853914444215,16.0,6.0,10.0,0.375,773.0858706364631,4984.518283686673,22.0,10.0,12.0,0.4545454545454545,711.7121468022889,12556.85890281663,106.0,58.0,48.0,0.5471698113207547,129.61526900839087,5546.0752606698,0.0,0.0,0.0,0.0,135568.0,135607.0,135686.0,135723.0,135741.0,135757.0,135763.0,135785.0,135954.0,136047.0,0.06714766746061233,-0.0533621122838914,0.09890974107567299,-0.06311946088331742,0.02371752419838745
143,143,136488.38347749642,3951.2871091104776,28.406109292137863,136609.45203459918,-2882.3443057608715,15.28779240518434,136643.69864360054,7375.573102238261,10.055565682623902,136669.12330450068,-10638.701712844246,7.380950192971736,136900.71220759486,6306.702129085236,52.72706099196401,0.8825435847730819,130.0,54.0,103.0,271.0,374.0,76.0,913.0,897.0,81.0,43.0,38.0,0.5308641975308642,151.0225824698521,2756.188572133079,53.0,44.0,9.0,0.8301886792452831,156.22709367771014,1463.2600517822104,17.0,6.0,11.0,0.3529411764705882,697.3333470480928,6121.75410239092,19.0,7.0,12.0,0.3684210526315789,806.8641760812081,13464.8855239534,146.0,89.0,57.0,0.6095890410958904,121.0787240450762,6609.269884901119,0.0,0.0,0.0,0.0,136448.0,136524.0,136578.0,136618.0,136638.0,136655.0,136662.0,136681.0,136828.0,136952.0,0.03822111081769774,-0.05420139896731381,0.09454632709646299,-0.07584235349949424,0.019198421229803385
144,144,137368.94525260196,2685.8461261575426,20.05635414361116,137526.82801462943,-2227.4257204237747,-1.4839450382721824,137541.7260172996,12561.624939928652,7.643896202590482,137560.1924038211,-12199.820672440112,14.677229064022086,137797.10949479783,4925.175685399462,33.323466290045815,0.8007828780368058,175.0,147.0,52.0,261.0,313.0,28.0,864.0,901.0,66.0,29.0,37.0,0.4393939393939394,156.4685197028173,1907.7682000881775,5.0,3.0,2.0,0.6,475.92605759253166,2964.579173362459,16.0,12.0,4.0,0.75,985.5178799120444,2167.498645752812,25.0,8.0,17.0,0.32,769.6899136399368,17449.630390901093,97.0,51.0,46.0,0.5257731958762887,106.25750693134246,4933.5941382883375,0.0,0.0,0.0,0.0,137349.0,137377.0,137524.0,137548.0,137530.0,137546.0,137552.0,137576.0,137758.0,137837.0,0.058256695414888184,-0.21366641016517723,0.07845464934870457,-0.06309026454615824,0.02157435870690658
145,145,138259.82194810128,2045.985346266002,16.283198908852448,138395.02737369903,-5196.796076865772,17.8357578060484,138429.69864360054,7412.605814146568,10.191861603456228,138455.97262630097,-12176.39211854232,10.904814960202886,138706.35610379744,4475.347000583209,30.638175632016765,0.7201221955752792,94.0,67.0,128.0,263.0,391.0,27.0,893.0,885.0,28.0,13.0,15.0,0.4642857142857143,157.21570341449512,2375.7398001305146,66.0,55.0,11.0,0.8333333333333334,199.40925632548883,3020.716684970167,16.0,6.0,10.0,0.375,755.0181520114841,3081.333269841573,25.0,11.0,14.0,0.44,742.6319673778003,14870.418513929884,109.0,80.0,29.0,0.7339449541284404,106.57795514292818,4043.8082568151367,0.0,0.0,0.0,0.0,138247.0,138274.0,138341.0,138405.0,138424.0,138440.0,138446.0,138469.0,138639.0,138732.0,0.07684107009926515,-0.03837157613576288,0.10185596953915607,-0.06098949180906498,0.023814456203963486
146,146,139154.39440450838,1266.8208195131615,2.3241847753590363,139293.87669549932,-6388.132212671421,12.739827004320285,139332.8696975254,12138.9013001831,10.191861603437768,139358.4794082988,-11461.098294812016,17.47019676546132,139609.75339099858,3883.834174209908,24.171171600636853,0.6282166227964313,75.0,67.0,152.0,247.0,399.0,8.0,898.0,906.0,8.0,4.0,4.0,0.5,207.13412851451903,1646.6149290478384,81.0,70.0,11.0,0.8641975308641975,301.68862503919416,4438.197993493397,18.0,12.0,6.0,0.6666666666666666,1067.7486149347917,4941.464801989947,35.0,12.0,23.0,0.3428571428571428,538.9284480747748,13613.647857070184,60.0,46.0,14.0,0.7666666666666667,201.93195260044013,4208.90999520548,0.0,0.0,0.0,0.0,139150.0,139158.0,139225.0,139301.0,139321.0,139338.0,139347.0,139377.0,139564.0,139624.0,0.16350704481958275,-0.04722642158857769,0.08796089436188809,-0.047022408691733,0.05199293881838283
147,147,140060.2739827004,1868.6347817812489,7.643896202592165,140168.02737369903,-5557.982502466665,17.8357578060484,140203.69864360054,8914.256790687206,10.19186160345584,140231.97262630097,-11188.683391941664,10.183120145939288,140459.50573394896,5863.267819579988,38.34745466863261,0.8111574400530099,60.0,51.0,129.0,261.0,390.0,9.0,905.0,868.0,18.0,7.0,11.0,0.3888888888888889,205.47360754766095,1934.6716561308683,67.0,55.0,12.0,0.8208955223880597,272.5886386518788,4159.836023761457,17.0,6.0,11.0,0.3529411764705882,760.6577903408676,7276.761980735899,24.0,10.0,14.0,0.4166666666666667,657.271989442255,12627.512307794956,91.0,44.0,47.0,0.4835164835164835,182.58695344141043,5586.423002643954,0.0,0.0,0.0,0.0,140056.0,140065.0,140116.0,140178.0,140198.0,140215.0,140222.0,140245.0,140428.0,140506.0,0.10995921169346759,-0.049044529832705006,0.08533047770572783,-0.05874435502533182,0.03114081755427811
