Unnamed: 0,cycle,p_center,p_height,p_width,q_center,q_height,q_width,r_center,r_height,r_width,s_center,s_height,s_width,t_center,t_height,t_width,r_squared,pr_interval,pr_segment,qrs_duration,st_segment,qt_interval,p_duration,pp_interval,rr_interval,fwhm_p,rise_time_p,decay_time_p,rise_decay_symmetry_p,sharpness_deriv_p,sharpness_diff_p,fwhm_q,rise_time_q,decay_time_q,rise_decay_symmetry_q,sharpness_deriv_q,sharpness_diff_q,fwhm_r,rise_time_r,decay_time_r,rise_decay_symmetry_r,sharpness_deriv_r,sharpness_diff_r,fwhm_s,rise_time_s,decay_time_s,rise_decay_symmetry_s,sharpness_deriv_s,sharpness_diff_s,fwhm_t,rise_time_t,decay_time_t,rise_decay_symmetry_t,sharpness_deriv_t,sharpness_diff_t,Average_Heart_Rate,SDNN,RMSSD,NN50,p_on,p_off,q_on,q_off,r_on,r_off,s_on,s_off,t_on,t_off,sharpness_deriv_p_norm,sharpness_deriv_q_norm,sharpness_deriv_r_norm,sharpness_deriv_s_norm,sharpness_deriv_t_norm
0,0,,,,,,,,,,,,,,,,,,,,,,,,,,,,,,,,,,,,,,,,,,,,,,,,,,,,,,,66.4465623364073,283.4907851126026,433.1070681038022,217.0,,,,,,,,,,,,,,,
1,1,1440.7746095641116,2078.2797887845227,15.376102258199923,1509.054747397984,-1073.9359740507114,20.323550817186145,1556.5678886628268,14558.142327430902,5.24042056254916,1581.2095123155573,-4387.584716727846,16.444996224504653,1803.1028684992275,8311.800011535453,30.888234547639012,0.9217225288365488,67.0,31.0,110.0,242.0,352.0,36.0,,,41.0,21.0,20.0,0.5121951219512195,68.59987141885539,1693.6415633533434,64.0,33.0,31.0,0.515625,59.587566422973346,781.2319525233553,11.0,6.0,5.0,0.5454545454545454,1053.9391394626016,12377.74624265088,31.0,12.0,19.0,0.3870967741935484,223.17848986586424,5998.262219671335,74.0,36.0,38.0,0.4864864864864865,85.29677293835296,8865.636784064536,,,,,1422.0,1458.0,1489.0,1529.0,1551.0,1562.0,1569.0,1599.0,1768.0,1841.0,0.03300800584649667,-0.05548521314377687,0.07239516661935204,-0.05086591012476343,0.010262130082530215
2,2,2332.7671471359736,1943.381774309328,15.143745369204057,2402.4794082981284,-1074.613024354199,20.86965722581234,2448.7291869746964,14731.162909793366,5.390941120982047,2472.316655923923,-4311.576904688241,17.498683521317886,2695.642421591824,8064.139037281716,31.12435371028226,0.9246266931316924,68.0,30.0,109.0,243.0,352.0,38.0,893.0,892.0,40.0,20.0,20.0,0.5,76.3995608265226,1489.8980591582442,52.0,23.0,29.0,0.4423076923076923,51.13967085988309,891.1698859088899,11.0,6.0,5.0,0.5454545454545454,1047.331041742064,12217.907484309466,30.0,11.0,19.0,0.3666666666666666,270.28092689160803,7009.792642597024,77.0,38.0,39.0,0.4935064935064935,77.91960766751599,8648.886662614954,,,,,2314.0,2352.0,2382.0,2421.0,2443.0,2454.0,2461.0,2491.0,2659.0,2734.0,0.03931268772636029,-0.04758891777867299,0.07109629077863173,-0.0626872563951521,0.009662483162465582
3,3,3185.2646622109824,2063.3958339505484,15.117043364029284,3259.7533909985605,-1088.691594226241,21.49411650687045,3301.54305779794,14135.382204979189,5.152804935149177,3326.6287889210735,-4336.28809146988,17.171305947088463,3546.8149850036752,8183.53262476847,30.847754538951204,0.921659780313072,70.0,31.0,109.0,239.0,348.0,39.0,852.0,853.0,42.0,21.0,21.0,0.5,62.82345924685468,1577.8480854747918,38.0,24.0,14.0,0.631578947368421,59.42979055924982,1052.537725684204,11.0,6.0,5.0,0.5454545454545454,1027.825401995702,11839.055617990038,33.0,14.0,19.0,0.4242424242424242,193.60114535210795,5233.629357579472,75.0,37.0,38.0,0.4933333333333333,81.13753028653028,8746.357570390308,,,,,3166.0,3205.0,3236.0,3274.0,3296.0,3307.0,3314.0,3345.0,3511.0,3584.0,0.03044663472377657,-0.0545882698777407,0.07271295442111571,-0.044646744235686285,0.009914731694348911
4,4,4816.47940832334,2129.1679813553724,15.384342514987628,4883.630086497841,-1079.186753256474,19.9765756788058,4932.885017436129,14667.944189986658,5.168838032373595,4957.032096622588,-4541.6196872932005,16.577671305234542,5176.291649370388,8019.261897475849,30.50725202544302,0.9257335743423092,68.0,30.0,111.0,238.0,349.0,38.0,1632.0,1631.0,43.0,22.0,21.0,0.5116279069767442,62.10817127566586,1667.8749137788946,55.0,34.0,21.0,0.6181818181818182,49.13747223837287,832.218562055154,11.0,6.0,5.0,0.5454545454545454,1053.190522344066,12084.16217784063,31.0,12.0,19.0,0.3870967741935484,232.20139140028363,6350.605964854083,76.0,37.0,39.0,0.4868421052631579,74.7325039904929,8390.917739257668,,,,,4797.0,4835.0,4865.0,4905.0,4927.0,4938.0,4945.0,4976.0,5142.0,5214.0,0.0291701602783494,-0.04553194531910188,0.07180219045713618,-0.05112744073440358,0.00931912499503424
5,5,5644.904069198279,2014.1268029895723,14.38760456923905,5716.479408298129,-1165.2449602904178,19.7457072988906,5762.627597457419,14608.633374724131,5.269488835316331,5786.290961155206,-4441.434572470418,15.762719334368034,6006.962814846462,8158.726236351606,30.745362499250604,0.924537919536168,71.0,34.0,109.0,239.0,348.0,37.0,828.0,830.0,40.0,22.0,18.0,0.55,65.86038406461446,1539.652951294836,43.0,22.0,21.0,0.5116279069767442,42.732519291018626,1051.851274445531,11.0,6.0,5.0,0.5454545454545454,1062.7217257375191,12405.968533832867,30.0,11.0,19.0,0.3666666666666666,275.267791729372,6856.75124907228,75.0,37.0,38.0,0.4933333333333333,86.1482409936929,8565.034133412704,,,,,5625.0,5662.0,5696.0,5735.0,5757.0,5768.0,5775.0,5805.0,5971.0,6044.0,0.03269922428263095,-0.03667256306379412,0.07274614253625128,-0.06197722542972469,0.010559030723430231
6,6,6580.283744515671,2242.94268397507,16.67664251956651,6656.7533909985605,-770.6905412003028,19.977710211408723,6700.327884179637,14302.095255392987,5.2330195190773665,6725.26031731417,-4045.8193903592314,15.099612174263791,6947.702096398673,8170.998440014297,31.62414167168778,0.92746822968558,89.0,51.0,92.0,242.0,334.0,38.0,935.0,938.0,40.0,19.0,21.0,0.475,75.34711377922689,1987.286083339795,41.0,25.0,16.0,0.6097560975609756,53.130569781268136,587.5793648938314,12.0,6.0,6.0,0.5,1033.186373596649,12293.841117446818,30.0,12.0,18.0,0.4,219.3353772559812,5490.009100208921,76.0,38.0,38.0,0.5,79.30371429535698,8803.685264233223,,,,,6562.0,6600.0,6651.0,6672.0,6695.0,6706.0,6713.0,6743.0,6911.0,6985.0,0.033592973337014775,-0.06893891509103064,0.0722402106227798,-0.05421284444348522,0.009705510884324465
7,7,8462.089763160508,2224.050753139139,17.374992956724594,8535.876695499283,-565.2729465548813,12.73982700428279,8578.742089232188,15304.465076002907,5.195427605505935,8604.451758137038,-3467.697701448553,13.958468424554743,8825.518231692704,8016.437604378223,33.113677183872404,0.9382188899103288,90.0,50.0,88.0,245.0,333.0,40.0,1882.0,1878.0,43.0,21.0,22.0,0.4883720930232558,66.18678274274156,1936.6901664018744,20.0,6.0,14.0,0.3,62.76781407453994,320.62155957617796,11.0,6.0,5.0,0.5454545454545454,1099.6469530993877,14098.370167431523,29.0,12.0,17.0,0.4137931034482758,198.78877831507896,4627.51857792031,78.0,38.0,40.0,0.4871794871794871,80.8331935427673,8687.686311768792,,,,,8443.0,8483.0,8533.0,8546.0,8573.0,8584.0,8592.0,8621.0,8788.0,8866.0,0.029759564906206456,-0.11103983386625055,0.07185138112560445,-0.0573258673130704,0.010083430762140504
8,8,9397.60271279885,1708.4037481400196,14.305563905000945,9472.178051898703,-1166.2339846344037,22.93168855618357,9513.045723673751,14718.666432731265,5.408130922861682,9537.78941295137,-4408.968858237138,16.791016407657498,9759.847422939292,8002.675619145357,31.055257356161498,0.9165822148562572,70.0,37.0,110.0,242.0,352.0,33.0,934.0,934.0,34.0,23.0,11.0,0.6764705882352942,78.15943031829217,1316.6683256764618,40.0,26.0,14.0,0.65,66.81379495718966,1013.050991025274,11.0,6.0,5.0,0.5454545454545454,1046.0256906821382,12304.778094199655,31.0,13.0,18.0,0.4193548387096774,232.5747318280297,5772.846258903384,76.0,37.0,39.0,0.4868421052631579,74.8081921393216,8548.91264389903,,,,,9376.0,9409.0,9446.0,9485.0,9507.0,9518.0,9526.0,9556.0,9723.0,9798.0,0.0457499759078533,-0.057290214345909966,0.07106796634483092,-0.052750368466204435,0.009347897590694888
9,9,10308.178051898703,1954.871760993258,16.441031489079872,10379.904069198274,-706.4153991791908,30.57558478487298,10423.350261053763,13742.23050336588,4.9434969284407835,10449.357687647698,-4005.996849248777,15.766294408790426,10670.68592811022,8287.22959341605,30.90802300794972,0.9131952421590074,70.0,36.0,110.0,241.0,351.0,34.0,911.0,911.0,36.0,22.0,14.0,0.6111111111111112,79.01995420912394,1518.4905573369592,51.0,24.0,27.0,0.4705882352941176,47.99023967426983,615.9553247836353,11.0,5.0,6.0,0.4545454545454545,1003.2785125608212,11474.297443138974,33.0,14.0,19.0,0.4242424242424242,169.1209091782915,4819.586342002745,74.0,36.0,38.0,0.4864864864864865,81.08874800428445,8971.044602154654,,,,,10287.0,10321.0,10357.0,10397.0,10418.0,10428.0,10435.0,10467.0,10636.0,10708.0,0.040422065419255124,-0.0679348719323381,0.07300696290278995,-0.04221693514561946,0.009784783574562358
10,10,11205.47940829813,1996.267183689599,18.200848882144047,11276.178051898703,-596.5389319928734,18.060586125057377,11320.439989211996,14321.118740541322,5.141999159402532,11345.612252275832,-4018.889863761571,13.88317954427634,11566.986303555608,8227.71132530771,32.34826380547208,0.926708103572927,88.0,47.0,92.0,243.0,335.0,41.0,899.0,897.0,45.0,24.0,21.0,0.5333333333333333,75.11034477899584,1440.136644243391,39.0,23.0,16.0,0.5897435897435898,50.477494439122374,336.38932698699057,12.0,6.0,6.0,0.5,1047.6955970446718,12250.3979247337,30.0,13.0,17.0,0.4333333333333333,214.41801104821897,5141.329495022124,78.0,38.0,40.0,0.4871794871794871,72.398996305273,8762.209589649761,,,,,11183.0,11224.0,11271.0,11290.0,11315.0,11326.0,11333.0,11363.0,11530.0,11606.0,0.03762539673681015,-0.08461726759474168,0.07315738497990207,-0.053352547175186726,0.00879940890519337
11,11,12124.564234796671,1898.491963553968,16.46272745967183,12201.178051898703,-803.8290237565201,19.28358216335204,12243.682488735138,14567.082676148486,5.329273955440164,12268.042529859344,-4194.006594839929,15.287355537355062,12490.31776756604,8165.78597834201,31.8271338761397,0.9273095689165708,72.0,33.0,109.0,244.0,353.0,39.0,919.0,923.0,42.0,21.0,21.0,0.5,65.13050042827086,1482.281670559452,40.0,26.0,14.0,0.65,65.69685635676625,496.5773467084475,11.0,6.0,5.0,0.5454545454545454,1057.39410051572,12565.934069193436,30.0,12.0,18.0,0.4,245.06589507977364,5808.976524757347,78.0,38.0,40.0,0.4871794871794871,68.77876824878697,8651.101967266284,,,,,12105.0,12144.0,12177.0,12214.0,12238.0,12249.0,12256.0,12286.0,12453.0,12530.0,0.03430643988945146,-0.08172988834086418,0.07258791097870623,-0.05843240575284002,0.00842279829905019
12,12,13037.75339099856,1759.8676758949573,16.030117816809177,13112.75339099856,-1055.1611919517927,25.47965398507572,13153.860274568042,14458.903782543806,5.328661070941326,13178.628102797198,-4388.781564367518,16.63834381110984,13401.52903994842,8204.513004304594,30.07045155980165,0.925178118214726,69.0,33.0,112.0,241.0,353.0,36.0,912.0,910.0,44.0,25.0,19.0,0.5681818181818182,66.22579327873622,1072.2650288890975,43.0,29.0,14.0,0.6744186046511628,50.996165904837035,932.2491202599584,11.0,6.0,5.0,0.5454545454545454,1039.626386337641,12096.39005404914,31.0,13.0,18.0,0.4193548387096774,209.20859507355823,5610.503094364411,72.0,36.0,36.0,0.5,77.60310336813167,8557.933388632631,,,,,13016.0,13052.0,13085.0,13127.0,13148.0,13159.0,13166.0,13197.0,13366.0,13438.0,0.03763112089950625,-0.048330213709344705,0.07190215814236062,-0.047668946837573584,0.00945858740517765
13,13,13933.054747397986,2160.640956213772,17.69502371502069,14006.60271279885,-645.8965311475059,18.368992998431473,14049.156349916346,13509.499431028637,4.92769551718959,14074.550744669055,-4023.400909775941,15.333811439555587,14295.19747267035,8623.440539738755,32.71884735875407,0.9251072995647254,89.0,49.0,91.0,241.0,332.0,40.0,897.0,896.0,44.0,22.0,22.0,0.5,80.73263314405173,1843.976920112752,21.0,6.0,15.0,0.2857142857142857,57.05028958230414,689.032481139949,11.0,6.0,5.0,0.5454545454545454,982.0006483243814,11338.63782086279,32.0,14.0,18.0,0.4375,175.67507972016313,4604.978985490736,77.0,37.0,40.0,0.4805194805194805,81.79691954481544,9271.720837153933,,,,,13913.0,13953.0,14002.0,14021.0,14044.0,14054.0,14061.0,14093.0,14259.0,14334.0,0.03736513135691209,-0.088327289017868,0.07268963985955845,-0.04366332952137904,0.009485415846248006
14,14,14840.328730098418,1841.8534806675525,16.634843928318507,14910.75339099856,-867.6424637450035,14.766348579543171,14953.785887456695,14719.22733020014,5.3326989118254415,14977.534749102751,-4296.55281418655,15.15936646957608,15200.060874596558,8193.147552002993,31.308382313009407,0.9310010302801056,87.0,49.0,91.0,242.0,333.0,38.0,906.0,904.0,43.0,23.0,20.0,0.5348837209302325,72.68206207961377,1447.1832701870271,39.0,24.0,15.0,0.6153846153846154,68.54415173755002,604.9897724491439,11.0,6.0,5.0,0.5454545454545454,1066.098775253608,12570.226708591845,30.0,12.0,18.0,0.4,253.359254202176,5863.7690927360345,77.0,38.0,39.0,0.4935064935064935,80.82835987999763,8653.718738622892,,,,,14818.0,14856.0,14905.0,14925.0,14948.0,14959.0,14966.0,14996.0,15164.0,15238.0,0.03946137021348258,-0.07900045767895342,0.07242899041760449,-0.05896802975762875,0.00986536118957572
15,15,15751.630086497842,2066.02114110463,17.20283228452967,15829.60271279885,-739.5430491927962,14.052574909599366,15870.625693471911,14539.19951760547,5.3228047042681155,15894.766291437269,-3940.8178683037336,14.343346662733945,16116.764863119091,8323.400211693815,31.985871276831578,0.9281427375506538,91.0,48.0,91.0,243.0,334.0,43.0,913.0,917.0,46.0,24.0,22.0,0.5217391304347826,68.32480841237633,1443.4629959375134,37.0,25.0,12.0,0.6756756756756757,64.76530676838271,447.2875255943789,11.0,6.0,5.0,0.5454545454545454,1059.8870174379128,12862.272588303862,29.0,12.0,17.0,0.4137931034482758,236.57738776310129,5568.557502806949,77.0,38.0,39.0,0.4935064935064935,81.87326422091222,9017.827521959372,,,,,15730.0,15773.0,15821.0,15841.0,15865.0,15876.0,15883.0,15912.0,16080.0,16155.0,0.033070720842597684,-0.08757476233340764,0.07289858125645082,-0.060032560668664574,0.009836516584398502
16,16,16679.33345142461,1673.9563461760977,13.89350868628447,16752.08212109698,-1210.2750112414694,24.666613175365686,16799.35306757023,14204.596594275168,5.202334910889603,16824.54405689913,-4347.3089710855265,18.97385752970697,17046.70683264607,8189.282324923787,29.931995742361085,0.9103635481785818,67.0,32.0,114.0,241.0,355.0,35.0,917.0,929.0,37.0,18.0,19.0,0.4864864864864865,61.11875902091182,1316.1326287541342,70.0,39.0,31.0,0.5571428571428572,53.602748943453335,951.7086079972436,11.0,5.0,6.0,0.4545454545454545,1013.3323757115174,11218.9799608803,33.0,14.0,19.0,0.4242424242424242,200.0679549816814,5342.716721222056,74.0,37.0,37.0,0.5,87.84371588646557,8680.297306482156,,,,,16662.0,16697.0,16729.0,16782.0,16794.0,16804.0,16811.0,16843.0,17012.0,17084.0,0.036511560866284515,-0.044289726256901724,0.07133834241515295,-0.04602110324165072,0.010726668394264095
17,17,17585.753390998565,1759.3001893181388,15.168045509999914,17659.753390998565,-970.6324421152972,25.47965400742588,17701.95451587628,14097.083642665952,5.070026146921462,17727.337005741483,-4201.791586529229,15.960305971653243,17947.657080626952,8074.971718816648,31.08723088168177,0.9141494125688155,71.0,36.0,110.0,239.0,349.0,35.0,915.0,903.0,39.0,22.0,17.0,0.5641025641025641,63.047752937336675,1212.092158814262,38.0,24.0,14.0,0.631578947368421,61.029747368675864,845.8974566386079,11.0,6.0,5.0,0.5454545454545454,1018.8268673949163,11991.355300548516,32.0,13.0,19.0,0.40625,201.63126802278148,5176.58906445566,74.0,36.0,38.0,0.4864864864864865,76.68340114850758,8555.638542139872,,,,,17565.0,17600.0,17636.0,17674.0,17696.0,17707.0,17714.0,17746.0,17912.0,17985.0,0.03583683632852471,-0.06287626986346538,0.07227217296997199,-0.04798697504873946,0.009496429686535818
18,18,18515.904069198277,1861.13256889205,15.460741109371568,18588.904069198277,-871.6272434395311,19.70544777888656,18634.08615812083,14744.072077881334,5.321712662715973,18657.825829666952,-4142.223236481455,14.383423668436182,18880.871560179738,8300.13805063734,31.78953689953585,0.9277326407550428,71.0,35.0,107.0,245.0,352.0,36.0,931.0,931.0,39.0,20.0,19.0,0.5128205128205128,72.30333056448583,1275.8190619283405,38.0,21.0,17.0,0.5526315789473685,51.62084894215112,794.1583034985629,12.0,6.0,6.0,0.5,1064.5720852545803,12894.251402277716,28.0,11.0,17.0,0.3928571428571428,256.88634896707333,6127.037790063008,77.0,38.0,39.0,0.4935064935064935,73.88702842950273,8780.43374908144,,,,,18497.0,18533.0,18568.0,18606.0,18628.0,18640.0,18647.0,18675.0,18844.0,18920.0,0.038849102838240425,-0.05922353773437591,0.07220339670284324,-0.06201653901813396,0.00890190355614979
19,19,19441.24757633324,1827.6516672110192,17.57259313682759,19518.47940829813,-894.7111013800836,24.94600945654379,19564.948500956925,14633.530190505102,5.33624305435694,19589.151980103397,-4101.684487500855,16.196695621838092,19812.426361404207,8369.89663958847,30.088570837267017,0.9236403235829024,72.0,34.0,111.0,242.0,353.0,38.0,918.0,931.0,40.0,18.0,22.0,0.45,71.34229534544339,1946.1229362050624,59.0,38.0,21.0,0.6440677966101694,52.106526387821454,606.8309974830099,11.0,6.0,5.0,0.5454545454545454,1050.4234051240574,12576.491432717216,30.0,12.0,18.0,0.4,242.2939364905502,6166.110346513662,72.0,35.0,37.0,0.4861111111111111,87.15333944672508,9057.648103058882,,,,,19424.0,19462.0,19496.0,19537.0,19559.0,19570.0,19577.0,19607.0,19777.0,19849.0,0.0390349521330348,-0.05823838142552117,0.0717819549657006,-0.05907181238071758,0.010412713943742347
20,20,20372.47940829813,1895.7269848996973,18.50166898044689,20447.32873009842,-656.0709414650479,28.027619405017656,20490.94788620897,13929.22651524274,5.040145116753549,20516.886904529933,-3867.1147103474864,15.606628833138592,20738.39768980127,8481.21531203629,31.510904680468347,0.9191005211818818,92.0,49.0,95.0,241.0,336.0,43.0,939.0,927.0,46.0,27.0,19.0,0.5869565217391305,64.0554152614861,1485.7509737647647,24.0,8.0,16.0,0.3333333333333333,49.52986602592544,589.4473792456673,11.0,6.0,5.0,0.5454545454545454,1006.3094680716824,12128.167205257025,32.0,14.0,18.0,0.4375,182.08238639963764,4551.4234005301,75.0,36.0,39.0,0.48,78.95956509790203,9164.9090250446,,,,,20348.0,20391.0,20440.0,20463.0,20485.0,20496.0,20503.0,20535.0,20703.0,20776.0,0.03378936723046925,-0.07549468036996444,0.07224446145451643,-0.04708481646857492,0.009309935214808773
21,21,21285.904069198277,1885.3688892729544,16.126559297023064,21357.027373698995,-768.9582980928287,17.835757455972534,21402.488357335467,14740.932594733851,5.302802066909284,21426.6686566585,-4257.136376370929,15.430435345249856,21649.51575122147,8227.757720870713,30.843004392733448,0.9207820405433466,90.0,50.0,91.0,244.0,335.0,40.0,913.0,911.0,41.0,23.0,18.0,0.5609756097560976,60.70719978851682,1380.94707872337,42.0,23.0,19.0,0.5476190476190477,50.179183277339874,610.8769150576758,12.0,6.0,6.0,0.5,1070.8040336308832,12496.853569643035,29.0,12.0,17.0,0.4137931034482758,239.79779681684056,5868.246316208768,74.0,36.0,38.0,0.4864864864864865,78.52678904329683,8775.149619951666,,,,,21263.0,21303.0,21353.0,21373.0,21397.0,21408.0,21415.0,21444.0,21614.0,21688.0,0.03219910975189955,-0.06525605276878388,0.07264153924789157,-0.056328427284554235,0.009544129969226491
22,22,22244.32873009842,1959.6381099846676,17.27960671194755,22316.027373698995,-753.5192098661552,17.835757806005645,22360.21145663524,14408.527419241736,5.282696923517603,22384.304548423755,-4018.7029685929697,13.81710484791209,22607.546486131065,8321.251047971607,32.3942344105229,0.9150629446381592,91.0,52.0,90.0,246.0,336.0,39.0,958.0,958.0,41.0,24.0,17.0,0.5853658536585366,76.07283914211794,1426.6624387563202,41.0,25.0,16.0,0.6097560975609756,52.2950481597232,463.47302447033576,12.0,6.0,6.0,0.5,1048.4634543481427,12755.2806967122,29.0,11.0,18.0,0.3793103448275862,257.08183995174926,6085.546915889122,78.0,38.0,40.0,0.4871794871794871,77.25421717720062,9029.088731311958,,,,,22221.0,22260.0,22312.0,22331.0,22354.0,22366.0,22373.0,22402.0,22570.0,22648.0,0.038819840640225735,-0.06940108158491697,0.07276687088425024,-0.06397134646698183,0.00928396664537986
23,23,23187.58506302421,2062.068037982848,17.770957177317264,23265.178051898707,-595.7817415623431,16.947283682611367,23308.1059285497,13955.511010217686,5.110025440613697,23333.236377993315,-3872.190747663534,14.486748905070757,23556.542202442422,8615.7967281707,32.353744484420254,0.9259765403821146,73.0,32.0,109.0,245.0,354.0,41.0,945.0,948.0,46.0,23.0,23.0,0.5,68.28355523770709,1648.934896550739,37.0,23.0,14.0,0.6216216216216216,48.26824627266436,394.2628421017808,12.0,6.0,6.0,0.5,1015.2927441041498,12229.292069265575,31.0,13.0,18.0,0.4193548387096774,211.97683588718272,4980.540063517696,79.0,39.0,40.0,0.4936708860759494,80.66325766361776,9199.382509284507,,,,,23169.0,23210.0,23242.0,23278.0,23302.0,23314.0,23321.0,23351.0,23520.0,23596.0,0.03311411358885291,-0.08101665913105788,0.07275210082674807,-0.054743386806315984,0.009362251711426357
24,24,24088.178051898707,1748.8197042895029,15.58789258410394,24153.65746019684,-1003.1425954709364,26.82476866186646,24202.189671552413,14182.045023780604,5.121549383005593,24227.061119902377,-4333.544514639164,16.87429775885915,24449.573456367463,7997.613920448903,30.447061594941506,0.9121844315582948,67.0,34.0,110.0,242.0,352.0,33.0,898.0,894.0,36.0,21.0,15.0,0.5833333333333334,81.9119067396404,1173.3326300862086,68.0,35.0,33.0,0.5147058823529411,53.73861764537275,750.1114111431516,11.0,6.0,5.0,0.5454545454545454,1022.3379707487974,11489.362449254137,32.0,13.0,19.0,0.40625,203.6097452932541,5598.1821923779125,75.0,37.0,38.0,0.4933333333333333,80.06980043227892,8435.449673208117,,,,,24068.0,24101.0,24135.0,24185.0,24197.0,24207.0,24214.0,24245.0,24414.0,24487.0,0.046838394225961075,-0.053570267963892575,0.07208678078757544,-0.04698457454525717,0.010011711146439617
25,25,24993.47940830756,2055.0089651223893,15.91677742204882,25069.178051898707,-807.7624877395971,17.63696259246554,25111.05849142096,14641.092058503618,5.292851253839267,25134.934076929872,-4205.195450339257,15.08481833220025,25358.08262594299,8252.131710802978,32.132277258334206,0.9288563512734654,84.0,47.0,94.0,245.0,339.0,37.0,907.0,909.0,40.0,19.0,21.0,0.475,91.40756975508354,1707.632492623584,37.0,24.0,13.0,0.6486486486486487,55.883102910769594,722.6056048847948,12.0,6.0,6.0,0.5,1055.4556359756398,12579.664344751389,31.0,12.0,19.0,0.3870967741935484,255.33542765331987,6149.809373088723,78.0,37.0,41.0,0.4743589743589743,85.19197576942302,8678.70995163987,,,,,24975.0,25012.0,25059.0,25082.0,25105.0,25116.0,25123.0,25153.0,25322.0,25398.0,0.044480375174246314,-0.06918259235725359,0.07208858681840102,-0.060719039261949284,0.010323632578221824
26,26,25922.630086497844,2096.699442453167,18.74952353726374,25994.30135639945,-612.7692929267348,10.191861603451878,26039.2253644756,14357.859343503984,5.323762002585946,26063.513385564685,-3930.240329168978,14.24332664774014,26286.33469602335,8464.947449463576,33.448053442006,0.929977135504674,92.0,48.0,89.0,246.0,335.0,44.0,930.0,928.0,46.0,24.0,22.0,0.5217391304347826,81.1023460298825,1593.1161789931496,17.0,3.0,14.0,0.1764705882352941,66.77733220644602,355.0287078032575,12.0,6.0,6.0,0.5,1031.7914866658837,12497.46683675961,29.0,12.0,17.0,0.4137931034482758,242.69349104108764,5409.450168364725,81.0,39.0,42.0,0.4814814814814814,76.57143364540907,9044.080254784432,,,,,25900.0,25944.0,25992.0,26006.0,26033.0,26045.0,26052.0,26081.0,26248.0,26327.0,0.038680959410659084,-0.10897630311646538,0.07186248743498824,-0.06175029278486985,0.009045706911064334
27,27,26864.602712798853,1655.3947772294466,15.023789031640094,26928.657460196835,-1102.141272073265,26.12795612689788,26977.25385499169,14298.728226380745,5.307472506181754,27001.82194809847,-4291.415052113929,19.16878806366302,27226.192490388148,8189.743227397924,29.43686855709977,0.9111019426737966,65.0,33.0,112.0,242.0,354.0,32.0,939.0,938.0,33.0,22.0,11.0,0.6666666666666666,69.95411567929476,1477.069503647543,66.0,34.0,32.0,0.5151515151515151,44.96175946869734,893.5755367202169,11.0,5.0,6.0,0.4545454545454545,1003.3951748421522,11217.484562863054,33.0,13.0,20.0,0.3939393939393939,201.8697807806698,5724.577004005547,72.0,35.0,37.0,0.4861111111111111,87.56955831364282,8752.984573082005,,,,,26844.0,26876.0,26909.0,26960.0,26972.0,26982.0,26989.0,27021.0,27192.0,27263.0,0.04225826772050927,-0.04079491496051016,0.0701737356606944,-0.047040376735694625,0.010692588996036905
28,28,27756.178051973897,1575.770210222798,14.272234801827596,27820.232799298516,-1134.5116176726522,24.83619340507325,27869.72404324888,13884.31309109608,4.979233181162814,27895.02613582565,-4413.653258906644,17.44211299136365,28116.470795479312,8106.501029825759,31.33368794336566,0.9010491400792324,64.0,31.0,114.0,241.0,355.0,33.0,892.0,892.0,37.0,22.0,15.0,0.5945945945945946,62.047532682908844,1166.9043821867622,68.0,34.0,34.0,0.5,56.932916571398074,925.2054236820989,11.0,6.0,5.0,0.5454545454545454,998.3066524913884,11302.181724498723,33.0,14.0,19.0,0.4242424242424242,173.8830902434438,5436.589120952885,77.0,37.0,40.0,0.4805194805194805,78.68929409176272,8677.690629609508,,,,,27736.0,27769.0,27800.0,27853.0,27864.0,27875.0,27881.0,27914.0,28080.0,28155.0,0.03937600310018296,-0.05018275325217982,0.07190176755172684,-0.0393966358577335,0.009706936914242773
29,29,28667.054747397982,1994.0333340983457,17.202808286324892,28744.602712798853,-660.2424204829169,20.38372284779224,28784.522995006228,14669.07019306117,5.401793676858856,28808.929276465788,-4222.104244905288,14.424504706746548,29031.262490257017,8181.347436452595,32.20383242165727,0.9239076423056468,89.0,51.0,88.0,244.0,332.0,38.0,913.0,915.0,44.0,23.0,21.0,0.5227272727272727,80.5408477763625,1664.713932911426,19.0,8.0,11.0,0.4210526315789473,75.48340550880876,749.322082661781,11.0,6.0,5.0,0.5454545454545454,1068.9624112606216,12868.545339392153,29.0,12.0,17.0,0.4137931034482758,242.0539279595508,5917.965257590468,79.0,39.0,40.0,0.4936708860759494,76.01920957140791,8716.304458818779,,,,,28649.0,28687.0,28738.0,28756.0,28779.0,28790.0,28797.0,28826.0,28994.0,29070.0,0.04039092346105696,-0.11432680356042317,0.07287185876077319,-0.057330163804371115,0.009291771332518985
30,30,29590.32873009842,1920.501834594177,17.695646200103532,29662.753390998565,-704.2543004819598,25.479653219091535,29706.818063829036,14402.446058930234,5.313383833623121,29731.753338157603,-4045.384376874281,15.109783854111624,29954.306799298753,8325.974340080698,31.40344434692375,0.9197079134454068,75.0,37.0,107.0,243.0,350.0,38.0,922.0,922.0,42.0,25.0,17.0,0.5952380952380952,70.19931129504198,1330.5360188044688,38.0,23.0,15.0,0.6052631578947368,53.3293229000244,561.877923726675,11.0,6.0,5.0,0.5454545454545454,1034.945116415352,12438.678212888582,31.0,13.0,18.0,0.4193548387096774,217.6819714436488,5211.973720146005,76.0,37.0,39.0,0.4868421052631579,77.91138893641407,8854.69469376348,,,,,29568.0,29606.0,29643.0,29677.0,29701.0,29712.0,29719.0,29750.0,29918.0,29993.0,0.03655258746986611,-0.07572452573385526,0.07185898229930425,-0.053809959985024615,0.009357630200870751
31,31,30499.178051898707,1534.3806990880823,14.022072220905311,30568.08212109698,-1204.0000429732509,28.06748071042505,30615.233275632952,14137.360742040457,5.116714094300261,30641.624727275637,-4360.365010506151,18.5604925392431,30862.56777299684,8187.96298077733,30.44242440116834,0.9111933965292494,63.0,31.0,117.0,240.0,357.0,32.0,908.0,909.0,34.0,20.0,14.0,0.5882352941176471,65.5838264910712,990.7030786874996,69.0,38.0,31.0,0.5507246376811594,46.620470574807925,966.4675262927516,10.0,5.0,5.0,0.5,1015.1950573384606,11285.947501798457,34.0,15.0,19.0,0.4411764705882353,180.2617073160977,4912.477915991336,75.0,37.0,38.0,0.4933333333333333,80.385647776655,8635.615977046658,,,,,30480.0,30512.0,30543.0,30598.0,30610.0,30620.0,30627.0,30660.0,30826.0,30900.0,0.04274286461635576,-0.03872131969337786,0.0718093762946546,-0.04134096730016026,0.009817539229888352
32,32,31421.47940829813,1942.466937880788,17.78972720919902,31493.753390998565,-684.9433825745019,25.479651579446006,31537.391129977685,14853.105984001926,5.388070463268639,31561.3234008269,-4225.147875257061,14.610119655928443,31784.409103798745,8249.288825846259,31.755163043886032,0.9254747648989003,86.0,46.0,93.0,244.0,337.0,40.0,924.0,922.0,47.0,25.0,22.0,0.5319148936170213,79.69988161505111,1318.3908735087816,40.0,25.0,15.0,0.625,64.45977953449004,574.1238594364972,12.0,6.0,6.0,0.5,1067.185241799909,12463.496769420257,30.0,11.0,19.0,0.3666666666666666,269.8875008656886,6489.259719355412,79.0,39.0,40.0,0.4936708860759494,77.68179566620692,8659.026579357342,,,,,31400.0,31440.0,31486.0,31508.0,31531.0,31543.0,31550.0,31579.0,31747.0,31823.0,0.04103023843587417,-0.09410964639472036,0.07184929825111053,-0.06387646274966612,0.009416786986875548
33,33,32365.405323996416,1982.6876020061536,16.97370453266138,32444.753390998565,-760.0986750610264,19.86243646366936,32487.72007337995,14572.333892089671,5.320853036741804,32512.100237167066,-4060.20415207616,15.221918143272529,32735.41208308148,8235.602663873924,31.622755733060757,0.9236086820696312,75.0,35.0,108.0,245.0,353.0,40.0,937.0,950.0,44.0,21.0,23.0,0.4772727272727273,73.9998762080717,2117.1275903689248,40.0,25.0,15.0,0.625,63.57154068967681,361.8237830634516,11.0,6.0,5.0,0.5454545454545454,1062.7859980302603,12796.222368433486,30.0,12.0,18.0,0.4,256.939599494475,5688.1755670624125,78.0,38.0,40.0,0.4871794871794871,77.69063462826904,8779.609716010717,,,,,32347.0,32387.0,32422.0,32459.0,32482.0,32493.0,32500.0,32530.0,32698.0,32775.0,0.03732301353637154,-0.08363590514688479,0.07293176274304108,-0.0632824335601673,0.009433509337339052
34,34,33301.07895829436,1632.587877324545,13.845839964969844,33374.2327992967,-1396.9681684324732,25.462933636488497,33423.20840225629,14786.475820274314,5.342714101969745,33447.87471089116,-4318.530921681657,20.570245617364677,33671.767423833786,8051.057011012116,28.96337064619848,0.9064070852470392,55.0,20.0,128.0,240.0,368.0,35.0,933.0,936.0,37.0,18.0,19.0,0.4864864864864865,73.11806358677387,1177.133298571945,72.0,37.0,35.0,0.5138888888888888,54.1102548514516,1182.8311756169544,10.0,5.0,5.0,0.5,1036.1066047599422,11840.61621830584,32.0,13.0,19.0,0.40625,208.35200132129177,5899.79190167828,72.0,36.0,36.0,0.5,83.16491763922662,8351.048796472496,,,,,33284.0,33319.0,33339.0,33407.0,33418.0,33428.0,33435.0,33467.0,33637.0,33707.0,0.0447866020581988,-0.03873406429308141,0.07007123383242517,-0.04824603669623801,0.010329689322218795
35,35,34226.05474739799,2026.9840933216335,17.99718607952088,34300.753390998565,-668.8998586221992,25.47965353053206,34344.12849533808,13758.033098654312,4.981218338306235,34370.041951627216,-4140.216184781308,14.828290787481508,34592.03103093415,8467.688546807396,31.707420298865653,0.9196446401565432,72.0,32.0,110.0,242.0,352.0,40.0,935.0,921.0,45.0,25.0,20.0,0.5555555555555556,61.63582364556839,1509.752176786904,39.0,24.0,15.0,0.6153846153846154,54.06049850957517,553.8852851583406,11.0,6.0,5.0,0.5454545454545454,1001.3394304934212,11635.145973835326,32.0,14.0,18.0,0.4375,186.90864308603335,4855.92265138742,76.0,37.0,39.0,0.4868421052631579,76.89544862478006,9110.181737716988,,,,,34206.0,34246.0,34278.0,34315.0,34339.0,34349.0,34356.0,34388.0,34556.0,34630.0,0.030407650384944716,-0.08082001784382054,0.07278216466795412,-0.045144657849770266,0.009081043569295216
36,36,35165.47940829867,1863.264917369136,16.602304738217445,35233.47940829815,-794.9562595613121,16.77183194379547,35281.65787642308,14824.05002793614,5.336095565401113,35305.48550682984,-4078.995475938284,15.163759195721122,35529.42316004968,8270.372987823632,31.705648283976323,0.9234577771419916,71.0,32.0,107.0,246.0,353.0,39.0,939.0,937.0,46.0,24.0,22.0,0.5217391304347826,79.97691437412695,1322.2404087613572,43.0,22.0,21.0,0.5116279069767442,59.3053220357485,542.5456219212678,11.0,6.0,5.0,0.5454545454545454,1064.7809677563507,12819.669675730223,29.0,11.0,18.0,0.3793103448275862,282.8182473612383,6709.326819141759,78.0,38.0,40.0,0.4871794871794871,77.96233598825748,8659.371989838735,,,,,35145.0,35184.0,35216.0,35252.0,35276.0,35287.0,35295.0,35323.0,35492.0,35569.0,0.04292299695474947,-0.07460199391155872,0.07182793944635611,-0.06933526870269012,0.009426701323270482
37,37,36100.753390998565,1809.955306289735,16.15759397482364,36171.90406919828,-916.8062191032452,30.575584778607023,36216.74439454117,14609.439905781948,5.420634669972147,36241.37668428513,-4235.508014465712,15.417423186971432,36464.363165080846,8224.91561123479,31.731582466263173,0.9203837285306748,70.0,35.0,109.0,243.0,352.0,35.0,934.0,935.0,36.0,21.0,15.0,0.5833333333333334,62.10046248226355,1294.7791614597895,41.0,23.0,18.0,0.5609756097560976,46.9832604383486,826.633229859578,11.0,6.0,5.0,0.5454545454545454,1052.4776522027869,12522.587307333522,30.0,12.0,18.0,0.4,246.03604181265655,6212.73352528083,76.0,37.0,39.0,0.4868421052631579,77.48641334045833,8758.712973146345,,,,,36080.0,36115.0,36150.0,36189.0,36211.0,36222.0,36229.0,36259.0,36428.0,36502.0,0.034310494997561336,-0.05124666419072101,0.07204093100011658,-0.05808890951743193,0.009420937186834608
38,38,37028.17805189876,1733.9072204230663,15.988769801584091,37095.08212109717,-1083.4394830505348,28.28293781244608,37141.88821867426,13708.172580749602,5.066467831318964,37168.020990501485,-4313.905246781745,16.22195664630482,37390.74492090681,8247.284659656118,30.59758011732829,0.9142529582960612,65.0,31.0,114.0,242.0,356.0,34.0,927.0,926.0,41.0,23.0,18.0,0.5609756097560976,73.80025432031678,1258.4549119112291,66.0,35.0,31.0,0.5303030303030303,55.52237988084304,904.6592323582048,11.0,6.0,5.0,0.5454545454545454,986.7633453110906,11487.921009690952,32.0,14.0,18.0,0.4375,177.61122814876455,5010.486366805492,73.0,36.0,37.0,0.4931506849315068,79.45272506240168,8869.776056577428,,,,,37007.0,37041.0,37072.0,37125.0,37136.0,37147.0,37154.0,37186.0,37355.0,37428.0,0.042562977678995896,-0.05124640623628935,0.07198358056104452,-0.04117179631640401,0.009633804135689258
39,39,37933.75339099859,1936.925646895068,16.80647788184541,38003.753390998565,-800.8883391739101,24.046746615034195,38048.30856167796,14347.042962840784,5.168570148561232,38072.97241848907,-4217.606764221579,14.896806172175465,38295.650128801775,8179.5148185954995,31.75553064170316,0.9248491190187688,84.0,50.0,92.0,244.0,336.0,34.0,906.0,906.0,45.0,23.0,22.0,0.5111111111111111,83.5280191469385,1343.9624793210644,43.0,25.0,18.0,0.5813953488372093,53.75340745803478,737.3908980140625,12.0,6.0,6.0,0.5,1044.7350025806647,12026.77519194918,29.0,12.0,17.0,0.4137931034482758,213.16587828384183,5709.099662478535,75.0,37.0,38.0,0.4933333333333333,77.74643262273048,8779.896181476173,,,,,37914.0,37948.0,37998.0,38021.0,38043.0,38054.0,38061.0,38090.0,38260.0,38334.0,0.0431240193865137,-0.06711723074090409,0.07281883836875346,-0.05054190449715496,0.009505017638207578
40,40,38862.32873009842,1857.341718388116,17.467952206457575,38931.32873009842,-818.8539014990844,28.027619358321665,38975.975262285865,14799.700322374085,5.370375269227356,39000.44670480988,-4141.28543648386,15.6601105830271,39223.361603892794,8197.225082893034,31.90390113951473,0.9230009074497296,70.0,31.0,110.0,243.0,353.0,39.0,929.0,927.0,41.0,24.0,17.0,0.5853658536585366,66.21511896320538,1402.003500957493,43.0,26.0,17.0,0.6046511627906976,49.15357120006534,853.0936899670054,12.0,6.0,6.0,0.5,1056.7344457535514,12570.63927075332,31.0,12.0,19.0,0.3870967741935484,247.2054612088436,6096.794461520767,79.0,39.0,40.0,0.4936708860759494,69.70566819371224,8540.230237461592,,,,,38839.0,38878.0,38909.0,38947.0,38970.0,38982.0,38988.0,39019.0,39186.0,39262.0,0.03565047740416331,-0.060027278504846085,0.07140242185552823,-0.05969292988863194,0.008503568889328477
41,41,39802.753390998565,1793.751766883413,16.236542486428952,39877.753390998565,-913.5814697720218,25.47965374371638,39920.312211250566,14382.905058111886,5.296253803123174,39945.70694567473,-4203.469664900048,16.23221792489805,40168.51270692221,8310.831505346225,31.201790773932917,0.9200371090225528,72.0,37.0,110.0,243.0,353.0,35.0,940.0,945.0,44.0,25.0,19.0,0.5681818181818182,70.32526553458268,1170.2460521179703,40.0,25.0,15.0,0.625,56.395646570291014,804.5449235763782,12.0,6.0,6.0,0.5,1035.3275776606092,12096.514078649843,31.0,13.0,18.0,0.4193548387096774,203.71147998422444,5202.004762266796,77.0,38.0,39.0,0.4935064935064935,84.37357537986308,8706.60531779843,,,,,39782.0,39817.0,39854.0,39892.0,39915.0,39926.0,39933.0,39964.0,40132.0,40207.0,0.03920568432764284,-0.061730287266404574,0.07198320321781514,-0.04846269777685392,0.010152242326846226
42,42,40719.05474739799,2215.4597949515583,18.42426566743931,40792.178051898714,-587.2236241941175,22.931687710456888,40835.04453671027,13977.131625289756,5.105700374565856,40859.821948101286,-3849.8205214819777,15.288188219102054,41082.533374956576,8433.80551800367,32.667862814324,0.922354911634543,90.0,48.0,92.0,243.0,335.0,42.0,918.0,915.0,44.0,22.0,22.0,0.5,64.37860634834873,1851.120563669236,38.0,24.0,14.0,0.631578947368421,52.07943428709965,423.93528424913126,11.0,6.0,5.0,0.5454545454545454,998.8342341783626,11880.981063805864,32.0,13.0,19.0,0.40625,173.69775376149906,5017.13798445204,79.0,39.0,40.0,0.4936708860759494,90.01514744782095,9049.083404321622,,,,,40697.0,40739.0,40787.0,40805.0,40829.0,40840.0,40847.0,40879.0,41045.0,41122.0,0.029058801470940882,-0.08868756661241517,0.07146203247961873,-0.045118402998858394,0.010673135307147568
43,43,41650.90406919828,1948.5587531521992,17.21138410998447,41724.45203459914,-801.8038216714039,15.287792405183373,41767.21887430061,14800.19863061427,5.369699456563758,41791.137475065385,-4166.490204241058,14.457837608364466,42014.48612351462,8366.593759566673,32.143505977346315,0.9209809260055232,92.0,53.0,88.0,245.0,333.0,39.0,931.0,932.0,44.0,23.0,21.0,0.5227272727272727,70.08444383091172,1455.5929992794097,20.0,6.0,14.0,0.3,62.07723246037858,554.7040897281247,12.0,6.0,6.0,0.5,1064.0820647354474,12670.733520503514,29.0,11.0,18.0,0.3793103448275862,272.0551556571193,6289.003931941757,79.0,38.0,41.0,0.4810126582278481,77.15716706999586,8953.630924781097,,,,,41629.0,41668.0,41721.0,41737.0,41761.0,41773.0,41780.0,41809.0,41978.0,42054.0,0.03596732390929221,-0.07742197128840718,0.07189647188480223,-0.06529600270755352,0.009222052520689378
44,44,42583.37456006311,1938.3293538914577,16.32278671192624,42662.60271279886,-774.799214109701,20.383723190955,42703.41935612718,14400.122963431886,5.270179459491208,42727.82920798916,-4149.396939082228,14.831862763396147,42951.38431411005,8343.19218467388,31.567409719833325,0.9280908284861422,90.0,51.0,89.0,245.0,334.0,39.0,933.0,936.0,41.0,19.0,22.0,0.4634146341463415,73.60229245802363,1742.9705291313803,38.0,26.0,12.0,0.6842105263157895,61.06322505535433,748.2510348092345,12.0,6.0,6.0,0.5,1046.982309718943,12378.85935294868,30.0,12.0,18.0,0.4,251.47269769031155,5529.821154497509,78.0,38.0,40.0,0.4871794871794871,75.1930101776213,8807.807028619121,,,,,42566.0,42605.0,42656.0,42674.0,42698.0,42709.0,42716.0,42745.0,42914.0,42990.0,0.037972025915130006,-0.07881167655225398,0.07270648399167716,-0.06060463758522288,0.009012498874920793
45,45,43518.178051898714,1727.93292791694,18.342042550982587,43587.47940829813,-764.5399529777596,33.123550205289774,43631.92492665186,13811.193777789447,5.148818093198423,43657.95963367725,-4077.8267653052303,15.99743614177172,43880.12997302528,8329.408761276602,31.097370460894147,0.9137581490995762,69.0,31.0,114.0,243.0,357.0,38.0,933.0,929.0,39.0,26.0,13.0,0.6666666666666666,73.83799717229559,1303.2762087661188,66.0,38.0,28.0,0.5757575757575758,50.461334155044064,468.54868098934776,11.0,6.0,5.0,0.5454545454545454,991.431231825938,11567.558844913136,32.0,14.0,18.0,0.4375,189.16468182980267,4879.425078052011,76.0,37.0,39.0,0.4868421052631579,76.30757911591121,9033.459182365748,,,,,43493.0,43531.0,43562.0,43606.0,43626.0,43637.0,43644.0,43676.0,43844.0,43919.0,0.04273198107365711,-0.06600221997360023,0.07178461527491664,-0.04638860175210103,0.00916122395993638
46,46,44429.17805189872,1727.576528784415,15.473933703846756,44495.6574602276,-1030.4551878287152,24.959293766386796,44544.23565797325,14789.769349356104,5.268213191862805,44568.798094474114,-4429.051255084898,17.85802640773275,44792.23543522952,8003.991154243227,30.252209962623592,0.9135123004816174,67.0,35.0,111.0,241.0,352.0,32.0,911.0,912.0,40.0,23.0,17.0,0.575,64.36402550470267,1172.9074747508555,55.0,23.0,32.0,0.4181818181818181,50.51402313981416,884.7703247658148,12.0,6.0,6.0,0.5,1055.4574491515173,11985.985404404248,32.0,13.0,19.0,0.40625,212.58285979010205,5982.460096359175,74.0,36.0,38.0,0.4864864864864865,78.14477521561781,8535.138674061775,,,,,44410.0,44442.0,44477.0,44527.0,44539.0,44549.0,44556.0,44588.0,44757.0,44829.0,0.03725683026614833,-0.04902107703126118,0.07136402361795238,-0.04799738082643326,0.009763226084300483
47,47,45374.753390998565,1848.921690631841,14.589880542243131,45453.027373699,-1134.7735175063187,17.83575780580375,45491.9070647046,14848.329386912988,5.3899855844129405,45516.43256638341,-4283.178250265662,16.704905300447756,45740.8775473654,8149.3553591752925,30.81336892461115,0.9219161051072576,70.0,35.0,111.0,244.0,355.0,35.0,946.0,947.0,39.0,22.0,17.0,0.5641025641025641,70.03416295760557,1349.429868122655,41.0,30.0,11.0,0.7317073170731707,66.60118180369149,1099.5586844800064,11.0,6.0,5.0,0.5454545454545454,1059.809201477175,12572.18192635164,31.0,12.0,19.0,0.3870967741935484,251.51473530025808,6234.540576216994,77.0,38.0,39.0,0.4935064935064935,75.34413484248604,8490.362022424775,,,,,45354.0,45389.0,45424.0,45463.0,45486.0,45497.0,45504.0,45535.0,45704.0,45779.0,0.03787838247150016,-0.05869116680661402,0.0713756526987655,-0.05872151953625978,0.009245410406315966
48,48,46338.56330056545,2121.2076637954083,18.1850943455324,46415.479408298146,-730.7765017825551,20.014110199056443,46462.58634006317,14528.786875337191,5.338722344318267,46487.21723728,-4028.879968133601,15.110411678344244,46712.22878495276,8313.888713228896,31.755140799196596,0.9299802561505804,76.0,37.0,108.0,246.0,354.0,39.0,958.0,971.0,43.0,21.0,22.0,0.4883720930232558,69.01460511414959,2232.5363464417624,42.0,22.0,20.0,0.5238095238095238,43.48130213536754,468.16313151244094,11.0,6.0,5.0,0.5454545454545454,1054.9035011261235,12801.80857407024,30.0,12.0,18.0,0.4,233.74099055550712,5754.844222870554,78.0,38.0,40.0,0.4871794871794871,72.85241751049735,8860.87558652267,,,,,46321.0,46360.0,46397.0,46434.0,46457.0,46468.0,46475.0,46505.0,46675.0,46751.0,0.03253552506531302,-0.05950013722294747,0.07260781716860588,-0.058016369910317486,0.008762736671538075
49,49,47262.32873009842,1879.9756641315737,17.534932330666145,47328.808138396555,-1020.8216995398412,29.994606068105007,47379.715027000464,14072.64790809641,5.095268787686461,47405.32858121405,-4211.846258810287,18.885457798861204,47629.13405634029,8134.138140993383,29.778164064918226,0.9204458876586704,71.0,34.0,113.0,242.0,355.0,37.0,930.0,917.0,39.0,22.0,17.0,0.5641025641025641,73.39516209759158,1284.8148476883268,71.0,34.0,37.0,0.4788732394366197,61.4181667823371,980.4271677607348,11.0,6.0,5.0,0.5454545454545454,1000.248015032011,11553.971652077806,34.0,14.0,20.0,0.4117647058823529,166.06278860084615,5330.92308081176,74.0,36.0,38.0,0.4864864864864865,74.7965589189251,8549.685935693557,,,,,47241.0,47278.0,47312.0,47363.0,47374.0,47385.0,47391.0,47425.0,47593.0,47667.0,0.039040485203033395,-0.06016542047452826,0.07107745618054856,-0.039427552288614075,0.009195388327864144
50,50,48191.178051898714,1758.0580195912885,15.806312982192498,48259.60271279886,-801.7315137479234,20.383723202871572,48305.32852824415,14841.7557407009,5.329483389073541,48329.481832245896,-4295.111082229072,14.918580934496775,48553.69872196454,8243.535570074559,31.320001679927532,0.9268709592645308,86.0,51.0,91.0,247.0,338.0,35.0,928.0,926.0,39.0,23.0,16.0,0.5897435897435898,66.61531033277613,1309.9268018448734,56.0,38.0,18.0,0.6785714285714286,59.69920521171445,534.4512223201625,12.0,6.0,6.0,0.5,1074.2241484218478,12622.210167338522,29.0,11.0,18.0,0.3793103448275862,269.42898494676353,6604.39015243161,76.0,37.0,39.0,0.4868421052631579,71.101480696012,8651.800600217768,,,,,48169.0,48204.0,48255.0,48276.0,48299.0,48311.0,48318.0,48346.0,48518.0,48593.0,0.037891417456326494,-0.07446283972627374,0.07237850879569303,-0.06272922394522462,0.008625119657895638
51,51,49119.47940829816,1964.7227180989596,16.05801702633036,49190.90406919828,-883.266746637933,21.407305466578368,49236.83502340294,14664.546873982716,5.337288512446983,49260.86824118783,-4144.797742068508,16.05917886050152,49485.381456415846,8232.112708690089,31.508454108293503,0.926332386129234,69.0,31.0,110.0,245.0,355.0,38.0,930.0,931.0,40.0,20.0,20.0,0.5,67.92388973700457,1516.7959235341032,41.0,23.0,18.0,0.5609756097560976,52.691227201756746,597.9580556324603,11.0,6.0,5.0,0.5454545454545454,1048.187229726726,12560.776835755038,31.0,12.0,19.0,0.3870967741935484,237.7592715264201,5986.806173507275,79.0,39.0,40.0,0.4936708860759494,72.38601723102316,8848.610847745727,,,,,49100.0,49138.0,49169.0,49208.0,49231.0,49242.0,49249.0,49279.0,49447.0,49524.0,0.034571743438039364,-0.059654942747839945,0.07147764187561637,-0.05736329884405014,0.00879312757156618
52,52,50046.753390998565,1829.714946081146,16.547361578949413,50120.32873009842,-1042.385388592611,24.15942889188486,50162.88385865886,14190.974821530242,5.191743520843493,50187.8278239382,-4191.99557290206,16.615214503714533,50411.92996337835,8216.249376446272,31.015141771697625,0.9213102236021464,69.0,36.0,109.0,245.0,354.0,33.0,926.0,926.0,44.0,23.0,21.0,0.5227272727272727,75.49040027303451,1300.105644894056,41.0,24.0,17.0,0.5853658536585366,53.24140318906853,1119.7799329129166,11.0,6.0,5.0,0.5454545454545454,1021.5558748241748,11964.991129297385,32.0,13.0,19.0,0.40625,199.65841355737152,5313.721223349294,76.0,37.0,39.0,0.4868421052631579,79.38415155774352,8755.35823908068,,,,,50028.0,50061.0,50097.0,50136.0,50157.0,50168.0,50175.0,50206.0,50376.0,50451.0,0.04125801149229208,-0.051076505649175534,0.07198630733064879,-0.04762848864822411,0.009661847872499593
53,53,50948.63008649785,1870.103804957442,16.14480533912077,51040.87669549929,-604.5516339216442,12.739827003159748,51064.00734329243,13445.54459565228,4.959277694351087,51089.76777078509,-4028.07261740408,15.944411994811448,51311.64834512836,8357.275929372701,31.992142255246353,0.9167779754156083,88.0,47.0,91.0,243.0,334.0,41.0,904.0,902.0,44.0,21.0,23.0,0.4772727272727273,73.5295963969973,1439.712770433855,31.0,24.0,7.0,0.7741935483870968,187.8947521479018,1499.7512864330988,11.0,6.0,5.0,0.5454545454545454,979.738254280871,11182.928219280744,32.0,14.0,18.0,0.4375,163.13582019267136,4545.749426610937,78.0,39.0,39.0,0.5,71.12937213471547,8751.862104334805,,,,,50929.0,50970.0,51017.0,51048.0,51059.0,51069.0,51076.0,51108.0,51274.0,51351.0,0.039318457190493025,-0.3108001725659959,0.07286713061795035,-0.0404997217497547,0.008511071398842093
54,54,51870.32873009843,1956.692470840392,16.457218371954948,51941.178051898714,-740.7631650367672,16.646161413389667,51985.539864071005,14820.653542560303,5.338042522013208,52009.68973805225,-4212.681503515208,15.118754901183816,52233.2367938382,8139.22886821614,31.779817344237593,0.924856420039254,85.0,50.0,91.0,246.0,337.0,35.0,920.0,921.0,42.0,21.0,21.0,0.5,80.1211073581013,1622.05663942808,39.0,22.0,17.0,0.5641025641025641,51.08207963040032,558.5802597700493,11.0,6.0,5.0,0.5454545454545454,1070.9363180956611,12878.98112246948,29.0,12.0,17.0,0.4137931034482758,239.40864992613083,5926.488481404658,79.0,39.0,40.0,0.4936708860759494,72.39428685102675,8689.132113593218,,,,,51851.0,51886.0,51936.0,51957.0,51980.0,51991.0,51998.0,52027.0,52196.0,52273.0,0.040947215033586545,-0.06895871992752893,0.07225972289415344,-0.056830465281165914,0.00889448964062529
55,55,52809.753390998565,1859.7202148894096,16.880174420494992,52884.178051898714,-865.4235946404663,22.931688603819765,52926.15413815687,14642.97937579988,5.329150333786993,52950.61543755226,-4257.168404504792,15.258264613375934,53174.3547915071,8155.082571245594,31.086729354531887,0.9277525290687392,90.0,55.0,89.0,245.0,334.0,35.0,939.0,941.0,45.0,25.0,20.0,0.5555555555555556,81.06681386529804,1240.4889904292966,20.0,6.0,14.0,0.3,71.88714057920275,801.3954147841758,12.0,6.0,6.0,0.5,1052.5330713823148,12618.513357539545,30.0,12.0,18.0,0.4,233.66188871621608,5527.494119799956,76.0,37.0,39.0,0.4868421052631579,69.92137371918443,8688.951993927489,,,,,52789.0,52824.0,52879.0,52898.0,52920.0,52932.0,52939.0,52968.0,53138.0,53213.0,0.04359086555937597,-0.08306584315980861,0.07187970728974817,-0.05488669146115125,0.008573962692385683
56,56,53751.753390998565,1727.3175139651098,15.051093107082602,53822.90406919828,-899.4756018720643,30.575584788046307,53867.295457289976,14229.60150483757,5.28125793634898,53892.8219480942,-4250.8074971338365,16.566101675078507,54116.344584014914,8255.57491240334,30.400898100574036,0.9144295523285108,69.0,34.0,111.0,243.0,354.0,35.0,942.0,941.0,35.0,21.0,14.0,0.6,66.96159123460156,1201.6389296315988,66.0,39.0,27.0,0.5909090909090909,57.18512109807425,610.8235462115111,12.0,6.0,6.0,0.5,1019.8560871442384,11583.143612127238,32.0,14.0,18.0,0.4375,198.92777632542237,5345.662053076114,74.0,36.0,38.0,0.4864864864864865,73.97483410726748,8813.219298084068,,,,,53731.0,53766.0,53800.0,53840.0,53862.0,53873.0,53880.0,53911.0,54081.0,54154.0,0.03876623185559509,-0.06357606696508028,0.07167144398228739,-0.046797644085165485,0.008960591466031788
57,57,54659.178051898714,1858.2392680792009,16.231740267884053,54731.05474739799,-846.3707531697426,25.52336518729948,54772.92189909057,13526.137085398315,4.958710353163027,54799.3816006498,-4162.542787519758,16.512592664786652,55021.53394451997,8243.189020654403,30.82135915185644,0.917574220134032,85.0,51.0,95.0,242.0,337.0,34.0,907.0,906.0,39.0,21.0,18.0,0.5384615384615384,84.14837614226047,1628.8104713633784,53.0,27.0,26.0,0.5094339622641509,50.87676058475533,869.6765489341576,11.0,6.0,5.0,0.5454545454545454,982.730413755704,11191.879504412333,34.0,15.0,19.0,0.4411764705882353,170.21518040586813,4811.77743495428,74.0,36.0,38.0,0.4864864864864865,76.90958412045674,8803.935722085807,,,,,54638.0,54672.0,54723.0,54756.0,54767.0,54778.0,54785.0,54818.0,54986.0,55060.0,0.04528392957126657,-0.06011167138540268,0.07265418112733586,-0.040892115491572026,0.00933007649439429
58,58,55574.63008649785,1940.644979635317,17.693200893920295,55647.178051898714,-696.773847338118,17.010838752239035,55690.40176153963,14892.742125049625,5.327700368567311,55714.251700789835,-4130.716948695841,14.491341083925278,55937.425083244685,8276.643598964156,32.60494295025492,0.9281259669536828,89.0,46.0,90.0,245.0,335.0,43.0,918.0,917.0,46.0,23.0,23.0,0.5,65.77532511514471,1492.2446020520908,20.0,6.0,14.0,0.3,64.74338584354113,461.23386911957334,12.0,6.0,6.0,0.5,1068.9850701391122,12530.835015551876,29.0,11.0,18.0,0.3793103448275862,277.83838762422033,6326.851610601345,79.0,38.0,41.0,0.4810126582278481,72.37816023368144,8853.479527984196,,,,,55553.0,55596.0,55642.0,55660.0,55684.0,55696.0,55703.0,55732.0,55900.0,55977.0,0.03389353838820386,-0.09291879437048334,0.07177892836411079,-0.0672615410532886,0.008744868541003719
59,59,56502.05474739799,1912.4711195389143,17.000878129241766,56579.178051898714,-738.1506604596633,22.333680712453596,56621.29788663558,14600.0274736698,5.335188384553223,56645.457454283394,-4190.753703910725,14.174148008015916,56869.298505416984,8297.71774157474,31.36218520937911,0.92308947956294,72.0,34.0,107.0,245.0,352.0,38.0,927.0,931.0,40.0,19.0,21.0,0.475,72.81467938560417,1627.5319311759254,37.0,24.0,13.0,0.6486486486486487,62.10819702092109,451.2708426002441,12.0,6.0,6.0,0.5,1063.2435015511055,12708.112844205152,29.0,11.0,18.0,0.3793103448275862,276.57390263360946,6278.426879244274,77.0,38.0,39.0,0.4935064935064935,68.6483494260503,8695.926916451306,,,,,56484.0,56522.0,56556.0,56592.0,56615.0,56627.0,56634.0,56663.0,56832.0,56908.0,0.03807360991843859,-0.08414027155681862,0.07282476032792377,-0.06599621981495034,0.008273160351321161
60,60,57447.82764641758,1594.8976800846383,13.97871200347542,57530.753390998565,-1312.2228570946122,25.47965400864057,57570.85876345614,14806.905931548124,5.441295828905844,57595.912176704136,-4313.922739084328,18.329527405769205,57820.39994104923,8136.315716448102,29.601668809341938,0.9111643285080316,68.0,32.0,115.0,244.0,359.0,36.0,937.0,949.0,39.0,19.0,20.0,0.4871794871794871,59.54463262586251,1321.1808304986646,68.0,45.0,23.0,0.6617647058823529,65.33878162366514,1126.7695649894436,11.0,6.0,5.0,0.5454545454545454,1049.4296861818175,12236.732181983823,31.0,13.0,18.0,0.4193548387096774,217.6500422757963,5753.748639501782,75.0,36.0,39.0,0.48,75.06281430141438,8428.43037587165,,,,,57431.0,57467.0,57499.0,57545.0,57565.0,57576.0,57583.0,57614.0,57786.0,57858.0,0.03733445309338126,-0.049792442854052626,0.07087434005681531,-0.050452930068468176,0.009225651623826485
61,61,58385.4200050156,1932.3380947856335,15.479706895165382,58465.60271279886,-1009.3296041541016,20.383723190994495,58507.43868260126,13913.05566014902,5.0197211134377335,58532.84569521365,-4140.89779916864,16.73195728246815,58755.84051624683,8072.603575821038,30.96667862079968,0.9139001983281198,70.0,32.0,113.0,243.0,356.0,38.0,937.0,937.0,44.0,23.0,21.0,0.5227272727272727,87.11920094384466,1537.1279397833816,39.0,28.0,11.0,0.717948717948718,59.71270736191051,923.987734350134,11.0,5.0,6.0,0.4545454545454545,1014.8711178746372,11302.8458545932,32.0,14.0,18.0,0.4375,182.67909015890376,4988.176022008804,75.0,37.0,38.0,0.4933333333333333,80.41775757636833,8604.328560814607,,,,,58368.0,58406.0,58438.0,58477.0,58502.0,58512.0,58519.0,58551.0,58720.0,58794.0,0.045084864382135645,-0.059160760881431296,0.07294379772960435,-0.04411581715336706,0.009961811802233742
62,62,59343.753390998565,1940.3269838513677,18.31329077777418,59417.60271279886,-653.845375153812,20.383723206912453,59459.798940303415,14751.202627592533,5.390208558095808,59484.39727882706,-4062.866562654378,14.96826548806577,59708.17814367396,8139.871793151176,32.1402822269122,0.9224726332483166,94.0,55.0,89.0,246.0,335.0,39.0,966.0,952.0,43.0,26.0,17.0,0.6046511627906976,72.89578295230446,1459.8239028550731,19.0,5.0,14.0,0.2631578947368421,60.444631175441025,641.3556687775964,11.0,6.0,5.0,0.5454545454545454,1058.9678087962516,13013.585708856874,30.0,12.0,18.0,0.4,241.51592670745544,5996.675941998592,76.0,36.0,40.0,0.4736842105263157,77.1050288368564,8695.343686824905,,,,,59319.0,59358.0,59413.0,59431.0,59454.0,59465.0,59473.0,59502.0,59672.0,59748.0,0.03756881368913045,-0.09244484012939894,0.07178857450004944,-0.0594447105222345,0.009472511459177033
63,63,60289.291715227315,1971.281224889036,16.432494841185097,60365.47940829813,-898.6827508406329,21.07629512772051,60411.130547223926,14616.106820358904,5.2929698107544,60435.20838117191,-4186.259553589064,15.887147548623863,60659.44313018446,8218.947750707142,31.756802947288698,0.9168966899666656,73.0,36.0,109.0,245.0,354.0,37.0,938.0,952.0,39.0,18.0,21.0,0.4615384615384615,80.14412882714232,1894.9830744243095,43.0,23.0,20.0,0.5348837209302325,56.35369198549039,608.7911828266506,12.0,6.0,6.0,0.5,1047.8352174082236,12423.323860019493,31.0,12.0,19.0,0.3870967741935484,245.15156717252705,6303.161098885947,78.0,38.0,40.0,0.4871794871794871,76.50553052766809,8821.615516537444,,,,,60272.0,60309.0,60345.0,60384.0,60405.0,60417.0,60423.0,60454.0,60622.0,60699.0,0.04065585762967618,-0.06270699190874292,0.07169044604604864,-0.058561005125051996,0.009308433737285371
64,64,61245.94155865059,1921.834557211656,15.94252239451568,61319.65746019684,-908.467140866282,23.974770344594265,61368.31037668784,14342.17832265,5.2154169447872505,61393.21089255361,-4189.165216979677,17.11359250868451,61617.83082643939,8358.879243695395,30.742117143101407,0.9193914876527296,70.0,34.0,113.0,243.0,356.0,36.0,957.0,957.0,42.0,22.0,20.0,0.5238095238095238,76.13112504916258,1644.7022102598812,68.0,36.0,32.0,0.5294117647058824,52.81612829194246,703.5838385666243,12.0,6.0,6.0,0.5,1021.4676761421504,11837.962222912129,32.0,13.0,19.0,0.40625,212.5166646895181,5575.845960587113,75.0,37.0,38.0,0.4933333333333333,72.51571889919663,8750.347575138312,,,,,61229.0,61265.0,61299.0,61351.0,61363.0,61374.0,61380.0,61412.0,61582.0,61655.0,0.03961377672364234,-0.058137631969362016,0.07122123663244302,-0.05073007477197075,0.008675292079843229
65,65,62189.90406919828,1826.8934713586991,15.624705552880128,62262.753390998565,-885.2621941893851,25.47965400673431,62304.071696657375,13951.535862961457,5.101174735035387,62329.79653666998,-4266.955391334572,16.11693732359412,62553.747002637574,8328.685870364085,31.16364859437225,0.9120095023578644,70.0,31.0,110.0,244.0,354.0,39.0,952.0,936.0,39.0,22.0,17.0,0.5641025641025641,67.29284749400465,1502.8263660771895,39.0,25.0,14.0,0.6410256410256411,58.003012542210406,814.165669987569,11.0,6.0,5.0,0.5454545454545454,1008.1194269105948,11561.894902360307,33.0,14.0,19.0,0.4242424242424242,196.09427278945185,4961.991250080319,73.0,35.0,38.0,0.4794520547945205,82.63942724096283,8953.489898966945,,,,,62168.0,62207.0,62238.0,62277.0,62299.0,62309.0,62316.0,62348.0,62519.0,62592.0,0.03683457659080556,-0.06552071569635082,0.07225867007136832,-0.04595648531683375,0.009922264871943151
66,66,63140.60271279886,1613.7170503840466,14.39770972772533,63213.753390998565,-1011.977064946207,25.479653981472996,63255.99084043768,14980.552156523949,5.405380276413666,63280.97134324955,-4410.473236150139,16.563847684583877,63505.64039839432,8071.099705906933,30.933416429007337,0.9128696880426492,69.0,37.0,110.0,245.0,355.0,32.0,949.0,951.0,34.0,22.0,12.0,0.6470588235294118,73.3411748548323,1249.8118147529954,39.0,25.0,14.0,0.6410256410256411,62.51376022235898,974.7266023396684,11.0,6.0,5.0,0.5454545454545454,1067.5286234726532,12628.557600852764,31.0,13.0,18.0,0.4193548387096774,235.5130564619221,5721.310995259805,77.0,38.0,39.0,0.4935064935064935,78.38476749612445,8611.18420925906,,,,,63120.0,63152.0,63189.0,63228.0,63250.0,63261.0,63269.0,63299.0,63469.0,63544.0,0.04544859635546264,-0.06177389032594527,0.07126096637284163,-0.053398591001880616,0.009711782824186598
67,67,64094.32873009842,1873.2577647350568,17.28444752333304,64164.47940829813,-778.2846713106254,31.918921761497728,64211.63199502149,14609.751644871929,5.372639754403158,64236.50749410248,-4143.583045208209,15.701068199815545,64460.68142414427,8278.229903748168,31.418898670847756,0.9223602174185256,73.0,36.0,108.0,246.0,354.0,37.0,955.0,956.0,42.0,23.0,19.0,0.5476190476190477,65.98314062121561,1301.6638169948687,58.0,36.0,22.0,0.6206896551724138,51.94232315762438,663.2973692470937,11.0,6.0,5.0,0.5454545454545454,1053.0843444788609,12672.259008769448,30.0,13.0,17.0,0.4333333333333333,220.41392297883357,5336.448985556953,77.0,38.0,39.0,0.4935064935064935,80.77819246287233,8754.393835629719,,,,,64073.0,64110.0,64146.0,64183.0,64206.0,64217.0,64224.0,64254.0,64424.0,64500.0,0.03522373795180713,-0.06673949143846544,0.07208092033847112,-0.05319404017586381,0.009757906388453655
68,68,65027.05474739816,1934.3624961155544,16.160514155848848,65103.178051898714,-766.7610098593374,22.931688597427843,65143.89982895857,13530.973985106755,4.947038609022695,65170.05114621093,-3886.3584149298545,14.869806971721276,65392.71793691841,8517.062234476069,32.22808765761374,0.9148140399752356,68.0,30.0,111.0,244.0,355.0,38.0,934.0,933.0,44.0,23.0,21.0,0.5227272727272727,65.42625717100417,1413.4998770295508,39.0,26.0,13.0,0.6666666666666666,49.80838998190168,701.6123825664707,11.0,6.0,5.0,0.5454545454545454,989.1148819091244,11909.549689055766,32.0,14.0,18.0,0.4375,177.84273694068105,4391.729803905929,78.0,38.0,40.0,0.4871794871794871,76.291344106692,9116.500789050102,,,,,65009.0,65047.0,65077.0,65116.0,65138.0,65149.0,65156.0,65188.0,65355.0,65432.0,0.033823162567713345,-0.06495947151908396,0.07310005052096186,-0.04576076572286269,0.008957471720457036
69,69,65941.20542559771,1988.244419998266,18.19186528042039,66014.75339099858,-805.3893432005981,18.659989725673668,66058.02279699169,14609.487345142094,5.232452562693152,66082.76235447625,-4201.027226304944,15.0531798405505,66306.16341782642,8122.350240416882,31.600997453373186,0.9238951654420684,88.0,45.0,92.0,245.0,337.0,43.0,915.0,914.0,48.0,23.0,25.0,0.4791666666666667,72.16423894102415,1485.444882914655,38.0,23.0,15.0,0.6052631578947368,67.27817910710318,554.4408407314388,12.0,6.0,6.0,0.5,1055.2534384185503,12539.276341135808,31.0,13.0,18.0,0.4193548387096774,227.65342914260685,5385.036190121156,78.0,38.0,40.0,0.4871794871794871,76.92825029064755,8581.947446811415,,,,,65921.0,65964.0,66009.0,66030.0,66052.0,66063.0,66071.0,66101.0,66269.0,66346.0,0.03629545654205185,-0.08353497556814111,0.07223069595042568,-0.05418994376354989,0.0094711811253659
70,70,66881.63008649785,2011.8449590522991,17.415705076725196,66955.60271279886,-704.9424862891889,15.976645078370222,66998.35199019323,14626.26715788806,5.385523781911362,67022.39728713255,-4108.103245161945,15.101116625007698,67247.01152700117,8432.465165976755,32.513471766622615,0.9249651445892608,89.0,47.0,90.0,247.0,337.0,42.0,940.0,940.0,44.0,22.0,22.0,0.5,78.72755835943562,1626.6711687636555,38.0,25.0,13.0,0.6578947368421053,57.9847031114236,518.7290782545556,12.0,6.0,6.0,0.5,1050.7081239800432,12506.124758469416,30.0,11.0,19.0,0.3666666666666666,269.75320391231156,6338.591063901664,79.0,39.0,40.0,0.4936708860759494,71.62902252986538,9022.264816836396,,,,,66861.0,66903.0,66950.0,66967.0,66992.0,67004.0,67011.0,67040.0,67210.0,67287.0,0.03913202058896281,-0.08225451613315941,0.07183706632990004,-0.0656636865760363,0.008494434441173098
71,71,67826.90406919828,2045.6376552366044,17.706593911007566,67899.75339099858,-620.4189747900232,25.479653994816086,67943.66072500599,14238.729077901864,5.262094097482356,67968.4751574588,-4164.786258269601,14.767667271185834,68192.1779973589,8432.233653426152,31.54734320846204,0.9228772667822864,87.0,50.0,92.0,245.0,337.0,37.0,944.0,945.0,43.0,23.0,20.0,0.5348837209302325,66.61972479616489,1556.1970495277797,39.0,23.0,16.0,0.5897435897435898,51.90324659992709,533.2059252743162,11.0,6.0,5.0,0.5454545454545454,1037.3573891022638,12435.65125380502,30.0,12.0,18.0,0.4,231.391828476198,5806.413529085187,77.0,37.0,40.0,0.4805194805194805,75.17721888955369,9051.265630797972,,,,,67807.0,67844.0,67894.0,67915.0,67938.0,67949.0,67956.0,67986.0,68156.0,68231.0,0.0325667278491994,-0.08365838039929938,0.07285463354395973,-0.05555911255151361,0.008915457277326271
72,72,68753.05474739838,1791.9593677217224,16.55639616753404,68824.65746019685,-1074.240460349515,25.35817871174226,68872.70361471764,13967.448279379092,5.039912486352027,68898.61646196173,-4228.479336215688,17.774511213988493,69121.73637811362,8215.648956888825,30.426472669994197,0.9212776330801528,70.0,32.0,112.0,242.0,354.0,38.0,927.0,929.0,45.0,24.0,21.0,0.5333333333333333,67.78246136682053,1294.7866011341007,69.0,37.0,32.0,0.5362318840579711,51.177540007047114,744.6421180703624,11.0,6.0,5.0,0.5454545454545454,1003.60424021927,11626.243758303252,34.0,15.0,19.0,0.4411764705882353,179.69389050492913,4885.4906192668905,76.0,38.0,38.0,0.5,77.99795775603955,8668.393914060674,,,,,68735.0,68773.0,68805.0,68856.0,68867.0,68878.0,68885.0,68917.0,69085.0,69159.0,0.03782589191907761,-0.047640674407661,0.07185308441062536,-0.04249610231411173,0.009493827957514937
73,73,69683.20542559771,2231.218510802931,19.81100648946144,69762.16254798946,-555.92402897693,7.643896202368935,69802.81629514525,14767.143428192969,5.3372120291799545,69827.32818154854,-4005.57709310088,13.567637421949623,70051.28823423799,8361.2749717121,32.636128519613024,0.9311888069808788,94.0,52.0,86.0,246.0,332.0,42.0,931.0,930.0,47.0,23.0,24.0,0.4893617021276595,71.84044303945478,2101.652457031757,11.0,4.0,7.0,0.3636363636363636,63.44670783696609,423.1578413843644,11.0,6.0,5.0,0.5454545454545454,1068.8586593182868,13279.764649515168,28.0,11.0,17.0,0.3928571428571428,251.33968795648505,5934.156708372575,78.0,38.0,40.0,0.4871794871794871,80.40298921690865,9030.59194586957,,,,,69664.0,69706.0,69758.0,69769.0,69797.0,69808.0,69816.0,69844.0,70014.0,70090.0,0.03219785184266965,-0.11412837821334583,0.07238086800712284,-0.06274743491752714,0.009616115902051825
74,74,70664.2223407973,1999.0868919521529,17.144921293617653,70742.17805189872,-735.1553793028863,16.89606589664934,70787.03379219258,14630.175757077925,5.367705034750033,70811.34887338434,-3880.1082950374416,14.45798347510648,71036.85986429013,8311.09839649767,32.01388108208393,0.9234578317992388,90.0,52.0,91.0,249.0,340.0,38.0,971.0,985.0,40.0,18.0,22.0,0.45,79.00290152139573,1960.6589843576835,38.0,20.0,18.0,0.5263157894736842,51.34948489775707,582.832237754777,12.0,6.0,6.0,0.5,1048.32651025207,13020.071741165752,29.0,11.0,18.0,0.3793103448275862,254.89862289872912,5963.658903944512,78.0,38.0,40.0,0.4871794871794871,83.72554677754381,8932.044342556796,,,,,70647.0,70685.0,70737.0,70759.0,70781.0,70793.0,70800.0,70828.0,71001.0,71077.0,0.039519493544499025,-0.06984847876165907,0.07165508655936008,-0.06569368778308014,0.010073944836560484
75,75,71614.89275492849,1980.99884350315,17.513047173662553,71692.32873009844,-893.4781925487476,18.282449394406473,71737.11540494997,14629.891473825928,5.36112229186747,71761.39728720114,-4097.308634255403,16.492153109883002,71986.17700431662,8424.196137103194,31.575275054767403,0.9248561606851526,73.0,35.0,109.0,246.0,355.0,38.0,950.0,950.0,38.0,17.0,21.0,0.4473684210526316,62.01794053660445,1845.7410861993392,38.0,22.0,16.0,0.5789473684210527,56.35816342635504,676.2976343052561,12.0,6.0,6.0,0.5,1036.328544902986,12530.427207904402,30.0,11.0,19.0,0.3666666666666666,251.50988779893777,6250.920989961553,78.0,38.0,40.0,0.4871794871794871,77.71957841068904,9079.108330035764,,,,,71598.0,71636.0,71671.0,71708.0,71731.0,71743.0,71750.0,71780.0,71949.0,72026.0,0.03130639916322891,-0.06307726802552058,0.07083637952865629,-0.06138416952440397,0.00922575604197818
76,76,72559.32873009844,1801.5457613209696,17.841338647089902,72631.32873009844,-895.7887820839428,28.027619409456538,72675.13762249627,13971.60059790535,5.083290109665234,72701.18743908481,-4319.493814803755,16.333172132823908,72924.84257656215,8381.438278629706,30.808685747952303,0.919622929951427,71.0,33.0,111.0,244.0,355.0,38.0,953.0,938.0,39.0,23.0,16.0,0.5897435897435898,67.3136653625317,1356.3375662304447,54.0,26.0,28.0,0.4814814814814814,50.207936432738784,666.4398895026981,11.0,6.0,5.0,0.5454545454545454,1005.9852562547948,11414.059299543089,33.0,14.0,19.0,0.4242424242424242,182.6023726493602,5132.724936593055,74.0,36.0,38.0,0.4864864864864865,82.64228103733264,9053.073491096107,,,,,72537.0,72575.0,72608.0,72647.0,72670.0,72680.0,72687.0,72719.0,72890.0,72963.0,0.03736439384874379,-0.05604885597689242,0.07200214815800089,-0.04227402109560753,0.009860155058117775
77,77,73486.75339099858,2036.9976900058648,18.629845654050847,73556.60271279886,-604.2299749883922,20.38372309940432,73599.92297583279,14630.461234634377,5.325470962492966,73624.26796640838,-3982.922313951652,14.531914940882997,73848.92598014858,8251.108892409682,32.01224344661405,0.928652936029902,89.0,51.0,90.0,246.0,336.0,38.0,927.0,924.0,43.0,24.0,19.0,0.5581395348837209,78.57143184063283,1692.2837874846084,20.0,6.0,14.0,0.3,47.48645815727131,531.2763510168766,11.0,6.0,5.0,0.5454545454545454,1044.5021849165223,12679.674684434252,30.0,12.0,18.0,0.4,246.32482601602388,5785.129726258554,79.0,39.0,40.0,0.4936708860759494,79.40650554823436,8940.168629011916,,,,,73463.0,73501.0,73552.0,73571.0,73594.0,73605.0,73612.0,73642.0,73811.0,73888.0,0.03857217522932321,-0.07859004041993045,0.07139229366493892,-0.06184524994453958,0.009623737437434814
78,78,74432.75339099858,1954.7409093726235,17.12253901722258,74502.75339099858,-894.763795271462,20.765649130526615,74548.26986017682,14655.314341685187,5.3529997297748535,74573.04715355774,-4163.1836842604325,16.621694830676308,74798.00539534469,8210.38490204838,31.24131258392883,0.9267772244219172,84.0,50.0,94.0,246.0,340.0,34.0,946.0,949.0,43.0,25.0,18.0,0.5813953488372093,71.55056852587134,1400.1425257599544,39.0,21.0,18.0,0.5384615384615384,53.83544010729701,789.6042113269132,12.0,6.0,6.0,0.5,1047.1724132964894,12387.455554761498,30.0,12.0,18.0,0.4,225.5430532416275,5771.38546924372,77.0,38.0,39.0,0.4935064935064935,78.60213466400637,8609.652637829753,,,,,74413.0,74447.0,74497.0,74521.0,74542.0,74554.0,74561.0,74591.0,74761.0,74837.0,0.03660360725188669,-0.06016720881175562,0.07145342562308199,-0.05417561903269565,0.009573501803112325
79,79,75384.22053699418,1817.281902675595,16.447848047398008,75452.63008649785,-1032.7968752791287,21.304897766790173,75501.38600578376,14530.951504001088,5.277704458314301,75525.76391635739,-4147.446783985882,17.145389534526924,75751.1556892732,8248.241150228878,31.032391582743987,0.9185490013771062,70.0,33.0,109.0,245.0,354.0,37.0,952.0,953.0,40.0,20.0,20.0,0.5,60.82267503224787,1444.6461579702868,65.0,33.0,32.0,0.5076923076923077,46.717306601483784,864.2248697017777,12.0,6.0,6.0,0.5,1041.619222594116,12077.501784007232,31.0,12.0,19.0,0.3870967741935484,216.02284978983369,5621.867761359936,77.0,38.0,39.0,0.4935064935064935,70.43232448542031,8688.430545238069,,,,,75366.0,75403.0,75436.0,75474.0,75496.0,75507.0,75514.0,75545.0,75714.0,75790.0,0.03346903688563579,-0.04523377996167711,0.07168279532880602,-0.052085743601085116,0.008539071930925044
80,80,76323.17805189872,1851.1193646573092,16.268738142345892,76392.75339099858,-869.4797197689351,25.479654000365944,76437.45679330743,13961.67999384438,5.10528064085131,76463.10121943473,-4172.370050452124,15.972669829807783,76686.77662325352,8309.047979128069,31.64552994625867,0.9111444891024876,85.0,51.0,94.0,244.0,338.0,34.0,938.0,936.0,36.0,22.0,14.0,0.6111111111111112,80.29949985250123,1323.6464654732329,65.0,37.0,28.0,0.5692307692307692,50.88828168902785,595.2542220986498,11.0,5.0,6.0,0.4545454545454545,1012.9439097893646,11342.405147551575,33.0,14.0,19.0,0.4242424242424242,182.7035238433729,5123.099636594714,78.0,38.0,40.0,0.4871794871794871,84.79124919389727,8806.090025874524,,,,,76302.0,76336.0,76387.0,76412.0,76432.0,76443.0,76449.0,76481.0,76651.0,76725.0,0.043378888139591565,-0.05852727847700859,0.07255172086997878,-0.043788906936376576,0.010204688841235342
81,81,77267.63008649785,2073.6617487139692,17.769726019933177,77341.43573912166,-870.9162215666099,12.739827004320285,77385.74720150043,14762.706688596742,5.296702464148937,77409.59847542018,-4142.745381787327,15.654045400640186,77634.73767707782,8279.133491154118,31.982400173826257,0.9237860766931216,89.0,49.0,89.0,247.0,336.0,40.0,947.0,948.0,47.0,24.0,23.0,0.5106382978723404,85.26831910115149,1501.6572594133863,37.0,21.0,16.0,0.5675675675675675,57.80758167989806,743.4493333989935,11.0,6.0,5.0,0.5454545454545454,1067.0048658796177,12806.417610935065,30.0,12.0,18.0,0.4,254.0580018655492,5800.931382996219,79.0,39.0,40.0,0.4936708860759494,76.1967409605425,8762.81512884511,,,,,77249.0,77289.0,77338.0,77357.0,77380.0,77391.0,77398.0,77427.0,77597.0,77674.0,0.04111968557747312,-0.0663755941712894,0.07227704840222908,-0.061325999657729294,0.009203468097471227
82,82,78223.90406919828,2016.3610563472855,18.56317574191689,78295.17805189872,-690.0092392962575,22.931688607770266,78340.70731652697,14534.723198054204,5.325162552670119,78365.23167041875,-3985.08845574767,15.083275356303384,78589.01610330392,8457.637720669662,33.18025776398576,0.920385188003378,91.0,49.0,93.0,247.0,340.0,42.0,955.0,955.0,44.0,26.0,18.0,0.5909090909090909,72.50083001248335,1578.6979210176728,37.0,20.0,17.0,0.5405405405405406,55.23961776731623,526.3959873447812,11.0,6.0,5.0,0.5454545454545454,1047.4677011916106,12728.40818346094,30.0,12.0,18.0,0.4,241.12576277112333,5753.733581092073,81.0,40.0,41.0,0.4938271604938271,75.34481315401536,9122.09573062005,,,,,78199.0,78241.0,78290.0,78311.0,78335.0,78346.0,78353.0,78383.0,78550.0,78630.0,0.03595627369625029,-0.08005634507685039,0.07206657374334019,-0.06050700390937346,0.008908493794890246
83,83,79179.17805189872,1740.817308422105,14.53269491238389,79256.60271279886,-1114.4225965904802,20.38372320690378,79295.84353896834,14415.06016267376,5.237618253505818,79321.4148589803,-4295.801560265369,18.565929599145576,79546.20430619277,8195.50998611104,30.323957127583412,0.9150112223294452,66.0,33.0,115.0,244.0,359.0,33.0,954.0,955.0,39.0,22.0,17.0,0.5641025641025641,68.60608403470397,1150.232272917255,43.0,32.0,11.0,0.7441860465116279,62.256129153558376,1169.8818522640777,11.0,6.0,5.0,0.5454545454545454,1026.3626534521572,12010.87064684682,32.0,13.0,19.0,0.40625,196.85796608167553,5601.907228088869,76.0,37.0,39.0,0.4868421052631579,76.16172272148114,8611.032354799809,,,,,79159.0,79192.0,79225.0,79268.0,79290.0,79301.0,79308.0,79340.0,79511.0,79584.0,0.039410272234074485,-0.05586402262842468,0.07120071937748913,-0.045825665669136456,0.009293103522605999
84,84,80117.75339099858,1967.870992339114,16.56489662141079,80191.75339099858,-818.4566261015167,23.4267939081582,80232.99852627878,13953.64479145832,5.042935549751653,80259.1014618883,-4194.485406514842,15.609653367821045,80482.48807693776,8441.196815613028,32.39822812555948,0.9214583417917176,68.0,35.0,110.0,245.0,355.0,33.0,939.0,938.0,42.0,22.0,20.0,0.5238095238095238,70.68800323113179,1509.0185862330832,39.0,25.0,14.0,0.6410256410256411,50.532740143031624,831.0746259543388,11.0,6.0,5.0,0.5454545454545454,1012.2464068877148,12028.997615530188,32.0,14.0,18.0,0.4375,186.06905890557215,4935.051409047362,79.0,38.0,41.0,0.4810126582278481,77.76826765089366,9117.212289948446,,,,,80099.0,80132.0,80167.0,80206.0,80227.0,80238.0,80245.0,80277.0,80445.0,80522.0,0.035921055550043116,-0.06174150044301044,0.07254351261022197,-0.04436040202132332,0.009212943300534317
85,85,81067.32873009844,1872.7597779683751,16.72949624554639,81135.87669549929,-849.8118532082859,12.739827004312962,81180.3630841782,14906.609576626008,5.351612560961662,81204.36198272741,-4181.444158563756,15.292036511546618,81429.66449913668,8333.214049447737,31.533412496991748,0.9317028379965754,88.0,50.0,89.0,247.0,336.0,38.0,950.0,947.0,43.0,23.0,20.0,0.5348837209302325,71.03191511240884,1523.7951385696192,20.0,4.0,16.0,0.2,59.52659802232903,592.3651986795402,12.0,6.0,6.0,0.5,1066.4650502321986,12700.851355091543,29.0,11.0,18.0,0.3793103448275862,283.1065010038916,6499.039490890362,79.0,39.0,40.0,0.4936708860759494,77.31010523138451,8736.129337788905,,,,,81045.0,81083.0,81133.0,81151.0,81174.0,81186.0,81193.0,81222.0,81392.0,81469.0,0.03792900506944161,-0.07004679659103233,0.07154309937146583,-0.06770543627231725,0.00927734542430337
86,86,82013.05474739801,2014.2175963130967,17.468440875328376,82086.32873009844,-770.5839128407945,17.576730163826696,82130.61524942161,14467.745451615512,5.3055370431076865,82154.98430933872,-4052.2394432295782,15.352779019570926,82380.44844920977,8493.939047732903,31.987722174288233,0.9230067848158964,74.0,33.0,107.0,247.0,354.0,41.0,947.0,950.0,45.0,24.0,21.0,0.5333333333333333,67.26889473146416,1510.5331987621958,39.0,22.0,17.0,0.5641025641025641,44.97739850554269,616.4441649566868,11.0,6.0,5.0,0.5454545454545454,1053.902303829292,12745.244023459074,30.0,12.0,18.0,0.4,233.5962180628945,5688.08713158547,78.0,38.0,40.0,0.4871794871794871,72.52081832127348,9028.40869470005,,,,,81992.0,82033.0,82066.0,82102.0,82125.0,82136.0,82143.0,82173.0,82343.0,82420.0,0.03339703458782,-0.05836794378399538,0.0728449575888557,-0.05764620312681266,0.008537948990890137
87,87,82972.75339099858,1803.0835250993684,17.91850072713941,83043.17805189872,-688.1719172607549,22.931688602697008,83088.60265178446,14239.175540003718,5.227153137614207,83113.798590374,-3974.525390977474,16.464490643503567,83338.43924647084,8430.792683386586,31.954173466886996,0.9207774546477164,89.0,51.0,94.0,246.0,340.0,38.0,958.0,958.0,44.0,27.0,17.0,0.6136363636363636,73.86121241323495,1284.7062240381351,43.0,25.0,18.0,0.5813953488372093,45.33696476147569,408.4735025750879,11.0,6.0,5.0,0.5454545454545454,1032.5183834133766,12418.856422596537,31.0,13.0,18.0,0.4193548387096774,198.84737468744552,5109.234208605212,77.0,37.0,40.0,0.4805194805194805,79.79820549395059,9094.472282685776,,,,,82949.0,82987.0,83038.0,83058.0,83083.0,83094.0,83101.0,83132.0,83301.0,83378.0,0.04096383300333491,-0.06588028895735523,0.07251251173304286,-0.05003047033964023,0.009465089285281328
88,88,83889.47940829814,1793.200193623023,16.030796061268436,83965.75339099858,-862.1562837019776,25.479654000302105,84006.7445688964,13943.718445035178,5.106066760205475,84032.88349980515,-4186.511637954662,15.17816238172406,84256.38836345679,8300.559800664005,31.4528396805644,0.9149856510174416,68.0,30.0,112.0,246.0,358.0,38.0,918.0,918.0,44.0,23.0,21.0,0.5227272727272727,80.92185494535592,1204.201000245286,43.0,29.0,14.0,0.6744186046511628,52.80102071929265,733.1541742145378,11.0,6.0,5.0,0.5454545454545454,1010.4742692113316,12136.52596454437,31.0,14.0,17.0,0.4516129032258064,185.58886327911756,4885.68596526219,77.0,37.0,40.0,0.4805194805194805,80.11096925282257,8901.156368092337,,,,,83870.0,83908.0,83938.0,83980.0,84001.0,84012.0,84019.0,84050.0,84219.0,84296.0,0.045127061235622296,-0.06124298078832356,0.07246806317801997,-0.04433019165564479,0.009651273067921766
89,89,84829.90406919828,1834.6280206168287,16.5067479118316,84908.027373699,-838.6491619501637,17.83575777708467,84946.4232912696,14714.46251520391,5.415253267096309,84970.53058410052,-4236.383241257246,15.316956461847688,85195.88905426428,8164.840779406322,31.107043082767326,0.9253292483870386,72.0,33.0,108.0,247.0,355.0,39.0,940.0,940.0,43.0,25.0,18.0,0.5813953488372093,72.88134284601149,1299.000211602298,38.0,28.0,10.0,0.7368421052631579,65.01093682435724,921.1761054702986,12.0,6.0,6.0,0.5,1062.415906517712,12526.935865551874,29.0,12.0,17.0,0.4137931034482758,243.2413154538941,5909.632151301148,77.0,38.0,39.0,0.4935064935064935,80.75976216883197,8596.821012964107,,,,,84808.0,84847.0,84880.0,84918.0,84940.0,84952.0,84959.0,84988.0,85159.0,85235.0,0.03972540592806804,-0.0775186332663628,0.07220215522109333,-0.05741721218350079,0.009891161916167106
90,90,85773.32873009844,1833.3327587193064,16.90504417660683,85844.47940829814,-818.7367075213759,30.76046263519613,85890.91105748892,14681.112343624858,5.346475752264997,85915.64018914118,-4144.832035400958,15.753913594377767,86140.93648291435,8288.986932052345,31.05994853152592,0.9202529240914992,71.0,36.0,108.0,247.0,355.0,35.0,943.0,944.0,39.0,22.0,17.0,0.5641025641025641,72.06402974970855,1425.7829798787684,41.0,21.0,20.0,0.5121951219512195,61.05552664446494,574.1738397440263,11.0,6.0,5.0,0.5454545454545454,1053.4139464021816,12622.273542827696,30.0,12.0,18.0,0.4,230.20366829309867,5556.232190169469,78.0,39.0,39.0,0.5,75.82432780103757,8683.126661490216,,,,,85754.0,85789.0,85825.0,85863.0,85885.0,85896.0,85904.0,85933.0,86104.0,86180.0,0.03930766491078773,-0.07457284629304455,0.07175300629448675,-0.05553992690823947,0.009147598907151798
91,91,86716.90406919828,1798.8483877153203,16.148069042295706,86789.75339099858,-835.401544932904,25.479653518395786,86834.88149783363,14098.952417677514,5.162659167788401,86860.4274124122,-4209.994518193546,16.378408120979778,87084.9370080575,8381.645319351472,30.743336273024187,0.9162320050764524,87.0,50.0,94.0,245.0,339.0,37.0,944.0,944.0,40.0,22.0,18.0,0.55,67.38460047267668,1239.328385216743,51.0,23.0,28.0,0.4509803921568627,54.69430281573583,815.4014834030611,11.0,6.0,5.0,0.5454545454545454,1017.596359858622,12133.759843392108,31.0,13.0,18.0,0.4193548387096774,186.9859830989288,5411.530937510836,76.0,37.0,39.0,0.4868421052631579,76.29716292608397,8886.460830537824,,,,,86697.0,86734.0,86784.0,86807.0,86829.0,86840.0,86847.0,86878.0,87049.0,87123.0,0.0374598553901813,-0.06547067472819751,0.07217531698190156,-0.04441478065847032,0.009102886130236234
92,92,87636.17805189872,1478.4078209733586,14.954753787553395,87703.2327992967,-1240.1107815561986,27.733456343641173,87752.28991513587,14421.157580433372,5.180947882204889,87777.70587016347,-4313.707633262742,18.276715146952412,88001.97694965408,8115.983898942034,30.412982542563253,0.9065259002908858,67.0,34.0,114.0,244.0,358.0,33.0,918.0,918.0,35.0,21.0,14.0,0.6,63.0464730748804,1002.739790487984,69.0,35.0,34.0,0.5072463768115942,53.72006186098932,1121.4506916513535,11.0,5.0,6.0,0.4545454545454545,1034.0048441272934,11488.078524381071,33.0,14.0,19.0,0.4242424242424242,186.6799935076706,5383.8827868569615,75.0,36.0,39.0,0.48,71.85225128801625,8625.126835248953,,,,,87616.0,87649.0,87683.0,87736.0,87747.0,87757.0,87764.0,87797.0,87966.0,88041.0,0.042644845475297656,-0.04331876043652868,0.07170054403470573,-0.04327599582043815,0.008853178146075747
93,93,88573.054747398,2006.323978193935,16.309877098888105,88650.027373699,-745.9579837525098,17.793803181381598,88692.94791571764,14806.061093636948,5.398782466392426,88716.65942000953,-4097.584416315516,15.208629998224144,88942.14062439384,8362.88693535818,31.68524703123963,0.918649533860456,93.0,53.0,88.0,247.0,335.0,40.0,939.0,940.0,42.0,21.0,21.0,0.5,63.243041761870685,1752.168379127024,35.0,24.0,11.0,0.6857142857142857,62.08513339181187,732.4531783288683,11.0,6.0,5.0,0.5454545454545454,1057.4309737395618,12843.518102953316,29.0,11.0,18.0,0.3793103448275862,267.0309097802703,5994.893931783583,78.0,38.0,40.0,0.4871794871794871,70.7266725264694,8907.690416415327,,,,,88553.0,88593.0,88646.0,88660.0,88687.0,88698.0,88706.0,88734.0,88905.0,88981.0,0.03152184913764585,-0.08322872701153389,0.07141879038943066,-0.06516788494143588,0.008457207788788574
94,94,89515.47940829814,1865.82652951098,17.47386368369951,89590.17805189872,-710.6206134211888,15.795743929976975,89633.43364749983,14448.57985747293,5.296846780941471,89657.75457092878,-4022.490206086261,14.50846316978426,89881.98597316878,8481.017184046628,32.65381656170248,0.917028666915013,93.0,51.0,90.0,247.0,337.0,42.0,942.0,941.0,46.0,26.0,20.0,0.5652173913043478,58.376345835763,1340.0066308948162,37.0,23.0,14.0,0.6216216216216216,56.936260363892536,474.9513243870615,12.0,6.0,6.0,0.5,1048.896469440951,12414.65443444946,30.0,12.0,18.0,0.4,245.52122467953825,5470.304909156326,80.0,39.0,41.0,0.4875,82.3512588472341,9088.254974834816,,,,,89492.0,89534.0,89585.0,89604.0,89628.0,89639.0,89646.0,89675.0,89844.0,89922.0,0.03128712391663925,-0.08012188119590348,0.0725951255962677,-0.061037121807792194,0.009710068622681539
95,95,90438.90406919828,1597.4403459031198,13.915805134014896,90516.75339099858,-1192.7481711797193,25.47965400863268,90558.7370929618,13821.80787568094,5.054868072532041,90585.05580530508,-4385.860469715955,17.215528183985803,90808.83407260536,8152.85404659387,29.760407914715227,0.9110131601714828,70.0,35.0,112.0,243.0,355.0,35.0,923.0,925.0,37.0,18.0,19.0,0.4864864864864865,59.89286183875843,1160.362153137141,51.0,26.0,25.0,0.5098039215686274,57.791067869482895,1118.4605887552193,11.0,6.0,5.0,0.5454545454545454,994.8083135344502,11374.681870181226,34.0,15.0,19.0,0.4411764705882353,184.16888800960285,5030.066494546413,73.0,36.0,37.0,0.4931506849315068,76.17057451816454,8592.23691449526,,,,,90421.0,90456.0,90491.0,90531.0,90553.0,90564.0,90571.0,90603.0,90774.0,90846.0,0.03749301937462819,-0.04845202806919679,0.07197382010241844,-0.04199150640593231,0.009342811006163831
96,96,91361.12171760548,2288.831270816949,19.550564024905174,91440.2739827004,-546.4355501279845,4.545225541100063,91479.9443642308,14595.581601368742,5.31491316426322,91504.31098403128,-3908.753746241053,13.406829384450164,91728.83559919844,8403.441364583134,32.964987652338735,0.9258362932190216,96.0,53.0,85.0,248.0,333.0,43.0,923.0,922.0,46.0,22.0,24.0,0.4782608695652174,75.87216388978786,2171.7367565675568,12.0,5.0,7.0,0.4166666666666667,71.48033875735267,328.2623224693772,12.0,6.0,6.0,0.5,1054.621049476704,13058.834461612934,28.0,11.0,17.0,0.3928571428571428,238.9500613875786,5858.106366406986,78.0,38.0,40.0,0.4871794871794871,83.76581514627281,9072.000405515224,,,,,91340.0,91383.0,91436.0,91447.0,91474.0,91486.0,91493.0,91521.0,91692.0,91769.0,0.03314886722196299,-0.13081202118092566,0.07225618534980503,-0.06113203258644029,0.00996803708291575
97,97,92311.28525512078,1988.2362013595532,16.12396723360151,92385.75339099858,-812.4743328000226,16.272586232466924,92430.81856476056,14462.867500744249,5.361115808871483,92455.18437786298,-3958.344588739922,14.115651734003643,92680.28289927902,8330.93618893653,32.100289665916605,0.9206683203265849,73.0,34.0,106.0,249.0,355.0,39.0,949.0,950.0,43.0,21.0,22.0,0.4883720930232558,61.852306770749955,1752.001827605524,42.0,24.0,18.0,0.5714285714285714,48.38033743741301,509.25840393616,11.0,6.0,5.0,0.5454545454545454,1050.0413437231932,12909.124939337267,29.0,11.0,18.0,0.3793103448275862,222.96093718495737,5784.955012308714,78.0,37.0,41.0,0.4743589743589743,82.4991187769966,8971.38494964573,,,,,92293.0,92332.0,92366.0,92400.0,92425.0,92436.0,92444.0,92472.0,92643.0,92721.0,0.031109134180564376,-0.059546911802961594,0.07260256955746562,-0.056326813440952486,0.009902742849783833
98,98,93265.48772197014,1936.1111426597504,16.30755206456397,93338.47940829814,-877.0432457103042,20.81642240357153,93385.49591567184,14381.627303510932,5.268309999134188,93409.80457184534,-3994.642580974481,14.816042960015327,93634.8482170572,8326.664767982298,32.118314088711536,0.9155041191572328,70.0,32.0,110.0,246.0,356.0,38.0,955.0,955.0,40.0,18.0,22.0,0.45,68.57071888526546,1774.7453835020067,58.0,37.0,21.0,0.6379310344827587,56.46046670249597,610.0793939611788,12.0,6.0,6.0,0.5,1053.222118715029,12294.47135693553,30.0,12.0,18.0,0.4,235.59807186089705,5409.083539867819,79.0,39.0,40.0,0.4936708860759494,77.57415071470514,8955.73854027348,,,,,93248.0,93286.0,93318.0,93357.0,93380.0,93391.0,93398.0,93428.0,93600.0,93674.0,0.03541672653723061,-0.06437592100349565,0.07323386265599512,-0.05897851111460981,0.009316353291055185
99,99,94198.75339099858,1811.503989309296,14.638848490536295,94273.75339099858,-1162.440291623344,25.47965400797854,94315.3390751604,14049.203801855374,5.132088423225653,94341.5000017652,-4400.5712901506795,17.486504172548507,94565.58451255834,8229.455163025128,30.34509065543188,0.9152851756569268,69.0,35.0,112.0,244.0,356.0,34.0,932.0,930.0,37.0,22.0,15.0,0.5945945945945946,73.36364941848312,1154.386499876177,40.0,26.0,14.0,0.65,61.97793679308664,1105.0625536725397,11.0,5.0,6.0,0.4545454545454545,1019.6560808619804,11322.109179555002,33.0,15.0,18.0,0.4545454545454545,197.61478089019087,4989.978043131093,75.0,37.0,38.0,0.4933333333333333,78.9854701640722,8862.25064273665,,,,,94179.0,94213.0,94248.0,94288.0,94310.0,94320.0,94327.0,94360.0,94530.0,94604.0,0.04049875123181803,-0.053317092705496866,0.07257749942579109,-0.044906619586527446,0.009597897868008716
100,100,95109.32873009844,1934.4182845374723,17.698835787564757,95177.50678199712,-758.0871799745406,24.526856336978263,95225.17759023151,14083.683806066252,5.066356441294859,95250.63712898112,-4123.550524738211,15.181936813362595,95474.29743936688,8276.965947524464,31.794298510357,0.9195572108653948,68.0,32.0,112.0,243.0,355.0,36.0,911.0,910.0,45.0,24.0,21.0,0.5333333333333333,76.40909216168363,1357.022315058207,50.0,22.0,28.0,0.44,51.360738931679066,614.8714771295764,12.0,6.0,6.0,0.5,1030.1566782865534,11894.91944684714,32.0,14.0,18.0,0.4375,188.866422033509,4779.028421953616,74.0,36.0,38.0,0.4864864864864865,81.82526117381515,9006.284195659622,,,,,95089.0,95125.0,95157.0,95206.0,95220.0,95230.0,95237.0,95269.0,95439.0,95512.0,0.039499777670863656,-0.06775043858861186,0.07314539949007055,-0.04580189351396378,0.009885900424453002
101,101,96047.75339099858,1864.117173486868,16.36937685382234,96117.47940829814,-1023.0017542370996,27.745667839060214,96163.69514210944,15086.884758941997,5.506177397720152,96188.39817639692,-4313.409669212913,17.591912325498516,96413.929467038,8201.791025792585,29.933223136700928,0.926091194642658,68.0,32.0,113.0,245.0,358.0,36.0,938.0,938.0,39.0,24.0,15.0,0.6153846153846154,66.50888823891827,1166.3414218499506,64.0,36.0,28.0,0.5625,48.94016347564426,853.6499443052967,11.0,6.0,5.0,0.5454545454545454,1068.4239042501931,12683.842614400168,31.0,12.0,19.0,0.3870967741935484,247.90791404824,6476.921027313327,75.0,37.0,38.0,0.4933333333333333,70.11770661359691,8628.919882188566,,,,,96026.0,96062.0,96094.0,96136.0,96158.0,96169.0,96176.0,96207.0,96378.0,96452.0,0.03567849123696022,-0.047839764959290064,0.07081805961412532,-0.05747376972275319,0.008549072561480076
102,102,96992.32873009844,1912.7440534968673,16.664178757447317,97063.47940829814,-896.3134266266745,31.225821600932427,97109.55498977864,14661.64006742914,5.367763010955581,97134.31346083467,-4133.544403819952,15.996141776261346,97358.07313195162,8272.024945854817,31.971943472070688,0.9188345608807028,69.0,32.0,112.0,245.0,357.0,37.0,945.0,946.0,39.0,22.0,17.0,0.5641025641025641,72.69744525849485,1431.1998036396694,58.0,38.0,20.0,0.6551724137931034,51.325154346575154,569.6766684020424,11.0,6.0,5.0,0.5454545454545454,1055.4011231640577,12587.374446045123,30.0,12.0,18.0,0.4,228.47727110798985,5970.9317959913515,76.0,37.0,39.0,0.4868421052631579,76.65892019784833,8824.672568687425,,,,,96971.0,97008.0,97040.0,97082.0,97104.0,97115.0,97122.0,97152.0,97321.0,97397.0,0.0380068860366288,-0.05726250753571798,0.07198383798198901,-0.055273936551122095,0.009267249639553225
103,103,97916.32873009844,1927.1829170355504,17.00809659219749,97988.75339099858,-809.4054733933355,25.479654007298176,98032.6116463659,13747.145784391809,5.031437775735147,98058.36503309464,-4172.792873180605,16.038113553283473,98281.4651103104,8572.594407361861,31.08474869328734,0.9146059633356992,90.0,51.0,94.0,242.0,336.0,39.0,924.0,923.0,43.0,27.0,16.0,0.627906976744186,74.40383285446454,1425.8568790711906,52.0,25.0,27.0,0.4807692307692308,55.34789534629764,644.6996221961365,11.0,6.0,5.0,0.5454545454545454,995.6890290897146,11638.504960383272,33.0,14.0,19.0,0.4242424242424242,179.57933542754245,5212.790611210287,75.0,36.0,39.0,0.48,79.58405619043542,9222.335170101942,,,,,97893.0,97932.0,97983.0,98016.0,98027.0,98038.0,98045.0,98077.0,98245.0,98319.0,0.03860756142904936,-0.06838092546404242,0.07242878228731646,-0.04303576546579525,0.00928354386183152
104,104,98837.15983452398,1821.8093511088064,16.208254272879675,98912.90406919828,-890.5868726660452,18.112778912653713,98959.14699693596,14934.377193158629,5.366345239236683,98983.65568524045,-4390.04301743265,16.116246598241897,99208.45127085972,8464.340773604325,30.648663390347927,0.9231242934594291,73.0,34.0,110.0,246.0,356.0,39.0,913.0,927.0,43.0,22.0,21.0,0.5116279069767442,75.24912109500774,1649.0658639955238,42.0,23.0,19.0,0.5476190476190477,51.83527043371956,555.0663167327922,12.0,6.0,6.0,0.5,1067.9724336006614,12550.950397859364,30.0,12.0,18.0,0.4,233.95667913247152,5858.316281222718,75.0,36.0,39.0,0.48,82.73875986079938,9046.595303444366,,,,,98818.0,98857.0,98891.0,98930.0,98953.0,98965.0,98972.0,99001.0,99172.0,99247.0,0.041304607998201855,-0.058203497069911216,0.07151101246390741,-0.05329257098471263,0.00977497977383148
105,105,99815.31038464568,1894.457542352082,15.640386678187976,99900.60271279886,-883.3223900950283,20.38372320675776,99941.43991183664,14781.600241609998,5.409078013349943,99966.03923241008,-4240.958100156721,15.80700420684556,100190.8833366031,8304.891602601314,31.61745942514497,0.9119191356305608,78.0,38.0,110.0,246.0,356.0,40.0,979.0,982.0,45.0,23.0,22.0,0.5111111111111111,64.61552510948067,1832.3383873371415,38.0,27.0,11.0,0.7105263157894737,64.13741140945878,837.8745468769229,12.0,6.0,6.0,0.5,1066.035412904768,12376.704492754703,30.0,12.0,18.0,0.4,252.46282494992624,5823.93773706627,77.0,38.0,39.0,0.4935064935064935,72.92488541234655,9041.727044313351,,,,,99796.0,99836.0,99874.0,99912.0,99936.0,99947.0,99954.0,99984.0,100153.0,100230.0,0.0341076660019821,-0.0726092898002493,0.0721190801726523,-0.059529667350544366,0.008780955718856648
106,106,100888.86004039484,2147.351521033519,19.553943144677376,100970.17805189872,-698.2791969053775,15.23313333836609,101013.97862592056,14191.77088277446,5.279306571817113,101039.23068087056,-3945.0815674493065,15.042922015816098,101265.82446952678,8417.902249300505,32.30014929990633,0.9245252503594412,97.0,52.0,91.0,249.0,340.0,45.0,1073.0,1073.0,47.0,23.0,24.0,0.4893617021276595,59.8364139611788,2364.87536665583,39.0,24.0,15.0,0.6153846153846154,58.620926221431525,365.8393332833095,12.0,6.0,6.0,0.5,1015.6416849349964,12399.857412142916,30.0,13.0,17.0,0.4333333333333333,216.1866035087172,5266.205392187276,78.0,38.0,40.0,0.4871794871794871,77.47842313619971,8894.137519459533,,,,,100868.0,100913.0,100965.0,100984.0,101008.0,101020.0,101026.0,101056.0,101228.0,101305.0,0.02786521599983759,-0.08395055513786864,0.07156553564204954,-0.05479901994738545,0.009204006038753642
107,107,101804.17805189872,1759.2821495732076,17.86039766867193,101869.80813839656,-1023.3949784125904,33.71525787556905,101920.53291831484,14094.605271852688,5.062483475440001,101946.80792697896,-4272.227622734507,17.388356415084427,102169.47203206278,8380.928660587355,31.422090205644132,0.9104200604460032,70.0,35.0,113.0,244.0,357.0,35.0,922.0,906.0,38.0,23.0,15.0,0.6052631578947368,70.97699980382285,1051.1582087088436,70.0,34.0,36.0,0.4857142857142857,58.32376128074155,988.9241280250136,11.0,6.0,5.0,0.5454545454545454,1012.2343473969606,11749.163445473194,33.0,15.0,18.0,0.4545454545454545,177.35687663450648,5013.598486184885,76.0,36.0,40.0,0.4736842105263157,75.80159645542439,8985.773122704037,,,,,101782.0,101817.0,101852.0,101904.0,101915.0,101926.0,101932.0,101965.0,102133.0,102209.0,0.04034429600791521,-0.056990470454729776,0.07181714761593362,-0.041513910843773434,0.009044534266458251
108,108,102723.90406919828,1880.5903863153048,16.237041367682288,102793.90406919828,-878.3681771177523,19.871925182878353,102839.94564507365,15022.60422716062,5.415729320249788,102863.80650022824,-4252.91636978027,15.748307213265416,103089.76786138768,8259.712208355762,30.66694019516865,0.9247320726112168,71.0,34.0,106.0,247.0,353.0,37.0,921.0,919.0,44.0,25.0,19.0,0.5681818181818182,78.41958722249251,1260.622853625233,39.0,21.0,18.0,0.5384615384615384,54.2470881347812,607.7549231968877,11.0,6.0,5.0,0.5454545454545454,1075.8494776909872,12924.422471975826,29.0,11.0,18.0,0.3793103448275862,259.9479370912932,6425.647149522554,77.0,38.0,39.0,0.4935064935064935,81.30616308160624,8646.242517699622,,,,,102704.0,102741.0,102775.0,102811.0,102834.0,102845.0,102853.0,102881.0,103053.0,103128.0,0.041699451296325234,-0.0617589406674383,0.07161537782815773,-0.06112227810036237,0.009843704118329279
109,109,103674.47940829814,2093.6228276900333,17.681256978877766,103749.75339099858,-546.2778352371407,25.479654008167017,103792.155227442,14575.27411232605,5.339008409953935,103816.50293913372,-3976.212227891057,13.912000980432014,104041.61046988211,8322.705649467223,32.57722233885113,0.9199014058597812,86.0,47.0,94.0,247.0,341.0,39.0,951.0,953.0,43.0,23.0,20.0,0.5348837209302325,80.71297337706932,1584.5277479186375,24.0,10.0,14.0,0.4166666666666667,54.35928907853077,513.4695470390991,12.0,6.0,6.0,0.5,1052.5624701033396,12843.16406893632,29.0,12.0,17.0,0.4137931034482758,222.1984415797182,5347.462110506854,79.0,39.0,40.0,0.4936708860759494,73.37931652221435,8822.895767686805,,,,,103654.0,103693.0,103740.0,103764.0,103786.0,103798.0,103805.0,103834.0,104004.0,104081.0,0.03855182142149393,-0.09950850203346298,0.07221562092017235,-0.05588193709106167,0.008816762194024214
110,110,104604.054747398,1920.817102360169,16.459878377215425,104677.60271279886,-803.5350621873439,17.792741966877205,104720.62879647154,13678.14648472808,4.989780198031312,104746.0914646005,-4047.644028469441,15.282372541744474,104970.96331999217,8440.168493441124,31.152105974619197,0.9169705928885374,87.0,47.0,93.0,246.0,339.0,40.0,930.0,928.0,43.0,22.0,21.0,0.5116279069767442,68.21540334037745,1533.2038716130128,22.0,8.0,14.0,0.3636363636363636,56.90026155446969,699.6673399944112,11.0,6.0,5.0,0.5454545454545454,998.9277335052302,11866.68681572374,31.0,13.0,18.0,0.4193548387096774,179.3232387021927,5027.517095380858,75.0,36.0,39.0,0.48,77.19355938987353,9081.315931064051,,,,,104584.0,104624.0,104671.0,104689.0,104715.0,104726.0,104733.0,104764.0,104936.0,105010.0,0.03551374217595159,-0.0708124190618124,0.07303092817587183,-0.04430311495796265,0.009145973738540982
111,111,105530.00494540592,2157.502727684287,18.8160355607391,105603.8766956911,-537.6824138794665,11.573483385758536,105646.50757582924,14510.822150587865,5.177968968626037,105671.42896236654,-4060.9722055198513,14.257489848358428,105895.9262167642,8310.208899199464,32.38794549376706,0.9297887704900312,92.0,48.0,88.0,246.0,334.0,44.0,926.0,926.0,47.0,23.0,24.0,0.4893617021276595,73.47489203091864,1832.329175532321,18.0,6.0,12.0,0.3333333333333333,58.04309216042254,417.8740780565781,11.0,6.0,5.0,0.5454545454545454,1051.747793836198,12806.47081740466,30.0,12.0,18.0,0.4,214.92055447201167,5646.31032884794,76.0,37.0,39.0,0.4868421052631579,88.75696640400028,9082.62835377296,,,,,105509.0,105553.0,105601.0,105615.0,105641.0,105652.0,105659.0,105689.0,105860.0,105935.0,0.03405552683114402,-0.10795051253700515,0.07248023460845666,-0.05292342414456377,0.010680473557355505
112,112,106470.75339099858,1823.8402382947545,15.601667030707642,106544.32873009844,-897.9348944823398,23.41509247277404,106587.3444224005,14659.174199696698,5.418771413581944,106612.00957504992,-4244.98117096538,16.134768971358756,106836.68341684218,8237.61583193534,30.937301344401423,0.9241551484182126,67.0,34.0,111.0,246.0,357.0,33.0,939.0,941.0,41.0,22.0,19.0,0.5365853658536586,66.44266857022257,1242.0119350929403,42.0,26.0,16.0,0.6190476190476191,56.712328492309034,945.7985668293096,12.0,6.0,6.0,0.5,1050.4617953449424,12292.248413437192,30.0,12.0,18.0,0.4,226.1666843905093,5883.569540466347,78.0,39.0,39.0,0.5,73.66258428787505,8750.34374005492,,,,,106452.0,106485.0,106519.0,106560.0,106581.0,106593.0,106600.0,106630.0,106799.0,106876.0,0.036430092491184875,-0.06315861967364987,0.0716590021398802,-0.05327860720264989,0.008942221364864111
113,113,107422.79379658788,1885.161603634372,16.124946578134928,107495.20542559771,-908.9453328007646,21.803350717002917,107544.87930131968,14973.249770491204,5.431258929826258,107568.6605897148,-4322.178120634114,17.783071750395052,107794.94134244864,8304.076620775902,30.67312616659825,0.9241703343878804,74.0,37.0,109.0,245.0,354.0,37.0,945.0,957.0,40.0,20.0,20.0,0.5,76.32234149104731,1730.032381738759,68.0,35.0,33.0,0.5147058823529411,58.5924946603259,870.6873699911216,11.0,6.0,5.0,0.5454545454545454,1058.5706479387115,12533.617961554231,31.0,12.0,19.0,0.3870967741935484,236.17548796221465,6214.105099142922,76.0,37.0,39.0,0.4868421052631579,70.68223127485284,8719.714187006613,,,,,107405.0,107442.0,107479.0,107518.0,107539.0,107550.0,107557.0,107588.0,107758.0,107833.0,0.04048583492465936,-0.0644620666897346,0.07069745473857708,-0.054642701288665295,0.00851175085475651
114,114,108365.75339099858,1849.243727288689,15.769299960878762,108439.60271279886,-756.5044315545748,20.383723205202095,108481.73745634285,13694.04790503187,4.949354946732511,108507.75721067571,-3943.8291587570498,14.75395941050298,108731.32414050485,8539.39898229619,31.823944918646543,0.9140912417692022,70.0,33.0,112.0,245.0,357.0,37.0,950.0,937.0,39.0,24.0,15.0,0.6153846153846154,74.53340668155576,1340.0322999853413,41.0,27.0,14.0,0.6585365853658537,43.379899275318486,594.7951674603152,11.0,6.0,5.0,0.5454545454545454,998.4113009961128,12088.476834498591,32.0,14.0,18.0,0.4375,176.58402436237355,4502.723463833605,76.0,36.0,40.0,0.4736842105263157,80.97177819247712,9184.321645261136,,,,,108343.0,108380.0,108413.0,108451.0,108476.0,108487.0,108494.0,108525.0,108695.0,108770.0,0.04030480438121298,-0.057342558041828244,0.07290841305069827,-0.04477476514678094,0.009482140178758145
115,115,109277.57969494716,2020.6751236900589,17.835369901166054,109356.027373699,-739.2113457860744,13.077369382819604,109396.2757640496,14609.193580029489,5.241172460533302,109421.01032919204,-4194.197565584402,14.326250519344365,109644.8941661744,8355.10049985792,32.92693244851431,0.9225005138118454,89.0,51.0,89.0,247.0,336.0,38.0,912.0,915.0,43.0,19.0,24.0,0.4418604651162791,58.21795479058095,1687.075752145432,23.0,11.0,12.0,0.4782608695652174,58.02830605063229,692.1081317441727,12.0,6.0,6.0,0.5,1060.7880537894189,12495.74487075976,30.0,12.0,18.0,0.4,226.67510606187503,5576.489154809322,79.0,38.0,41.0,0.4810126582278481,75.74293109211185,9067.881242848824,,,,,109260.0,109298.0,109349.0,109366.0,109390.0,109402.0,109409.0,109438.0,109607.0,109685.0,0.028811140449072358,-0.0785002914003237,0.07261099306942564,-0.05404492814593751,0.009065472173961267
116,116,110217.05525992488,1807.063053746158,17.00909970067686,110297.75339099858,-801.0666688348241,22.088266966562184,110339.81282131458,14736.404045611718,5.332241977747296,110363.95299700992,-4221.106518053731,14.59800266399973,110590.15374973803,8347.018028272423,31.168368205808303,0.9229183384990898,90.0,52.0,92.0,248.0,340.0,38.0,934.0,943.0,40.0,19.0,21.0,0.475,79.59279275459149,1873.4424275314288,23.0,9.0,14.0,0.391304347826087,63.65675731319489,707.6981922881408,11.0,6.0,5.0,0.5454545454545454,1072.5281926896034,12950.874617453876,29.0,12.0,17.0,0.4137931034482758,264.1999444478727,6004.0105376222045,76.0,37.0,39.0,0.4868421052631579,73.29301252956533,8768.644252332017,,,,,110199.0,110237.0,110289.0,110312.0,110334.0,110345.0,110352.0,110381.0,110554.0,110629.0,0.04404538767454213,-0.07946499310199186,0.0727808622354506,-0.06259021024887335,0.008780742090326447
117,117,111163.47592852313,1800.7244678415857,15.655419687042588,111243.32873009844,-1010.6064967015734,28.0276194044889,111286.15773539145,14640.354552681052,5.3512304293111015,111311.21946843276,-4299.4594649351275,17.429387021008353,111536.70165278962,8202.418501330796,30.16690415350046,0.9194736321030506,73.0,35.0,112.0,245.0,357.0,38.0,944.0,947.0,40.0,19.0,21.0,0.475,62.811562190407464,1767.5722664598015,65.0,41.0,24.0,0.6307692307692307,58.879641215500456,972.3378065766076,12.0,6.0,6.0,0.5,1044.877760738971,12044.38795697247,32.0,13.0,19.0,0.40625,222.4919853853012,5738.779169075867,74.0,36.0,38.0,0.4864864864864865,74.71227098918413,8727.63815734434,,,,,111145.0,111183.0,111218.0,111259.0,111281.0,111291.0,111298.0,111330.0,111501.0,111575.0,0.03488127323870692,-0.05826168880535833,0.07136970330733042,-0.05174882731186728,0.009108566086583182
118,118,112105.75339099858,2199.8063716156325,19.629039308647023,112172.65746019685,-803.8647760515004,56.05523880871456,112221.06659585323,13963.35503440449,5.106799285005255,112247.49270207876,-3940.794664437192,15.869817091541922,112471.17209948148,8289.248397136402,31.072225339464907,0.9163354733995726,70.0,33.0,112.0,245.0,357.0,37.0,950.0,935.0,39.0,23.0,16.0,0.5897435897435898,75.10387480602176,1439.4451250669952,67.0,35.0,32.0,0.5223880597014925,44.3064698201338,714.3271542085599,11.0,6.0,5.0,0.5454545454545454,1006.9795130624542,11510.672979116056,32.0,14.0,18.0,0.4375,177.7617059377245,5171.503260678493,76.0,37.0,39.0,0.4868421052631579,70.40879246081937,8880.051589334993,,,,,112083.0,112120.0,112153.0,112204.0,112216.0,112226.0,112233.0,112265.0,112434.0,112510.0,0.03414112977173634,-0.055116819569782045,0.07211587119151124,-0.04510808633139268,0.008493989935823704
119,119,113040.01500305596,1762.2093408304042,14.516643868006964,113117.60271279886,-1009.186592060528,20.383723206668755,113157.58702690597,14834.178525239888,5.415019752090356,113182.15115665583,-4264.390730046923,15.943317177508533,113408.94903452482,8051.835885352945,30.53800147763153,0.915552426205448,69.0,34.0,109.0,247.0,356.0,35.0,935.0,936.0,39.0,19.0,20.0,0.4871794871794871,67.13503154460847,1403.2006362494317,39.0,27.0,12.0,0.6923076923076923,57.15683172611581,1008.9210843887475,11.0,6.0,5.0,0.5454545454545454,1063.9935396623373,12638.9257152494,31.0,12.0,19.0,0.3870967741935484,234.6964463972016,5906.401175496299,75.0,37.0,38.0,0.4933333333333333,73.20072433539359,8592.671256933507,,,,,113022.0,113057.0,113091.0,113129.0,113152.0,113163.0,113170.0,113200.0,113373.0,113447.0,0.0380970807435242,-0.05663653498350057,0.07172581466860371,-0.055036337252946606,0.009091184343256755
120,120,113994.63008649784,2355.986100677968,19.414202148130418,114070.5532680981,-484.5271944794337,5.491962959690617,114110.78230035912,14570.722538666469,5.39332384965658,114135.27249473867,-3779.3050949870017,13.771657584618591,114360.44497196554,8617.647292749502,33.96306703696127,0.9255120538014868,91.0,47.0,90.0,249.0,339.0,44.0,956.0,953.0,46.0,24.0,22.0,0.5217391304347826,72.19129159637022,1875.9814661619375,16.0,8.0,8.0,0.5,60.20601675411539,336.6058333162824,11.0,6.0,5.0,0.5454545454545454,1051.8122619710462,13044.31612360772,29.0,11.0,18.0,0.3793103448275862,256.97170017661136,5555.51293064953,82.0,40.0,42.0,0.4878048780487805,72.9854276771183,9369.862211951591,,,,,113972.0,114016.0,114063.0,114078.0,114105.0,114116.0,114124.0,114153.0,114321.0,114402.0,0.030641645795616606,-0.12425725003691387,0.07218669212730129,-0.06799443117663809,0.008469298544920135
121,121,114923.75339099858,2016.4728327777416,15.76586803786833,114995.17805189872,-693.4368236343126,16.87880610902428,115037.97092864865,13694.084927382008,5.0417641723211934,115063.28352366546,-4150.169144897952,14.424309990188394,115287.90083936042,8550.893008428235,32.49210845858232,0.9102623051420508,85.0,51.0,92.0,247.0,339.0,34.0,927.0,928.0,40.0,21.0,19.0,0.525,74.68083362943362,1560.5862858460423,22.0,7.0,15.0,0.3181818181818182,56.4826293971182,655.9983835636621,11.0,6.0,5.0,0.5454545454545454,997.9536762881864,11775.015799421344,31.0,13.0,18.0,0.4193548387096774,185.4800306804376,5245.286541104013,78.0,38.0,40.0,0.4871794871794871,80.58848992607203,9290.11332637014,,,,,114904.0,114938.0,114989.0,115008.0,115032.0,115043.0,115050.0,115081.0,115251.0,115328.0,0.03703537802022302,-0.0814531727650284,0.07287479824904022,-0.04469216174200012,0.009424570024047728
122,122,115836.65730886154,1937.615987674756,16.709467617380675,115912.60271279886,-864.3149475016114,20.383723199923818,115952.1939727878,13496.57564365463,4.895909842917254,115977.96321070792,-4138.9250130073115,15.265187590620078,116202.15151383872,8384.352253771005,31.33769535049571,0.9142392668186622,69.0,26.0,110.0,245.0,355.0,43.0,915.0,914.0,45.0,21.0,24.0,0.4666666666666667,65.64428727428462,1699.9432177980912,38.0,27.0,11.0,0.7105263157894737,55.23611546900869,1079.4752791814835,10.0,5.0,5.0,0.5,990.4197778542128,11183.966888524064,33.0,14.0,19.0,0.4242424242424242,179.52876870200743,4611.4160664414485,77.0,38.0,39.0,0.4935064935064935,76.3960685857337,8911.944116512508,,,,,115817.0,115860.0,115886.0,115924.0,115947.0,115957.0,115964.0,115996.0,116167.0,116241.0,0.03387889431747584,-0.06390739351283255,0.07338304203998999,-0.04337569976208948,0.009111743671238678
123,123,116752.75339099858,1965.2851229069609,16.799625448821597,116823.17805189872,-744.1523207376333,16.99353126103221,116868.70612619953,15007.249772398727,5.404908962089951,116892.6505925296,-4258.791809582789,15.400464448539855,117118.20384281364,8308.884428707424,32.30042373899403,0.9242659382012696,87.0,51.0,92.0,248.0,340.0,36.0,914.0,916.0,45.0,23.0,22.0,0.5111111111111111,70.28934674071077,1412.7470625132466,40.0,20.0,20.0,0.5,46.301952769586066,476.8866064934238,11.0,6.0,5.0,0.5454545454545454,1081.0279299249255,12965.657320451475,30.0,12.0,18.0,0.4,245.6672472117069,6002.014678403934,79.0,38.0,41.0,0.4810126582278481,64.92244634684673,8845.1419726834,,,,,116731.0,116767.0,116818.0,116841.0,116863.0,116874.0,116881.0,116910.0,117081.0,117158.0,0.03576547032358437,-0.062221068831297514,0.07203371345982044,-0.05768472801580164,0.007813617688860599
124,124,117686.17805189872,1847.288092455015,15.449573308556952,117753.054747398,-884.3654366568575,20.51726297808272,117801.47568070544,14832.393865784758,5.400140756909685,117826.02049703646,-4272.590767276401,16.936576315872436,118051.63445792458,8179.938624788308,30.957906779322617,0.9215673208289544,70.0,37.0,108.0,247.0,355.0,33.0,933.0,933.0,40.0,22.0,18.0,0.55,66.52208298146176,1329.3498940926588,56.0,35.0,21.0,0.625,48.996177303326625,736.8516077369648,12.0,6.0,6.0,0.5,1059.5976152368987,12361.694939700432,31.0,12.0,19.0,0.3870967741935484,233.25007996493025,5992.176699784422,78.0,39.0,39.0,0.5,77.6070554415793,8758.19622459709,,,,,117666.0,117699.0,117736.0,117773.0,117796.0,117807.0,117814.0,117844.0,118014.0,118091.0,0.03601067058958575,-0.05540263704622553,0.07143807161709545,-0.05459218836294436,0.009487486276046201
125,125,118610.17805189872,1793.318960703959,15.434814239304286,118684.75339099858,-911.91947643272,25.479653799241284,118727.09866831204,13954.424121990009,5.144955892614566,118752.49760991348,-4184.9473371757795,15.967120346936722,118976.82518124444,8372.117789085814,31.17807261519996,0.9143858527759396,71.0,38.0,110.0,245.0,355.0,33.0,924.0,926.0,41.0,23.0,18.0,0.5609756097560976,72.98969705459247,1091.2513017715196,38.0,24.0,14.0,0.631578947368421,71.88696083830173,850.6763974303009,11.0,6.0,5.0,0.5454545454545454,1007.5461589408002,11787.155635019644,32.0,13.0,19.0,0.40625,194.99612903843263,5370.8554667225835,77.0,38.0,39.0,0.4935064935064935,74.76509978605894,8909.611258860834,,,,,118590.0,118623.0,118661.0,118699.0,118721.0,118732.0,118739.0,118771.0,118940.0,119016.0,0.04070090076220501,-0.07883038217311882,0.07220263266565502,-0.046594643451362085,0.008930249390844134
126,126,119528.17805189872,1693.0633337164434,16.92108910831757,119594.082121097,-909.2471104125992,30.945174370348212,119641.7508204572,14176.098706742894,5.1441520747257,119667.5207973992,-4289.953133821514,17.723612812326607,119891.93646431224,8130.367016542212,30.520175216531296,0.9122155180293514,69.0,34.0,111.0,244.0,355.0,35.0,918.0,914.0,36.0,23.0,13.0,0.6388888888888888,86.8335980712399,1296.7596576432377,67.0,35.0,32.0,0.5223880597014925,49.43079327452244,761.9328707132628,11.0,6.0,5.0,0.5454545454545454,998.9826291329788,11476.53928659723,33.0,15.0,18.0,0.4545454545454545,182.5001547988952,5060.311933400879,73.0,35.0,38.0,0.4794520547945205,79.44219130632631,8725.800163734519,,,,,119506.0,119541.0,119575.0,119624.0,119636.0,119647.0,119653.0,119686.0,119857.0,119930.0,0.05128786167770314,-0.05436453160911524,0.0704695029146355,-0.04254129336753921,0.009771046146464433
127,127,120443.22548998929,1670.9759930295356,15.733743636597197,120516.32873009844,-1061.270988752466,19.866311459911188,120560.10520013816,14925.796247191493,5.354530959421263,120583.80294369116,-4287.125727196972,15.792749754894825,120809.32808134408,8054.87677256079,30.621974030300155,0.9192058896492848,69.0,32.0,109.0,245.0,354.0,37.0,916.0,919.0,43.0,21.0,22.0,0.4883720930232558,77.49551061406365,1294.8642842532122,40.0,24.0,16.0,0.6,60.02369550251525,872.5546262113653,12.0,6.0,6.0,0.5,1058.889303073009,12528.723172945913,30.0,12.0,18.0,0.4,273.3589232901305,6210.761071688265,77.0,38.0,39.0,0.4935064935064935,72.15013661893505,8460.648995144733,,,,,120424.0,120461.0,120493.0,120532.0,120554.0,120566.0,120573.0,120602.0,120774.0,120847.0,0.0463773931746091,-0.05655831181541452,0.07094357215764985,-0.063762749376809,0.008957323452137334
128,128,121365.27085021822,1953.7651693613911,16.30268776927804,121441.60271279886,-799.1769998198074,18.14270994588888,121484.35344247744,14683.74686033926,5.350859823106787,121508.61597470108,-4056.65268409364,15.609161096457042,121733.69879159104,8252.3202606429,31.559645216579927,0.9246236074610245,89.0,52.0,89.0,247.0,336.0,37.0,923.0,924.0,43.0,20.0,23.0,0.4651162790697674,81.87312532215671,1552.6561867338287,39.0,25.0,14.0,0.6410256410256411,62.483106293535066,583.4785305066035,12.0,6.0,6.0,0.5,1059.60696013056,12532.390758089268,30.0,12.0,18.0,0.4,243.0968732454583,5535.063074261661,78.0,39.0,39.0,0.5,77.06614472989371,8784.632346267394,,,,,121348.0,121385.0,121437.0,121455.0,121478.0,121490.0,121497.0,121526.0,121697.0,121773.0,0.041905305000865485,-0.07818431499858391,0.0721618923431971,-0.05992548344073295,0.009338724418808467
129,129,122279.47940829814,1895.110720828965,17.38601752379237,122354.17805189872,-823.3477861116015,22.93168837974218,122395.91725908626,13741.902522294162,5.039717196523616,122421.61994110908,-4067.8163594682305,14.599377674756456,122645.09327855984,8451.3679560076,32.83764267402853,0.9199842185097092,90.0,51.0,91.0,245.0,336.0,39.0,914.0,911.0,46.0,24.0,22.0,0.5217391304347826,79.8756124389956,1450.3039554821255,38.0,23.0,15.0,0.6052631578947368,73.54115635638497,773.7021671631712,11.0,6.0,5.0,0.5454545454545454,998.345553767673,11931.17032362344,32.0,14.0,18.0,0.4375,189.44505460623895,4639.528662560284,80.0,39.0,41.0,0.4875,82.89999897957878,8998.766867882872,,,,,122259.0,122298.0,122349.0,122368.0,122390.0,122401.0,122408.0,122440.0,122608.0,122685.0,0.04214825633198686,-0.08931967462218543,0.07264973333554128,-0.04657168315017159,0.00980906279446156
130,130,123184.027373699,1480.9284229278148,14.09239275690001,123247.65746019685,-1423.399164508009,24.159886873991177,123296.2047341881,14855.120700473264,5.321337727234459,123320.56961861896,-4566.200725253181,20.344740081580223,123545.74297687468,8108.376294944897,30.285697115342725,0.907659677151446,62.0,31.0,115.0,243.0,358.0,31.0,902.0,901.0,32.0,21.0,11.0,0.65625,77.96473911591332,1156.303090246165,66.0,33.0,33.0,0.5,53.79601540175032,1299.0661915640417,10.0,5.0,5.0,0.5,1040.8988749623247,11535.37020215451,32.0,13.0,19.0,0.40625,215.13637693215097,6157.631990609147,73.0,36.0,37.0,0.4931506849315068,85.74952809960578,8724.367129247927,,,,,123163.0,123194.0,123225.0,123279.0,123291.0,123301.0,123308.0,123340.0,123510.0,123583.0,0.052645852364543055,-0.03779404733621903,0.07007003820097962,-0.047114962717768466,0.010575425335534273
131,131,124106.20542559771,2414.68252525496,21.083109044088065,124185.03116242572,-451.3070859359929,4.424152879872996,124223.51447388723,14658.210061857164,5.321065546351122,124247.7430658178,-3674.0193915719706,12.891668763286956,124471.66585018409,8419.517213230465,33.85243616688812,0.923186510636382,95.0,50.0,86.0,248.0,334.0,45.0,926.0,927.0,47.0,24.0,23.0,0.5106382978723404,80.01825464932571,2091.146142601142,14.0,7.0,7.0,0.5,64.18780529844749,269.3675836315743,12.0,7.0,5.0,0.5833333333333334,1067.6724491388889,13409.176997736551,29.0,12.0,17.0,0.4137931034482758,236.76641693966403,5104.497723441108,82.0,40.0,42.0,0.4878048780487805,75.04621108589866,9024.71244722977,,,,,124084.0,124129.0,124179.0,124192.0,124217.0,124229.0,124237.0,124265.0,124434.0,124513.0,0.033138209189995604,-0.1422264513426031,0.07283784613764889,-0.06444343148617973,0.008913362748159803
132,132,125031.81452145646,1922.330320716528,16.56555628016435,125111.17805189872,-754.1533611081413,22.01042378616425,125152.83930148158,14409.32524372948,5.265675786750577,125176.87612568637,-4179.922084799315,14.490703587184615,125401.80676701674,8370.827148479257,31.825869382444587,0.9234814686062144,90.0,51.0,91.0,247.0,338.0,39.0,917.0,929.0,43.0,21.0,22.0,0.4883720930232558,72.68587467309062,1767.0036540361052,38.0,25.0,13.0,0.6578947368421053,52.862831752195795,703.6353494020477,11.0,6.0,5.0,0.5454545454545454,1049.5407228016325,12521.136014408896,30.0,12.0,18.0,0.4,247.16233660465204,5733.010327684534,79.0,39.0,40.0,0.4936708860759494,76.83536118725546,9036.961467532125,,,,,125014.0,125053.0,125104.0,125124.0,125147.0,125158.0,125165.0,125195.0,125363.0,125442.0,0.037811334446411764,-0.07009559922204678,0.07283760377734289,-0.059130847798211705,0.009178944902859962
133,133,125950.32873009844,1978.4045083161632,18.36892079390375,126016.054747398,-820.8439892602372,35.67143380088823,126063.44581032224,13976.099657782031,5.10353267323905,126089.65957480048,-4094.993407734947,17.793328222303224,126313.36527748534,8362.002490116089,30.61382061616308,0.918079646180317,71.0,32.0,110.0,243.0,353.0,39.0,925.0,911.0,40.0,23.0,17.0,0.575,64.82407423961682,1449.0816242830035,53.0,21.0,32.0,0.3962264150943396,52.21174520453008,654.9648097215282,11.0,5.0,6.0,0.4545454545454545,1001.6987564665104,11087.846457576954,34.0,15.0,19.0,0.4411764705882353,187.31141627491576,4707.659879857972,75.0,36.0,39.0,0.48,78.10360752458858,8928.085051562337,,,,,125927.0,125966.0,125998.0,126036.0,126058.0,126069.0,126075.0,126108.0,126278.0,126351.0,0.03276583427056034,-0.06360739176708166,0.07167226772805348,-0.045741567232100336,0.009340299481721905
134,134,126838.28126657706,1821.796431481953,17.224995063081803,126912.32873009844,-840.569697075382,18.016384208095765,126955.237458978,14716.499313520448,5.277099474335507,126980.02381139182,-4344.5918621557685,16.340474932635892,127204.0662635873,8206.131359804858,30.993620447415243,0.9229519571094018,69.0,29.0,110.0,244.0,354.0,40.0,888.0,892.0,47.0,22.0,25.0,0.4680851063829787,81.87563069543833,1538.2917361621862,39.0,23.0,16.0,0.5897435897435898,60.900280578330104,801.235085567111,12.0,6.0,6.0,0.5,1058.941047019102,12257.318347102855,31.0,12.0,19.0,0.3870967741935484,216.3005796244902,5732.995256173595,78.0,38.0,40.0,0.4871794871794871,79.42160251643902,8639.097832420852,,,,,126820.0,126860.0,126889.0,126928.0,126949.0,126960.0,126968.0,126999.0,127168.0,127243.0,0.04494225001244295,-0.07245119683736183,0.07195604229371479,-0.049786167835144536,0.009678324539802111
135,135,127755.58865886986,2147.5002588481907,17.814835118216198,127830.75339099858,-621.5947823866235,13.565592532022656,127873.76505177475,14600.640770253072,5.278235445125461,127897.73413613404,-4042.469512676161,14.272949806347537,128122.35628710943,8473.796526615275,32.717680726356726,0.9243665820588836,87.0,45.0,92.0,247.0,339.0,42.0,919.0,918.0,47.0,22.0,25.0,0.4680851063829787,65.48954616619892,1777.400071602096,22.0,8.0,14.0,0.3636363636363636,54.20428559512998,480.69326824151847,11.0,6.0,5.0,0.5454545454545454,1066.5833218614284,12952.510829298904,29.0,12.0,17.0,0.4137931034482758,240.04348773679564,5779.264179576261,78.0,38.0,40.0,0.4871794871794871,78.9517095622147,9164.919017689075,,,,,127736.0,127778.0,127823.0,127845.0,127868.0,127879.0,127886.0,127915.0,128085.0,128162.0,0.03049571048774828,-0.0872019636120685,0.07305044611702623,-0.05938040768992321,0.009317158998830802
136,136,128682.75339099891,1859.6292386784028,17.38403705626057,128751.054747398,-926.707046467433,25.75630673628389,128798.58535902567,14011.805044968913,5.044382754815312,128824.19156729596,-4103.149761884687,16.23682777145417,129047.95867113842,8393.7936245437,31.171422115890294,0.91547093725854,69.0,35.0,111.0,243.0,354.0,34.0,925.0,925.0,44.0,25.0,19.0,0.5681818181818182,72.14559803081794,1111.149702036596,66.0,35.0,31.0,0.5303030303030303,52.48659054004921,695.6326033119223,11.0,6.0,5.0,0.5454545454545454,1019.8848811012984,12047.408924964557,33.0,14.0,19.0,0.4242424242424242,187.16992840584868,5009.735098854144,76.0,37.0,39.0,0.4868421052631579,75.75160051267325,8850.38710890102,,,,,128663.0,128697.0,128732.0,128771.0,128793.0,128804.0,128811.0,128843.0,129012.0,129086.0,0.03879568923216663,-0.056637737610958944,0.07278754434764984,-0.04561615813893093,0.009024715629316086
137,137,129553.05474744068,2015.5040205120645,16.119916318704593,129625.60271279886,-719.6003425682648,14.780780103668071,129668.34674687272,13713.299546069382,4.951788853312855,129693.83467849296,-4074.5465219914686,15.0321763911591,129915.86286148874,8324.157033856622,32.17465746588186,0.9205626924484208,88.0,48.0,91.0,243.0,334.0,40.0,872.0,870.0,45.0,22.0,23.0,0.4888888888888889,67.16301301880155,1560.85907019835,22.0,7.0,15.0,0.3181818181818182,51.3764765535699,662.0816174131819,12.0,6.0,6.0,0.5,1002.7192659954328,11355.338096064655,32.0,14.0,18.0,0.4375,173.90368994027352,4919.573861043171,78.0,39.0,39.0,0.5,81.05698515007249,8950.430075407912,,,,,129533.0,129573.0,129621.0,129639.0,129663.0,129673.0,129680.0,129712.0,129879.0,129955.0,0.03332318483876699,-0.07139584782603975,0.07312020441373938,-0.042680501744590864,0.009737560790887483
