Unnamed: 0,cycle,p_center,p_height,p_width,q_center,q_height,q_width,r_center,r_height,r_width,s_center,s_height,s_width,t_center,t_height,t_width,r_squared,pr_interval,pr_segment,qrs_duration,st_segment,qt_interval,p_duration,pp_interval,rr_interval,fwhm_p,rise_time_p,decay_time_p,rise_decay_symmetry_p,sharpness_deriv_p,sharpness_diff_p,fwhm_q,rise_time_q,decay_time_q,rise_decay_symmetry_q,sharpness_deriv_q,sharpness_diff_q,fwhm_r,rise_time_r,decay_time_r,rise_decay_symmetry_r,sharpness_deriv_r,sharpness_diff_r,fwhm_s,rise_time_s,decay_time_s,rise_decay_symmetry_s,sharpness_deriv_s,sharpness_diff_s,fwhm_t,rise_time_t,decay_time_t,rise_decay_symmetry_t,sharpness_deriv_t,sharpness_diff_t,Average_Heart_Rate,SDNN,RMSSD,NN50,p_on,p_off,q_on,q_off,r_on,r_off,s_on,s_off,t_on,t_off,sharpness_deriv_p_norm,sharpness_deriv_q_norm,sharpness_deriv_r_norm,sharpness_deriv_s_norm,sharpness_deriv_t_norm
0,0,0.0,0.0,0.0,0.0,0.0,0.0,0.0,0.0,0.0,0.0,0.0,0.0,0.0,0.0,0.0,0.0,0.0,0.0,0.0,0.0,0.0,0.0,0.0,0.0,0.0,0.0,0.0,0.0,0.0,0.0,0.0,0.0,0.0,0.0,0.0,0.0,0.0,0.0,0.0,0.0,0.0,0.0,0.0,0.0,0.0,0.0,0.0,0.0,0.0,0.0,0.0,0.0,0.0,0.0,66.74934457816656,557.9562617571877,915.7308653901543,693.0,,,,,,,,,,,,,,,
1,1,2026.082699773228,1265.945777763592,12.074448816867909,2151.5479654008636,-10884.130598738886,10.333596251787863,2174.0147374928856,45644.49581233354,9.764674200654836,2196.4520345991364,-10282.003049656823,9.235481739637477,2418.8950141962755,10098.559685410046,30.584519053645277,0.9865352986498508,130.0,95.0,70.0,248.0,318.0,35.0,,,35.0,17.0,18.0,0.4857142857142857,34.636030048224484,1214.177417392147,18.0,15.0,3.0,0.8333333333333334,1550.0965663422317,9993.077318311409,22.0,11.0,11.0,0.5,2516.889607048905,44467.107928451376,17.0,3.0,14.0,0.1764705882352941,1545.95491017163,24636.282001541844,77.0,39.0,38.0,0.5064935064935064,74.18170942771964,10514.817038372274,0.0,0.0,0.0,0.0,2009.0,2044.0,2139.0,2155.0,2163.0,2185.0,2193.0,2209.0,2381.0,2457.0,0.02735980533811817,-0.14241804177927056,0.055141141604390764,-0.15035542225629164,0.007345771252398905
2,2,2912.3790643968637,500.993357521478,6.838813090094278,3035.9726263010075,-10367.406243150635,10.630747506740155,3058.784325556174,43843.5102471773,9.56405636444908,3081.452034599518,-9317.116771449082,8.723029938394104,3304.981828374071,9685.349591571914,29.495084121831606,0.980834309833251,121.0,100.0,70.0,249.0,319.0,21.0,885.0,885.0,22.0,11.0,11.0,0.5,37.49770501206179,496.0804099421073,17.0,13.0,4.0,0.7647058823529411,1422.6484807694128,7282.320638258759,22.0,11.0,11.0,0.5,2436.047190006212,42447.19164247124,16.0,3.0,13.0,0.1875,1463.6340379361395,23171.03174162119,74.0,37.0,37.0,0.5,70.77722751827778,10039.001248135082,0.0,0.0,0.0,0.0,2902.0,2923.0,3023.0,3040.0,3048.0,3070.0,3078.0,3093.0,3268.0,3342.0,0.0748467109375881,-0.1372231826749631,0.05556232099739432,-0.1570908762699238,0.0073076585258076135
3,3,3868.4569190505727,606.272262520866,7.281471095379348,3997.972626301007,-10565.868035801415,11.091824179148018,4020.19242772683,43463.41648945168,9.606701226472342,4043.027373698993,-9153.782620186214,8.786164788065408,4269.010866721509,10067.59979012422,30.207231494879466,0.978472673983096,127.0,106.0,70.0,252.0,322.0,21.0,957.0,961.0,21.0,10.0,11.0,0.4761904761904761,36.18377276810381,626.8582126041014,18.0,14.0,4.0,0.7777777777777778,1452.7355590979123,8085.737273453797,21.0,10.0,11.0,0.4761904761904761,2394.959579445506,43173.602957664894,16.0,4.0,12.0,0.25,1396.136191414492,22324.630897209936,76.0,38.0,38.0,0.5,71.71432900295531,10373.315636221214,0.0,0.0,0.0,0.0,3858.0,3879.0,3985.0,4002.0,4010.0,4031.0,4039.0,4055.0,4231.0,4307.0,0.059682382000542995,-0.13749325225106535,0.05510288359468356,-0.15252013832354813,0.007123279679164764
4,4,4756.398674406473,1642.0013571969723,14.607068130205912,4877.547965400863,-10110.137020229524,8.957010135405945,4899.624140408316,44286.36874211941,9.68505444895222,4922.452034599153,-8610.193909413425,7.713126445913672,5142.976012311009,10891.07072593238,35.58600039377356,0.9798997338024252,128.0,88.0,69.0,251.0,320.0,40.0,886.0,880.0,41.0,20.0,21.0,0.4878048780487805,35.726901309862264,1553.5041377294365,17.0,14.0,3.0,0.8235294117647058,1542.8805172901216,11168.057911560518,22.0,11.0,11.0,0.5,2440.8409702127105,43666.57076974126,16.0,3.0,13.0,0.1875,1457.6134343048504,22200.03755986618,85.0,42.0,43.0,0.4941176470588235,75.74002526894425,11661.440930104058,0.0,0.0,0.0,0.0,4737.0,4777.0,4865.0,4881.0,4889.0,4911.0,4919.0,4934.0,5102.0,5185.0,0.02175814359304242,-0.1526072806137987,0.05511494935215362,-0.16928926916631443,0.006954323149201675
5,5,0.0,0.0,0.0,0.0,0.0,0.0,0.0,0.0,0.0,0.0,0.0,0.0,0.0,0.0,0.0,0.0,0.0,0.0,0.0,0.0,0.0,0.0,0.0,0.0,0.0,0.0,0.0,0.0,0.0,0.0,0.0,0.0,0.0,0.0,0.0,0.0,0.0,0.0,0.0,0.0,0.0,0.0,0.0,0.0,0.0,0.0,0.0,0.0,0.0,0.0,0.0,0.0,0.0,0.0,0.0,0.0,0.0,0.0,,5373.0,5715.0,5733.0,5742.0,5763.0,5771.0,5787.0,5963.0,6034.0,,,,,
6,6,6485.124498889625,298.8648501978381,4.50385633704978,6611.972626301007,-10575.821648698806,12.848638027896245,6634.212886315894,45044.45050327687,9.59726758369252,6656.452034599137,-9398.22386312296,10.22554211461184,6881.517755615533,9472.366835600418,28.332341433998668,0.974773584454196,120.0,106.0,71.0,248.0,319.0,14.0,1733.0,1734.0,15.0,7.0,8.0,0.4666666666666667,40.02880979184694,316.70662504488104,19.0,15.0,4.0,0.7894736842105263,1465.6796239025314,8043.210262460126,21.0,10.0,11.0,0.4761904761904761,2409.7812126090357,42771.59944166489,17.0,3.0,14.0,0.1764705882352941,1475.38033910569,23619.049181076265,72.0,37.0,35.0,0.5138888888888888,75.06245340122295,9740.592315612064,0.0,0.0,0.0,0.0,6478.0,6492.0,6598.0,6616.0,6624.0,6645.0,6653.0,6669.0,6845.0,6917.0,0.13393615798361455,-0.13858777810259887,0.053497849028788354,-0.15698501765794629,0.00792436090197778
7,7,7344.486682004721,700.0548863058248,7.106326758325522,7470.547965400863,-11041.71827494301,10.6978098549836,7492.993319496714,44565.08246809359,9.730445884796731,7515.452034599137,-9732.720182167091,9.916020392713229,7738.113345413214,10640.215928702242,30.96482998730527,0.9777234110787762,123.0,102.0,71.0,248.0,319.0,21.0,856.0,859.0,21.0,10.0,11.0,0.4761904761904761,43.80011169851105,736.7550965458217,19.0,15.0,4.0,0.7894736842105263,1522.6679406220694,9101.349176352864,21.0,10.0,11.0,0.4761904761904761,2448.005216460077,43047.297245758426,18.0,3.0,15.0,0.1666666666666666,1478.2309126580965,23807.60363818956,78.0,39.0,39.0,0.5,84.06796145334361,11180.61087017916,0.0,0.0,0.0,0.0,7334.0,7355.0,7457.0,7474.0,7483.0,7504.0,7512.0,7528.0,7700.0,7776.0,0.06256668234921313,-0.13790135762451594,0.0549310150657239,-0.15188260681393112,0.00790096385417971
8,8,8165.962345769812,1872.248124958567,16.402223860459944,8287.372966610112,-9454.76365055832,8.649732828294981,8310.00318883846,44800.7737949315,9.49526208260066,8333.452034599139,-8482.257616583063,7.52143968804632,8552.559899545326,10932.662849998998,33.959531177166774,0.9874691917564552,131.0,87.0,68.0,249.0,317.0,44.0,821.0,817.0,44.0,21.0,23.0,0.4772727272727273,38.821881394840815,1763.3566296517788,16.0,12.0,4.0,0.75,1427.3709036929538,8427.281511554627,22.0,11.0,11.0,0.5,2467.3768190346477,45191.48431744424,15.0,3.0,12.0,0.2,1423.6777755748876,21970.3040991194,82.0,41.0,41.0,0.5,80.47361190829785,11634.886150661005,0.0,0.0,0.0,0.0,8145.0,8189.0,8276.0,8291.0,8299.0,8321.0,8330.0,8344.0,8513.0,8593.0,0.02073543611945129,-0.1509684383922876,0.055074424167954716,-0.1678418458773942,0.007360842734513233
9,9,9029.540107473627,710.374300309305,8.017570240330992,9156.54796540086,-10322.905838326997,10.917692920626944,9179.118943006117,44445.966372396295,9.566032434149047,9201.962844875832,-9317.91668108277,8.463018625627726,9426.013150551596,9765.538790704908,29.72732535861856,0.9816597986922893,127.0,102.0,70.0,249.0,319.0,25.0,865.0,869.0,25.0,13.0,12.0,0.52,34.55568734639437,633.8667568049551,19.0,15.0,4.0,0.7894736842105263,1484.1247119578122,9013.56795351488,21.0,10.0,11.0,0.4761904761904761,2453.829458022831,44112.334547905135,16.0,4.0,12.0,0.25,1429.9342512360777,22735.94384247498,74.0,37.0,37.0,0.5,76.17178587852801,10157.633772554334,0.0,0.0,0.0,0.0,9017.0,9042.0,9144.0,9160.0,9169.0,9190.0,9198.0,9214.0,9389.0,9463.0,0.04864433768415951,-0.143770052270315,0.055209272253484216,-0.1534607252004227,0.007800059731576744
10,10,0.0,0.0,0.0,0.0,0.0,0.0,0.0,0.0,0.0,0.0,0.0,0.0,0.0,0.0,0.0,0.0,0.0,0.0,0.0,0.0,0.0,0.0,0.0,0.0,0.0,0.0,0.0,0.0,0.0,0.0,0.0,0.0,0.0,0.0,0.0,0.0,0.0,0.0,0.0,0.0,0.0,0.0,0.0,0.0,0.0,0.0,0.0,0.0,0.0,0.0,0.0,0.0,0.0,0.0,0.0,0.0,0.0,0.0,,9687.0,10038.0,10055.0,10063.0,10084.0,10093.0,10108.0,10285.0,10356.0,,,,,
11,11,10827.148374445458,1016.9888432850717,11.844915967365507,10953.54796540085,-10384.91074771917,9.579084675791412,10976.062822896864,44115.28066550145,9.584684456243416,10999.452034606104,-9117.7327067611,8.48996094586437,11221.621522229922,11153.669535963303,33.19885504838188,0.9779338356255588,131.0,97.0,70.0,251.0,321.0,34.0,1796.0,1797.0,34.0,17.0,17.0,0.5,30.768961255179196,934.4429562073224,18.0,14.0,4.0,0.7777777777777778,1509.3556137236744,9414.934394109976,21.0,10.0,11.0,0.4761904761904761,2450.271623971938,44241.73714082434,17.0,4.0,13.0,0.2352941176470588,1416.865711405182,22617.484830306137,81.0,41.0,40.0,0.5061728395061729,78.55797164215734,11715.25368575483,0.0,0.0,0.0,0.0,10810.0,10844.0,10941.0,10957.0,10966.0,10987.0,10996.0,11011.0,11182.0,11262.0,0.030254964406285393,-0.14534122154638382,0.05554246934414434,-0.155396715057739,0.007043240019695685
12,12,11714.305528597297,244.06419158812173,4.390227366723799,11842.972626301009,-10849.000593470331,12.458719308408588,11865.38112582814,46396.23816914569,9.638664294169004,11888.027373698991,-10209.95151904993,9.968085952870789,12112.72369483707,9725.971044606507,28.744925629887295,0.9762819128442636,121.0,108.0,72.0,248.0,320.0,13.0,889.0,890.0,13.0,6.0,7.0,0.4615384615384615,32.94936817643472,237.6127565804087,19.0,15.0,4.0,0.7894736842105263,1498.895575126574,8247.113723333478,21.0,10.0,11.0,0.4761904761904761,2498.107147941128,44856.852338189674,17.0,4.0,13.0,0.2352941176470588,1485.70722018864,24355.845239195252,74.0,37.0,37.0,0.5,75.94840402100066,9972.043252365838,0.0,0.0,0.0,0.0,11708.0,11721.0,11829.0,11847.0,11855.0,11876.0,11884.0,11901.0,12076.0,12149.0,0.13500287757099358,-0.13815978367894197,0.05384288137399926,-0.1455155998945321,0.007808824812728338
13,13,12656.483550977777,525.0559486827382,8.175870522768308,12787.54796540086,-10108.443969318769,10.35645665514327,12810.169434200629,43619.16155420032,9.4564381306603,12833.45203459914,-8729.412815476731,7.832504221005118,13058.82892866478,9973.814569311377,30.72837387073963,0.9809498978938056,131.0,106.0,69.0,253.0,322.0,25.0,941.0,944.0,27.0,13.0,14.0,0.4814814814814814,29.114697619132965,502.59124599240545,18.0,14.0,4.0,0.7777777777777778,1461.5656598615512,8652.170071654382,21.0,10.0,11.0,0.4761904761904761,2419.5310109826305,44082.04520048272,16.0,4.0,12.0,0.25,1413.1753435279898,22112.07908300219,77.0,39.0,38.0,0.5064935064935064,73.31775191279576,10380.46989117582,0.0,0.0,0.0,0.0,12644.0,12669.0,12775.0,12791.0,12800.0,12821.0,12830.0,12844.0,13021.0,13097.0,0.05545065757692299,-0.14458858992518603,0.05546945252434916,-0.16188664385564555,0.007351024164654972
14,14,14463.68098132006,770.68076898002,8.887474962177329,14586.54796540086,-10742.224761654485,10.070575757513607,14609.196675266732,43894.28538561669,9.68426948182472,14632.027373698991,-9707.05064772174,9.340255057670907,14854.191626938293,10706.587126513115,31.96657641062875,0.978152979879055,124.0,97.0,70.0,249.0,319.0,27.0,1809.0,1799.0,27.0,14.0,13.0,0.5185185185185185,34.63017907396057,705.9836513293367,18.0,14.0,4.0,0.7777777777777778,1498.8796217907247,8795.422044571525,21.0,10.0,11.0,0.4761904761904761,2435.2149446279263,43536.92877864209,17.0,4.0,13.0,0.2352941176470588,1418.141328314073,23051.44420104731,79.0,39.0,40.0,0.4936708860759494,79.5166401628597,11236.281419330984,0.0,0.0,0.0,0.0,14450.0,14477.0,14574.0,14590.0,14599.0,14620.0,14628.0,14644.0,14816.0,14893.0,0.044934531219447564,-0.1395315826141653,0.0554790885244916,-0.14609394550206792,0.007426889560908697
15,15,15260.586212775492,991.99573483343,9.684379582188503,15382.54796540086,-9952.016834567208,9.609204367502937,15405.35140323284,44883.705032139675,9.605183418280202,15428.45203459914,-8973.682786242667,8.028258796581543,15647.62594802082,10948.33991358702,33.03838405760669,0.9781696517137752,124.0,95.0,70.0,247.0,317.0,29.0,796.0,797.0,29.0,15.0,14.0,0.5172413793103449,36.21355375000678,894.6045593173362,18.0,14.0,4.0,0.7777777777777778,1487.5910898768357,9690.229280132598,21.0,10.0,11.0,0.4761904761904761,2464.50765519933,45815.72228381857,16.0,3.0,13.0,0.1875,1461.1954658302225,22767.046731813283,80.0,40.0,40.0,0.5,84.24393855999217,11682.218872195142,0.0,0.0,0.0,0.0,15246.0,15275.0,15370.0,15386.0,15395.0,15416.0,15425.0,15440.0,15609.0,15687.0,0.03650575549711163,-0.14947634380097266,0.054908739228069096,-0.16283119212441355,0.00769467693046728
16,16,0.0,0.0,0.0,0.0,0.0,0.0,0.0,0.0,0.0,0.0,0.0,0.0,0.0,0.0,0.0,0.0,0.0,0.0,0.0,0.0,0.0,0.0,0.0,0.0,0.0,0.0,0.0,0.0,0.0,0.0,0.0,0.0,0.0,0.0,0.0,0.0,0.0,0.0,0.0,0.0,0.0,0.0,0.0,0.0,0.0,0.0,0.0,0.0,0.0,0.0,0.0,0.0,0.0,0.0,0.0,0.0,0.0,0.0,,15837.0,16182.0,16200.0,16208.0,16229.0,16237.0,16254.0,16429.0,16499.0,,,,,
17,17,0.0,0.0,0.0,0.0,0.0,0.0,0.0,0.0,0.0,0.0,0.0,0.0,0.0,0.0,0.0,0.0,0.0,0.0,0.0,0.0,0.0,0.0,0.0,0.0,0.0,0.0,0.0,0.0,0.0,0.0,0.0,0.0,0.0,0.0,0.0,0.0,0.0,0.0,0.0,0.0,0.0,0.0,0.0,0.0,0.0,0.0,0.0,0.0,0.0,0.0,0.0,0.0,0.0,0.0,0.0,0.0,0.0,0.0,,16726.0,17077.0,17095.0,17103.0,17124.0,17133.0,17148.0,17325.0,17397.0,,,,,
18,18,17882.591318724833,352.4474995284541,5.722167228672155,18011.972626301005,-10542.901867066956,11.372154903760851,18034.402020168855,44230.42042486796,9.587196426069733,18057.45203459914,-9359.588855207196,9.121538235183394,18282.494707084006,10411.796908089487,29.550330514581752,0.9766092982125564,126.0,107.0,70.0,250.0,320.0,19.0,2624.0,2629.0,19.0,10.0,9.0,0.5263157894736842,28.27058626167709,295.13383804400206,18.0,14.0,4.0,0.7777777777777778,1450.7006663585692,7833.070999098309,21.0,10.0,11.0,0.4761904761904761,2425.03779189975,44194.385301759685,17.0,4.0,13.0,0.2352941176470588,1434.9565661758184,23101.76993829084,75.0,37.0,38.0,0.4933333333333333,80.11064063893045,10827.68900158113,0.0,0.0,0.0,0.0,17873.0,17892.0,17999.0,18016.0,18024.0,18045.0,18054.0,18069.0,18246.0,18319.0,0.08021219131785817,-0.13759975049091064,0.0548273737532982,-0.1533140598774787,0.007694218524055936
19,19,18757.162726475897,729.8785516592998,7.191348935140496,18882.54796540086,-11011.66704810294,11.043992017728216,18904.99260491106,45387.12308600297,9.749083732564223,18927.45203459914,-10165.983560133764,10.61416386264175,19150.258449968667,10631.57337520782,30.258949781331737,0.9778584016101298,123.0,101.0,72.0,247.0,319.0,22.0,875.0,870.0,22.0,11.0,11.0,0.5,40.62631863499997,675.7315917689842,19.0,15.0,4.0,0.7894736842105263,1532.079865406521,9362.0224899818,22.0,11.0,11.0,0.5,2465.4030817634,43016.459236700844,18.0,3.0,15.0,0.1666666666666666,1499.2801531351254,24552.28028793597,77.0,38.0,39.0,0.4935064935064935,73.34344812487221,10985.121655413352,0.0,0.0,0.0,0.0,18746.0,18768.0,18869.0,18886.0,18894.0,18916.0,18924.0,18941.0,19113.0,19188.0,0.05566175159228948,-0.13913241825364342,0.05431943939455619,-0.14748008830297557,0.006898644775937365
20,20,19566.761653580692,1337.0976114448372,12.432956025742628,19689.972626301005,-9588.742087876177,9.135265967573266,19713.09156547397,45570.92590953745,9.52899814979192,19736.45203459914,-9117.610703765213,7.87543228359145,19956.34992093725,10972.1692544456,32.58264141261469,0.9831172322563296,128.0,95.0,69.0,249.0,318.0,33.0,807.0,808.0,33.0,17.0,16.0,0.5151515151515151,38.84509198252952,1250.7265603872963,17.0,13.0,4.0,0.7647058823529411,1435.8081969754917,8542.839838513428,22.0,11.0,11.0,0.5,2506.064926397512,45771.86520091491,16.0,4.0,12.0,0.25,1471.34534033062,22960.037227424527,80.0,40.0,40.0,0.5,81.81923967416702,11629.975895970938,0.0,0.0,0.0,0.0,19550.0,19583.0,19678.0,19694.0,19702.0,19724.0,19733.0,19747.0,19918.0,19996.0,0.029051799696623793,-0.14973895259847486,0.05499262690804846,-0.16137400335846896,0.007456979360851207
21,21,20409.0311156182,239.7185991765068,3.868157266324736,20535.972626301005,-10710.361900449028,12.10920271421532,20558.95976006556,47151.11991776315,9.592613420811444,20581.45203459914,-10420.63060713348,9.840827788803155,20805.775676022407,9947.668099077677,27.9208540194489,0.9759898055595568,120.0,108.0,71.0,247.0,318.0,12.0,844.0,846.0,12.0,6.0,6.0,0.5,41.09013775885487,248.54339728124265,18.0,14.0,4.0,0.7777777777777778,1479.415249422003,7417.220364118344,21.0,10.0,11.0,0.4761904761904761,2563.191996036461,44535.56686770141,17.0,3.0,14.0,0.1764705882352941,1573.014776208336,25349.403959778865,73.0,37.0,36.0,0.5068493150684932,78.68263637666205,10237.149847350543,0.0,0.0,0.0,0.0,20403.0,20415.0,20523.0,20540.0,20549.0,20570.0,20578.0,20594.0,20770.0,20841.0,0.1714098860080517,-0.13812934270316105,0.05436121136691888,-0.1509519755101503,0.00790965637303051
22,22,21328.334044603776,338.70685547560703,6.269350626763494,21459.972626301005,-10324.714352882836,10.874364259480275,21482.579430090507,44336.02213881137,9.549214249118476,21505.45203459914,-9281.657217539903,8.448408551306066,21731.214942513623,9549.318337707113,29.312835128407265,0.9810000942729252,128.0,108.0,70.0,251.0,321.0,20.0,919.0,924.0,20.0,9.0,11.0,0.45,29.95428012239823,367.2965304564989,18.0,14.0,4.0,0.7777777777777778,1440.2370692530396,7890.27965793527,22.0,11.0,11.0,0.5,2452.6288486102626,42489.31327405402,16.0,3.0,13.0,0.1875,1469.9610047732465,23163.997853406632,75.0,37.0,38.0,0.4933333333333333,73.69401597452907,9832.13734914903,0.0,0.0,0.0,0.0,21319.0,21339.0,21447.0,21464.0,21472.0,21494.0,21502.0,21517.0,21694.0,21768.0,0.08843718288588191,-0.13949413223726628,0.05531910014234796,-0.15837268823022302,0.007717201727743819
23,23,22281.31269912161,584.8070247243261,9.351400191819856,22412.972626301005,-10203.881566974123,9.8070734864043,22435.532966433,43561.92453316131,9.593091121446486,22458.15535783122,-8734.240939930043,7.968442205996063,22683.67848516745,10073.146166666716,31.37687459362326,0.980279199390963,133.0,104.0,69.0,253.0,322.0,29.0,952.0,953.0,29.0,14.0,15.0,0.4827586206896552,27.873175236895953,533.3406087693941,17.0,13.0,4.0,0.7647058823529411,1440.968776771815,8228.433591390216,22.0,11.0,11.0,0.5,2418.0992265493696,42251.63707977951,15.0,3.0,12.0,0.2,1427.4677708565373,22094.99184969752,78.0,39.0,39.0,0.5,73.05341596914963,10532.53625830882,0.0,0.0,0.0,0.0,22267.0,22296.0,22400.0,22417.0,22425.0,22447.0,22455.0,22469.0,22646.0,22722.0,0.04766217582635088,-0.14121770889968516,0.0555094673264172,-0.16343352337930475,0.007252293847466683
24,24,23247.977949304703,578.4353650818986,9.283976990343552,23375.972626301005,-10294.415266149988,10.19552303954239,23398.233416214756,43443.73674222324,9.524388398150256,23421.45203459914,-8626.63307145049,7.998940790812023,23648.311250900133,10081.10453360856,31.39875828998007,0.980658027541222,130.0,100.0,69.0,255.0,324.0,30.0,964.0,962.0,30.0,15.0,15.0,0.5,23.840476565738452,522.878746410372,18.0,14.0,4.0,0.7777777777777778,1451.641513943661,8379.116000109785,21.0,10.0,11.0,0.4761904761904761,2407.9234451301695,44166.120979849715,15.0,3.0,12.0,0.2,1403.1454304737515,21984.334000427727,78.0,39.0,39.0,0.5,74.77037580790706,10588.423962658764,0.0,0.0,0.0,0.0,23233.0,23263.0,23363.0,23380.0,23388.0,23409.0,23418.0,23432.0,23610.0,23687.0,0.041215454664261346,-0.14101252731827682,0.05542625072557107,-0.16265273123965449,0.007416883294745758
25,25,24196.330420085833,252.94778734898944,6.888483225054356,24321.54796540086,-10609.115503773415,10.004180496213252,24344.133515354337,43086.30050545285,9.682681610039255,24366.452034850772,-9150.603469320047,8.881211821237537,24593.92109565956,10121.692575469277,30.29913234317659,0.9788867913195618,125.0,102.0,70.0,253.0,323.0,23.0,952.0,946.0,23.0,12.0,11.0,0.5217391304347826,26.80312791065651,227.55580855993117,18.0,14.0,4.0,0.7777777777777778,1480.4225447448523,8724.314081827531,21.0,10.0,11.0,0.4761904761904761,2394.303158557918,42828.44901280927,17.0,3.0,14.0,0.1764705882352941,1455.7375168790595,22786.392531765985,76.0,38.0,38.0,0.5,74.63799102722484,10539.8694609109,0.0,0.0,0.0,0.0,24184.0,24207.0,24309.0,24325.0,24334.0,24355.0,24363.0,24379.0,24557.0,24632.0,0.1059630850760379,-0.13954250420011927,0.05556994057205964,-0.15908650415896897,0.007374062240154964
26,26,25081.839335489665,309.0686192954245,7.534379080418591,25207.972626301005,-10660.394841862002,9.837568126832226,25230.702789829233,44127.31983639949,9.706522399218114,25253.45203459914,-9823.566763805537,9.403008234896848,25477.255060966236,10598.151470429457,31.603296048358153,0.9791297778161044,125.0,101.0,71.0,250.0,321.0,24.0,887.0,887.0,25.0,13.0,12.0,0.52,23.565638613778702,281.0538996738149,17.0,13.0,4.0,0.7647058823529411,1464.8645866997806,7942.781125272981,21.0,11.0,10.0,0.5238095238095238,2445.0937947539237,42289.92841941112,17.0,3.0,14.0,0.1764705882352941,1464.865416023735,23674.56914778284,79.0,39.0,40.0,0.4936708860759494,79.30541693867423,11124.353871238942,0.0,0.0,0.0,0.0,25070.0,25094.0,25195.0,25212.0,25220.0,25241.0,25250.0,25266.0,25439.0,25516.0,0.07624727048478962,-0.1374118509145126,0.05540997739765353,-0.14911746937181328,0.00748294805560659
27,27,25901.08618719052,558.6775475526568,6.479684276540707,26023.54796540086,-10535.068264799864,10.168797358250124,26046.339732592933,45063.307706605236,9.699890198676243,26069.45203459914,-9778.698640182834,9.20052376620023,26291.395683260896,10435.999566839804,31.27152253485445,0.975869317130806,120.0,100.0,71.0,248.0,319.0,20.0,817.0,815.0,20.0,10.0,10.0,0.5,38.983143538192586,495.74271030890026,18.0,14.0,4.0,0.7777777777777778,1505.6203727005943,9219.043247131664,21.0,10.0,11.0,0.4761904761904761,2475.4920091223535,45151.03147027809,18.0,4.0,14.0,0.2222222222222222,1469.2195094400522,23758.377190853214,79.0,39.0,40.0,0.4936708860759494,73.2360295054139,10877.000820764824,0.0,0.0,0.0,0.0,25891.0,25911.0,26011.0,26027.0,26036.0,26057.0,26066.0,26082.0,26253.0,26330.0,0.06977753752403719,-0.14291510361933063,0.05493365079278243,-0.1502469360700722,0.007017634394899749
28,28,26476.575339099854,38.872435621490325,2.2540173606888136,26828.972626301005,-10689.68618478543,13.534630305709666,26851.41321464228,48488.92187222929,9.609898498946906,26874.027373698995,-10502.431939772036,10.939597466473854,27098.016176378664,9654.607488943731,27.21892278312369,0.9750381823285048,340.0,337.0,72.0,246.0,318.0,3.0,576.0,805.0,3.0,2.0,1.0,0.6666666666666666,20.377340291953185,33.35640937673894,19.0,15.0,4.0,0.7894736842105263,1527.5952590268755,8707.314837679629,21.0,10.0,11.0,0.4761904761904761,2548.866126936363,45635.31112350647,18.0,4.0,14.0,0.2222222222222222,1525.561949519851,25281.037945280583,71.0,36.0,35.0,0.5070422535211268,76.39856610118413,9896.219445644969,0.0,0.0,0.0,0.0,26475.0,26478.0,26815.0,26833.0,26841.0,26862.0,26870.0,26887.0,27063.0,27133.0,0.5242105354645628,-0.14290365803264582,0.05256594761279187,-0.14525797056038475,0.007913171632163636
29,29,0.0,0.0,0.0,0.0,0.0,0.0,0.0,0.0,0.0,0.0,0.0,0.0,0.0,0.0,0.0,0.0,0.0,0.0,0.0,0.0,0.0,0.0,0.0,0.0,0.0,0.0,0.0,0.0,0.0,0.0,0.0,0.0,0.0,0.0,0.0,0.0,0.0,0.0,0.0,0.0,0.0,0.0,0.0,0.0,0.0,0.0,0.0,0.0,0.0,0.0,0.0,0.0,0.0,0.0,0.0,0.0,0.0,0.0,,27341.0,27697.0,27713.0,27722.0,27743.0,27752.0,27767.0,27944.0,28017.0,,,,,
30,30,0.0,0.0,0.0,0.0,0.0,0.0,0.0,0.0,0.0,0.0,0.0,0.0,0.0,0.0,0.0,0.0,0.0,0.0,0.0,0.0,0.0,0.0,0.0,0.0,0.0,0.0,0.0,0.0,0.0,0.0,0.0,0.0,0.0,0.0,0.0,0.0,0.0,0.0,0.0,0.0,0.0,0.0,0.0,0.0,0.0,0.0,0.0,0.0,0.0,0.0,0.0,0.0,0.0,0.0,0.0,0.0,0.0,0.0,,28276.0,28631.0,28649.0,28657.0,28678.0,28686.0,28702.0,28881.0,28953.0,,,,,
31,31,29429.40678387296,1429.9146632876857,13.23810090915422,29555.54796540086,-10410.163697115566,9.488323124533236,29577.92730660589,44534.402581975904,9.660979786911453,29601.45203459915,-9223.651857965,8.450415953536027,29824.35644684606,11088.3643090548,33.0329071365518,0.9797691649827548,132.0,96.0,70.0,251.0,321.0,36.0,2951.0,2727.0,37.0,18.0,19.0,0.4864864864864865,39.245959146904546,1356.9646858268925,17.0,14.0,3.0,0.8235294117647058,1531.0843443325875,10094.454879288784,22.0,11.0,11.0,0.5,2457.653816647657,44363.182592890866,17.0,4.0,13.0,0.2352941176470588,1425.4770307230365,22694.782503690534,81.0,40.0,41.0,0.4938271604938271,85.362767566016,11785.095215276677,0.0,0.0,0.0,0.0,29411.0,29447.0,29543.0,29559.0,29567.0,29589.0,29598.0,29613.0,29786.0,29864.0,0.027446364566029086,-0.14707591435443212,0.05518551219192342,-0.15454584070105365,0.007698409358385569
32,32,30247.094331488104,568.628521720743,6.2247305516698965,30372.972626301005,-10662.76746206812,12.36893716159435,30396.089523182465,47211.646176871094,9.617095423580356,30418.45203459914,-10293.349071677889,11.626441588579205,30642.787753929104,9962.88453261686,27.912566562666736,0.9763000745991404,122.0,103.0,72.0,246.0,318.0,19.0,819.0,818.0,19.0,9.0,10.0,0.4736842105263157,40.96362243656687,557.1005102645341,18.0,14.0,4.0,0.7777777777777778,1460.575904664799,7088.541219539668,21.0,10.0,11.0,0.4761904761904761,2510.034737097286,43600.60056633668,18.0,3.0,15.0,0.1666666666666666,1538.896437987806,25390.744493198104,73.0,37.0,36.0,0.5068493150684932,77.98788239356175,10241.05987231779,0.0,0.0,0.0,0.0,30238.0,30257.0,30360.0,30377.0,30386.0,30407.0,30415.0,30432.0,30607.0,30678.0,0.07203933828821263,-0.13697906381815722,0.05316558392592012,-0.1495039590391502,0.007827841639461156
33,33,31113.127465154404,690.9987551879859,7.638536903587965,31237.972626301005,-10352.656466322054,11.451938037752326,31260.757704633725,45196.94786941165,9.568877327254803,31283.629286212497,-9669.410660835789,8.880485160209611,31508.937000508464,9892.195426966477,28.870097970697262,0.9799593350898884,124.0,101.0,70.0,250.0,320.0,23.0,867.0,865.0,23.0,12.0,11.0,0.5217391304347826,34.75414946547206,641.5112240007383,18.0,14.0,4.0,0.7777777777777778,1443.5553487013372,7587.318086725883,22.0,11.0,11.0,0.5,2482.944501221473,43322.04826656701,16.0,4.0,12.0,0.25,1418.6229541471116,22926.45616806699,74.0,37.0,37.0,0.5,73.61354296329118,10201.158319623268,0.0,0.0,0.0,0.0,31101.0,31124.0,31225.0,31242.0,31250.0,31272.0,31280.0,31295.0,31473.0,31545.0,0.05029553122135105,-0.13943815806091198,0.054936110031046544,-0.14671245269300529,0.007441577909249351
34,34,0.0,0.0,0.0,0.0,0.0,0.0,0.0,0.0,0.0,0.0,0.0,0.0,0.0,0.0,0.0,0.0,0.0,0.0,0.0,0.0,0.0,0.0,0.0,0.0,0.0,0.0,0.0,0.0,0.0,0.0,0.0,0.0,0.0,0.0,0.0,0.0,0.0,0.0,0.0,0.0,0.0,0.0,0.0,0.0,0.0,0.0,0.0,0.0,0.0,0.0,0.0,0.0,0.0,0.0,0.0,0.0,0.0,0.0,,31792.0,32143.0,32160.0,32168.0,32189.0,32198.0,32213.0,32391.0,32465.0,,,,,
35,35,32918.710717727445,204.42890546584823,5.105449273656004,33042.972626301,-10884.803347147752,10.539849056047528,33065.32109906267,44375.47436842689,9.666227383310304,33088.45203459916,-9613.534056305933,9.352846371095094,33312.57337476304,10565.202249098706,31.37905052300327,0.9763724903555452,118.0,104.0,71.0,251.0,322.0,14.0,1804.0,1804.0,18.0,9.0,9.0,0.5,29.335182708013583,132.58030757591166,18.0,14.0,4.0,0.7777777777777778,1489.761046026356,8207.416503874681,21.0,10.0,11.0,0.4761904761904761,2446.646390404908,44380.16381793056,18.0,4.0,14.0,0.2222222222222222,1441.580424808623,23377.421689635194,79.0,40.0,39.0,0.5063291139240507,74.75990621393764,10942.532830946682,0.0,0.0,0.0,0.0,32912.0,32926.0,33030.0,33047.0,33055.0,33076.0,33085.0,33101.0,33274.0,33352.0,0.14349821343104682,-0.13686614250286225,0.05513510391103998,-0.14995322389928273,0.007076050647332875
36,36,33759.441737099456,920.2909186785974,11.406927921166462,33884.54796540086,-10366.118622417782,9.908880273029675,33907.230503315855,44995.76244164834,9.606588429605395,33930.45203459914,-9538.533388853491,8.483006410289088,34153.46609590098,10406.726584878415,31.82953066004268,0.9830341953085128,130.0,96.0,70.0,250.0,320.0,34.0,839.0,842.0,34.0,17.0,17.0,0.5,24.067659328737303,827.4372184074543,18.0,14.0,4.0,0.7777777777777778,1511.0819996589237,9473.885752741688,21.0,10.0,11.0,0.4761904761904761,2488.6282265898335,45312.67734358984,17.0,4.0,13.0,0.2352941176470588,1468.8444264488633,23396.846679362596,79.0,39.0,40.0,0.4936708860759494,75.5436546242765,10954.787390823203,0.0,0.0,0.0,0.0,33742.0,33776.0,33872.0,33888.0,33897.0,33918.0,33927.0,33942.0,34115.0,34192.0,0.02615222951813425,-0.14577124328782576,0.055308057726928185,-0.1539905944204505,0.007259117841535864
37,37,0.0,0.0,0.0,0.0,0.0,0.0,0.0,0.0,0.0,0.0,0.0,0.0,0.0,0.0,0.0,0.0,0.0,0.0,0.0,0.0,0.0,0.0,0.0,0.0,0.0,0.0,0.0,0.0,0.0,0.0,0.0,0.0,0.0,0.0,0.0,0.0,0.0,0.0,0.0,0.0,0.0,0.0,0.0,0.0,0.0,0.0,0.0,0.0,0.0,0.0,0.0,0.0,0.0,0.0,0.0,0.0,0.0,0.0,,34425.0,34773.0,34790.0,34799.0,34820.0,34828.0,34843.0,35022.0,35096.0,,,,,
38,38,35613.704586027576,523.8115828649943,8.92425668273057,35740.54796540086,-10289.6435662114,10.252337513952613,35762.787422550275,43581.27803229157,9.623427908794016,35785.45354864155,-8752.281672468438,8.043117273808209,36013.66294993897,9920.74668398898,30.87404091489739,0.9813315067982816,128.0,100.0,69.0,255.0,324.0,28.0,1855.0,1856.0,30.0,15.0,15.0,0.5,28.278311834925443,438.8169169499291,18.0,15.0,3.0,0.8333333333333334,1494.2293453916309,9808.401915054435,22.0,11.0,11.0,0.5,2410.8721459738013,42932.05883707768,16.0,3.0,13.0,0.1875,1450.2727014517518,22351.520874906353,77.0,39.0,38.0,0.5064935064935064,70.65862532019946,10273.999214082129,0.0,0.0,0.0,0.0,35600.0,35628.0,35728.0,35744.0,35752.0,35774.0,35782.0,35797.0,35976.0,36052.0,0.05398565583497953,-0.145216822699117,0.055318986840804996,-0.16570224265219816,0.007122309194149155
39,39,36534.55817611295,550.0741535149363,6.482416484711729,36660.972626301,-10542.817487774451,10.801410114936797,36683.35854647116,43202.84864613385,9.608585987007803,36706.452034599155,-9088.652882909237,9.036171778759968,36933.40608547631,10405.432204907069,30.48855894460183,0.976902566513603,124.0,103.0,70.0,253.0,323.0,21.0,922.0,921.0,21.0,11.0,10.0,0.5238095238095238,36.15658758212971,499.44951156129343,18.0,14.0,4.0,0.7777777777777778,1440.3423922514824,7765.456663449053,21.0,10.0,11.0,0.4761904761904761,2381.890715976189,43436.217290935805,17.0,4.0,13.0,0.2352941176470588,1401.4517182952447,22482.25213520755,77.0,38.0,39.0,0.4935064935064935,79.97696954047491,10882.38131586435,0.0,0.0,0.0,0.0,36524.0,36545.0,36648.0,36665.0,36673.0,36694.0,36703.0,36718.0,36896.0,36971.0,0.06573038807784656,-0.13661835594913,0.05513272366564977,-0.15419795830585692,0.00768607857564617
40,40,37405.243389729294,678.6791776849802,7.328740677963925,37526.54796540086,-10665.72896461729,11.115724091862376,37549.21215666948,44792.53062903271,9.627219063887622,37572.45203459914,-9662.739479550166,9.654624771550177,37796.94078052635,10712.856853171224,31.35411688602887,0.9725706442790564,119.0,97.0,72.0,250.0,322.0,22.0,870.0,865.0,22.0,11.0,11.0,0.5,37.70927494129022,661.6921141874906,19.0,15.0,4.0,0.7894736842105263,1495.5616308856147,8654.807221585865,21.0,10.0,11.0,0.4761904761904761,2454.6825612062535,44071.63351112171,18.0,4.0,14.0,0.2222222222222222,1437.8648201831477,23572.427087150772,78.0,39.0,39.0,0.5,78.40815996620896,11258.00850374254,0.0,0.0,0.0,0.0,37394.0,37416.0,37513.0,37530.0,37539.0,37560.0,37569.0,37585.0,37759.0,37835.0,0.05556274036566004,-0.1402212296831301,0.05480115828988745,-0.14880509023617858,0.007319071004201698
41,41,38225.714530977384,730.2445970673066,7.801631455494842,38350.54796540086,-10910.707071261426,11.119626137798518,38373.05810934875,45937.55316246227,9.65901897284015,38396.027373699,-10129.120768948093,9.853974417793188,38620.47202842351,10251.924100684928,29.39631113458713,0.9806296964993332,123.0,100.0,71.0,249.0,320.0,23.0,819.0,824.0,23.0,12.0,11.0,0.5217391304347826,37.43025476897956,680.9974967742771,19.0,15.0,4.0,0.7894736842105263,1539.3133282960086,9363.54723730228,21.0,10.0,11.0,0.4761904761904761,2515.024579772823,44420.31083508244,17.0,4.0,13.0,0.2352941176470588,1458.5466669156124,24050.038202875483,75.0,37.0,38.0,0.4933333333333333,78.8432159778263,10616.728893865047,0.0,0.0,0.0,0.0,38214.0,38237.0,38337.0,38354.0,38363.0,38384.0,38392.0,38408.0,38584.0,38657.0,0.05125714715220223,-0.1410828205946916,0.0547487710300593,-0.14399538717979785,0.007690577417809679
42,42,39108.37668849711,559.0134567683218,6.568464277797616,39232.97262630074,-10783.02106991448,10.793451624859644,39256.13781532577,45514.701330136806,9.63052729614676,39278.452034599344,-10228.37813900148,9.331679014869382,39505.56394795797,9902.844500221438,29.557280257455588,0.9790928463211956,122.0,102.0,71.0,252.0,323.0,20.0,883.0,883.0,21.0,10.0,11.0,0.4761904761904761,38.60632461250804,539.1413868730737,17.0,13.0,4.0,0.7647058823529411,1449.577684516166,6980.382497445617,21.0,10.0,11.0,0.4761904761904761,2519.3039856341315,44317.15914674943,17.0,3.0,14.0,0.1764705882352941,1551.6081731807303,24738.13741560255,75.0,38.0,37.0,0.5066666666666667,73.33781096346681,10180.73613056966,0.0,0.0,0.0,0.0,39098.0,39118.0,39220.0,39237.0,39246.0,39267.0,39275.0,39291.0,39468.0,39543.0,0.06906152999552582,-0.13443149884595956,0.05535143397647687,-0.15169640309487056,0.007405731854299732
43,43,40069.398038504885,750.8951783123517,7.569405721155555,40198.54796540086,-10595.514792434544,11.330172929220888,40220.97820432703,44205.114380918414,9.63548318092273,40243.45203459914,-9340.43869967777,8.998053925941793,40472.39361097754,9843.626755531666,30.265827680837702,0.9782957387928416,127.0,105.0,70.0,255.0,325.0,22.0,964.0,965.0,23.0,11.0,12.0,0.4782608695652174,43.11238833305118,706.3384663333809,19.0,15.0,4.0,0.7894736842105263,1489.834813720355,8958.698096344699,21.0,10.0,11.0,0.4761904761904761,2428.263399691161,42954.89091308265,17.0,3.0,14.0,0.1764705882352941,1475.467774386242,23288.95889823095,77.0,38.0,39.0,0.4935064935064935,75.01309886608111,10222.897357072092,0.0,0.0,0.0,0.0,40058.0,40080.0,40185.0,40202.0,40211.0,40232.0,40240.0,40255.0,40435.0,40510.0,0.057414655970953125,-0.14060995080523445,0.054931729816750464,-0.15796557547528717,0.0076204737063935496
44,44,41022.65593854242,1253.6491397771488,10.905748365190256,41147.97262628938,-10308.828614309594,9.644097833209996,41170.80444451307,43151.85933201616,9.6055026776209,41193.45203461772,-8954.819755841265,8.62163961554814,41420.80734106568,10743.714290778416,32.056836339978865,0.980765189689145,129.0,99.0,69.0,255.0,324.0,30.0,951.0,950.0,30.0,16.0,14.0,0.5333333333333333,45.40473052392425,1152.3516599641855,17.0,13.0,4.0,0.7647058823529411,1422.7405441297392,7478.568507626673,22.0,11.0,11.0,0.5,2403.9018087400236,42277.46438403466,16.0,3.0,13.0,0.1875,1435.4071840641916,22544.73638457939,80.0,40.0,40.0,0.5,75.86230268902187,11217.562556821971,0.0,0.0,0.0,0.0,41007.0,41037.0,41136.0,41152.0,41160.0,41182.0,41190.0,41205.0,41382.0,41460.0,0.036218052629937186,-0.138011853466537,0.05570795432577036,-0.1602943692002142,0.007061087128325469
45,45,41924.77910931131,2057.88613614052,17.4517025392219,42046.54796540086,-9388.8580088076,8.235640824821216,42069.45885808603,44484.442533085625,9.507158932782138,42092.45203459914,-8337.214237019789,7.605745835458021,42316.457102702094,11251.931832869494,35.33227345307399,0.9838474305578784,133.0,86.0,68.0,255.0,323.0,47.0,900.0,898.0,48.0,23.0,25.0,0.4791666666666667,37.96187634251227,1910.859226758619,16.0,13.0,3.0,0.8125,1486.402728803325,9917.3642603381,21.0,10.0,11.0,0.4761904761904761,2444.511221877091,45938.732156013546,15.0,3.0,12.0,0.2,1440.193159291629,22039.54222805522,84.0,41.0,43.0,0.4880952380952381,81.8012355674576,12007.052389712895,0.0,0.0,0.0,0.0,41902.0,41949.0,42035.0,42050.0,42059.0,42080.0,42089.0,42103.0,42276.0,42358.0,0.01844702468024212,-0.15831560424163882,0.05495204801226784,-0.17274273136663917,0.007269972550713228
46,46,42843.0548104028,480.9676672692224,5.767079044457662,42966.972626301,-10650.799179299667,11.302838143174036,42989.60074094192,45301.13381652085,9.625650613098015,43012.45203459914,-9879.434000657802,9.25267443639335,43240.81724202742,9793.35546473505,29.626531801219,0.9787844599971042,120.0,102.0,70.0,254.0,324.0,18.0,922.0,921.0,18.0,9.0,9.0,0.5,38.423581688885456,470.27124369098334,18.0,14.0,4.0,0.7777777777777778,1466.2651368957854,7899.795449141455,22.0,11.0,11.0,0.5,2484.5558975570416,42755.77396132871,17.0,4.0,13.0,0.2352941176470588,1494.7815155372225,24102.16355924928,76.0,38.0,38.0,0.5,71.27754275699456,10073.608042838874,0.0,0.0,0.0,0.0,42834.0,42852.0,42954.0,42971.0,42979.0,43001.0,43009.0,43024.0,43204.0,43278.0,0.0798880762755676,-0.13766714705742844,0.0548453358280174,-0.15130234337692783,0.007278153337092509
47,47,43787.786972889066,912.1168744267524,8.479988870023638,43913.54796540086,-10590.85622670668,11.928064026435212,43935.49767217846,44163.588810215006,9.607044586814176,43958.45203459914,-9243.818125481986,9.189054494234762,44187.30505401394,9938.542690275952,30.49058507757211,0.9777948311425092,125.0,99.0,70.0,255.0,325.0,26.0,944.0,946.0,26.0,13.0,13.0,0.5,43.217553978167,847.1372008183524,19.0,16.0,3.0,0.8421052631578947,1506.4828754236205,9731.640716442536,22.0,10.0,12.0,0.4545454545454545,2401.0807679179065,43990.01852678936,17.0,4.0,13.0,0.2352941176470588,1433.9731525403788,22964.4289844282,77.0,38.0,39.0,0.4935064935064935,67.90584481980744,10243.6577105465,0.0,0.0,0.0,0.0,43775.0,43801.0,43900.0,43917.0,43925.0,43947.0,43955.0,43970.0,44149.0,44225.0,0.04738159679956407,-0.1422437282856095,0.0543678816102585,-0.1551277981754546,0.006832575653797587
48,48,44707.051973770846,941.442646936298,8.880695365676953,44831.54796540086,-10602.000012835066,10.334395073494004,44853.98087758476,44039.77522860309,9.6945707279764,44877.027373699,-9622.85990625214,9.436940613818829,45103.732608521714,10627.742176426862,31.669174378010055,0.9789714065447548,125.0,99.0,70.0,254.0,324.0,26.0,917.0,918.0,26.0,13.0,13.0,0.5,43.43123200897026,889.6553609946473,19.0,15.0,4.0,0.7894736842105263,1501.6059808858602,9403.367181309288,21.0,10.0,11.0,0.4761904761904761,2429.418105045288,43062.04943040248,17.0,4.0,13.0,0.2352941176470588,1397.1588457000971,22898.17911697268,79.0,40.0,39.0,0.5063291139240507,73.91761452777465,11098.300371416157,0.0,0.0,0.0,0.0,44694.0,44720.0,44819.0,44835.0,44844.0,44865.0,44873.0,44889.0,45065.0,45143.0,0.04613263712909853,-0.14163421798415163,0.055164180389990325,-0.14519164357701378,0.006955156918628447
49,49,45559.443940625664,1515.8297643859323,14.33552785576918,45678.54796540086,-9777.895601863307,8.821366489276945,45701.76312144916,44497.21027075745,9.535701634390888,45725.027373699,-8998.595018346678,8.350926571869342,45949.17883287222,10891.978060459982,33.188581879773004,0.983913922928799,127.0,86.0,70.0,252.0,322.0,41.0,853.0,848.0,42.0,19.0,23.0,0.4523809523809524,37.346865518812,1399.4765724681354,17.0,13.0,4.0,0.7647058823529411,1462.4992143647542,8873.68643955803,22.0,11.0,11.0,0.5,2459.821427655946,43607.119476440035,16.0,4.0,12.0,0.25,1392.0558155296444,22219.95559969724,82.0,41.0,41.0,0.5,76.99215703706287,11497.449064621114,0.0,0.0,0.0,0.0,45540.0,45581.0,45667.0,45682.0,45691.0,45713.0,45721.0,45737.0,45910.0,45989.0,0.024637902221125302,-0.1495719809164311,0.05528035157009572,-0.15469701800019536,0.007068702912335043
50,50,0.0,0.0,0.0,0.0,0.0,0.0,0.0,0.0,0.0,0.0,0.0,0.0,0.0,0.0,0.0,0.0,0.0,0.0,0.0,0.0,0.0,0.0,0.0,0.0,0.0,0.0,0.0,0.0,0.0,0.0,0.0,0.0,0.0,0.0,0.0,0.0,0.0,0.0,0.0,0.0,0.0,0.0,0.0,0.0,0.0,0.0,0.0,0.0,0.0,0.0,0.0,0.0,0.0,0.0,0.0,0.0,0.0,0.0,,46187.0,46532.0,46549.0,46558.0,46579.0,46587.0,46603.0,46781.0,46855.0,,,,,
51,51,47358.022489417446,356.6232501274002,5.730194489651464,47487.972626301,-10480.892688425443,11.036661344265456,47510.60797015001,44137.35737599602,9.57841986571362,47533.45203459914,-9243.867253429577,8.699487856788657,47762.55098394164,9841.518569111937,29.904947804415663,0.9785502345161368,126.0,108.0,70.0,255.0,325.0,18.0,1800.0,1809.0,18.0,9.0,9.0,0.5,32.90418702391163,364.27228312552825,18.0,14.0,4.0,0.7777777777777778,1436.7385707670298,7588.418378229448,22.0,11.0,11.0,0.5,2436.453090003549,42249.975082984245,16.0,3.0,13.0,0.1875,1458.280050777434,23036.40293979107,75.0,38.0,37.0,0.5066666666666667,70.0980627228149,10143.896721864385,0.0,0.0,0.0,0.0,47349.0,47367.0,47475.0,47492.0,47500.0,47522.0,47530.0,47545.0,47725.0,47800.0,0.092265961381253,-0.13708169842762438,0.05520160777293402,-0.1577564898756412,0.007122687645260451
52,52,48321.65822285209,270.4473141375469,4.720710703995971,48452.972626301,-10671.54632931734,12.438245275153934,48475.05358584419,44561.60249166678,9.638365026123008,48497.45203459914,-9295.47673510702,9.81826015653684,48727.07525801383,9730.283731964402,29.48522085071428,0.9733488941205642,125.0,111.0,71.0,255.0,326.0,14.0,964.0,964.0,16.0,8.0,8.0,0.5,34.65815545181437,274.5489058201574,19.0,15.0,4.0,0.7894736842105263,1469.452979845802,8304.117124817294,21.0,10.0,11.0,0.4761904761904761,2400.6156662605126,42463.5868615144,17.0,3.0,14.0,0.1764705882352941,1461.5265160992376,23277.57002891824,76.0,38.0,38.0,0.5,67.59924830807473,9986.46971882983,0.0,0.0,0.0,0.0,48314.0,48328.0,48439.0,48457.0,48465.0,48486.0,48494.0,48510.0,48690.0,48765.0,0.12815122813232144,-0.13769822427784964,0.053871843291754117,-0.1572298611193728,0.006947304947132043
53,53,49252.7521606901,987.365094876008,10.303658958040508,49376.972626301,-10555.83241404193,9.994858530118591,49399.35409267208,43415.76342254896,9.647146483994751,49422.45203459914,-9091.185319962156,8.68881968541518,49649.70282182533,10905.636375697311,32.18468008321805,0.978223794644388,127.0,96.0,70.0,255.0,325.0,31.0,931.0,925.0,31.0,16.0,15.0,0.5161290322580645,34.405656023240304,889.9163399527462,18.0,14.0,4.0,0.7777777777777778,1460.524725787542,8220.11203325749,21.0,10.0,11.0,0.4761904761904761,2404.8082142160333,44148.17286257605,16.0,3.0,13.0,0.1875,1412.7443291628588,22519.100668417377,80.0,40.0,40.0,0.5,79.81526713773783,11451.388052202305,0.0,0.0,0.0,0.0,49237.0,49268.0,49364.0,49381.0,49389.0,49410.0,49419.0,49434.0,49611.0,49689.0,0.034845931056091184,-0.13836187128593233,0.055390209100113205,-0.15539715443494442,0.007318717073274361
54,54,50123.300505775485,1082.2908457581364,11.94535179414861,50244.972626301,-9810.082051456402,9.267059050131058,50268.07555492532,44286.899660543386,9.537346399013629,50291.45203459914,-8864.498133762165,8.13559838736882,50515.81573697099,11023.404334874122,33.971954322540995,0.9801430571042876,128.0,92.0,70.0,254.0,324.0,36.0,870.0,868.0,37.0,18.0,19.0,0.4864864864864865,31.200096766528414,999.5329989157684,17.0,13.0,4.0,0.7647058823529411,1415.976591568612,7873.056752201608,22.0,11.0,11.0,0.5,2447.167154077635,44521.320897681035,17.0,4.0,13.0,0.2352941176470588,1417.7717235720288,22371.22463131359,82.0,41.0,41.0,0.5,74.29960371461614,11661.135708873047,0.0,0.0,0.0,0.0,50105.0,50141.0,50233.0,50249.0,50257.0,50279.0,50288.0,50303.0,50476.0,50557.0,0.028827830235109295,-0.14433891420494252,0.05525713411494222,-0.15993818287040634,0.00674016859560877
55,55,50972.52558613464,210.297900993127,4.005529084903044,51098.972626301,-10951.37962049257,11.867655840190208,51121.34420377709,46491.87889295609,9.760622338570368,51143.45203459914,-10412.348438982308,9.902992712075385,51371.27324250483,9631.990685694198,28.681991158777382,0.978207912829172,118.0,107.0,71.0,252.0,323.0,11.0,849.0,853.0,13.0,7.0,6.0,0.5384615384615384,36.29328856496254,218.90635344868576,19.0,15.0,4.0,0.7894736842105263,1511.6377476919608,8806.353066037711,21.0,10.0,11.0,0.4761904761904761,2505.876016487203,44969.1731130418,18.0,3.0,15.0,0.1666666666666666,1568.175512093109,25035.58220367606,74.0,37.0,37.0,0.5,71.24798385615416,9877.22781372877,0.0,0.0,0.0,0.0,50967.0,50978.0,51085.0,51103.0,51111.0,51132.0,51140.0,51156.0,51335.0,51408.0,0.17258036525123796,-0.13803171838398665,0.05389922016825317,-0.15060728338883567,0.007397015443751872
56,56,0.0,0.0,0.0,0.0,0.0,0.0,0.0,0.0,0.0,0.0,0.0,0.0,0.0,0.0,0.0,0.0,0.0,0.0,0.0,0.0,0.0,0.0,0.0,0.0,0.0,0.0,0.0,0.0,0.0,0.0,0.0,0.0,0.0,0.0,0.0,0.0,0.0,0.0,0.0,0.0,0.0,0.0,0.0,0.0,0.0,0.0,0.0,0.0,0.0,0.0,0.0,0.0,0.0,0.0,0.0,0.0,0.0,0.0,,51658.0,52007.0,52024.0,52032.0,52054.0,52062.0,52077.0,52258.0,52332.0,,,,,
57,57,52830.17697887968,473.282967900003,6.068035320692852,52958.54796540086,-10558.01736989218,10.735114160986614,52981.02751415309,43670.2461425463,9.741511836825326,53003.45203459914,-9448.080133847248,9.613430206146932,53232.87334773443,10308.375247522104,29.962276579642225,0.9761056300242692,125.0,106.0,71.0,254.0,325.0,19.0,1858.0,1860.0,19.0,10.0,9.0,0.5263157894736842,34.988391212111345,467.3674771393811,19.0,15.0,4.0,0.7894736842105263,1480.0043048562216,9137.700625102938,21.0,10.0,11.0,0.4761904761904761,2392.5004600874513,42398.45833068772,17.0,3.0,14.0,0.1764705882352941,1453.38744966326,23251.98768253984,77.0,39.0,38.0,0.5064935064935064,75.23891920609209,10712.065608081124,0.0,0.0,0.0,0.0,52820.0,52839.0,52945.0,52962.0,52971.0,52992.0,53000.0,53016.0,53195.0,53270.0,0.07392700262880329,-0.14017824114181537,0.054785595947363507,-0.15382886566092682,0.007298814546373619
58,58,53703.13520634584,1071.8530708679998,9.757285739448594,53825.54796540086,-10943.429457837212,10.1488950518862,53847.65063729845,44655.119643133665,9.77977920322281,53870.45203460006,-9731.100151321263,9.036647587069996,54095.77929932334,10998.053730289135,32.238902742838924,0.9802437811868072,122.0,95.0,71.0,252.0,323.0,27.0,873.0,867.0,27.0,13.0,14.0,0.4814814814814814,42.46239494170152,1024.4567371324842,18.0,15.0,3.0,0.8333333333333334,1550.676590094604,10350.295413236094,22.0,11.0,11.0,0.5,2461.986560678335,43018.078400404585,17.0,3.0,14.0,0.1764705882352941,1479.8418513869558,23589.209180121976,80.0,40.0,40.0,0.5,85.32774357300501,11636.009309612096,0.0,0.0,0.0,0.0,53690.0,53717.0,53812.0,53829.0,53837.0,53859.0,53867.0,53883.0,54057.0,54135.0,0.03961587282416885,-0.14169932707740684,0.05513335492892133,-0.15207343757386227,0.00775844032640144
59,59,54490.53423135795,1360.082558896379,12.6776206214572,54614.54796540086,-10485.242617428456,9.902402719321405,54636.91266637155,45760.001933823296,9.805232123505627,54659.45203459934,-9863.48334988686,8.82747676017096,54884.477959452604,10774.349036481655,30.496540225238284,0.9866693190966314,128.0,94.0,70.0,250.0,320.0,34.0,788.0,789.0,36.0,18.0,18.0,0.5,37.90095022345087,1287.3346326576968,18.0,15.0,3.0,0.8333333333333334,1548.2452130785705,10984.08699975706,22.0,11.0,11.0,0.5,2507.712222002976,44739.52611823453,17.0,3.0,14.0,0.1764705882352941,1536.7641210306283,24117.539726792187,77.0,38.0,39.0,0.4935064935064935,78.8945050037267,11238.255110789698,0.0,0.0,0.0,0.0,54474.0,54508.0,54602.0,54618.0,54626.0,54648.0,54656.0,54672.0,54847.0,54922.0,0.027866654105325118,-0.14765945525238436,0.0548014011369482,-0.15580338776039562,0.007322438203606737
60,60,55304.812155713,229.00883652247393,4.292587153206425,55434.972626301,-10550.172652450472,12.407672204813226,55457.3473330334,45779.81433450352,9.5298046970241,55480.45203459914,-9672.688987242213,8.935030084586401,55706.62335146335,9913.956564628306,28.44789750831586,0.9757953296505756,123.0,109.0,71.0,251.0,322.0,14.0,814.0,821.0,14.0,7.0,7.0,0.5,31.643951648466818,214.7621041065068,19.0,15.0,4.0,0.7894736842105263,1479.1000158675686,8097.177237682443,21.0,10.0,11.0,0.4761904761904761,2485.4414072042196,45117.24991759784,17.0,4.0,13.0,0.2352941176470588,1478.4572416166027,23811.481109181343,73.0,37.0,36.0,0.5068493150684932,73.80415942867351,10118.396291219,0.0,0.0,0.0,0.0,55298.0,55312.0,55421.0,55439.0,55447.0,55468.0,55477.0,55492.0,55671.0,55743.0,0.13817786304224736,-0.1401967592941733,0.05429120767165239,-0.15284862808745459,0.007444470726450129
61,61,56211.88140096686,556.5226552288481,6.9934945676162,56341.972626301,-10319.782656376135,11.265674407129575,56364.630851614354,44050.799212968974,9.546548099728852,56387.45203459914,-9123.32141229339,8.624467778299564,56615.79239436273,10003.07859333678,29.591017652782917,0.9776569766039908,128.0,106.0,70.0,254.0,324.0,22.0,908.0,907.0,22.0,11.0,11.0,0.5,36.8210929627656,556.9084887205129,18.0,14.0,4.0,0.7777777777777778,1426.3662476793395,7508.753404233195,22.0,11.0,11.0,0.5,2427.9502512515787,42172.23251191425,16.0,3.0,13.0,0.1875,1449.5653462707814,22904.91738026016,76.0,38.0,38.0,0.5,75.10019290028103,10300.458966991757,0.0,0.0,0.0,0.0,56201.0,56223.0,56329.0,56346.0,56354.0,56376.0,56384.0,56399.0,56579.0,56653.0,0.06616279250594816,-0.1382166945926958,0.05511705337089019,-0.15888570409429373,0.007507707972054377
62,62,57150.16622382936,871.8367519385193,9.321800773487888,57276.972626301,-10331.582706110665,10.396342914063528,57299.44468475264,43163.38322800393,9.548639202899032,57322.45203459914,-8726.999342167937,8.196813258484939,57550.59502671191,10340.44760890205,31.072841448939737,0.9795979299261192,127.0,100.0,70.0,255.0,325.0,27.0,938.0,935.0,27.0,13.0,14.0,0.4814814814814814,37.44579903530992,836.105279041271,18.0,14.0,4.0,0.7777777777777778,1430.5499161226112,7782.8372468923135,22.0,10.0,12.0,0.4545454545454545,2391.684128284879,44180.44680665259,15.0,3.0,12.0,0.2,1410.8279247934452,22147.71962261655,77.0,39.0,38.0,0.5064935064935064,74.49255372185925,10751.984689248467,0.0,0.0,0.0,0.0,57137.0,57164.0,57264.0,57281.0,57289.0,57311.0,57319.0,57334.0,57512.0,57589.0,0.04295047089039272,-0.1384637723779248,0.05541002464174728,-0.16166243051909882,0.007203997016311838
63,63,58088.441620228376,1101.06430502178,9.31004804203928,58214.972626301,-10471.400872331034,10.628061524763128,58237.174386960134,43141.7670450925,9.61405656047762,58260.45203459914,-8984.493459144487,8.89344541884819,58488.41791241125,10591.461342964669,30.877967480451485,0.9776359440083968,127.0,100.0,70.0,255.0,325.0,27.0,939.0,937.0,27.0,13.0,14.0,0.4814814814814814,46.14154230457416,1073.7978773158902,18.0,14.0,4.0,0.7777777777777778,1448.1950187395298,8249.229236757295,21.0,10.0,11.0,0.4761904761904761,2378.7187459881543,43137.09152200531,17.0,4.0,13.0,0.2352941176470588,1386.230253747096,22243.38911714079,78.0,39.0,39.0,0.5,75.00606826730436,11030.863993152336,0.0,0.0,0.0,0.0,58075.0,58102.0,58202.0,58219.0,58227.0,58248.0,58257.0,58272.0,58450.0,58527.0,0.04190631018926859,-0.13830002655768328,0.05513725813552972,-0.15429141999498927,0.007081748763321202
64,64,58960.35583589401,1358.403300389428,11.207701926283187,59082.54796540084,-10323.737767519757,9.877949043619624,59105.08833378396,43854.145105547635,9.638855752236449,59128.452034606584,-9272.093097523417,8.838401643510426,59353.21244593563,10978.97783127724,32.54847547750824,0.9803363787472276,125.0,93.0,70.0,253.0,323.0,32.0,870.0,868.0,33.0,16.0,17.0,0.4848484848484848,43.064084466212094,1292.2507107785216,18.0,14.0,4.0,0.7777777777777778,1490.888765296288,9404.543361603022,21.0,10.0,11.0,0.4761904761904761,2425.710332902979,43733.57060224126,17.0,4.0,13.0,0.2352941176470588,1409.4506367380516,22750.27225715394,80.0,40.0,40.0,0.5,84.12770645718562,11679.322635026698,0.0,0.0,0.0,0.0,58945.0,58977.0,59070.0,59086.0,59095.0,59116.0,59125.0,59140.0,59315.0,59393.0,0.03170198751274121,-0.14441366091134927,0.055313136923882754,-0.15200997465335167,0.007662617390256505
65,65,59780.60330530889,615.0486228169631,7.487991076036531,59904.54796540086,-10422.747890403349,11.36727852262328,59927.07862638,45183.63084355884,9.724889141777922,59950.027373699,-9926.159037711006,9.373948919314206,60174.66503504661,10706.508982249596,31.4129964347586,0.9743564090366302,121.0,99.0,71.0,251.0,322.0,22.0,821.0,822.0,24.0,12.0,12.0,0.5,35.513689453520655,513.0947143384025,19.0,15.0,4.0,0.7894736842105263,1496.5578933625677,9577.408196100065,21.0,10.0,11.0,0.4761904761904761,2452.629512408445,43931.851089104755,17.0,4.0,13.0,0.2352941176470588,1445.49884290946,23483.812552167357,79.0,40.0,39.0,0.5063291139240507,81.55841003618552,11240.386518719197,0.0,0.0,0.0,0.0,59770.0,59792.0,59891.0,59908.0,59917.0,59938.0,59946.0,59962.0,60136.0,60213.0,0.05774127139878084,-0.14358573277403264,0.05428137284717746,-0.1456251947422752,0.0076176473742656774
66,66,0.0,0.0,0.0,0.0,0.0,0.0,0.0,0.0,0.0,0.0,0.0,0.0,0.0,0.0,0.0,0.0,0.0,0.0,0.0,0.0,0.0,0.0,0.0,0.0,0.0,0.0,0.0,0.0,0.0,0.0,0.0,0.0,0.0,0.0,0.0,0.0,0.0,0.0,0.0,0.0,0.0,0.0,0.0,0.0,0.0,0.0,0.0,0.0,0.0,0.0,0.0,0.0,0.0,0.0,0.0,0.0,0.0,0.0,,60366.0,60714.0,60732.0,60741.0,60762.0,60770.0,60786.0,60964.0,61036.0,,,,,
67,67,61531.10019456831,1154.931818929677,12.243382147767685,61657.54796540086,-9597.263544544936,9.20832943006048,61680.60194643027,44520.2174573471,9.426656457360606,61703.45203459914,-8649.425547794666,7.295063743752915,61931.27476761538,10223.982379590603,32.32707871053439,0.9834380160360991,133.0,97.0,68.0,257.0,325.0,36.0,1749.0,1754.0,36.0,18.0,18.0,0.5,30.032991509951877,1024.6599841473658,17.0,13.0,4.0,0.7647058823529411,1456.5979855492185,8979.411358773054,22.0,11.0,11.0,0.5,2473.1237881866064,43520.843046758775,15.0,3.0,12.0,0.2,1478.5831092365415,22469.96117145734,81.0,40.0,41.0,0.4938271604938271,74.2973212152181,10690.519269824405,0.0,0.0,0.0,0.0,61513.0,61549.0,61646.0,61661.0,61670.0,61692.0,61700.0,61714.0,61892.0,61971.0,0.026004125107389187,-0.15177221911105543,0.05555057745519774,-0.17094581611995424,0.00726696491217869
68,68,62498.340597342634,1139.1416881893535,10.769203812122903,62623.54796540086,-10128.308388326335,9.805715057820205,62646.19247057583,43192.23740529855,9.538321153786711,62668.87669549929,-8626.861241158209,7.846977132034748,62898.17091862245,10187.133215174686,31.524882878137323,0.9825656000708108,128.0,98.0,69.0,257.0,326.0,30.0,966.0,965.0,31.0,15.0,16.0,0.4838709677419355,40.86990879157635,1073.7361812018012,18.0,14.0,4.0,0.7777777777777778,1464.0768654684553,8890.960715703257,21.0,10.0,11.0,0.4761904761904761,2403.7148795898233,43761.15424926997,15.0,4.0,11.0,0.2666666666666666,1393.765506629824,21575.042207264505,79.0,39.0,40.0,0.4936708860759494,75.29668398631541,10646.624564295962,0.0,0.0,0.0,0.0,62483.0,62513.0,62611.0,62627.0,62636.0,62657.0,62666.0,62680.0,62860.0,62937.0,0.0358778097714415,-0.1445529509306725,0.055651548148208475,-0.16156113650933168,0.007391351658595568
69,69,63438.89228928315,857.9555896404971,8.106524009607975,63561.97262630029,-10531.061718202558,10.49511806729234,63584.75818250046,43157.52541469691,9.652300681361949,63607.45203459926,-9154.846714653584,9.341508646003502,63836.87709855521,10678.626148015856,31.136530794276037,0.9775589996474204,122.0,98.0,71.0,255.0,326.0,24.0,944.0,939.0,24.0,12.0,12.0,0.5,44.93819664545231,823.6920965026807,18.0,14.0,4.0,0.7777777777777778,1419.817885955959,7198.572265968094,22.0,11.0,11.0,0.5,2383.853821902472,41558.011126387195,17.0,3.0,14.0,0.1764705882352941,1423.680113343606,22755.386116371817,78.0,39.0,39.0,0.5,79.71919349997175,11089.500156237667,0.0,0.0,0.0,0.0,63427.0,63451.0,63549.0,63566.0,63574.0,63596.0,63604.0,63620.0,63799.0,63875.0,0.052378231680129776,-0.134821912922783,0.05523611001780635,-0.15551108147608975,0.007465304281186395
70,70,64331.651970612045,1364.8476091797556,11.514970635003127,64453.547965400816,-10541.779303322628,9.725701957759696,64475.98671049681,43922.89619898036,9.71455569083674,64499.02737370709,-9399.888871887157,8.95345733897377,64725.49688869712,10907.805343868324,32.62398852115844,0.9810825827110736,125.0,94.0,70.0,254.0,324.0,31.0,891.0,891.0,31.0,16.0,15.0,0.5161290322580645,45.77385807886221,1285.5687585394635,17.0,14.0,3.0,0.8235294117647058,1509.7514562306817,9687.928222926064,22.0,11.0,11.0,0.5,2431.279727951874,43484.99874638171,17.0,4.0,13.0,0.2352941176470588,1398.7026115461424,22567.262793407113,80.0,39.0,41.0,0.4875,76.43664216235811,11465.318933680786,0.0,0.0,0.0,0.0,64316.0,64347.0,64441.0,64457.0,64465.0,64487.0,64495.0,64511.0,64687.0,64765.0,0.033537706166603704,-0.14321599919615355,0.055353356412055424,-0.14879990929779296,0.007007517988513239
71,71,65161.94839809829,1332.1144329503811,12.434195209407342,65283.97262629934,-9997.293074203148,9.259408090321356,65307.04724244605,44954.76342973247,9.674142107239192,65329.62630754026,-9510.412718799553,8.648986388843163,65555.22478858955,10563.600106416823,31.803528016043177,0.9841534874631134,128.0,93.0,70.0,252.0,322.0,35.0,832.0,831.0,35.0,18.0,17.0,0.5142857142857142,37.0534681682579,1229.225161154875,17.0,13.0,4.0,0.7647058823529411,1441.2345348584506,8389.222639291282,22.0,11.0,11.0,0.5,2480.8027951719228,44427.637670598546,16.0,4.0,12.0,0.25,1434.0471343778734,22836.60004888816,79.0,39.0,40.0,0.4936708860759494,78.02689166621022,11093.982616075997,0.0,0.0,0.0,0.0,65144.0,65179.0,65272.0,65288.0,65296.0,65318.0,65326.0,65342.0,65517.0,65594.0,0.027815529395767816,-0.1441624771986918,0.0551844255403456,-0.15078705591221547,0.0073863920330355035
72,72,66013.37714003144,239.24249930535316,4.549716005899346,66140.54796540085,-10679.585623874764,11.14575328302636,66163.22046012254,45469.7885077103,9.613379345272696,66186.0273771947,-9894.245659345392,8.839349293316939,66413.75444248533,9979.12804116373,29.661559946892066,0.978692543344315,121.0,107.0,71.0,253.0,324.0,14.0,850.0,856.0,14.0,7.0,7.0,0.5,34.396961074973085,291.102888990725,19.0,15.0,4.0,0.7894736842105263,1512.1506832985854,8951.777605049912,21.0,10.0,11.0,0.4761904761904761,2501.639653461617,45013.66786706583,17.0,4.0,13.0,0.2352941176470588,1477.063612822697,23684.36824034771,75.0,38.0,37.0,0.5066666666666667,76.69621123153787,10360.229531401455,0.0,0.0,0.0,0.0,66006.0,66020.0,66127.0,66144.0,66153.0,66174.0,66182.0,66198.0,66377.0,66451.0,0.14377445970028552,-0.14159263632084138,0.05501762237221347,-0.14928511618544352,0.0076856626065090385
73,73,0.0,0.0,0.0,0.0,0.0,0.0,0.0,0.0,0.0,0.0,0.0,0.0,0.0,0.0,0.0,0.0,0.0,0.0,0.0,0.0,0.0,0.0,0.0,0.0,0.0,0.0,0.0,0.0,0.0,0.0,0.0,0.0,0.0,0.0,0.0,0.0,0.0,0.0,0.0,0.0,0.0,0.0,0.0,0.0,0.0,0.0,0.0,0.0,0.0,0.0,0.0,0.0,0.0,0.0,0.0,0.0,0.0,0.0,,66699.0,67049.0,67067.0,67075.0,67096.0,67104.0,67120.0,67301.0,67375.0,,,,,
74,74,67876.22895946284,946.4481953636928,10.586554729984591,68002.972626301,-9836.17659675534,9.731697090025191,68025.94676421874,42932.98342107388,9.439524210592683,68049.45203459915,-8360.59589679669,7.868355909975244,68276.97063081079,10514.78472584479,32.11991574176072,0.9782091117432704,130.0,99.0,69.0,256.0,325.0,31.0,1860.0,1863.0,32.0,16.0,16.0,0.5,33.109417092666135,863.0605220282988,17.0,13.0,4.0,0.7647058823529411,1386.4148832943577,7154.058237155969,21.0,10.0,11.0,0.4761904761904761,2385.568330349239,43002.77949516068,16.0,4.0,12.0,0.25,1361.9814361341098,21440.874378323933,80.0,40.0,40.0,0.5,72.23279109126251,10978.451746820465,0.0,0.0,0.0,0.0,67861.0,67892.0,67991.0,68007.0,68016.0,68037.0,68046.0,68060.0,68238.0,68316.0,0.03498280968240754,-0.1409505888448256,0.055564932605598305,-0.16290482795083355,0.006869640508542044
75,75,68755.88072889757,724.8475156749264,8.750231149729657,68878.972626301,-10459.163943501608,10.05208066806586,68901.81535239145,44163.6834043632,9.63137616459586,68925.027373699,-9306.123120939084,9.124733425648174,69150.55559039718,10865.497918284536,31.573383817588645,0.9775022797293778,123.0,97.0,71.0,253.0,324.0,26.0,882.0,876.0,26.0,13.0,13.0,0.5,33.809984732561226,680.9476325484663,17.0,13.0,4.0,0.7647058823529411,1442.504121943751,7647.1251599132465,22.0,11.0,11.0,0.5,2440.20938433554,43031.71147620429,17.0,4.0,13.0,0.2352941176470588,1384.4822450443494,22514.163094895503,80.0,40.0,40.0,0.5,75.76507918251531,11299.717891759658,0.0,0.0,0.0,0.0,68743.0,68769.0,68866.0,68883.0,68891.0,68913.0,68921.0,68937.0,69112.0,69190.0,0.046644272072974925,-0.1379177274336535,0.05525375594225135,-0.14877110769459073,0.006972996520943352
76,76,69579.35243486038,966.3101511410784,10.882172452197848,69702.972626301,-9982.574005297573,9.283941829642863,69725.92644111103,44912.950327980405,9.66263519919054,69748.6672782239,-9158.358347727151,8.32197090733043,69972.60531020559,11136.455091761232,33.46801970285362,0.978885155207003,128.0,96.0,69.0,253.0,322.0,32.0,823.0,824.0,32.0,16.0,16.0,0.5,31.97983244826343,902.432903013818,17.0,13.0,4.0,0.7647058823529411,1448.7082397965048,8576.530343072103,22.0,11.0,11.0,0.5,2473.7560725837243,44409.607882169556,16.0,4.0,12.0,0.25,1418.7847523295973,22366.321400542125,82.0,41.0,41.0,0.5,81.09058239600212,11842.507763232985,0.0,0.0,0.0,0.0,69563.0,69595.0,69691.0,69707.0,69715.0,69737.0,69745.0,69760.0,69933.0,70013.0,0.03309479095350461,-0.14512371649112757,0.0550789038466394,-0.15491692926404219,0.0072815435188162405
77,77,0.0,0.0,0.0,0.0,0.0,0.0,0.0,0.0,0.0,0.0,0.0,0.0,0.0,0.0,0.0,0.0,0.0,0.0,0.0,0.0,0.0,0.0,0.0,0.0,0.0,0.0,0.0,0.0,0.0,0.0,0.0,0.0,0.0,0.0,0.0,0.0,0.0,0.0,0.0,0.0,0.0,0.0,0.0,0.0,0.0,0.0,0.0,0.0,0.0,0.0,0.0,0.0,0.0,0.0,0.0,0.0,0.0,0.0,,70176.0,70523.0,70540.0,70549.0,70570.0,70578.0,70594.0,70772.0,70845.0,,,,,
78,78,71311.96795035082,561.5400097307288,6.936716751900713,71439.54796540085,-10503.0303111108,11.019028406507742,71462.00727016953,44527.538848134194,9.627297256441564,71484.60674573496,-9350.741994477628,8.695449963941774,71713.31032090519,10126.013926921742,29.857424560969704,0.9779195164671712,124.0,104.0,70.0,255.0,325.0,20.0,1736.0,1736.0,21.0,10.0,11.0,0.4761904761904761,39.48646886884582,540.6761572910347,19.0,15.0,4.0,0.7894736842105263,1495.7148225769786,9285.483756269432,21.0,10.0,11.0,0.4761904761904761,2451.659447936393,43663.11170389304,16.0,4.0,12.0,0.25,1410.3921464078417,22482.222872056285,76.0,38.0,38.0,0.5,76.13754899110954,10460.995383335076,0.0,0.0,0.0,0.0,71302.0,71322.0,71426.0,71443.0,71452.0,71473.0,71481.0,71496.0,71676.0,71751.0,0.07031817534743513,-0.14240793164185317,0.05505939720356054,-0.150832110140649,0.007519004964893918
79,79,72270.33782666303,766.1199829096958,9.165764179336554,72400.972626301,-10230.43506619664,10.439840896582712,72423.68773976303,43531.46855750595,9.519491677525158,72446.51052244486,-8702.912697373082,8.026163677776541,72676.23661509568,10341.694649538716,30.739517628387382,0.9780414690913054,132.0,103.0,70.0,256.0,326.0,29.0,958.0,962.0,29.0,14.0,15.0,0.4827586206896552,31.00922504016897,692.0920617193044,17.0,13.0,4.0,0.7647058823529411,1418.904386989827,7436.802057879064,22.0,11.0,11.0,0.5,2416.577307315356,42527.67271361871,15.0,4.0,11.0,0.2666666666666666,1355.6596545714722,21301.162995477025,78.0,39.0,39.0,0.5,74.5525980473522,10744.072611346495,0.0,0.0,0.0,0.0,72256.0,72285.0,72388.0,72405.0,72413.0,72435.0,72443.0,72458.0,72638.0,72714.0,0.040475677089634274,-0.13869443262273026,0.055513342126811284,-0.15577079785951078,0.007208934374278549
80,80,73216.1905045279,936.420862687232,10.580982040475046,73345.54796540085,-10066.702983259776,9.69343055902322,73367.99424472186,43060.0750951892,9.547083888494482,73390.87669549929,-8452.335143073362,7.775037572221106,73619.40065740497,10525.478578518483,31.53602243520471,0.981134860096732,133.0,101.0,69.0,256.0,325.0,32.0,943.0,944.0,32.0,16.0,16.0,0.5,30.96399953128066,870.5173648506924,18.0,14.0,4.0,0.7777777777777778,1473.35654367882,9331.40720104378,21.0,10.0,11.0,0.4761904761904761,2393.2762358646823,43270.90745844453,15.0,4.0,11.0,0.2666666666666666,1367.1396659413974,21222.28532742406,79.0,39.0,40.0,0.4936708860759494,77.17984922145236,10984.09901463338,0.0,0.0,0.0,0.0,73200.0,73232.0,73333.0,73349.0,73358.0,73379.0,73388.0,73402.0,73581.0,73658.0,0.033066328149101425,-0.1463593935500937,0.055579936416136594,-0.16174697794156448,0.00733266888015612
81,81,74184.83088223645,987.9137674332812,9.282003839715632,74312.972626301,-10392.369776786962,10.509099949933804,74335.12929083202,42797.83136376565,9.546466566479706,74358.4520346024,-8731.565149891083,8.392540885061818,74587.82643151694,10596.4663010864,31.33213156202741,0.9769204450966658,129.0,102.0,70.0,256.0,326.0,27.0,970.0,967.0,27.0,14.0,13.0,0.5185185185185185,39.37173012534948,913.6759781899282,18.0,14.0,4.0,0.7777777777777778,1445.488607647426,8158.824035644082,21.0,10.0,11.0,0.4761904761904761,2372.756920535356,43022.879513604246,16.0,4.0,12.0,0.25,1375.9004810128451,21894.393738801155,79.0,40.0,39.0,0.5063291139240507,80.02156191890214,11089.17973892039,0.0,0.0,0.0,0.0,74171.0,74198.0,74300.0,74317.0,74325.0,74346.0,74355.0,74370.0,74549.0,74626.0,0.03985340767913577,-0.13909133707656926,0.05544105495364485,-0.15757776038927088,0.00755172145554768
82,82,75108.78383756684,1072.475773414418,9.689064749102046,75231.54796540085,-10410.227210208126,9.818469699266585,75254.18746761068,43466.17563184241,9.610974821201832,75277.45203459915,-9248.91835573118,8.959243968501116,75504.94866361214,10975.97369788501,32.241987575571294,0.9802799931925836,125.0,97.0,70.0,255.0,325.0,28.0,925.0,919.0,28.0,15.0,13.0,0.5357142857142857,42.89714056605361,1008.319337329786,18.0,14.0,4.0,0.7777777777777778,1482.8490464084714,8863.019850406787,21.0,10.0,11.0,0.4761904761904761,2415.978163313182,43566.40462424003,17.0,4.0,13.0,0.2352941176470588,1405.4385203174172,22699.895825097345,80.0,40.0,40.0,0.5,80.55304532728678,11551.731356542034,0.0,0.0,0.0,0.0,75094.0,75122.0,75219.0,75235.0,75244.0,75265.0,75274.0,75289.0,75466.0,75544.0,0.039998237376945966,-0.14244156409520148,0.05558294761831513,-0.15195706851996632,0.0073390341070887185
83,83,75969.06068261717,1247.6698566627545,10.99513795965484,76088.972626301,-10417.8915500393,9.930274341077666,76111.57915368762,44687.85495718585,9.703880712693351,76134.45203460864,-9501.780297085505,8.807424446700253,76360.62800611492,11012.4025893495,32.52201679142098,0.9819597537611932,122.0,91.0,71.0,253.0,324.0,31.0,857.0,858.0,32.0,16.0,16.0,0.5,41.92227129244443,1179.958463794685,18.0,14.0,4.0,0.7777777777777778,1471.0804536737185,8665.511658314963,22.0,11.0,11.0,0.5,2462.8724232718732,42931.658425018235,17.0,3.0,14.0,0.1764705882352941,1471.9409553415803,23402.100547152397,81.0,41.0,40.0,0.5061728395061729,81.56358082464807,11622.885609431578,0.0,0.0,0.0,0.0,75954.0,75985.0,76076.0,76093.0,76101.0,76123.0,76131.0,76147.0,76322.0,76400.0,0.033600452129682275,-0.14120711917644882,0.05511279128594291,-0.15491212270958013,0.007406520072516348
84,84,76837.46761286657,413.9039958262822,5.730711867515789,76964.54796540085,-10706.718434130938,12.394740695241715,76986.68279091742,45726.18957858135,9.631402793197465,77009.45203459915,-9884.785322126336,9.472817500681645,77237.65370557226,9897.062458294498,29.791550182991465,0.9766011022832298,123.0,105.0,71.0,253.0,324.0,18.0,872.0,875.0,19.0,9.0,10.0,0.4736842105263157,35.70005627727371,413.64040376461094,20.0,16.0,4.0,0.8,1534.979557200789,9784.4543459439,22.0,11.0,11.0,0.5,2472.782404007515,42772.25461560213,17.0,3.0,14.0,0.1764705882352941,1497.4161067889722,24127.35021282089,77.0,39.0,38.0,0.5064935064935064,74.39779326570054,10211.666675177275,0.0,0.0,0.0,0.0,76828.0,76846.0,76951.0,76968.0,76976.0,76998.0,77006.0,77022.0,77200.0,77275.0,0.08625202133167427,-0.14336601514686073,0.05407803332831813,-0.15148696284148133,0.007517159114556206
85,85,77791.537100119,1007.1065144819412,10.371134019884645,77920.54796540085,-10208.587449528952,10.154820328335555,77943.07175746953,43499.58017237564,9.636690734286622,77965.59826409684,-8907.245996939288,8.242142766897922,78196.32171092235,10158.16339097811,30.845123961164088,0.9798235363807214,132.0,102.0,69.0,258.0,327.0,30.0,952.0,956.0,31.0,16.0,15.0,0.5161290322580645,35.4546412620062,912.678487437526,18.0,14.0,4.0,0.7777777777777778,1472.6818737921203,9317.34082067203,21.0,10.0,11.0,0.4761904761904761,2408.8221451153854,43399.01904178415,16.0,4.0,12.0,0.25,1385.3635530262463,21752.37636907895,78.0,39.0,39.0,0.5,76.20199031827408,10610.205105602254,0.0,0.0,0.0,0.0,77776.0,77806.0,77908.0,77924.0,77933.0,77954.0,77962.0,77977.0,78158.0,78235.0,0.03520446025537247,-0.1442591231228639,0.05537575616982863,-0.15553219856084424,0.007501551942544285
86,86,78752.33955647906,693.9333867876552,7.81204648292938,78881.972626301,-10550.945730125832,11.379473911313092,78904.55175551577,43300.23658920919,9.555771347637204,78927.45203459915,-8968.520583969954,8.97634771094731,79157.77580301509,10250.746383977512,30.14076766203444,0.9750318371033369,129.0,106.0,70.0,257.0,327.0,23.0,962.0,962.0,23.0,12.0,11.0,0.5217391304347826,36.05829471815735,702.8410114269439,18.0,14.0,4.0,0.7777777777777778,1421.4272525783017,7121.933128012321,22.0,11.0,11.0,0.5,2383.935756090411,41142.11254366988,16.0,3.0,13.0,0.1875,1410.502666643432,22524.203331563924,77.0,39.0,38.0,0.5064935064935064,70.5682972004183,10505.698538754745,0.0,0.0,0.0,0.0,78740.0,78763.0,78869.0,78886.0,78894.0,78916.0,78924.0,78939.0,79120.0,79196.0,0.05196218456223558,-0.13472036431006737,0.05505595220430064,-0.15727261296188796,0.006884210627893446
87,87,79670.65045908603,745.8470150156543,7.890598253313306,79795.9726263008,-10614.949935228433,10.209113502257638,79819.08561216366,43701.925273162225,9.674939285746866,79841.45203459919,-9503.819890363638,9.786435963487866,80069.78881496773,10976.909255126571,31.157587982994464,0.9754053127628828,124.0,100.0,71.0,255.0,326.0,24.0,917.0,914.0,24.0,12.0,12.0,0.5,39.52088233367443,672.730713583639,17.0,13.0,4.0,0.7647058823529411,1416.98679607149,6874.65439107673,22.0,11.0,11.0,0.5,2413.3301404186186,42542.443807260715,18.0,3.0,15.0,0.1666666666666666,1458.6816343253,23408.583679715288,79.0,40.0,39.0,0.5063291139240507,79.13867990954817,11426.009697398134,0.0,0.0,0.0,0.0,79659.0,79683.0,79783.0,79800.0,79808.0,79830.0,79838.0,79854.0,80031.0,80109.0,0.05298792049579355,-0.13348972955292573,0.05522251308915829,-0.1534837203516793,0.007209559455234437
88,88,80518.0967985032,779.7608951072817,8.402475376191033,80640.54796540085,-10601.566520088869,10.399982357055348,80663.08663268389,44201.35217718478,9.669451171065097,80686.45203459915,-9484.92653968462,9.124954162871129,80911.70114353606,10803.311630960838,31.526214353863608,0.9774598196612552,123.0,97.0,71.0,251.0,322.0,26.0,847.0,844.0,26.0,13.0,13.0,0.5,36.66916786501197,719.6748123649161,19.0,15.0,4.0,0.7894736842105263,1496.6130193669997,9202.686123685377,21.0,10.0,11.0,0.4761904761904761,2434.287617341826,43813.255524533626,17.0,4.0,13.0,0.2352941176470588,1419.7448600719629,23069.779932526937,79.0,40.0,39.0,0.5063291139240507,78.81639800840166,11280.817297542382,0.0,0.0,0.0,0.0,80505.0,80531.0,80628.0,80644.0,80653.0,80674.0,80683.0,80699.0,80874.0,80950.0,0.047026169297662616,-0.14116904483229656,0.05507269568550261,-0.14968432851132765,0.007295577569245015
89,89,81318.65414389933,211.1408767134903,3.7700711436231553,81443.972626301,-10658.093164414016,11.524770390393014,81467.16432098007,46275.8766810251,9.596142785266608,81490.027373699,-10181.131427768316,10.305647056315404,81716.17936243038,10157.6150356522,28.796651771523035,0.977933287652322,118.0,106.0,72.0,250.0,322.0,12.0,801.0,804.0,12.0,6.0,6.0,0.5,37.06091419710776,195.3450566332038,18.0,14.0,4.0,0.7777777777777778,1447.790501169547,6926.649563612744,21.0,10.0,11.0,0.4761904761904761,2520.7598585751957,44452.76505277345,17.0,4.0,13.0,0.2352941176470588,1468.6717938397462,24360.08596911011,74.0,37.0,37.0,0.5,78.78867750492549,10514.102793724043,0.0,0.0,0.0,0.0,81313.0,81325.0,81431.0,81448.0,81457.0,81478.0,81486.0,81503.0,81680.0,81753.0,0.17552695041329178,-0.13583954266824488,0.05447243876005929,-0.14425428099612267,0.007756611884619098
90,90,82168.93586435358,167.73072897010329,2.987332560800017,82297.972626301,-10429.27727028632,11.71079484755446,82321.09069658523,44625.43287354054,9.49941130038801,82344.027373699,-9498.08710684732,9.195278611137525,82572.27229731549,9970.412127730033,28.218426860266,0.9748103244627874,121.0,111.0,71.0,252.0,323.0,10.0,851.0,854.0,11.0,6.0,5.0,0.5454545454545454,41.44592154232426,156.5472933360821,19.0,14.0,5.0,0.7368421052631579,1403.2132219170626,6416.568136114287,21.0,10.0,11.0,0.4761904761904761,2454.7537685681173,43461.99648173612,16.0,4.0,12.0,0.25,1421.4339921942033,23044.20898658175,72.0,36.0,36.0,0.5,80.58006714109636,10318.255589437926,0.0,0.0,0.0,0.0,82164.0,82174.0,82285.0,82302.0,82311.0,82332.0,82340.0,82356.0,82537.0,82608.0,0.24709796348474508,-0.1345455860028678,0.05500795422028495,-0.14965476481779885,0.008081919393982168
91,91,83097.3752824368,581.7294886351374,7.47085225929785,83229.54796540085,-10498.13953027287,10.990040779983538,83252.08204849987,43846.098030185494,9.575606381651744,83274.79836580493,-9032.374756094585,8.523664706326974,83504.21492614275,10361.856242512673,29.751610529956817,0.9772632909566156,130.0,107.0,70.0,255.0,325.0,23.0,928.0,931.0,24.0,12.0,12.0,0.5,34.18665380317186,566.8713819979982,19.0,15.0,4.0,0.7894736842105263,1479.4053737658717,8688.283768177269,21.0,10.0,11.0,0.4761904761904761,2422.763999478218,43461.325308226296,16.0,4.0,12.0,0.25,1396.7820524706688,22160.524444117655,76.0,38.0,38.0,0.5,77.73563252630089,10702.344304325425,0.0,0.0,0.0,0.0,83086.0,83109.0,83216.0,83233.0,83242.0,83263.0,83271.0,83286.0,83467.0,83541.0,0.05876726978957369,-0.14092071928552644,0.05525609138150185,-0.15464172935563725,0.007502095252718019
92,92,84075.49649831234,930.4741327536768,10.07972044674182,84206.972626301,-10542.532998056362,10.76954135629631,84229.13481029955,43474.14976822639,9.629312866390894,84251.87669549929,-8768.688102941649,8.44640743961935,84482.01344669006,10467.358577145234,30.060375203815592,0.9784423587662818,134.0,103.0,69.0,257.0,326.0,31.0,977.0,977.0,31.0,15.0,16.0,0.4838709677419355,38.7216262525874,910.1537031920708,18.0,14.0,4.0,0.7777777777777778,1460.613065825269,8444.347883469363,21.0,10.0,11.0,0.4761904761904761,2394.653177046494,43461.39465294428,16.0,4.0,12.0,0.25,1379.6938751409796,21803.62875711795,76.0,38.0,38.0,0.5,75.94127403984585,10806.640705677326,0.0,0.0,0.0,0.0,84060.0,84091.0,84194.0,84211.0,84219.0,84240.0,84249.0,84263.0,84445.0,84520.0,0.04161494112468586,-0.13854479431978536,0.05508223139067933,-0.15734324894942164,0.007255056132848879
93,93,85036.25809511148,963.5602086333894,8.688020861185894,85161.972626301,-10755.892825102585,10.73846044577639,85184.11239117765,43669.27660812814,9.631318830690914,85207.45203459915,-9203.567929023326,9.063218979401968,85435.9146472631,11088.944261069626,31.32923092443464,0.9772850436060604,126.0,100.0,70.0,255.0,325.0,26.0,963.0,955.0,26.0,13.0,13.0,0.5,43.82635729559425,930.2610400537526,18.0,14.0,4.0,0.7777777777777778,1472.1800435374548,8326.35579153762,21.0,10.0,11.0,0.4761904761904761,2407.681792458262,43394.76662209257,17.0,4.0,13.0,0.2352941176470588,1397.7754997790382,22583.668032437603,78.0,39.0,39.0,0.5,83.865674147695,11631.309850574014,0.0,0.0,0.0,0.0,85023.0,85049.0,85149.0,85166.0,85174.0,85195.0,85204.0,85219.0,85398.0,85474.0,0.04548377662642676,-0.13687195172692826,0.05513445560511349,-0.15187322031613112,0.007562998981077521
94,94,85937.83686937121,1039.3755322127947,9.712104568742218,86059.972626301,-10321.837652216956,9.963523167081636,86083.23348763482,44167.37282775483,9.624392834317783,86106.02737369973,-9432.7722352311,9.325313507198556,86333.09437385392,11347.75517868209,31.77889507495772,0.9790101711270432,124.0,97.0,70.0,254.0,324.0,27.0,901.0,899.0,27.0,14.0,13.0,0.5185185185185185,42.556167100175365,999.5517572502577,17.0,13.0,4.0,0.7647058823529411,1410.4316903370768,7001.967465887532,21.0,10.0,11.0,0.4761904761904761,2441.5903660741224,43843.20479147622,17.0,4.0,13.0,0.2352941176470588,1414.3580514946218,22964.70200780892,79.0,39.0,40.0,0.4936708860759494,82.87363969903473,11858.60628797887,0.0,0.0,0.0,0.0,85924.0,85951.0,86048.0,86064.0,86073.0,86094.0,86102.0,86118.0,86295.0,86372.0,0.04094397624463485,-0.13664540538807446,0.05528040745361753,-0.14994086745909546,0.007303086680502349
95,95,86773.86100732336,587.3876469249705,7.490514379460975,86898.972626301,-10727.06677001419,11.199259348183748,86921.48023349255,46072.2048905204,9.707342339490603,86944.45203459915,-10126.031545570311,9.500301994040193,87171.56848957564,10861.141689436012,29.91401687764249,0.9804250306301816,123.0,101.0,71.0,252.0,323.0,22.0,838.0,839.0,23.0,12.0,11.0,0.5217391304347826,34.87386681028083,512.4850132035602,19.0,15.0,4.0,0.7894736842105263,1495.4295887345083,8683.02602868103,21.0,10.0,11.0,0.4761904761904761,2506.321150127955,45829.22624449793,18.0,4.0,14.0,0.2222222222222222,1509.865288580444,24435.264483465,75.0,38.0,37.0,0.5066666666666667,78.29216124316493,11182.10738226778,0.0,0.0,0.0,0.0,86763.0,86785.0,86886.0,86903.0,86911.0,86932.0,86941.0,86957.0,87134.0,87209.0,0.0593711273855499,-0.1394071297211223,0.05439985249422356,-0.14910730642953043,0.007208465139471946
96,96,87660.8999194406,464.0340044552282,7.316398632349141,87787.54796540085,-10755.24731469583,11.042984955712749,87810.39787063206,45705.75777711995,9.723629035634072,87832.45203459915,-10167.90849664929,9.632380108671551,88062.48915741227,10165.45741807047,29.044089118747173,0.9798747377887655,124.0,101.0,71.0,254.0,325.0,23.0,885.0,888.0,24.0,12.0,12.0,0.5,27.251151440735217,423.4474400389984,19.0,15.0,4.0,0.7894736842105263,1506.867600041267,8927.536093794595,21.0,10.0,11.0,0.4761904761904761,2495.0611293301536,44836.1913206336,17.0,3.0,14.0,0.1764705882352941,1557.6290163312854,24703.042725715983,75.0,37.0,38.0,0.4933333333333333,73.42572673077551,10474.72599590212,0.0,0.0,0.0,0.0,87650.0,87673.0,87774.0,87791.0,87800.0,87821.0,87829.0,87845.0,88026.0,88099.0,0.05872662602114219,-0.1401053416951466,0.054589645827492816,-0.15319069962564896,0.0072230617581705075
97,97,88588.22302228764,600.8138987294146,7.637111408115739,88717.972626301,-10312.028240600415,10.694823965799436,88741.11980057789,43629.87205846723,9.495280836827655,88763.93630019047,-9012.47288266023,8.49354820826074,88994.27253477045,10244.301210007528,29.584009215757543,0.9783116510081512,129.0,105.0,70.0,257.0,327.0,24.0,929.0,931.0,24.0,12.0,12.0,0.5,37.52873834957856,575.0769224992258,18.0,13.0,5.0,0.7222222222222222,1391.1089161026543,6419.163718401762,21.0,10.0,11.0,0.4761904761904761,2425.24553416585,43382.01140047991,16.0,4.0,12.0,0.25,1396.8907623599082,22172.583471195336,76.0,38.0,38.0,0.5,76.04493259560883,10555.737778848856,0.0,0.0,0.0,0.0,88576.0,88600.0,88705.0,88722.0,88731.0,88752.0,88760.0,88775.0,88957.0,89032.0,0.06246316609676199,-0.13490158130343302,0.05558681288168444,-0.1549952804903847,0.00742314493069781
98,98,89488.17648535468,710.339701717573,8.91419042343882,89611.972626301,-10770.357774722384,10.435010773393737,89634.76850997716,44109.29629168879,9.727304755872757,89657.45203459915,-9573.052680030783,9.598475129457732,89885.20733999013,11361.496697358698,31.77772041615814,0.9759112081591992,124.0,98.0,71.0,254.0,325.0,26.0,899.0,894.0,26.0,13.0,13.0,0.5,34.412450098847266,676.348190138491,18.0,14.0,4.0,0.7777777777777778,1447.8806792364371,7582.083286511122,22.0,11.0,11.0,0.5,2424.745895517724,42310.90368710051,17.0,3.0,14.0,0.1764705882352941,1452.9573144668934,23403.904925923445,79.0,39.0,40.0,0.4936708860759494,79.92074942651458,11895.627049160586,0.0,0.0,0.0,0.0,89475.0,89501.0,89599.0,89616.0,89624.0,89646.0,89654.0,89670.0,89847.0,89924.0,0.048445060885150215,-0.13443199469515835,0.05497131215794531,-0.15177575670274293,0.007034350451828624
99,99,90317.8870796259,1036.9970833241043,10.90925482897766,90440.972626301,-10372.396050919024,9.44760541251373,90463.96959271046,44689.99262054472,9.588212746344707,90487.0273736992,-9449.13422888839,8.614962602646973,90713.03960732969,11145.49885972418,31.757399977576988,0.981102959053284,127.0,96.0,70.0,253.0,323.0,31.0,830.0,829.0,31.0,16.0,15.0,0.5161290322580645,36.45868834779221,951.205315110958,17.0,13.0,4.0,0.7647058823529411,1454.4570492761327,7760.192120805094,22.0,11.0,11.0,0.5,2485.142049342949,44242.017156047186,16.0,4.0,12.0,0.25,1427.2906231683878,22890.310043315796,79.0,39.0,40.0,0.4936708860759494,80.7499211422648,11706.96966127112,0.0,0.0,0.0,0.0,90302.0,90333.0,90429.0,90445.0,90453.0,90475.0,90483.0,90499.0,90675.0,90752.0,0.03515794685836871,-0.14022382505797815,0.05560846855455708,-0.15104988336442507,0.007245070154200628
100,100,0.0,0.0,0.0,0.0,0.0,0.0,0.0,0.0,0.0,0.0,0.0,0.0,0.0,0.0,0.0,0.0,0.0,0.0,0.0,0.0,0.0,0.0,0.0,0.0,0.0,0.0,0.0,0.0,0.0,0.0,0.0,0.0,0.0,0.0,0.0,0.0,0.0,0.0,0.0,0.0,0.0,0.0,0.0,0.0,0.0,0.0,0.0,0.0,0.0,0.0,0.0,0.0,0.0,0.0,0.0,0.0,0.0,0.0,,90916.0,91263.0,91280.0,91289.0,91310.0,91318.0,91334.0,91515.0,91586.0,,,,,
101,101,0.0,0.0,0.0,0.0,0.0,0.0,0.0,0.0,0.0,0.0,0.0,0.0,0.0,0.0,0.0,0.0,0.0,0.0,0.0,0.0,0.0,0.0,0.0,0.0,0.0,0.0,0.0,0.0,0.0,0.0,0.0,0.0,0.0,0.0,0.0,0.0,0.0,0.0,0.0,0.0,0.0,0.0,0.0,0.0,0.0,0.0,0.0,0.0,0.0,0.0,0.0,0.0,0.0,0.0,0.0,0.0,0.0,0.0,,91791.0,92136.0,92154.0,92162.0,92183.0,92191.0,92207.0,92387.0,92461.0,,,,,
102,102,92906.48148530586,399.85528468313015,5.853660636918443,93032.972626301,-10617.479394856611,10.308731283169124,93055.98077195392,43823.000220776914,9.628398483181815,93079.027373699,-9360.858773835638,9.372555590148815,93306.41906544018,10917.82025104046,31.02144641423398,0.9742370805975517,123.0,104.0,71.0,254.0,325.0,19.0,2587.0,2592.0,19.0,9.0,10.0,0.4736842105263157,33.74611159418145,404.828074989445,17.0,13.0,4.0,0.7647058823529411,1425.2549028494032,6955.304821834949,22.0,11.0,11.0,0.5,2424.4926849327435,42902.08477624279,17.0,4.0,13.0,0.2352941176470588,1385.2748731137465,22643.73612386607,78.0,39.0,39.0,0.5,76.18127064458507,11421.465216224417,0.0,0.0,0.0,0.0,92897.0,92916.0,93020.0,93037.0,93045.0,93067.0,93075.0,93091.0,93268.0,93345.0,0.08439581240228934,-0.13423665352624414,0.055324662225733866,-0.14798587464920446,0.006977699659171898
103,103,93722.61176248336,771.1145732139072,8.341243445604022,93846.54796540084,-10278.832858882728,10.529762200815416,93868.9981146837,44623.33318101529,9.65623322502353,93892.45203459916,-9409.3493771134,8.678594354954345,94116.6641656552,11117.7947082601,32.94654453232733,0.9774109593530564,123.0,98.0,71.0,253.0,324.0,25.0,816.0,813.0,25.0,13.0,12.0,0.52,35.95306034686291,710.2144359259258,18.0,15.0,3.0,0.8333333333333334,1497.7149869383452,9813.351930401648,21.0,10.0,11.0,0.4761904761904761,2445.5879094183647,44131.446785717846,17.0,4.0,13.0,0.2352941176470588,1429.275901961243,23013.444619708574,81.0,41.0,40.0,0.5061728395061729,76.39807297965932,11660.25657544278,0.0,0.0,0.0,0.0,93710.0,93735.0,93833.0,93850.0,93859.0,93880.0,93889.0,93904.0,94077.0,94157.0,0.04662479687942499,-0.1457086624036361,0.05480513747141651,-0.15189954636371641,0.006871693081623323
104,104,0.0,0.0,0.0,0.0,0.0,0.0,0.0,0.0,0.0,0.0,0.0,0.0,0.0,0.0,0.0,0.0,0.0,0.0,0.0,0.0,0.0,0.0,0.0,0.0,0.0,0.0,0.0,0.0,0.0,0.0,0.0,0.0,0.0,0.0,0.0,0.0,0.0,0.0,0.0,0.0,0.0,0.0,0.0,0.0,0.0,0.0,0.0,0.0,0.0,0.0,0.0,0.0,0.0,0.0,0.0,0.0,0.0,0.0,,94299.0,94643.0,94660.0,94669.0,94690.0,94699.0,94714.0,94891.0,94966.0,,,,,
105,105,95433.51415353129,487.9225325893444,6.148329370876228,95563.54796540084,-10848.833791107463,11.393427521736486,95585.5910856906,45697.44101273974,9.649680722559422,95608.45203459916,-9939.588041077352,8.674576787475075,95838.65858718989,10108.718020184824,29.934510629225738,0.9784669460087344,126.0,107.0,70.0,256.0,326.0,19.0,1713.0,1717.0,19.0,10.0,9.0,0.5263157894736842,39.3093815726833,468.493274089161,19.0,16.0,3.0,0.8421052631578947,1554.0804030642512,10292.591186368289,22.0,11.0,11.0,0.5,2507.949186522344,43481.015186165736,16.0,3.0,13.0,0.1875,1520.1449356834123,24093.72793728482,76.0,38.0,38.0,0.5,75.27042170320098,10446.518474410852,0.0,0.0,0.0,0.0,95424.0,95443.0,95550.0,95567.0,95575.0,95597.0,95605.0,95620.0,95801.0,95876.0,0.08056480065405727,-0.14324861390521945,0.05488161111304168,-0.1529384245505052,0.007446089756673692
106,106,96408.32693793572,1098.2325999847878,12.344386559707283,96535.54796540084,-9897.350770444891,9.727853206339995,96558.26642857102,43528.61821846541,9.459281291775156,96581.45203459916,-8461.109216641767,7.532215940214503,96811.426063933,10202.798026433007,31.79778130799305,0.9834749637440768,133.0,96.0,69.0,259.0,328.0,37.0,972.0,972.0,37.0,18.0,19.0,0.4864864864864865,30.48093290942686,1017.536280103384,18.0,14.0,4.0,0.7777777777777778,1457.2585391076286,8822.607850697124,21.0,10.0,11.0,0.4761904761904761,2414.041308241422,44494.934696656215,15.0,3.0,12.0,0.2,1412.410830657995,21815.893759864022,80.0,40.0,40.0,0.5,74.47276892371265,10703.970406675366,0.0,0.0,0.0,0.0,96390.0,96427.0,96523.0,96539.0,96548.0,96569.0,96578.0,96592.0,96773.0,96851.0,0.02775453297402487,-0.14723723276123962,0.05545871674872863,-0.16692974815642242,0.007299249552012255
107,107,97359.42952049315,1025.8872583931964,10.343968779224316,97485.54796540084,-9906.570314863066,9.788071891833694,97507.83429508442,43098.45680335594,9.54285109646494,97530.87669549928,-8224.023184659045,7.565053326323405,97760.32171406438,10556.289488344788,32.34671134410991,0.9801915969699796,129.0,98.0,69.0,258.0,327.0,31.0,953.0,950.0,31.0,15.0,16.0,0.4838709677419355,35.46917184231302,988.1073383783984,17.0,14.0,3.0,0.8235294117647058,1473.2045045798527,9755.554965430549,22.0,11.0,11.0,0.5,2383.425204284344,43035.1976456955,15.0,4.0,11.0,0.2666666666666666,1352.3469338948305,20868.755405390057,81.0,40.0,41.0,0.4938271604938271,76.73408938977191,11101.11344645184,0.0,0.0,0.0,0.0,97344.0,97375.0,97473.0,97489.0,97497.0,97519.0,97528.0,97542.0,97721.0,97800.0,0.034574142092247906,-0.1487098418278593,0.055301868815376104,-0.1644386091247257,0.007269039890815244
108,108,99926.18308474928,684.9511730748667,7.599148840282616,100051.972626301,-10492.664250050138,10.509646970523043,100074.7282287944,43969.64929128762,9.59809588668768,100098.027373699,-9296.808799405746,9.247766823104946,100323.0760362019,10693.576191410322,31.726687227008405,0.976082379704054,125.0,102.0,71.0,252.0,323.0,23.0,2569.0,2567.0,24.0,12.0,12.0,0.5,36.31968795695645,634.6847969837065,18.0,14.0,4.0,0.7777777777777778,1437.1138928461078,7448.369354197235,22.0,11.0,11.0,0.5,2429.4731131450812,42482.01716688249,17.0,4.0,13.0,0.2352941176470588,1368.8498486556057,22440.277431915223,80.0,40.0,40.0,0.5,76.53232469634652,11170.040437831303,0.0,0.0,0.0,0.0,99914.0,99937.0,100039.0,100056.0,100064.0,100086.0,100094.0,100110.0,100285.0,100362.0,0.05302522192043407,-0.13696367848987837,0.05525341121213969,-0.14723867922755418,0.007156850367589989
109,109,100678.5562976806,803.4030065995282,9.270566304608186,100803.97262630034,-10155.399160435194,9.778032781478496,100826.90361618344,44779.39900719302,9.72454000224114,100849.45203459924,-9503.833508301044,8.964978787063384,101073.7784291763,10745.715671105092,31.51013987218739,0.9800259753001802,126.0,99.0,71.0,250.0,321.0,27.0,750.0,752.0,27.0,14.0,13.0,0.5185185185185185,34.05729697795664,740.408086844265,17.0,13.0,4.0,0.7647058823529411,1444.4146092239748,8404.096406989462,22.0,11.0,11.0,0.5,2460.4326496548583,43659.941096277886,17.0,3.0,14.0,0.1764705882352941,1491.9384145442266,23612.79769253922,78.0,39.0,39.0,0.5,80.62272907911853,11334.252729953796,0.0,0.0,0.0,0.0,100665.0,100692.0,100791.0,100808.0,100816.0,100838.0,100846.0,100862.0,101036.0,101112.0,0.04239129888511005,-0.1422312000153893,0.05494563804350374,-0.1569828020704598,0.0075027789257360155
110,110,101222.57533909989,48.06692398080568,2.5479654008640567,101587.972626301,-10338.648160470037,13.702197151609305,101610.74989897104,47561.1959567826,9.503890702508476,101633.45203459916,-10112.059829523583,10.485331149403642,101860.48862622642,9965.541457435953,27.75677025202153,0.9697432681608832,352.0,350.0,72.0,250.0,322.0,2.0,545.0,784.0,2.0,1.0,1.0,0.5,16.65890706825711,1697.87568426877,19.0,15.0,4.0,0.7894736842105263,1478.9060034819013,7577.8794773858435,21.0,11.0,10.0,0.5238095238095238,2530.543264477638,43230.336146682,18.0,4.0,14.0,0.2222222222222222,1529.3421096546233,25048.56153835548,72.0,35.0,37.0,0.4861111111111111,77.93512519429201,10248.637788866765,0.0,0.0,0.0,0.0,101222.0,101224.0,101574.0,101592.0,101600.0,101621.0,101630.0,101646.0,101826.0,101896.0,0.3465773485923382,-0.1430463616255478,0.053206047778467665,-0.15123942455220582,0.00782046068717515
111,111,102354.5429418394,419.0524476884106,5.733542574930374,102486.39728720114,-10368.81851856291,12.324175000308363,102509.13491404078,44630.87423352448,9.460287895959876,102532.2253107682,-9180.64746219166,8.725992158244054,102761.91335247668,9857.868090202168,28.847603556341735,0.9747120496938968,128.0,109.0,71.0,254.0,325.0,19.0,1133.0,898.0,19.0,10.0,9.0,0.5263157894736842,35.91504497070945,366.0565189087839,18.0,13.0,5.0,0.7222222222222222,1381.4887720597258,5922.800710334333,21.0,10.0,11.0,0.4761904761904761,2438.7954001886906,43723.651643530226,16.0,4.0,12.0,0.25,1421.026431408182,22716.409753241187,74.0,37.0,37.0,0.5,80.81383507917968,10199.970738238571,0.0,0.0,0.0,0.0,102345.0,102364.0,102473.0,102491.0,102499.0,102520.0,102528.0,102544.0,102725.0,102798.0,0.08570536974267798,-0.13323492638881643,0.054643684267264236,-0.1547849906295112,0.008197901852582238
112,112,103338.83395802908,497.171921310162,7.198690940270943,103474.54796540084,-10520.99371962362,10.872527452724562,103496.65430540052,43727.34250753337,9.672533224731763,103519.45203459926,-9106.697422472387,8.832932315770732,103750.41290257344,10113.99016105991,29.504731091950436,0.9749096536693976,134.0,111.0,70.0,257.0,327.0,23.0,982.0,988.0,23.0,12.0,11.0,0.5217391304347826,31.69590589425405,403.5646068311854,18.0,15.0,3.0,0.8333333333333334,1500.8995874874288,9790.665242584651,22.0,11.0,11.0,0.5,2401.939906902858,42050.04422552773,16.0,3.0,13.0,0.1875,1437.0853991449196,22742.77211975627,77.0,38.0,39.0,0.4935064935064935,74.40111944455943,10432.295101746317,0.0,0.0,0.0,0.0,103327.0,103350.0,103461.0,103478.0,103486.0,103508.0,103516.0,103531.0,103713.0,103788.0,0.06375240542693576,-0.1426575880078676,0.05492993100344597,-0.1578053307885971,0.007356257842825749
113,113,104277.98212102494,1468.313391546925,16.124149146468188,104401.972626301,-9680.745978931318,8.574069968486372,104424.99841490894,44110.54881178808,9.514300947731591,104447.93671666698,-8421.604452895792,7.752838301692477,104674.6816195158,11453.094091851948,35.10071821707797,0.9791203968901172,133.0,88.0,69.0,258.0,327.0,45.0,938.0,928.0,45.0,21.0,24.0,0.4666666666666667,31.72704916324657,1363.1998028016824,16.0,12.0,4.0,0.75,1432.8981953795433,8196.286279376844,22.0,11.0,11.0,0.5,2439.6899616490564,44297.41609767782,16.0,4.0,12.0,0.25,1390.9210185215888,21511.714204357068,84.0,42.0,42.0,0.5,75.89430954226815,12134.219472662146,0.0,0.0,0.0,0.0,104257.0,104302.0,104390.0,104406.0,104414.0,104436.0,104445.0,104459.0,104634.0,104717.0,0.0216078184302473,-0.14801526643690785,0.0553085379204594,-0.16516104814722293,0.006626533313496611
114,114,105190.9125287655,1089.4265172801686,11.795498566960568,105312.972626301,-10033.765159679457,9.622525228176094,105335.9427278952,44221.742331762725,9.569862246362824,105358.67291734031,-9165.559893334646,8.219608446203996,105588.4349938671,10551.425129310825,31.564730828367036,0.9833910783703284,127.0,93.0,69.0,257.0,326.0,34.0,913.0,911.0,34.0,17.0,17.0,0.5,31.939938340914296,963.6449846281528,17.0,13.0,4.0,0.7647058823529411,1425.5703959690231,7881.046863200677,22.0,11.0,11.0,0.5,2456.504472857107,43759.863881209785,16.0,4.0,12.0,0.25,1410.2351798738216,22178.621902849416,79.0,39.0,40.0,0.4936708860759494,77.36809528432568,11022.208594552125,0.0,0.0,0.0,0.0,105174.0,105208.0,105301.0,105317.0,105325.0,105347.0,105355.0,105370.0,105550.0,105627.0,0.02931812089598722,-0.1420773132799298,0.05554969893379115,-0.15386241498453018,0.007332478251625431
115,115,106123.89197593604,130.62374081242675,3.694594838782358,106252.972626301,-10469.581774198849,10.969240044323412,106275.27140950914,43373.53831109102,9.53844229563063,106298.45203459916,-8815.38031073022,8.520366382370197,106529.13113868157,10105.077535411603,30.43320645397194,0.974397136332736,123.0,111.0,70.0,258.0,328.0,12.0,935.0,940.0,12.0,7.0,5.0,0.5833333333333334,31.509174225043505,190.67146071699227,18.0,14.0,4.0,0.7777777777777778,1445.8419039458552,7838.643483092549,21.0,10.0,11.0,0.4761904761904761,2393.3926532124287,43614.150476911374,17.0,4.0,13.0,0.2352941176470588,1396.749309558254,22241.78409086033,78.0,39.0,39.0,0.5,70.67237648104687,10426.302816821688,0.0,0.0,0.0,0.0,106117.0,106129.0,106240.0,106257.0,106265.0,106286.0,106295.0,106310.0,106491.0,106568.0,0.24122088396082678,-0.13809929901010717,0.0551809408779642,-0.15844458892580152,0.006993749056688284
116,116,107781.47317558204,912.055864598894,10.30999600774236,107903.54796540084,-9647.392242800966,9.264921183776236,107926.38174067864,43766.30007934038,9.570125495971864,107949.45203459916,-8483.61500804122,7.841955253784235,108171.70202302052,11036.555824985822,33.88763148166963,0.9736337314085544,125.0,95.0,70.0,252.0,322.0,30.0,1660.0,1650.0,31.0,15.0,16.0,0.4838709677419355,36.37827330028323,870.0414365409216,18.0,14.0,4.0,0.7777777777777778,1456.7105466845064,9405.73906823721,21.0,10.0,11.0,0.4761904761904761,2406.714268761644,44940.83701215011,16.0,3.0,13.0,0.1875,1421.9237751586209,21895.7034734484,82.0,41.0,41.0,0.5,75.71722994312987,11678.024807971164,0.0,0.0,0.0,0.0,107766.0,107796.0,107891.0,107907.0,107916.0,107937.0,107946.0,107961.0,108132.0,108213.0,0.03988601434659022,-0.15099526483662218,0.05499012400862551,-0.16760823938979386,0.0068605850542351726
117,117,0.0,0.0,0.0,0.0,0.0,0.0,0.0,0.0,0.0,0.0,0.0,0.0,0.0,0.0,0.0,0.0,0.0,0.0,0.0,0.0,0.0,0.0,0.0,0.0,0.0,0.0,0.0,0.0,0.0,0.0,0.0,0.0,0.0,0.0,0.0,0.0,0.0,0.0,0.0,0.0,0.0,0.0,0.0,0.0,0.0,0.0,0.0,0.0,0.0,0.0,0.0,0.0,0.0,0.0,0.0,0.0,0.0,0.0,,108271.0,108616.0,108634.0,108643.0,108664.0,108672.0,108690.0,108869.0,108935.0,,,,,
118,118,109205.50361606528,984.627733075563,8.58579663161783,109327.972626301,-9824.823894428451,11.505478996773444,109350.31659368936,44025.71410093967,9.559914874412671,109373.49204004007,-8939.87166080169,8.386425968091087,109595.80679212455,10544.329321056224,30.148597374498188,0.9779721825659676,122.0,97.0,70.0,248.0,318.0,25.0,1422.0,1425.0,25.0,13.0,12.0,0.52,44.125847110270826,857.640096928949,18.0,14.0,4.0,0.7777777777777778,1423.7592007917794,8567.104507506043,21.0,10.0,11.0,0.4761904761904761,2397.1482706378843,44097.77535445633,16.0,3.0,13.0,0.1875,1421.5942043973305,22500.964409850203,76.0,38.0,38.0,0.5,89.39533107995898,11132.880102020972,0.0,0.0,0.0,0.0,109193.0,109218.0,109315.0,109332.0,109340.0,109361.0,109370.0,109385.0,109559.0,109633.0,0.04481475143142702,-0.1449144754237455,0.05444882200301937,-0.15901729446861523,0.008478048091825365
119,119,112227.4023155994,1080.5002065896854,8.866592155914958,112354.972626301,-10608.51489342826,10.315018159379328,112377.63008398106,44331.67652937842,9.64327210256783,112400.45203462178,-9264.831895362902,8.88599628532987,112625.47181918404,11071.59772890652,33.355846757367146,0.972250108989796,127.0,102.0,70.0,253.0,323.0,25.0,3020.0,3027.0,26.0,13.0,13.0,0.5,46.87956039893757,1055.9613921367295,18.0,14.0,4.0,0.7777777777777778,1459.75187620803,7929.551086786188,22.0,11.0,11.0,0.5,2449.4616568394367,42732.62696811589,17.0,3.0,14.0,0.1764705882352941,1455.3560591491982,23120.06549829193,81.0,40.0,41.0,0.4938271604938271,83.78972782574274,11744.093151945985,0.0,0.0,0.0,0.0,112215.0,112240.0,112342.0,112359.0,112367.0,112389.0,112397.0,112412.0,112586.0,112665.0,0.043386905539704215,-0.13760190666389258,0.05525307970737783,-0.15708391426698326,0.007567988819443695
120,120,113100.33496258035,529.4816546392748,5.776284925630675,113224.972626301,-10596.736766366494,11.938885057359878,113247.40083810814,45354.97135331777,9.532990698308014,113270.45203459916,-9729.175787965414,8.979989286054561,113497.56155808062,10069.955098363043,29.66871984007694,0.9766501420831414,120.0,102.0,71.0,253.0,324.0,18.0,874.0,870.0,18.0,9.0,9.0,0.5,46.69991040700351,479.1143912976856,18.0,14.0,4.0,0.7777777777777778,1471.8713892321732,7937.176201888253,21.0,10.0,11.0,0.4761904761904761,2482.823486718327,45036.431655287306,17.0,4.0,13.0,0.2352941176470588,1479.4341486470005,23848.849202655467,75.0,38.0,37.0,0.5066666666666667,72.63716126491649,10409.021981613005,0.0,0.0,0.0,0.0,113091.0,113109.0,113211.0,113229.0,113237.0,113258.0,113267.0,113282.0,113461.0,113535.0,0.08819929830962552,-0.1388985516658127,0.05474203626713801,-0.15206161147555777,0.007213255725114829
121,121,114048.09401886136,697.5832285369964,9.371441460067157,114177.54796540084,-10309.83347739826,10.149958550436684,114199.81848900089,42907.50165706363,9.56336414213674,114222.45203459916,-8819.229150490499,8.093162552511359,114452.3192542787,10178.499821028308,31.013641450109624,0.9810660951003743,132.0,103.0,69.0,257.0,326.0,29.0,949.0,952.0,30.0,15.0,15.0,0.5,32.53984811136614,630.3247490529843,19.0,15.0,4.0,0.7894736842105263,1479.326291330553,9267.308132637552,21.0,10.0,11.0,0.4761904761904761,2396.685236734841,42292.79970593067,16.0,3.0,13.0,0.1875,1436.9291370057088,22330.3102509574,78.0,39.0,39.0,0.5,74.51162651009193,10626.576661113091,0.0,0.0,0.0,0.0,114033.0,114062.0,114165.0,114181.0,114190.0,114211.0,114219.0,114234.0,114414.0,114491.0,0.04664654593203194,-0.1434869238745327,0.055857021364008684,-0.1629313755755843,0.007320491999828341
122,122,115884.3268611364,1943.7074506922083,23.069949695202496,116003.54796540084,-9049.99450596155,7.858058305040875,116026.6011827768,43845.10137519569,9.395474380078458,116049.58792703188,-7767.157335984189,7.096193378142416,116273.57304760796,11201.254931031735,37.98651296621353,0.9791019476868644,136.0,79.0,67.0,257.0,324.0,57.0,1831.0,1827.0,57.0,27.0,30.0,0.4736842105263157,25.206386585818823,1927.6652144420964,16.0,12.0,4.0,0.75,1455.8436100101085,9470.492562469664,22.0,11.0,11.0,0.5,2408.8473531646596,43054.997304008924,14.0,4.0,10.0,0.2857142857142857,1338.203091387254,20200.607771639337,89.0,44.0,45.0,0.4943820224719101,78.84812426392546,12177.263364177672,0.0,0.0,0.0,0.0,115857.0,115914.0,115993.0,116007.0,116016.0,116038.0,116046.0,116060.0,116232.0,116317.0,0.012968199806427725,-0.16086679489706796,0.0549399426073036,-0.17228994257494185,0.0070392223683335845
123,123,116763.972626301,301.494413593202,6.323297827377629,116886.972626301,-10360.737012813035,10.736109127749058,116909.72371379552,43750.979982031626,9.589936718695297,116932.45203459916,-9345.870262792025,8.896201885638563,117161.4306508388,9760.146628547309,29.620310099324175,0.9800523187799683,120.0,101.0,70.0,254.0,324.0,19.0,881.0,883.0,21.0,10.0,11.0,0.4761904761904761,32.84898216263362,334.59216785229285,18.0,14.0,4.0,0.7777777777777778,1421.1156524785702,7423.19126963426,22.0,11.0,11.0,0.5,2422.9316940566955,42079.186526005025,16.0,3.0,13.0,0.1875,1453.297546351212,23124.884387339,76.0,38.0,38.0,0.5,75.78851070855431,10151.786613431446,0.0,0.0,0.0,0.0,116754.0,116773.0,116874.0,116891.0,116899.0,116921.0,116929.0,116944.0,117125.0,117198.0,0.10895386674379921,-0.1371635676806668,0.055380055373657575,-0.1555015750793279,0.007765099602795067
124,124,117667.12330450072,318.18607786736595,5.687329069774284,117795.972626301,-10308.828269854295,10.70625662605532,117818.53564886884,42685.43083212338,9.532849487487674,117841.45203459916,-8857.104783281424,8.533435582564433,118069.98936795256,9868.717655143711,30.49700101947816,0.9795697297917436,123.0,106.0,70.0,255.0,325.0,17.0,904.0,909.0,20.0,8.0,12.0,0.4,30.124021104057753,425.4693481146329,18.0,14.0,4.0,0.7777777777777778,1409.31050674659,7274.42190141518,22.0,11.0,11.0,0.5,2372.193448698346,40944.95200050279,16.0,3.0,13.0,0.1875,1408.045508872624,22181.231895082237,78.0,39.0,39.0,0.5,70.91576516796604,10225.251440149594,0.0,0.0,0.0,0.0,117660.0,117677.0,117783.0,117800.0,117808.0,117830.0,117838.0,117853.0,118032.0,118108.0,0.0946742274393752,-0.13670908757572203,0.055573843404038606,-0.15897356340758614,0.007185914892499105
125,125,119425.8028219956,1402.1493158276478,17.14359072864585,119546.972626301,-9208.156722962409,8.350823905721292,119570.00893231425,44021.32515565492,9.386276248932017,119593.45203459916,-8014.642338137499,7.302974322091668,119817.7776856222,11213.77444985566,34.89306838347231,0.982282884588415,134.0,85.0,68.0,255.0,323.0,49.0,1755.0,1751.0,50.0,25.0,25.0,0.5,26.722672834682793,1231.7628313360783,16.0,12.0,4.0,0.75,1412.089377351162,8344.391990265765,22.0,11.0,11.0,0.5,2428.3116011067964,44445.876276890194,15.0,3.0,12.0,0.2,1389.5364634832351,21240.82489631253,84.0,42.0,42.0,0.5,79.64438550975665,11932.297786530486,0.0,0.0,0.0,0.0,119402.0,119451.0,119536.0,119551.0,119559.0,119581.0,119590.0,119604.0,119778.0,119859.0,0.019058364564339698,-0.15335201385417674,0.05516216498527779,-0.1733747315050051,0.007102370915867832
126,126,0.0,0.0,0.0,0.0,0.0,0.0,0.0,0.0,0.0,0.0,0.0,0.0,0.0,0.0,0.0,0.0,0.0,0.0,0.0,0.0,0.0,0.0,0.0,0.0,0.0,0.0,0.0,0.0,0.0,0.0,0.0,0.0,0.0,0.0,0.0,0.0,0.0,0.0,0.0,0.0,0.0,0.0,0.0,0.0,0.0,0.0,0.0,0.0,0.0,0.0,0.0,0.0,0.0,0.0,0.0,0.0,0.0,0.0,,120066.0,120415.0,120432.0,120440.0,120461.0,120470.0,120485.0,120664.0,120738.0,,,,,
127,127,0.0,0.0,0.0,0.0,0.0,0.0,0.0,0.0,0.0,0.0,0.0,0.0,0.0,0.0,0.0,0.0,0.0,0.0,0.0,0.0,0.0,0.0,0.0,0.0,0.0,0.0,0.0,0.0,0.0,0.0,0.0,0.0,0.0,0.0,0.0,0.0,0.0,0.0,0.0,0.0,0.0,0.0,0.0,0.0,0.0,0.0,0.0,0.0,0.0,0.0,0.0,0.0,0.0,0.0,0.0,0.0,0.0,0.0,,121011.0,121361.0,121378.0,121386.0,121407.0,121416.0,121431.0,121613.0,121687.0,,,,,
128,128,122161.74232127362,670.972151208783,11.189441321279237,122284.54796540076,-10491.464775025406,9.697731121029044,122307.03917795814,43368.56385366292,9.615644116332533,122330.4520346024,-9014.72591961398,8.626287787225753,122557.27936995542,11127.264805886703,32.76862678511928,0.9757850688072052,129.0,92.0,70.0,255.0,325.0,37.0,2747.0,2737.0,38.0,20.0,18.0,0.5263157894736842,26.252228594672623,537.2425934524219,18.0,14.0,4.0,0.7777777777777778,1492.7610885211868,9067.036631286055,21.0,10.0,11.0,0.4761904761904761,2408.9449155910393,43454.07125118663,17.0,4.0,13.0,0.2352941176470588,1390.6232268886083,22264.859932175328,81.0,40.0,41.0,0.4938271604938271,75.82697945903449,11693.90458317596,0.0,0.0,0.0,0.0,122143.0,122180.0,122272.0,122288.0,122297.0,122318.0,122327.0,122342.0,122518.0,122597.0,0.03912566050227001,-0.1422833818281177,0.05554587704862584,-0.15426128750769122,0.00681452097903875
129,129,123010.87669549928,163.04264119531976,5.126795767880918,123134.54796540084,-10878.650324840986,11.32059752943159,123156.72061656624,45626.01110467319,9.746800832629642,123179.45203459916,-10068.931394426629,10.137137085369355,123407.6700305172,10061.285939901458,28.85086615515664,0.9804995542431444,119.0,103.0,71.0,252.0,323.0,16.0,846.0,850.0,17.0,9.0,8.0,0.5294117647058824,20.639874377888304,121.5079250343286,19.0,16.0,3.0,0.8421052631578947,1544.6612547596048,10175.896616120715,22.0,11.0,11.0,0.5,2473.7623495708467,42824.30454931664,17.0,3.0,14.0,0.1764705882352941,1495.3744127278333,24337.275691370007,74.0,38.0,36.0,0.5135135135135135,81.680676549619,10430.256141963151,0.0,0.0,0.0,0.0,123002.0,123018.0,123121.0,123138.0,123146.0,123168.0,123176.0,123192.0,123371.0,123444.0,0.1265918794406821,-0.141990155822219,0.05421824721638825,-0.1485137155225385,0.008118313805761791
130,130,123918.54796540084,275.98360129217764,5.774423018143188,124049.972626301,-10508.095003659277,10.945932940695526,124072.2837959856,44042.487122996645,9.636557742353313,124094.8793650101,-9098.9386947576,8.48378568030125,124324.63545602676,10224.931631230922,30.661782424545606,0.9781678724180296,127.0,107.0,69.0,257.0,326.0,20.0,903.0,915.0,20.0,9.0,11.0,0.45,27.9672297847627,358.4313826244597,18.0,14.0,4.0,0.7777777777777778,1457.3269056093925,8377.558363899941,21.0,10.0,11.0,0.4761904761904761,2420.548985026306,44157.197267016905,16.0,4.0,12.0,0.25,1418.4865111033537,22368.203897436015,77.0,39.0,38.0,0.5064935064935064,76.42095867300564,10624.165500008472,0.0,0.0,0.0,0.0,123910.0,123930.0,124037.0,124054.0,124062.0,124083.0,124092.0,124106.0,124287.0,124363.0,0.10133656367196406,-0.13868611818811133,0.0549594072257201,-0.15589582023677354,0.00747398236283422
131,131,124851.7653148184,122.55743878954227,2.5479654008640567,124982.972626301,-10555.13871303766,12.093082609294049,125005.35871056662,44022.85068905563,9.622222651788414,125027.58844517164,-9211.98429475503,9.541538497547291,125258.68092421725,10104.925364788696,29.771952260366735,0.9743737812872892,123.0,117.0,70.0,256.0,326.0,6.0,936.0,933.0,6.0,5.0,1.0,0.8333333333333334,34.14236674130567,225.74811833401375,19.0,15.0,4.0,0.7894736842105263,1443.4595271263986,7709.340676023175,21.0,10.0,11.0,0.4761904761904761,2386.7774253976313,43051.09182360134,17.0,4.0,13.0,0.2352941176470588,1391.0661107833594,22392.97939315164,75.0,38.0,37.0,0.5066666666666667,75.52747530474068,10467.297416245196,0.0,0.0,0.0,0.0,124847.0,124853.0,124970.0,124987.0,124995.0,125016.0,125024.0,125040.0,125221.0,125296.0,0.27858257384062607,-0.13675419777699782,0.05421678487511032,-0.15100613139075605,0.007474322924533548
132,132,0.0,0.0,0.0,0.0,0.0,0.0,0.0,0.0,0.0,0.0,0.0,0.0,0.0,0.0,0.0,0.0,0.0,0.0,0.0,0.0,0.0,0.0,0.0,0.0,0.0,0.0,0.0,0.0,0.0,0.0,0.0,0.0,0.0,0.0,0.0,0.0,0.0,0.0,0.0,0.0,0.0,0.0,0.0,0.0,0.0,0.0,0.0,0.0,0.0,0.0,0.0,0.0,0.0,0.0,0.0,0.0,0.0,0.0,,125544.0,125889.0,125906.0,125915.0,125936.0,125944.0,125960.0,126139.0,126215.0,,,,,
133,133,126660.2328287798,818.9234691737524,12.831371152855263,126780.54796540084,-9799.286124573317,9.13251207962014,126803.06019089695,44122.39031759924,9.578082499086424,126826.45203459916,-8800.4355807875,7.995188487958512,127051.63316718764,11509.87467035275,34.76787949059077,0.9756631990281712,129.0,88.0,70.0,255.0,325.0,41.0,1812.0,1798.0,41.0,21.0,20.0,0.5121951219512195,19.03776035199939,740.1584728005434,17.0,14.0,3.0,0.8235294117647058,1494.8132718661227,10136.041205242816,21.0,10.0,11.0,0.4761904761904761,2434.741873178888,44458.70680179706,16.0,4.0,12.0,0.25,1415.4912743499217,22240.28136209786,84.0,42.0,42.0,0.5,75.04159299675364,12197.740432190432,0.0,0.0,0.0,0.0,126639.0,126680.0,126768.0,126784.0,126793.0,126814.0,126823.0,126838.0,127011.0,127093.0,0.02324730096111107,-0.15254307843074746,0.05518154967700684,-0.16084331978295757,0.0065197576121351275
134,134,127522.12330450072,196.92717298846415,4.6779875672827735,127651.972626301,-11037.74605055523,11.593505838737988,127674.25460656438,46310.754472212815,9.701142333105569,127697.027373699,-10262.536709788845,9.506199730349426,127925.9870137493,10523.04803327088,29.801390062821703,0.9771189675160292,123.0,107.0,71.0,254.0,325.0,16.0,856.0,871.0,16.0,7.0,9.0,0.4375,26.253285968566725,280.2829324173804,19.0,15.0,4.0,0.7894736842105263,1518.520131244631,8797.04347506327,21.0,10.0,11.0,0.4761904761904761,2518.9614206073534,45258.89983022987,17.0,4.0,13.0,0.2352941176470588,1492.7828235083257,24280.410091953483,76.0,38.0,38.0,0.5,76.13616266148505,10836.201476466247,0.0,0.0,0.0,0.0,127515.0,127531.0,127638.0,127656.0,127664.0,127685.0,127693.0,127709.0,127889.0,127963.0,0.13331469481920924,-0.1375752009775805,0.05439258006730964,-0.1454594381216143,0.007235181519723581
135,135,0.0,0.0,0.0,0.0,0.0,0.0,0.0,0.0,0.0,0.0,0.0,0.0,0.0,0.0,0.0,0.0,0.0,0.0,0.0,0.0,0.0,0.0,0.0,0.0,0.0,0.0,0.0,0.0,0.0,0.0,0.0,0.0,0.0,0.0,0.0,0.0,0.0,0.0,0.0,0.0,0.0,0.0,0.0,0.0,0.0,0.0,0.0,0.0,0.0,0.0,0.0,0.0,0.0,0.0,0.0,0.0,0.0,0.0,,128241.0,128589.0,128606.0,128615.0,128636.0,128644.0,128659.0,128841.0,128916.0,,,,,
136,136,0.0,0.0,0.0,0.0,0.0,0.0,0.0,0.0,0.0,0.0,0.0,0.0,0.0,0.0,0.0,0.0,0.0,0.0,0.0,0.0,0.0,0.0,0.0,0.0,0.0,0.0,0.0,0.0,0.0,0.0,0.0,0.0,0.0,0.0,0.0,0.0,0.0,0.0,0.0,0.0,0.0,0.0,0.0,0.0,0.0,0.0,0.0,0.0,0.0,0.0,0.0,0.0,0.0,0.0,0.0,0.0,0.0,0.0,,129221.0,129573.0,129590.0,129598.0,129620.0,129628.0,129643.0,129825.0,129901.0,,,,,
137,137,130404.81036748864,593.7214521765497,9.755752206258236,130530.972626301,-10523.618271954609,9.962547571352754,130553.41839761524,43977.18563798315,9.66281876621898,130576.45203459916,-9353.75365015744,8.770347603507481,130804.9293585645,11317.414608067264,33.09974642673895,0.9754207016398478,128.0,98.0,70.0,257.0,327.0,30.0,2886.0,2879.0,31.0,16.0,15.0,0.5161290322580645,25.02225645005988,512.1804542781616,18.0,14.0,4.0,0.7777777777777778,1467.924406947729,8468.531034214786,21.0,10.0,11.0,0.4761904761904761,2433.095339694969,44711.27358822563,16.0,3.0,13.0,0.1875,1441.730639931476,22982.192681406115,82.0,41.0,41.0,0.5,79.89781214180844,11947.50233152796,0.0,0.0,0.0,0.0,130390.0,130420.0,130518.0,130535.0,130543.0,130564.0,130573.0,130588.0,130765.0,130845.0,0.042144774049059,-0.13948856458046757,0.05532630850286839,-0.15413391178066885,0.007059722994053412
138,138,131313.65790667152,146.16567995872518,3.831385549814008,131439.54796540082,-10923.320953852486,11.944922919431702,131461.61085095536,45758.25867157879,9.683371908505215,131484.45203459918,-9944.612040145428,9.97197647019676,131714.9420367961,10205.66182999676,29.84333000816203,0.9755826342033388,118.0,106.0,71.0,255.0,326.0,12.0,906.0,909.0,13.0,7.0,6.0,0.5384615384615384,30.234808205442853,126.6650368388938,19.0,16.0,3.0,0.8421052631578947,1547.8000026201344,10030.69503118383,22.0,11.0,11.0,0.5,2473.2767263707055,42508.92443720119,18.0,4.0,14.0,0.2222222222222222,1487.6328564916698,24228.060298997516,76.0,38.0,38.0,0.5,77.68400538154141,10581.605772534447,0.0,0.0,0.0,0.0,131308.0,131320.0,131426.0,131443.0,131451.0,131473.0,131481.0,131497.0,131678.0,131752.0,0.2068529918513065,-0.14169683461276025,0.05405093633746379,-0.14959184435614392,0.007611853760743911
139,139,132238.6038899117,414.13074353740046,7.00107793032504,132366.97262630097,-10224.995131153111,10.479726977695556,132390.244932491,43414.88767819884,9.554893521700205,132412.6908037256,-9082.938856047473,8.898763794120827,132643.31185308244,10104.938043002372,30.376720607989007,0.9783972549637672,127.0,106.0,70.0,256.0,326.0,21.0,924.0,928.0,23.0,12.0,11.0,0.5217391304347826,28.36504701846159,393.1109846095634,18.0,13.0,5.0,0.7222222222222222,1378.8520278299416,6414.729545367819,21.0,10.0,11.0,0.4761904761904761,2408.3217484937077,43164.48743388712,16.0,4.0,12.0,0.25,1390.5652662172693,22229.32934141409,78.0,39.0,39.0,0.5,76.54173971942764,10475.6737331059,0.0,0.0,0.0,0.0,132228.0,132249.0,132355.0,132371.0,132380.0,132401.0,132409.0,132425.0,132605.0,132681.0,0.06849297585630688,-0.13485111827866889,0.055472255654436885,-0.1530964028554946,0.00757468669215963
140,140,133159.12204582457,240.5448490681948,5.826465017814645,133281.97262630097,-10455.58399091804,10.28207928054658,133304.8869759061,43154.0804168861,9.64023562508678,133327.45206755545,-9109.902097805974,9.060192241728682,133557.74755832928,10615.682566891031,30.688136394560672,0.9741485122896985,118.0,100.0,71.0,256.0,327.0,18.0,924.0,915.0,18.0,8.0,10.0,0.4444444444444444,29.403582683779685,192.5660597520398,17.0,13.0,4.0,0.7647058823529411,1411.2696381545911,7070.09872502548,22.0,11.0,11.0,0.5,2390.4207799668275,42072.93819784405,17.0,3.0,14.0,0.1764705882352941,1434.497494845603,22759.870907887067,78.0,39.0,39.0,0.5,83.74990055757904,11135.632789688116,0.0,0.0,0.0,0.0,133151.0,133169.0,133269.0,133286.0,133294.0,133316.0,133324.0,133340.0,133520.0,133596.0,0.12223742390527652,-0.1349776004267626,0.0553926941988888,-0.15746574216105866,0.007889261950878634
141,141,134020.74611383677,1199.411974779311,16.0479092346224,134140.97262630097,-9397.97476506209,8.331443165073278,134164.01542544772,44167.132081751915,9.471816344875078,134187.0760969158,-8254.63992793869,7.504013521307023,134412.36101215926,11497.443510980129,36.17579060268667,0.9751772863292528,132.0,86.0,68.0,257.0,325.0,46.0,860.0,859.0,47.0,24.0,23.0,0.5106382978723404,26.251189327196983,1093.7317243304858,16.0,12.0,4.0,0.75,1424.9173236879965,8437.122671481806,22.0,11.0,11.0,0.5,2436.958229257589,44486.351691614,15.0,3.0,12.0,0.2,1394.4284071293328,21386.699491630476,87.0,43.0,44.0,0.4942528735632184,83.55271276244208,12377.238292273694,0.0,0.0,0.0,0.0,133998.0,134044.0,134130.0,134145.0,134153.0,134175.0,134184.0,134198.0,134371.0,134455.0,0.02188671605686373,-0.15161961585439332,0.05517583131154768,-0.16892661815686769,0.007267068777737306
142,142,0.0,0.0,0.0,0.0,0.0,0.0,0.0,0.0,0.0,0.0,0.0,0.0,0.0,0.0,0.0,0.0,0.0,0.0,0.0,0.0,0.0,0.0,0.0,0.0,0.0,0.0,0.0,0.0,0.0,0.0,0.0,0.0,0.0,0.0,0.0,0.0,0.0,0.0,0.0,0.0,0.0,0.0,0.0,0.0,0.0,0.0,0.0,0.0,0.0,0.0,0.0,0.0,0.0,0.0,0.0,0.0,0.0,0.0,,134620.0,134968.0,134985.0,134994.0,135015.0,135023.0,135039.0,135219.0,135292.0,,,,,
143,143,0.0,0.0,0.0,0.0,0.0,0.0,0.0,0.0,0.0,0.0,0.0,0.0,0.0,0.0,0.0,0.0,0.0,0.0,0.0,0.0,0.0,0.0,0.0,0.0,0.0,0.0,0.0,0.0,0.0,0.0,0.0,0.0,0.0,0.0,0.0,0.0,0.0,0.0,0.0,0.0,0.0,0.0,0.0,0.0,0.0,0.0,0.0,0.0,0.0,0.0,0.0,0.0,0.0,0.0,0.0,0.0,0.0,0.0,,135516.0,135867.0,135884.0,135893.0,135914.0,135922.0,135937.0,136119.0,136193.0,,,,,
144,144,137589.03188277336,1512.2554968426375,17.312071287543677,137709.97262627463,-9307.397834785692,8.503521231211556,137732.81640769535,44340.32441386908,9.416405070081618,137756.45203459918,-8219.30898847398,7.314548225925499,137982.29263113666,11543.308480092615,35.229865101384576,0.9781060478084268,132.0,83.0,69.0,257.0,326.0,49.0,3569.0,3569.0,49.0,23.0,26.0,0.4693877551020408,28.828341317867952,1436.7662538773434,16.0,12.0,4.0,0.75,1435.1029312434296,8723.368222625075,22.0,11.0,11.0,0.5,2442.505213806583,44290.71712400968,15.0,4.0,11.0,0.2666666666666666,1391.9876349130172,21406.82606204632,85.0,42.0,43.0,0.4941176470588235,81.86867524597983,12334.155715995525,0.0,0.0,0.0,0.0,137566.0,137615.0,137698.0,137714.0,137722.0,137744.0,137753.0,137767.0,137942.0,138024.0,0.019063142027294463,-0.1541894906307584,0.0550854159524958,-0.16935579826297023,0.007092305935267094
145,145,138476.77216841956,579.4173845287231,7.1982266189449495,138603.97262630097,-10491.806057339576,10.897149629680682,138626.49539400556,45094.54014113637,9.622676127108717,138649.45203459918,-9590.273499956553,8.810466654688751,138878.86889553274,10263.895741267312,29.855665497913265,0.978886584151462,125.0,103.0,70.0,256.0,326.0,22.0,889.0,894.0,23.0,12.0,11.0,0.5217391304347826,34.79405501156427,492.69010313492834,18.0,14.0,4.0,0.7777777777777778,1471.6773902845273,8341.963502437848,21.0,10.0,11.0,0.4761904761904761,2476.993043312417,45541.588389978766,16.0,3.0,13.0,0.1875,1484.7685598292517,23642.527486783492,76.0,38.0,38.0,0.5,73.9246587933034,10625.694342990686,0.0,0.0,0.0,0.0,138466.0,138488.0,138591.0,138608.0,138616.0,138637.0,138646.0,138661.0,138842.0,138917.0,0.060050070882606464,-0.14026921411257032,0.05492889018404341,-0.15482025198092403,0.007202397672072974
146,146,139394.65719777285,597.2472668462852,7.536271626535414,139522.97262630097,-10550.439025863614,11.015578581230438,139545.35321245744,43696.19439643003,9.614945576093591,139567.99331455296,-9044.72545644873,8.604253033688936,139798.0207982005,10326.966823907456,30.538640770809252,0.9768047389018428,128.0,104.0,70.0,256.0,326.0,24.0,916.0,919.0,25.0,13.0,12.0,0.52,34.21989011534408,539.0584287668673,18.0,14.0,4.0,0.7777777777777778,1447.2255795583508,7974.492440948099,21.0,10.0,11.0,0.4761904761904761,2406.2730798872435,43945.798028245845,16.0,4.0,12.0,0.25,1411.902782662397,22341.838958935077,78.0,39.0,39.0,0.5,73.4445108701863,10705.498727520942,0.0,0.0,0.0,0.0,139382.0,139406.0,139510.0,139527.0,139535.0,139556.0,139565.0,139580.0,139760.0,139836.0,0.057296017939168435,-0.1371720717982053,0.05506825281068036,-0.15610233715338867,0.00711191505913997
147,147,141174.61266556047,820.3057092301012,9.757930273613043,141296.97262630097,-10333.351203538765,9.815369275733168,141319.74780931094,43900.320946203545,9.6036047446397,141343.02737369903,-9231.855530079096,8.719666767094981,141569.24306125854,11191.562546615458,32.58707627559867,0.9787180570358934,124.0,96.0,70.0,254.0,324.0,28.0,1778.0,1774.0,29.0,15.0,14.0,0.5172413793103449,29.90066967687989,741.3953208916444,17.0,13.0,4.0,0.7647058823529411,1441.383616822758,7829.80446339034,22.0,11.0,11.0,0.5,2434.8223189942664,42890.817408563205,16.0,4.0,12.0,0.25,1378.93108387695,22297.66651997011,80.0,40.0,40.0,0.5,83.76887517829383,11871.208265503155,0.0,0.0,0.0,0.0,141161.0,141189.0,141285.0,141301.0,141309.0,141331.0,141339.0,141355.0,141530.0,141609.0,0.03645064192585371,-0.13948849588400142,0.05546251750591877,-0.14936662292690098,0.007485002637422344
148,148,141960.2063754209,1030.1247953022842,11.03155648723795,142084.54796540082,-10242.41091085027,10.067898364809782,142107.26978829593,44798.82372239543,9.633971600814805,142130.4520345992,-9476.5721628726,8.784262315036793,142356.0452698633,10957.344918376008,30.530318471821424,0.983060945102943,128.0,95.0,70.0,252.0,322.0,33.0,787.0,787.0,33.0,16.0,17.0,0.4848484848484848,35.576272610794625,964.4193349988002,18.0,14.0,4.0,0.7777777777777778,1494.0839873285263,9443.489238303122,21.0,10.0,11.0,0.4761904761904761,2466.9597070416658,44981.58641627795,17.0,4.0,13.0,0.2352941176470588,1454.226166512566,23325.173511910183,76.0,38.0,38.0,0.5,81.31326355644403,11419.84446366778,0.0,0.0,0.0,0.0,141944.0,141977.0,142072.0,142088.0,142097.0,142118.0,142127.0,142142.0,142319.0,142394.0,0.03453588611111431,-0.14587229513959182,0.055067510752707674,-0.15345487181640913,0.007420891115700636
149,149,142761.07211414105,97.09510274155652,2.567756761508724,142887.97262630097,-10581.017452105756,11.455282968211913,142910.7973298759,45641.9717873406,9.591204215163929,142933.45203459918,-9867.29779788765,9.212727608348375,143160.76930961534,10339.903461210724,28.62493551234972,0.9751631045039094,117.0,110.0,70.0,252.0,322.0,7.0,802.0,804.0,7.0,3.0,4.0,0.4285714285714285,37.09597481005275,213.54240517616864,18.0,14.0,4.0,0.7777777777777778,1457.8028734366328,7586.005111516284,22.0,11.0,11.0,0.5,2505.349478900092,43541.76894702851,17.0,3.0,14.0,0.1764705882352941,1519.495991915842,24229.560867784945,73.0,37.0,36.0,0.5068493150684932,82.54463228146923,10674.091414120576,0.0,0.0,0.0,0.0,142758.0,142765.0,142875.0,142892.0,142900.0,142922.0,142930.0,142945.0,143125.0,143197.0,0.3820581446707275,-0.13777530185875572,0.05489135067549785,-0.15399312182927422,0.007983114406350935
150,150,143647.43021250577,459.0522842859067,6.293024205459343,143776.97262630097,-10513.952102886056,11.573682026120432,143799.5144573701,44266.83029665659,9.539979242682303,143822.45203459918,-9253.715680522417,8.702947431935609,144052.3992896256,10046.162676606482,28.637079302454573,0.9756133251281004,126.0,107.0,70.0,255.0,325.0,19.0,886.0,889.0,19.0,9.0,10.0,0.4736842105263157,38.73100892971884,521.3060001192624,18.0,14.0,4.0,0.7777777777777778,1438.5125138425913,7531.347018723311,22.0,11.0,11.0,0.5,2435.9729471850137,41950.323930185536,17.0,4.0,13.0,0.2352941176470588,1452.7487474183592,23003.14126557896,74.0,37.0,37.0,0.5,76.22408061736994,10374.02739700419,0.0,0.0,0.0,0.0,143638.0,143657.0,143764.0,143781.0,143789.0,143811.0,143819.0,143834.0,144016.0,144089.0,0.08437167236836232,-0.13681939006053898,0.05502930593539694,-0.1569908561677729,0.007587382672477075
151,151,144604.3408340735,943.3285270647158,9.370017701604946,144730.9726262996,-10108.827068807888,9.643769436692462,144753.83742127428,43666.66288399509,9.58111200888941,144776.57773913242,-8950.91857753484,8.385737006210979,145005.8470648831,11359.02084312564,31.675177809309083,0.9767847673400584,128.0,101.0,69.0,257.0,326.0,27.0,957.0,954.0,27.0,13.0,14.0,0.4814814814814814,40.52870924217945,900.5692393689365,17.0,13.0,4.0,0.7647058823529411,1423.4822309231051,7788.569120280516,22.0,11.0,11.0,0.5,2426.0361469075356,42953.1857429058,16.0,4.0,12.0,0.25,1372.6414879799922,21771.23539042193,80.0,40.0,40.0,0.5,83.63464647798277,11876.89024398956,0.0,0.0,0.0,0.0,144591.0,144618.0,144719.0,144735.0,144743.0,144765.0,144773.0,144788.0,144967.0,145045.0,0.04296351491488292,-0.1408157663825753,0.0555580845129509,-0.15335202483296742,0.007362839423663667
