Unnamed: 0,cycle,p_center,p_height,p_width,q_center,q_height,q_width,r_center,r_height,r_width,s_center,s_height,s_width,t_center,t_height,t_width,r_squared,pr_interval,pr_segment,qrs_duration,st_segment,qt_interval,p_duration,pp_interval,rr_interval,fwhm_p,rise_time_p,decay_time_p,rise_decay_symmetry_p,sharpness_deriv_p,sharpness_diff_p,fwhm_q,rise_time_q,decay_time_q,rise_decay_symmetry_q,sharpness_deriv_q,sharpness_diff_q,fwhm_r,rise_time_r,decay_time_r,rise_decay_symmetry_r,sharpness_deriv_r,sharpness_diff_r,fwhm_s,rise_time_s,decay_time_s,rise_decay_symmetry_s,sharpness_deriv_s,sharpness_diff_s,fwhm_t,rise_time_t,decay_time_t,rise_decay_symmetry_t,sharpness_deriv_t,sharpness_diff_t,Average_Heart_Rate,SDNN,RMSSD,NN50,p_on,p_off,q_on,q_off,r_on,r_off,s_on,s_off,t_on,t_off,sharpness_deriv_p_norm,sharpness_deriv_q_norm,sharpness_deriv_r_norm,sharpness_deriv_s_norm,sharpness_deriv_t_norm
0,0,,,,,,,,,,,,,,,,,,,,,,,,,,,,,,,,,,,,,,,,,,,,,,,,,,,,,,,53.61279229393685,554.8165121751493,795.2890150440055,176.0,,,,,,,,,,,,,,,
1,1,2247.296459627191,1362.0324659989708,13.11236477118048,2391.3988595609826,-5493.048089143424,17.8357578060484,2422.295864158216,48017.88946585441,10.389031085981022,2445.602712798848,-15055.741500681806,12.402116106635797,2710.3293070841505,12381.831984661549,38.04928516110177,0.9576298268383951,149.0,112.0,84.0,298.0,382.0,37.0,,,39.0,20.0,19.0,0.5128205128205128,35.42105044752729,1208.7718486473632,22.0,14.0,8.0,0.6363636363636364,618.3233145722085,967.216271050512,23.0,12.0,11.0,0.5217391304347826,2291.5991941628204,40259.26406934366,21.0,5.0,16.0,0.238095238095238,1545.420943543632,28525.799238274827,97.0,47.0,50.0,0.4845360824742268,50.825859227856746,12447.41251560695,,,,,2228.0,2265.0,2377.0,2399.0,2410.0,2433.0,2441.0,2461.0,2663.0,2759.0,0.026006025063101585,-0.11256470078867063,0.047723863327903654,-0.10264661780182974,0.0041048739226004
2,2,3345.2934602188234,826.0746848563128,10.485707337617658,3488.602712798848,-5448.142400203553,20.383723206912453,3523.524924562197,48575.28857253534,10.242668825933054,3546.0273736989925,-14780.44541832885,13.340642661037418,3814.166084244295,11766.48334275954,36.77841911594088,0.956679222330962,144.0,113.0,89.0,299.0,388.0,31.0,1097.0,1101.0,33.0,17.0,16.0,0.5151515151515151,38.08732230412439,700.3179482575213,37.0,26.0,11.0,0.7027027027027027,399.1450003369931,2366.966205516971,23.0,13.0,10.0,0.5652173913043478,2299.112967518607,36818.66172349476,21.0,4.0,17.0,0.1904761904761904,1623.1272539426757,29450.232838616917,95.0,47.0,48.0,0.4947368421052631,50.58487096621011,11710.133749123634,,,,,3329.0,3360.0,3473.0,3500.0,3511.0,3534.0,3542.0,3562.0,3768.0,3861.0,0.04610639086555387,-0.07326258585349757,0.04733091732611002,-0.10981585520622249,0.0042990645116866896
3,3,4542.203965364766,2123.117790105453,17.456689140316424,4692.316311916461,-5280.708067349812,17.8357578060484,4723.670722217341,46657.58937221145,10.368856437126771,4747.027373698993,-15129.377527653063,10.970520891341916,5015.459131510903,11938.096213518036,40.19755226683963,0.9601886534264412,158.0,116.0,83.0,304.0,387.0,42.0,1196.0,1200.0,44.0,23.0,21.0,0.5227272727272727,47.833916185881215,2032.6759677648135,22.0,14.0,8.0,0.6363636363636364,570.5216759625392,588.93451574039,23.0,13.0,10.0,0.5652173913043478,2296.932212645859,38373.346747961165,20.0,5.0,15.0,0.25,1603.025292625404,28555.74784813267,99.0,48.0,51.0,0.4848484848484848,56.17771205220967,12362.607252036025,,,,,4520.0,4562.0,4678.0,4700.0,4711.0,4734.0,4743.0,4761.0,4967.0,5065.0,0.02253003408892606,-0.10803885931320996,0.04922955179535866,-0.10595447761782917,0.004705751323112738
4,4,5752.435123149059,2025.6404408370472,15.72632624058923,5901.602712808821,-4838.327205207984,20.383723206912453,5936.638339353601,46891.90602947178,10.308673510513932,5959.602712798849,-15801.225055681423,11.43407308125087,6228.554895013316,11665.038299136377,39.37014953298017,0.9571108746828068,160.0,118.0,84.0,304.0,388.0,42.0,1211.0,1213.0,43.0,22.0,21.0,0.5116279069767442,38.87227367887315,1804.618586184862,77.0,66.0,11.0,0.8571428571428571,375.2107980543379,1749.9416244270672,23.0,13.0,10.0,0.5652173913043478,2294.2325139242193,37058.99631924597,20.0,5.0,15.0,0.25,1606.6331884016552,29026.950103787654,99.0,49.0,50.0,0.494949494949495,56.69215320724791,11931.154439618227,,,,,5730.0,5772.0,5890.0,5913.0,5924.0,5947.0,5955.0,5974.0,6180.0,6278.0,0.019190115331035807,-0.07754969478923632,0.048925981223332735,-0.10167776123307481,0.004860005749954985
5,5,6954.939957750721,2313.737441642239,16.450837105663005,7108.972625761214,-5021.282460408051,17.835757803137717,7136.663504378533,44993.698154446465,10.420233092887784,7161.188513816474,-15718.135579405343,10.171182246590911,7427.898729614857,12079.58016820504,41.84826980658997,0.9613478876165754,159.0,117.0,82.0,305.0,387.0,42.0,1201.0,1201.0,42.0,21.0,21.0,0.5,43.56917939435064,2185.072504419325,22.0,17.0,5.0,0.7727272727272727,843.5570443028403,6064.490670837881,24.0,13.0,11.0,0.5416666666666666,2224.0185646893156,37905.62558413505,19.0,5.0,14.0,0.2631578947368421,1560.4512035468815,27971.095614015227,103.0,51.0,52.0,0.4951456310679611,55.6363813334078,12457.300793750905,,,,,6934.0,6976.0,7093.0,7113.0,7124.0,7148.0,7156.0,7175.0,7378.0,7480.0,0.018830649757487702,-0.16799633379602574,0.049429556936064586,-0.09927711818388052,0.004605820778428184
6,6,8104.133070384176,1464.0850713291986,12.185893063789008,8251.027373699608,-5070.2488134193045,17.8357578060484,8283.609145356335,43603.60354170837,10.155406502212664,8308.952380627006,-16010.7872175654,10.268669928619852,8572.616945854155,11825.724158919187,41.50880084585075,0.9496369020026552,148.0,115.0,87.0,303.0,390.0,33.0,1149.0,1146.0,33.0,17.0,16.0,0.5151515151515151,43.72689817467135,1347.9171604964863,28.0,18.0,10.0,0.6428571428571429,450.4217324525429,708.948224046251,23.0,13.0,10.0,0.5652173913043478,2203.877382464273,36825.97620809116,19.0,6.0,13.0,0.3157894736842105,1474.562127474864,27107.539939149818,104.0,51.0,53.0,0.4903846153846153,55.08212022777104,12117.996250280772,,,,,8087.0,8120.0,8235.0,8261.0,8271.0,8294.0,8303.0,8322.0,8523.0,8625.0,0.02986636434655605,-0.08883621870004144,0.05054346896710469,-0.09209804036725472,0.004657822175416383
7,7,9239.795263672922,2568.7683576682425,19.12554409503387,9390.972626301009,-5173.947493223862,17.83575780604812,9417.951795049246,44544.12678664037,10.332271868329022,9443.492229003105,-16546.3347865228,10.15471609922294,9706.5823756042,12757.1572860243,43.95704802157894,0.9622656908320129,158.0,113.0,82.0,305.0,387.0,45.0,1136.0,1135.0,46.0,24.0,22.0,0.5217391304347826,53.71267459633375,2517.038168594099,22.0,18.0,4.0,0.8181818181818182,897.2917715281266,6662.872724011173,23.0,12.0,11.0,0.5217391304347826,2213.803075911528,38691.360661348706,20.0,6.0,14.0,0.3,1544.0168566044542,28426.22055012355,110.0,54.0,56.0,0.4909090909090909,58.38491569783928,13064.131835635468,,,,,9217.0,9262.0,9375.0,9395.0,9406.0,9429.0,9437.0,9457.0,9655.0,9762.0,0.020909894205132045,-0.17342498599053782,0.04969910144417714,-0.09331473565143114,0.004576639951112073
8,8,10333.90992725508,2112.554224597739,15.409969879433651,10481.653461061062,-6091.2146400095135,15.287792405184335,10509.525227119851,47147.9323995557,10.70255938507956,10533.60271279885,-17529.835107168547,12.590412162410887,10796.061346614368,13268.350030888105,42.34650248631826,0.9610548851386024,151.0,110.0,86.0,299.0,385.0,41.0,1092.0,1091.0,41.0,21.0,20.0,0.5121951219512195,52.94116627638761,2000.688119888655,24.0,19.0,5.0,0.7916666666666666,936.6724151663368,6659.471144743018,23.0,13.0,10.0,0.5652173913043478,2272.478992689257,36613.9587786472,22.0,6.0,16.0,0.2727272727272727,1535.2172657490014,29804.006241167728,104.0,51.0,53.0,0.4903846153846153,50.99762859321951,13495.72375587152,,,,,10313.0,10354.0,10464.0,10486.0,10497.0,10520.0,10529.0,10550.0,10745.0,10849.0,0.025060263854987382,-0.1537743242561017,0.04819891089668806,-0.08757739341890322,0.003843554660112176
9,9,11395.535122555417,1353.4748091174124,13.774235446648415,11534.6027127997,-4763.385176828177,20.383723206912453,11569.662596090986,47504.23103976875,10.295571635237511,11593.60271279885,-15165.53322778799,11.993739269377594,11857.4854434241,12042.198389008256,38.1704051156716,0.960729248949048,149.0,112.0,83.0,299.0,382.0,37.0,1065.0,1060.0,38.0,21.0,17.0,0.5526315789473685,38.31267645896848,1247.3340522172566,96.0,85.0,11.0,0.8854166666666666,382.1950611829018,1673.359938074545,23.0,13.0,10.0,0.5652173913043478,2287.3356951962614,38208.351926633026,20.0,5.0,15.0,0.25,1518.877064703848,28099.29986860722,98.0,48.0,50.0,0.4897959183673469,49.94785400675428,11978.22223418708,,,,,11376.0,11413.0,11525.0,11546.0,11557.0,11580.0,11589.0,11608.0,11809.0,11907.0,0.02830690028427777,-0.08023601850258019,0.04815014673706412,-0.10015322520416171,0.004147735520811975
10,10,12443.223190987072,1541.4880529572415,16.534615715996054,12583.027373698991,-4821.384712350032,17.8357578060484,12617.239902084566,46572.34029847006,10.357514638666654,12640.823704503597,-14338.97330598521,11.009213300617525,12904.76321459236,12155.720472553365,39.49878951752387,0.963023913310433,130.0,78.0,106.0,299.0,405.0,52.0,1049.0,1048.0,53.0,25.0,28.0,0.4716981132075472,31.41901201719245,1298.7633761564502,64.0,53.0,11.0,0.828125,389.24344828556474,978.877263392742,23.0,12.0,11.0,0.5217391304347826,2261.8108063507075,40515.97864008111,20.0,5.0,15.0,0.25,1540.2875463458524,27429.773454245165,98.0,49.0,49.0,0.5,65.14613351997481,12475.088920394934,,,,,12419.0,12471.0,12549.0,12593.0,12605.0,12628.0,12636.0,12655.0,12857.0,12954.0,0.020382261125486623,-0.080732708860281,0.04856553894125458,-0.10741965365839151,0.005359298419790873
11,11,13539.804939671942,1035.0885652415316,11.88284897503711,13688.211454498349,-5386.657545987237,17.8357578060484,13721.55732707384,47013.07957951865,10.290974680775683,13744.60271279885,-14544.330331692094,12.253756536844197,14010.572777562706,11485.158984275224,38.27374113854936,0.9545598296090568,150.0,118.0,86.0,300.0,386.0,32.0,1093.0,1104.0,32.0,17.0,15.0,0.53125,42.418600057650536,956.5938229380948,27.0,17.0,10.0,0.6296296296296297,449.5650322398184,1286.0756201437698,23.0,13.0,10.0,0.5652173913043478,2272.3878808383624,37208.76056522729,20.0,5.0,15.0,0.25,1548.2056549986928,27870.864903459173,96.0,47.0,49.0,0.4895833333333333,48.70425160857497,11630.52696534298,,,,,13523.0,13555.0,13673.0,13698.0,13709.0,13732.0,13740.0,13759.0,13964.0,14059.0,0.04098064791948737,-0.08345899630740765,0.04833522715725973,-0.10644736606574129,0.004240624938257959
12,12,14763.524227976335,1521.3123708197866,15.526510786896178,14920.481214537334,-5233.289831542759,17.8357578060484,14948.877260344869,46647.50516050489,10.431482157518545,14972.578753919222,-14937.77289928222,10.142492982159888,15239.875286127492,11497.80322350967,39.78645255381952,0.9588377485828612,162.0,122.0,81.0,304.0,385.0,40.0,1227.0,1228.0,40.0,21.0,19.0,0.525,43.809576395489685,1443.7886249357862,22.0,16.0,6.0,0.7272727272727273,779.811108677054,4355.029910133568,23.0,12.0,11.0,0.5217391304347826,2290.8677931542866,40025.64742615563,18.0,5.0,13.0,0.2777777777777778,1565.4559493936913,27276.364663021515,98.0,48.0,50.0,0.4897959183673469,58.26627552965219,11791.476898165727,,,,,14743.0,14783.0,14905.0,14925.0,14937.0,14960.0,14968.0,14986.0,15193.0,15290.0,0.02879722615538984,-0.14900973073894663,0.0491101889644872,-0.10479848367951247,0.0050676006883223195
13,13,15987.275552007197,2207.759650528428,19.341870533868555,16141.972626301009,-5278.02416323061,17.8357578060484,16169.502780324776,45197.37624204341,10.397701542116302,16193.622673187983,-15903.596132763028,10.198406417110345,16461.368324816776,11546.721915514778,40.37708575142372,0.9636765234308312,164.0,105.0,82.0,305.0,387.0,59.0,1220.0,1220.0,59.0,26.0,33.0,0.4406779661016949,36.13574373340653,2070.7955664722576,24.0,19.0,5.0,0.7916666666666666,860.7163049325324,6141.252700613561,23.0,13.0,10.0,0.5652173913043478,2255.504875665748,37309.61162613544,19.0,6.0,13.0,0.3157894736842105,1546.8910189191106,27622.065902579277,102.0,50.0,52.0,0.4901960784313725,50.98716231073043,11729.50405131123,,,,,15961.0,16020.0,16125.0,16146.0,16157.0,16180.0,16189.0,16207.0,16412.0,16512.0,0.016367607644590037,-0.16307547641193426,0.04990344712903129,-0.09726674432660909,0.004415726184781624
14,14,17175.677035352903,2912.592679203366,19.514624212083945,17325.972626301005,-4944.553925779945,17.835757805496126,17352.77711355085,44646.87101265075,10.416524073766738,17377.419750086316,-16716.67016376155,10.553651399416562,17643.409173450145,12134.881119569596,42.36750719378512,0.9683859351535434,158.0,107.0,81.0,305.0,386.0,51.0,1187.0,1184.0,53.0,24.0,29.0,0.4528301886792453,54.85163940647174,2801.623959380076,22.0,18.0,4.0,0.8181818181818182,915.9415600640228,7390.829527465197,22.0,12.0,10.0,0.5454545454545454,2216.005161912019,37184.14540831181,20.0,5.0,15.0,0.25,1587.3770299286964,29121.414341661555,104.0,51.0,53.0,0.4903846153846153,52.70089795577375,12400.708374492327,,,,,17152.0,17203.0,17310.0,17330.0,17341.0,17363.0,17372.0,17391.0,17593.0,17696.0,0.018832581637015722,-0.18524250595963396,0.049634052995205666,-0.09495772868509526,0.004342926596189263
15,15,18345.04679088713,2583.168978179908,19.153322382580544,18493.972626301005,-4313.35873888381,17.83575780601678,18521.676414422993,44168.17326588678,10.233258933930312,18547.27792201961,-16061.366017149749,9.918548927244697,18811.157119654676,12205.532387628462,42.35746689382867,0.9642118296918416,160.0,105.0,80.0,304.0,384.0,55.0,1170.0,1169.0,55.0,25.0,30.0,0.4545454545454545,47.34958775044195,2511.5787467373866,20.0,15.0,5.0,0.75,818.3966591733908,5965.22855811445,23.0,12.0,11.0,0.5217391304347826,2201.5059187157417,37841.153878868055,19.0,6.0,13.0,0.3157894736842105,1508.4382490081998,27513.098003103503,106.0,52.0,54.0,0.490566037735849,50.93517051248558,12389.4216217435,,,,,18320.0,18375.0,18480.0,18498.0,18510.0,18533.0,18541.0,18560.0,18760.0,18864.0,0.01833003885940296,-0.18973535676403572,0.049843716774586905,-0.09391718284718396,0.0041731215726495885
16,16,19491.136815001984,3355.7160105969233,25.56938303104629,19638.97262630091,-4506.211760233963,8.543280696875927,19666.752709497927,44628.060421385686,10.252494184559234,19692.927312629978,-15224.32881652808,9.600782885043763,19952.96191160632,13615.96133831526,45.79094230732291,0.971748836618225,164.0,99.0,79.0,303.0,382.0,65.0,1147.0,1145.0,65.0,28.0,37.0,0.4307692307692308,59.54712681438427,3427.2563448715364,16.0,12.0,4.0,0.75,862.6342952486916,7070.152056362443,24.0,13.0,11.0,0.5416666666666666,2220.1988079040616,40064.26702410856,19.0,6.0,13.0,0.3157894736842105,1432.0283884336218,25726.570439574505,111.0,55.0,56.0,0.4954954954954955,62.656284160344875,14101.723988430378,,,,,19463.0,19528.0,19627.0,19643.0,19654.0,19678.0,19687.0,19706.0,19900.0,20009.0,0.017744983969543916,-0.19143225865708174,0.04974894241292517,-0.09406184047200558,0.004601679059122351
17,17,20565.876022789256,1540.510382020453,14.347641185488122,20713.972626301005,-5406.7651181367,17.835757804662702,20741.30894515953,48336.75300565401,10.525008537633978,20765.88041392517,-16320.26667615548,11.325455060513011,21028.00570159627,12975.588084265786,39.950400006259024,0.958911787064648,154.0,113.0,82.0,297.0,379.0,41.0,1080.0,1074.0,41.0,21.0,20.0,0.5121951219512195,37.25555258760851,1404.6133991291863,19.0,15.0,4.0,0.7894736842105263,970.1254391691796,6976.673392370785,23.0,12.0,11.0,0.5217391304347826,2316.476837200886,41768.30117264681,21.0,6.0,15.0,0.2857142857142857,1560.8062302026217,29161.886205711548,100.0,49.0,51.0,0.49,62.350332033893515,13160.666342824108,,,,,20545.0,20586.0,20699.0,20718.0,20729.0,20752.0,20761.0,20781.0,20980.0,21078.0,0.0241839023108342,-0.17942807167911667,0.04792371628540967,-0.09563607391802109,0.004805202787648569
18,18,21616.3524214709,1658.6751571200357,16.22004041326184,21758.027373698995,-5215.692264311494,17.8357578060484,21791.57161050282,47930.23341997217,10.39770881301131,21814.602712798853,-15527.527553105125,12.246745025512547,22080.487116795503,12208.043960894143,37.91841102647712,0.9626917905837432,102.0,66.0,131.0,299.0,430.0,36.0,1048.0,1050.0,37.0,19.0,18.0,0.5135135135135135,48.98761791928468,1653.4664771228397,83.0,73.0,10.0,0.8795180722891566,450.0850851421053,737.1270836295457,23.0,13.0,10.0,0.5652173913043478,2304.298365670214,37590.014771809096,21.0,5.0,16.0,0.238095238095238,1585.9775801417609,29063.57777425359,95.0,46.0,49.0,0.4842105263157895,61.74468296646234,12450.29865863183,,,,,21597.0,21633.0,21699.0,21768.0,21779.0,21802.0,21810.0,21830.0,22034.0,22129.0,0.029534184381432516,-0.08629440970316134,0.04807609313060491,-0.10213973697471264,0.005057704834963588
19,19,22669.78745678559,1745.6454909475697,18.401323774079525,22812.05738304788,-4331.045315511155,20.383723206912453,22847.155993306,46749.028750677615,10.183004920224777,22871.559847520835,-13757.03453874731,10.338260751913277,23136.313117981772,12334.174746570316,38.59463221816384,0.9640343778198538,158.0,105.0,83.0,299.0,382.0,53.0,1055.0,1056.0,54.0,26.0,28.0,0.4814814814814814,29.56106233161116,1601.655334392748,24.0,12.0,12.0,0.5,331.888440829916,1886.5633033654933,23.0,12.0,11.0,0.5217391304347826,2280.3868405690932,41386.48358270633,19.0,6.0,13.0,0.3157894736842105,1467.9013486520796,25983.52788791559,96.0,47.0,49.0,0.4895833333333333,60.68610864307205,12596.531804531927,,,,,22644.0,22697.0,22802.0,22823.0,22835.0,22858.0,22867.0,22885.0,23089.0,23184.0,0.016934172765837384,-0.07663010120011782,0.048779341550192944,-0.10670187274137236,0.00492015962883505
20,20,23760.831788676416,1667.5443773518214,16.8107906044964,23911.26860110547,-5350.226161351064,17.8357578060484,23939.56200222256,46868.63100278649,10.442007731692796,23963.027373698995,-15203.189982925329,10.892311073302398,24228.455759215172,12206.650796756794,39.873379286149515,0.956452513161244,157.0,112.0,82.0,302.0,384.0,45.0,1090.0,1092.0,46.0,24.0,22.0,0.5217391304347826,32.92273212277893,1518.2003232275706,22.0,17.0,5.0,0.7727272727272727,810.9616258979344,4790.648174403328,23.0,13.0,10.0,0.5652173913043478,2294.2447818737587,38269.50190021836,20.0,5.0,15.0,0.25,1594.941217088677,28513.01314265072,100.0,49.0,51.0,0.49,53.44899112925766,12350.537993846126,,,,,23738.0,23783.0,23895.0,23916.0,23927.0,23950.0,23959.0,23977.0,24180.0,24279.0,0.019743241961010096,-0.15157520475604466,0.048950539684791704,-0.1049083264025479,0.004378677822376848
21,21,24932.17538047416,2294.22628222931,19.70168142015116,25082.54796540086,-4874.606888145388,15.28779240518434,25108.913038445364,45762.81779598599,10.405362731059371,25132.910883179033,-15086.677326485584,9.686825526986716,25398.908153331307,12329.258463184682,41.45642360156901,0.9612008539180652,160.0,104.0,79.0,304.0,383.0,56.0,1171.0,1170.0,57.0,26.0,31.0,0.4561403508771929,44.31649972985067,2276.1696089080087,23.0,20.0,3.0,0.8695652173913043,1002.4986700500098,9716.67689657451,23.0,12.0,11.0,0.5217391304347826,2281.004458930934,40237.566724799566,18.0,5.0,13.0,0.2777777777777778,1585.7208973202507,27464.328387877144,101.0,49.0,52.0,0.4851485148514851,54.69713502559462,12619.87841665142,,,,,24907.0,24963.0,25067.0,25086.0,25097.0,25120.0,25128.0,25146.0,25351.0,25450.0,0.019316533889058286,-0.20565733669477995,0.04984405613089255,-0.10510736479638368,0.004436368593368444
22,22,26078.861543764793,1808.078359768811,18.152599300256252,26229.97262629258,-4962.379070962882,17.835757806044704,26257.123783068942,44847.910455640376,10.373446064723783,26281.560245128698,-16243.19165765683,10.220215527556768,26546.752572601345,12404.94453154663,40.96423404113905,0.9605262767221188,158.0,115.0,81.0,303.0,384.0,43.0,1143.0,1148.0,44.0,23.0,21.0,0.5227272727272727,41.63983052373589,1675.42870380057,22.0,18.0,4.0,0.8181818181818182,883.1080559323153,6788.611421911244,23.0,12.0,11.0,0.5217391304347826,2229.824168814787,38784.61855529251,19.0,6.0,13.0,0.3157894736842105,1527.6221077585258,27560.82105732705,102.0,50.0,52.0,0.4901960784313725,56.905738568424994,12698.24098827098,,,,,26056.0,26099.0,26214.0,26234.0,26245.0,26268.0,26276.0,26295.0,26498.0,26598.0,0.023029881586028242,-0.17796061995742704,0.049719689193108194,-0.09404691762277056,0.004587343250403883
23,23,27190.4570975481,2002.533556967548,15.580981739123803,27341.168342611614,-4941.3871611368495,20.383723206912453,27369.58115234271,44908.880176194485,10.34478714869474,27394.179377612472,-16760.659652166985,10.753742025359992,27657.55323488204,12350.672055201623,41.09927604309074,0.9604055170237712,154.0,115.0,83.0,301.0,384.0,39.0,1113.0,1112.0,41.0,20.0,21.0,0.4878048780487805,45.45784564631533,1965.6926048329417,23.0,17.0,6.0,0.7391304347826086,758.6657677374774,4289.452769685309,23.0,13.0,10.0,0.5652173913043478,2226.307327483287,36189.748060045866,20.0,6.0,14.0,0.3,1564.5704700330543,28945.396376794364,103.0,52.0,51.0,0.5048543689320388,50.4503171763837,12564.442119668518,,,,,27171.0,27210.0,27325.0,27347.0,27357.0,27380.0,27388.0,27408.0,27607.0,27709.0,0.0227001667403529,-0.15353295400616485,0.049573877566054705,-0.0933477859763575,0.004084823639628257
24,24,28297.362906416172,2216.0107279862787,16.356201180309935,28446.494159685008,-5481.043898823024,17.8357578060484,28474.803071306385,44804.34602263317,10.453905534787866,28499.137168203262,-17384.489554671512,11.077426701605916,28763.58873324178,12595.72369802217,40.402142097316535,0.96282757708295,154.0,113.0,83.0,302.0,385.0,41.0,1106.0,1105.0,41.0,21.0,20.0,0.5121951219512195,52.30656339840438,2130.105490599328,22.0,16.0,6.0,0.7272727272727273,758.8665269493566,3833.192375926126,23.0,13.0,10.0,0.5652173913043478,2228.243252702247,36483.88936759327,21.0,6.0,15.0,0.2857142857142857,1580.427443807716,29659.304050894956,102.0,51.0,51.0,0.5,55.75246121640351,12799.271363535829,,,,,28276.0,28317.0,28430.0,28452.0,28463.0,28485.0,28494.0,28513.0,28714.0,28815.0,0.023603930584729666,-0.13845291899820622,0.04973274805923151,-0.09091020123642501,0.004426300747225663
25,25,29378.495074642815,2384.776845362356,18.025744121283612,29527.54796540086,-5842.274986507761,12.69863289753559,29554.49002289805,46990.33504983948,10.753182894031813,29578.602712798853,-16567.541884708666,11.939618652433383,29839.7585731361,13426.760965128804,41.620220006353016,0.9665506635272308,158.0,108.0,80.0,298.0,378.0,50.0,1083.0,1080.0,50.0,22.0,28.0,0.44,47.32578890469717,2365.685738938683,19.0,16.0,3.0,0.8421052631578947,1049.5923195956464,9040.60928632467,23.0,12.0,11.0,0.5217391304347826,2263.905974587689,41128.817362453745,21.0,5.0,16.0,0.238095238095238,1527.6236798792208,28830.169324950653,104.0,51.0,53.0,0.4903846153846153,68.92466496558409,13778.119116915876,,,,,29356.0,29406.0,29514.0,29531.0,29542.0,29565.0,29574.0,29594.0,29790.0,29892.0,0.019844954884030763,-0.17965472731420395,0.04817811944065767,-0.09220581366323093,0.005133379907826704
26,26,30421.650866917375,958.1733172310508,10.091736877530968,30563.027373699064,-5250.090863987522,17.8357578060484,30596.829721788592,48594.52020350341,10.350601965904062,30620.027373698995,-15503.810618777869,13.07625254146189,30882.858287063485,11708.590120693476,37.258579367917704,0.9596972282200366,144.0,115.0,85.0,295.0,380.0,29.0,1045.0,1042.0,30.0,15.0,15.0,0.5,39.5694782050527,823.4889828774437,99.0,89.0,10.0,0.898989898989899,445.5651046528466,1129.1634195639672,23.0,13.0,10.0,0.5652173913043478,2303.8361232424363,38427.89212679736,22.0,5.0,17.0,0.2272727272727272,1606.54573632853,29736.68437860974,97.0,49.0,48.0,0.5051546391752577,56.10000784039433,11721.7494481222,,,,,30407.0,30436.0,30551.0,30573.0,30584.0,30607.0,30616.0,30636.0,30836.0,30931.0,0.04129678576251883,-0.08486807489545681,0.04740938100827965,-0.10362263677180872,0.004791354660305731
27,27,31454.302613980024,2267.3943920510437,19.342802436421508,31601.991623242277,-4696.554207280335,17.8357578060484,31631.67319130319,46599.31763565181,10.40815537775184,31655.602712798853,-13776.76501238493,10.392245185119018,31920.318004367768,12236.933405619144,39.96750786120653,0.9738738154783608,158.0,110.0,81.0,301.0,382.0,48.0,1028.0,1035.0,51.0,25.0,26.0,0.4901960784313725,41.92506612495153,2180.935519785303,20.0,14.0,6.0,0.7,710.4347317815226,3691.2078776429184,24.0,13.0,11.0,0.5416666666666666,2260.463162393488,39768.76588702835,19.0,5.0,14.0,0.2631578947368421,1489.4725565971055,26247.28544048153,99.0,49.0,50.0,0.494949494949495,58.74579526941816,12443.513532571582,,,,,31430.0,31478.0,31588.0,31608.0,31619.0,31643.0,31651.0,31669.0,31872.0,31970.0,0.018490416255738763,-0.1512672270832617,0.048508503494996934,-0.10811482632229778,0.004800695837932922
28,28,32523.133736962143,1039.739181303853,12.21554539747339,32669.027373700985,-5291.787209765738,17.8357578060484,32702.557376277196,45935.20954175028,10.257368148588723,32725.602712798853,-14461.940846630452,11.41132213603264,32992.86733162865,11652.625579633688,37.85476010654008,0.956944232041458,148.0,114.0,86.0,301.0,387.0,34.0,1074.0,1071.0,34.0,17.0,17.0,0.5,32.41528013829126,953.9331099068588,27.0,17.0,10.0,0.6296296296296297,437.3524970748842,1340.755464443377,23.0,13.0,10.0,0.5652173913043478,2264.8018809975097,37029.338314485816,20.0,5.0,15.0,0.25,1532.361433019123,27511.651004110663,96.0,48.0,48.0,0.5,50.006049108232155,11741.6167604843,,,,,32506.0,32540.0,32654.0,32679.0,32690.0,32713.0,32721.0,32740.0,32946.0,33041.0,0.031176357226089982,-0.08264740809452263,0.04930426798073149,-0.10595821468708015,0.004291397571001688
29,29,33673.64833077204,1282.0434999016163,16.239933645948064,33826.27563616476,-4953.1337511431475,20.38372320686512,33853.81812699287,46275.47772643924,10.367310566977023,33877.697886776885,-15299.200457657167,10.299834032053822,34144.286307885464,11693.898220557174,38.9456754600069,0.9619621310737918,158.0,117.0,81.0,302.0,383.0,41.0,1151.0,1152.0,41.0,22.0,19.0,0.5365853658536586,33.36129286493933,1179.3698270393595,22.0,17.0,5.0,0.7727272727272727,848.6528784928221,5833.265609456326,23.0,12.0,11.0,0.5217391304347826,2267.894634371837,38714.97233244327,19.0,5.0,14.0,0.2631578947368421,1562.351940936596,27655.349047812186,98.0,48.0,50.0,0.4897959183673469,49.52771059876516,11841.365584759082,,,,,33652.0,33693.0,33810.0,33831.0,33842.0,33865.0,33873.0,33891.0,34097.0,34193.0,0.026021966389985572,-0.1713365560332303,0.04900856232708513,-0.10211984248854308,0.004235346474257695
30,30,34826.198994514416,2210.8571413613713,20.501346985919827,34979.063796047936,-5302.206231754073,15.28779240518434,35006.08396120254,43987.81760991353,10.482251624805937,35029.88741691197,-16209.229349911186,10.464255696110335,35295.074781261574,11869.513411865537,41.082295735354776,0.9650871714963856,160.0,114.0,82.0,302.0,384.0,46.0,1151.0,1152.0,48.0,24.0,24.0,0.5,45.67877227238257,2119.31533744362,22.0,18.0,4.0,0.8181818181818182,879.5597342250101,6865.156571762795,23.0,12.0,11.0,0.5217391304347826,2209.5569621932013,37767.231513350365,19.0,5.0,14.0,0.2631578947368421,1565.195286967064,28140.122792302125,102.0,50.0,52.0,0.4901960784313725,60.1748359154808,12271.922964517442,,,,,34802.0,34848.0,34962.0,34983.0,34994.0,35017.0,35025.0,35044.0,35246.0,35346.0,0.020661114378586722,-0.16588561360692955,0.05023111129967115,-0.09656198041121801,0.005069696947755762
31,31,35940.2448069783,2133.9348279337205,16.69960253899665,36091.39728720114,-5094.017129487053,20.38372320629158,36118.23072280872,44480.48342189707,10.32901965357309,36143.396299595566,-16971.75151218468,11.165284871321685,36404.779272862776,12011.420220880358,40.74973211672341,0.9602525109557456,157.0,114.0,81.0,299.0,380.0,43.0,1111.0,1112.0,43.0,21.0,22.0,0.4883720930232558,47.649149926992344,2059.474747420509,21.0,16.0,5.0,0.7619047619047619,882.4598683464235,5835.887193478891,23.0,12.0,11.0,0.5217391304347826,2180.322193591602,37375.09914888355,21.0,6.0,15.0,0.2857142857142857,1519.2421489374208,29089.842839917164,103.0,51.0,52.0,0.4951456310679611,58.43895689991702,12284.964519933908,,,,,35919.0,35962.0,36076.0,36096.0,36106.0,36129.0,36137.0,36157.0,36355.0,36456.0,0.02232924328487145,-0.17323457026444739,0.04901750219104549,-0.08951593168487634,0.004865282857919513
32,32,36916.54982169216,1743.6011941305449,14.341819253129938,37057.98903437104,-5126.956936270304,20.383723206912453,37090.13313113852,43833.563759921155,10.0834481757736,37115.761277471465,-16405.895145175546,10.86656380282932,37375.705991092545,12174.91940025246,38.90865315687395,0.957354119255281,149.0,111.0,83.0,296.0,379.0,38.0,976.0,972.0,38.0,20.0,18.0,0.5263157894736842,44.67965998495875,1547.5560602824974,23.0,13.0,10.0,0.5652173913043478,494.3176274466281,902.9473500502886,23.0,12.0,11.0,0.5217391304347826,2196.469970567286,37598.22511793281,20.0,7.0,13.0,0.35,1419.982913446417,27050.09259037384,98.0,49.0,49.0,0.5,55.96326798407754,12344.92139954674,,,,,36897.0,36935.0,37046.0,37068.0,37078.0,37101.0,37109.0,37129.0,37328.0,37425.0,0.02562493082441279,-0.0964154046135266,0.050109317658894294,-0.0865532115670012,0.004596602749001943
33,33,37889.05511662368,979.578876021415,8.783752375871886,38027.60271281401,-5967.907962056262,20.383723206912286,38062.1071312262,48096.77333183743,10.29819832786326,38085.60271279886,-17107.901567192024,13.374027143851924,38346.57302492085,11646.879202237486,36.44282269049404,0.9561254366546768,69.0,44.0,157.0,291.0,448.0,25.0,974.0,971.0,25.0,13.0,12.0,0.52,45.15521416381703,905.8930657893534,98.0,87.0,11.0,0.8877551020408163,414.32015997772,2381.712115094667,23.0,13.0,10.0,0.5652173913043478,2299.2622710372952,37481.04949702829,22.0,6.0,16.0,0.2727272727272727,1564.2541838964546,30431.899843401705,94.0,48.0,46.0,0.5106382978723404,61.11764210013613,11816.919065162294,,,,,37876.0,37901.0,37945.0,38039.0,38049.0,38072.0,38081.0,38102.0,38300.0,38393.0,0.04609655768325273,-0.06942468996036003,0.047804917289852984,-0.09143460276251758,0.00524755524968395
34,34,,,,,,,,,,,,,,,,,,,,,,,,,,,,,,,,,,,,,,,,,,,,,,,,,,,,,,,,,,,,38607.0,38916.0,39017.0,39027.0,39050.0,39059.0,39079.0,39281.0,39372.0,,,,,
35,35,39861.24841617499,1628.6898733097912,18.80504003700079,40013.097105043824,-5529.505038132643,17.8357578060484,40042.07950684565,47539.37225891776,10.453335406163268,40065.1830090777,-13840.407962967944,10.598733115542544,40329.00044153224,11774.553435366868,38.52931252921489,0.9690746181867026,162.0,111.0,83.0,298.0,381.0,51.0,1976.0,1981.0,54.0,29.0,25.0,0.5370370370370371,33.72467411167429,1632.0030364743952,23.0,17.0,6.0,0.7391304347826086,778.854079672892,4066.2496329082096,23.0,12.0,11.0,0.5217391304347826,2299.5508327452512,41267.092300316486,19.0,4.0,15.0,0.2105263157894736,1600.197018776606,27582.015027055502,96.0,48.0,48.0,0.5,63.57161191964733,12099.34974531515,,,,,39834.0,39885.0,39996.0,40019.0,40030.0,40053.0,40061.0,40079.0,40282.0,40377.0,0.02070662724950802,-0.14085421286385466,0.04837150184106366,-0.1156177638013395,0.0053990677666551
36,36,40970.47940829813,1533.7801305108578,16.11786956434221,41124.97262627936,-5162.221055509626,17.835757806029914,41152.0853940575,46830.60036700872,10.470725915886902,41175.69478130073,-14858.031396490456,10.203516868510784,41440.08985953801,12453.506996685615,40.46641396300565,0.9583839181450678,159.0,119.0,81.0,301.0,382.0,40.0,1110.0,1110.0,41.0,21.0,20.0,0.5121951219512195,38.354701393142946,1469.6029626835495,24.0,20.0,4.0,0.8333333333333334,928.8458277577752,7551.685512651958,23.0,12.0,11.0,0.5217391304347826,2286.2422270331276,40738.25593184456,19.0,5.0,14.0,0.2631578947368421,1571.8570345146973,27450.073755193487,100.0,49.0,51.0,0.49,52.64394565477505,12734.529726511646,,,,,40949.0,40989.0,41108.0,41129.0,41140.0,41163.0,41171.0,41189.0,41392.0,41490.0,0.025006649017136572,-0.1799314321819714,0.048819408871891,-0.1057917426992366,0.004227238613892918
37,37,42149.35375537395,2237.4774981503615,18.793881111975853,42303.94018227293,-5016.342844645696,17.835757805968022,42330.937572748655,45158.43807416798,10.289034027647938,42355.46843068474,-15192.533632641998,9.565755480710488,42619.564836576516,12262.925832062088,41.64671644768222,0.9590949546129393,162.0,113.0,80.0,303.0,383.0,49.0,1175.0,1179.0,51.0,25.0,26.0,0.4901960784313725,46.22642877689491,2149.802116138103,22.0,18.0,4.0,0.8181818181818182,895.2454089055957,7023.692569405146,23.0,12.0,11.0,0.5217391304347826,2246.9412217372524,39606.56230054618,19.0,5.0,14.0,0.2631578947368421,1594.483418322687,27871.484818064993,103.0,51.0,52.0,0.4951456310679611,54.82271843606268,12525.64567838894,,,,,42126.0,42175.0,42288.0,42308.0,42319.0,42342.0,42350.0,42368.0,42570.0,42671.0,0.020660064208515422,-0.17846575416214935,0.04975684097060417,-0.10495177808241617,0.0044706067040482045
38,38,43309.69887081435,2485.356004935382,20.66804507850441,43463.97262277246,-5113.82840132227,17.83575780604795,43490.9661412892,44685.322907924194,10.394515482076596,43515.60599413129,-16149.81209140361,10.211733068208344,43778.58729643231,12275.700251635986,42.44461013017636,0.9618584655030008,163.0,106.0,81.0,302.0,383.0,57.0,1158.0,1160.0,57.0,25.0,32.0,0.4385964912280701,42.93247130290095,2403.9835814946537,23.0,19.0,4.0,0.8260869565217391,893.5099930109351,6949.2306791806905,23.0,12.0,11.0,0.5217391304347826,2221.0731337868947,38368.03595848322,19.0,6.0,13.0,0.3157894736842105,1510.527782038607,27370.05344711864,105.0,52.0,53.0,0.4952380952380952,48.586227541921595,12523.517023582192,,,,,43285.0,43342.0,43448.0,43468.0,43479.0,43502.0,43510.0,43529.0,43728.0,43831.0,0.017274173686846594,-0.1747242814756753,0.0497047573845108,-0.09353222028153792,0.003957919022619218
39,39,44470.02481417936,1630.8427342964449,14.389492598203264,44619.8174317055,-5542.1135672536575,17.8357578060484,44648.25321637037,45255.49313393607,10.59183185878498,44671.60271279886,-17337.87646478394,11.77888149280875,44936.03493390724,12091.125504225283,40.78735647352706,0.955092807100246,152.0,116.0,84.0,300.0,384.0,36.0,1162.0,1157.0,37.0,19.0,18.0,0.5135135135135135,48.30944684508109,1498.580155751555,24.0,19.0,5.0,0.7916666666666666,820.768538377158,5021.360237275801,23.0,12.0,11.0,0.5217391304347826,2196.879507243144,36841.34111608091,20.0,5.0,15.0,0.25,1566.290415668647,29376.906580132636,103.0,51.0,52.0,0.4951456310679611,54.46708511743461,12343.689313215076,,,,,44451.0,44487.0,44603.0,44625.0,44636.0,44659.0,44667.0,44687.0,44887.0,44987.0,0.029622382237807908,-0.14809666536369484,0.04854393036313538,-0.09033923034634828,0.0045047158842575
40,40,45597.085243316775,2187.9924023921417,17.23417962437757,45746.972626301,-5174.663353568801,17.83575780604839,45773.783084551535,46313.722135921314,10.418784129470328,45800.19975287193,-15519.77322166636,10.714421041664362,46059.40759153351,13189.394625165338,43.018017150806635,0.9653898659372684,157.0,113.0,82.0,299.0,381.0,44.0,1130.0,1126.0,44.0,22.0,22.0,0.5,48.08856773506,2192.568948480475,20.0,16.0,4.0,0.8,965.5144251474002,7362.187428372943,23.0,12.0,11.0,0.5217391304347826,2228.430532528386,40266.47064591621,20.0,6.0,14.0,0.3,1417.6909009567612,26785.472165519568,108.0,53.0,55.0,0.4907407407407407,60.234072942766275,13569.271625288538,,,,,45575.0,45619.0,45732.0,45751.0,45762.0,45785.0,45794.0,45814.0,46007.0,46113.0,0.021978397951695153,-0.18658497358702872,0.048115988734146596,-0.09134739797470723,0.004566856527883379
41,41,46684.44391964225,1757.53860056241,16.281619349185146,46830.23080694484,-5587.141357742486,15.28779240517649,46857.72985465997,46880.36860417297,10.608339245556309,46881.602712798944,-15735.63503785255,11.014830965773308,47142.801373834816,12634.546733752326,41.26749989444541,0.9630190166290806,152.0,107.0,82.0,299.0,381.0,45.0,1087.0,1083.0,48.0,23.0,25.0,0.4791666666666667,46.2488501476432,1672.441998289862,21.0,17.0,4.0,0.8095238095238095,896.4080280402361,6466.311960826043,24.0,13.0,11.0,0.5416666666666666,2288.591972749411,39373.05519163859,20.0,5.0,15.0,0.25,1549.4675920513532,28096.188517861676,102.0,50.0,52.0,0.4901960784313725,66.27318038759174,13061.460883248015,,,,,46662.0,46707.0,46814.0,46834.0,46845.0,46869.0,46877.0,46896.0,47094.0,47195.0,0.026314557263688906,-0.160441265155753,0.04881770431612384,-0.09846870420698381,0.005245394376558636
42,42,47754.745644825394,1590.8577256846245,17.310676819603135,47902.54796540086,-5126.934838291868,15.28779240518434,47929.801276846905,47166.94070279736,10.645741355674842,47953.027373699,-14897.977404835769,10.88520334432604,48217.114820146424,12077.801077692466,39.2051426503912,0.9619201721971872,155.0,108.0,81.0,299.0,380.0,47.0,1067.0,1072.0,47.0,23.0,24.0,0.4893617021276595,39.6029080601736,1509.8867383920772,21.0,18.0,3.0,0.8571428571428571,987.2211519731223,8752.78165816232,24.0,13.0,11.0,0.5416666666666666,2273.548452817063,39827.913271230354,20.0,4.0,16.0,0.2,1608.4431537953462,28170.367816594553,99.0,48.0,51.0,0.4848484848484848,61.28969978533775,12232.84209628227,,,,,47732.0,47779.0,47887.0,47906.0,47917.0,47941.0,47949.0,47968.0,48170.0,48267.0,0.024894060242332806,-0.1925558219698445,0.04820216064346579,-0.10796386046828464,0.005074574369215187
43,43,48853.26926284738,1636.2313513851443,16.71409445301438,49003.972626301,-5355.3956919745915,17.8357578060484,49031.8436096767,47262.03008288047,10.515412840811273,49055.04696479692,-15667.654224725571,10.639457400844902,49320.69275358756,11941.822499969256,39.8530596547888,0.9652000768793454,156.0,112.0,82.0,302.0,384.0,44.0,1104.0,1103.0,44.0,22.0,22.0,0.5,39.1922816396444,1597.7465082490903,23.0,18.0,5.0,0.782608695652174,881.8003512129991,6192.251606061785,24.0,13.0,11.0,0.5416666666666666,2310.2491840062316,39442.73516671507,20.0,5.0,15.0,0.25,1648.772778070098,28915.69850343692,101.0,50.0,51.0,0.495049504950495,49.89790916927874,12059.11503535546,,,,,48831.0,48875.0,48987.0,49008.0,49019.0,49043.0,49051.0,49069.0,49272.0,49371.0,0.023952775141770966,-0.16465643286348275,0.04888171709837457,-0.10523418211949832,0.004178416583348748
44,44,49978.39313813326,2461.217723583421,21.471032135221183,50131.54796540086,-4816.155441494965,15.28779240518434,50158.52678835107,44251.34161722114,10.26147229161969,50183.06928555639,-15251.720794452556,9.610820709035837,50445.98901972396,12164.292407784911,41.42960702091659,0.9655503541751776,163.0,114.0,79.0,302.0,381.0,49.0,1122.0,1126.0,51.0,26.0,25.0,0.5098039215686274,44.04910964930844,2509.3296492143068,21.0,17.0,4.0,0.8095238095238095,925.4052279667042,7815.446809408519,23.0,13.0,10.0,0.5652173913043478,2242.8780983393426,37931.13964225177,18.0,5.0,13.0,0.2777777777777778,1551.957600097766,27192.4601212494,103.0,51.0,52.0,0.4951456310679611,54.43336705644864,12361.959711784875,,,,,49954.0,50003.0,50117.0,50135.0,50147.0,50169.0,50178.0,50196.0,50396.0,50498.0,0.017897282807298714,-0.1921460466150263,0.050684973977523196,-0.10175622941263474,0.004474848616892203
45,45,51096.6916691184,2381.5635271913507,17.27000978753098,51247.972626301,-5061.409791774084,17.83575780604736,51274.994641490106,44430.87143572524,10.336231561384476,51299.70307150182,-16438.14573102772,10.386857520090654,51562.93588877038,12395.56355140126,41.183649714483025,0.9601183404715268,157.0,114.0,81.0,301.0,382.0,43.0,1119.0,1117.0,43.0,22.0,21.0,0.5116279069767442,51.209251512627375,2284.003193960638,22.0,18.0,4.0,0.8181818181818182,891.0869076871666,6690.797895729211,23.0,12.0,11.0,0.5217391304347826,2219.413643130282,37958.79020711522,19.0,6.0,13.0,0.3157894736842105,1515.3202658378154,27685.936498253563,101.0,50.0,51.0,0.495049504950495,53.05877143557791,12674.949529620832,,,,,51075.0,51118.0,51232.0,51252.0,51263.0,51286.0,51294.0,51313.0,51514.0,51614.0,0.0215023663773605,-0.17605508037214868,0.049952061965314785,-0.0921831629085501,0.004280464636848227
46,46,52228.03493368189,2206.277224147042,16.798035905843026,52380.397287200634,-4808.009380104054,20.383723186737573,52407.96254067722,44871.39787521639,10.167527995347877,52433.499139304535,-16039.85850794682,9.90957044697069,52694.59056769786,12595.10624999958,42.09228853008728,0.9610205677231024,158.0,116.0,81.0,301.0,382.0,42.0,1130.0,1133.0,42.0,21.0,21.0,0.5,48.38062651736625,2179.609247257681,21.0,16.0,5.0,0.7619047619047619,798.7743445326372,4909.212500395753,23.0,12.0,11.0,0.5217391304347826,2229.332251911383,38867.63287020113,20.0,6.0,14.0,0.3,1536.97189345955,28038.479044563217,104.0,52.0,52.0,0.5,56.9280538816604,12994.106231403824,,,,,52207.0,52249.0,52365.0,52385.0,52396.0,52419.0,52427.0,52446.0,52644.0,52747.0,0.021928625282378305,-0.16613410694206057,0.04968270117438663,-0.09582203563068026,0.00451985499381256
47,47,53370.68443106671,2205.1678596413913,18.752352044965676,53523.97262629896,-5643.530153688223,17.835757805375977,53550.97975276099,45697.87363892866,10.548625153351187,53575.305065065106,-17178.94625570138,11.10898488003001,53836.2947956785,13061.557823668903,42.20340904734076,0.9609415563127268,159.0,115.0,83.0,299.0,382.0,44.0,1142.0,1143.0,44.0,23.0,21.0,0.5227272727272727,47.19317006267065,2112.3774573593987,24.0,20.0,4.0,0.8333333333333334,932.2284914742864,6993.216440658832,23.0,12.0,11.0,0.5217391304347826,2238.947502918514,37945.43526275673,20.0,5.0,15.0,0.25,1599.4514706363864,29843.477759368252,105.0,51.0,54.0,0.4857142857142857,67.61642599551602,13594.59969785337,,,,,53348.0,53392.0,53507.0,53528.0,53539.0,53562.0,53570.0,53590.0,53787.0,53889.0,0.021401169011390043,-0.16518534783854144,0.048994566368865386,-0.09310533060813073,0.005176750500081087
48,48,54467.54816413609,2133.080143567446,18.328149772785572,54614.972626301,-5166.3760725720595,17.8357578060484,54641.73741838991,47682.266224374565,10.379377971034137,54667.57023009693,-16225.242684577846,10.799666063825926,54925.60035472617,13657.35640583804,41.81899739414215,0.9663269594581636,156.0,106.0,81.0,296.0,377.0,50.0,1100.0,1091.0,52.0,25.0,27.0,0.4807692307692308,42.28748496880612,1993.229689084569,21.0,17.0,4.0,0.8095238095238095,987.4041473572908,7786.846570898471,23.0,12.0,11.0,0.5217391304347826,2317.4130443234258,40732.99225387833,21.0,7.0,14.0,0.3333333333333333,1451.01135578165,27279.94644260217,103.0,51.0,52.0,0.4951456310679611,79.12534709803282,14310.266626464008,,,,,54444.0,54494.0,54600.0,54619.0,54630.0,54653.0,54661.0,54681.0,54876.0,54977.0,0.019824611417592067,-0.19112122955960417,0.04860115149348321,-0.08942925440251454,0.00579360637203621
49,49,55534.58598815069,1436.8906523903945,13.71901704113037,55680.79771837337,-5675.112355913005,15.287792405182634,55708.64309999228,48560.28117850044,10.589891973314003,55732.027373699,-15951.32639910353,11.58825416484522,55995.30836802192,12826.670045822812,38.46624526023928,0.9585458686255012,149.0,113.0,82.0,297.0,379.0,36.0,1063.0,1066.0,36.0,19.0,17.0,0.5277777777777778,49.184830525102896,1405.1614317521564,21.0,17.0,4.0,0.8095238095238095,943.4291833260124,6998.933463568682,23.0,13.0,10.0,0.5652173913043478,2355.2804773077683,39551.28843906993,21.0,5.0,16.0,0.238095238095238,1640.1649668080324,29689.959995218833,96.0,47.0,49.0,0.4895833333333333,62.672317340807425,13105.914917502423,,,,,55516.0,55552.0,55665.0,55685.0,55696.0,55719.0,55728.0,55747.0,55949.0,56044.0,0.03423004418831704,-0.16623973661826028,0.048502200155104216,-0.10282310860996552,0.004886094139547744
50,50,56604.21929578291,1104.0115124532576,12.21634835477592,56747.0273737181,-5446.409429804583,17.8357578060484,56780.57199949512,48403.53928351042,10.345334116329,56803.027373699,-15690.940247203196,11.919696049135412,57068.499460919906,12572.48842587174,37.86613483991561,0.9601607544110762,144.0,113.0,86.0,299.0,385.0,31.0,1073.0,1072.0,35.0,19.0,16.0,0.5428571428571428,41.05970617468043,1016.7234478073868,28.0,18.0,10.0,0.6428571428571429,463.1388054988629,1154.2084808711395,23.0,13.0,10.0,0.5652173913043478,2355.4164181687875,37929.41735505768,20.0,4.0,16.0,0.2,1683.1512071730208,30025.083278657938,96.0,47.0,49.0,0.4895833333333333,63.85897524480285,12785.321287709545,,,,,56588.0,56619.0,56732.0,56757.0,56768.0,56791.0,56799.0,56818.0,57021.0,57117.0,0.03719137500970475,-0.08503562052540738,0.048662070026999134,-0.10726898328945145,0.0050792629972435275
51,51,57742.545306924505,1798.4804578976932,18.325600906782704,57896.397286704705,-5145.264927082068,20.38372320690054,57923.94879629088,47034.77594897062,10.317223048724792,57947.523130928035,-15272.591419264716,10.289864421967328,58213.05456890906,12185.542903677646,40.30640285134781,0.9606122808233456,159.0,116.0,81.0,302.0,383.0,43.0,1133.0,1144.0,43.0,22.0,21.0,0.5116279069767442,35.86042773098169,1696.7423336563206,22.0,17.0,5.0,0.7727272727272727,846.1967520473099,5471.621688724665,23.0,12.0,11.0,0.5217391304347826,2315.0800582069396,39639.56103162637,18.0,5.0,13.0,0.2777777777777778,1584.2243226573178,27783.788500478982,101.0,50.0,51.0,0.495049504950495,55.60185274331149,12417.796515413052,,,,,57721.0,57764.0,57880.0,57901.0,57912.0,57935.0,57943.0,57961.0,58164.0,58263.0,0.019939292402932306,-0.16446125982616733,0.04922060351087111,-0.10372989620209382,0.00456293602860572
52,52,58896.795607313405,1706.9519142381016,16.099286547709983,59049.39728720114,-4636.365391312082,20.38372320690084,59076.350501529065,45206.22040153949,10.15268943875895,59101.25592601835,-15515.894364625638,9.752206820287,59364.92127726821,12228.039617108814,40.10645522082121,0.9581002420248832,158.0,119.0,80.0,301.0,381.0,39.0,1153.0,1152.0,39.0,21.0,18.0,0.5384615384615384,46.32331723130041,1589.8314521466991,21.0,16.0,5.0,0.7619047619047619,853.6364465595177,6025.314719320492,23.0,12.0,11.0,0.5217391304347826,2238.440301718553,40132.41452417747,19.0,6.0,13.0,0.3157894736842105,1555.226541424331,27655.400369280906,101.0,50.0,51.0,0.495049504950495,56.63194161326974,12535.7191616795,,,,,58876.0,58915.0,59034.0,59054.0,59064.0,59087.0,59095.0,59114.0,59316.0,59415.0,0.027138032914053607,-0.184117595252332,0.049516201129752566,-0.10023441155735498,0.004631318133287153
53,53,60050.74852027945,2511.3166104078564,22.28673129887444,60203.972626301,-4656.043704512116,17.83575780604693,60230.9510462184,44887.100043004946,10.287338053806929,60255.99959137442,-15913.676324198008,10.00744884535228,60518.459536449,12804.537736804015,42.44177756203632,0.9649748448152105,164.0,99.0,81.0,302.0,383.0,65.0,1159.0,1155.0,65.0,27.0,38.0,0.4153846153846154,45.07687849917849,2359.336865545467,22.0,18.0,4.0,0.8181818181818182,886.7901628137143,7150.782440650633,23.0,12.0,11.0,0.5217391304347826,2233.6942890622827,39018.86735303359,19.0,6.0,13.0,0.3157894736842105,1524.5361754143644,27480.94041505835,104.0,51.0,53.0,0.4903846153846153,57.067194394004645,13215.24663406924,,,,,60024.0,60089.0,60188.0,60208.0,60219.0,60242.0,60250.0,60269.0,60468.0,60571.0,0.017949500398461375,-0.19046001693548037,0.04976249940232826,-0.0958003760008733,0.004456794580719358
54,54,61201.58635172996,1935.7879026989112,17.47895934520297,61353.17975492719,-5444.973035140807,15.28779240518434,61382.37173584095,44269.24522665401,10.370783730883938,61407.09715508939,-16648.872464049364,10.557631809236716,61669.7226941801,12746.060544422357,42.322149237883735,0.9571443538878796,157.0,116.0,84.0,301.0,385.0,41.0,1152.0,1151.0,42.0,22.0,20.0,0.5238095238095238,49.139930966225165,1831.398432516422,22.0,16.0,6.0,0.7272727272727273,707.3347662601266,3181.4944833017016,23.0,12.0,11.0,0.5217391304347826,2226.9080347997196,39248.35539273463,20.0,6.0,14.0,0.3,1550.1869676151623,28595.60949616507,104.0,51.0,53.0,0.4903846153846153,61.36667883088982,13164.811549745207,,,,,61180.0,61221.0,61337.0,61359.0,61370.0,61393.0,61401.0,61421.0,61620.0,61722.0,0.025384976782690586,-0.12990601821076508,0.05030372719024637,-0.09311062781954445,0.004814560437479149
55,55,62339.78364960202,1956.8523214185936,15.609187382545784,62493.400681862055,-5444.46647223729,17.8357578060484,62521.17006493545,44482.2793201748,10.317833798687737,62546.29746244507,-16690.93159406381,10.402226659483407,62808.99372404013,12675.872815358069,41.62560065980656,0.9568075531843606,159.0,119.0,82.0,300.0,382.0,40.0,1138.0,1139.0,40.0,21.0,19.0,0.525,48.87666555645032,1901.5178254394216,22.0,16.0,6.0,0.7272727272727273,801.20262849219,4378.6058504830835,23.0,12.0,11.0,0.5217391304347826,2218.0724891439054,38710.970500736745,20.0,6.0,14.0,0.3,1544.889997045727,28613.452248526817,102.0,50.0,52.0,0.4901960784313725,64.09271758973372,13107.894872312254,,,,,62319.0,62359.0,62478.0,62498.0,62509.0,62532.0,62540.0,62560.0,62760.0,62860.0,0.024977186587599946,-0.14715907106375337,0.04986418238999515,-0.09255864409600555,0.005056276480786323
56,56,63483.574038121274,2533.4530899586966,19.60006305042571,63632.972626301,-4820.0390830842425,17.83575780604836,63659.71976718192,46858.07487756673,10.35439878078539,63686.13133628251,-16244.43563238034,10.136349166420027,63944.74313257557,13493.693249397871,42.5988811130109,0.9677425895479564,158.0,109.0,81.0,300.0,381.0,49.0,1143.0,1139.0,53.0,25.0,28.0,0.4716981132075472,51.94035433766052,2418.411945417265,20.0,16.0,4.0,0.8,961.5599999907788,7989.825336593311,23.0,12.0,11.0,0.5217391304347826,2275.758942897385,40843.142981657984,19.0,6.0,13.0,0.3157894736842105,1490.4866446126284,27445.395285209474,110.0,55.0,55.0,0.5,55.69487764454898,13761.133166658548,,,,,63460.0,63509.0,63618.0,63637.0,63648.0,63671.0,63680.0,63699.0,63892.0,63999.0,0.020501802280660075,-0.1994921583448026,0.04856706018852907,-0.09175367358664116,0.004127474710975385
57,57,64563.73987262399,1287.2252311802329,13.515245101443089,64711.461151791475,-5930.1476840538,15.28779240518434,64740.548903653784,48741.27746469812,10.530226551617968,64764.60271279886,-16567.539657326965,11.682678125053757,65025.12479807577,12842.705012936503,39.078288943580496,0.9581935227399137,151.0,111.0,84.0,295.0,379.0,40.0,1075.0,1080.0,41.0,20.0,21.0,0.4878048780487805,32.839616951935504,1114.542845967013,21.0,15.0,6.0,0.7142857142857143,783.0530529816964,3541.432757975808,23.0,13.0,10.0,0.5652173913043478,2380.166051662078,39632.98983649744,20.0,5.0,15.0,0.25,1582.000555189836,29482.63161202537,97.0,47.0,50.0,0.4845360824742268,72.80500117227675,13265.02157817595,,,,,64545.0,64585.0,64696.0,64717.0,64728.0,64751.0,64760.0,64780.0,64978.0,65075.0,0.025511943175496543,-0.13204613016423358,0.04883265633294004,-0.09548795946235741,0.005668977142972606
58,58,65592.49623340658,398.7002042539894,7.563219671699283,65737.60271279886,-5963.136109451893,20.383723206912453,65772.52034860017,47222.49794597185,10.337543435865332,65796.027373699,-14034.01362882042,12.11666064642688,66059.67287988073,11614.916435778969,36.173957702772114,0.9521234363041062,68.0,43.0,163.0,295.0,458.0,25.0,1032.0,1032.0,25.0,12.0,13.0,0.48,37.41892569453454,382.3658280365296,102.0,91.0,11.0,0.8921568627450981,393.77558799675006,2542.0619439436077,23.0,13.0,10.0,0.5652173913043478,2263.861685996645,37760.94792402176,21.0,5.0,16.0,0.238095238095238,1536.671521584521,27662.896017616826,93.0,46.0,47.0,0.4946236559139785,55.12665542336696,11545.460099803166,,,,,65580.0,65605.0,65648.0,65749.0,65760.0,65783.0,65792.0,65811.0,66016.0,66106.0,0.09385228624236434,-0.06603498239334073,0.047940320492718784,-0.10949622554368865,0.004746194751221198
59,59,66640.11966295126,1525.3594264841863,17.00444741518446,66790.68245606146,-5087.869751970378,15.287792405184012,66818.41647834398,45171.14474615484,10.400531400162867,66842.027373699,-13455.060693557867,10.34507929956878,67105.61767551057,11786.771615977788,39.19700698192479,0.9669389509330902,158.0,113.0,80.0,299.0,379.0,45.0,1042.0,1046.0,46.0,22.0,24.0,0.4782608695652174,34.96061359189612,1433.2219293452013,21.0,17.0,4.0,0.8095238095238095,883.5166911601098,6674.207581267072,23.0,12.0,11.0,0.5217391304347826,2218.94139559366,40915.165211968146,18.0,4.0,14.0,0.2222222222222222,1517.2804455087926,26295.099695573284,98.0,49.0,49.0,0.5,51.069280030165224,11873.666606249844,,,,,66618.0,66663.0,66776.0,66795.0,66806.0,66829.0,66838.0,66856.0,67057.0,67155.0,0.022919590612474287,-0.1736515937378213,0.049122983445810196,-0.11276652555237075,0.004332762328315352
60,60,67798.13506604469,1307.7644318129664,17.05172854361346,67946.8777267492,-4575.85401254735,20.383723206912453,67980.53894691223,45130.775198909185,10.228604660649246,68003.027373699,-14156.320471307656,11.439013167438013,68269.02191033651,11591.361004944036,39.52293332356808,0.959498707607509,160.0,114.0,83.0,302.0,385.0,46.0,1162.0,1162.0,47.0,25.0,22.0,0.5319148936170213,38.46900503989525,1200.092693449591,26.0,16.0,10.0,0.6153846153846154,409.8412496152357,964.6205353080792,23.0,13.0,10.0,0.5652173913043478,2208.6903350688112,35542.941455583335,19.0,4.0,15.0,0.2105263157894736,1573.0126378023854,27532.720112845545,101.0,50.0,51.0,0.495049504950495,54.05175706730388,11673.790910965105,,,,,67774.0,67820.0,67934.0,67957.0,67968.0,67991.0,67999.0,68017.0,68221.0,68319.0,0.02941585204803689,-0.08956606755622423,0.04893978278312834,-0.11111733737524537,0.0046631070367189244
61,61,69071.48987232106,1848.4469756049743,16.866420624060584,69225.32128690653,-4581.548068102884,20.383723206912453,69253.77966659503,45655.6408126464,10.217765781401832,69278.42817714052,-14348.691439950946,9.561656287136923,69544.38155161936,12111.178175434285,40.163279695260755,0.957679998383971,159.0,119.0,81.0,304.0,385.0,40.0,1279.0,1274.0,40.0,20.0,20.0,0.5,48.47984955462326,1842.5197764761251,21.0,15.0,6.0,0.7142857142857143,743.7767176165677,4288.610252563805,23.0,12.0,11.0,0.5217391304347826,2247.3400880495738,39527.64690031718,19.0,5.0,14.0,0.2631578947368421,1552.4432080220424,26995.58966262921,100.0,49.0,51.0,0.49,63.16694156882683,12455.317710553316,,,,,69051.0,69091.0,69210.0,69231.0,69242.0,69265.0,69273.0,69291.0,69496.0,69595.0,0.026227341219109836,-0.16234179071366786,0.04922371141983996,-0.10819406177343721,0.005215590147699381
62,62,70273.60863710087,2391.0343865374443,17.684698167140507,70428.39728720114,-4680.347077313675,20.383723206911014,70455.48158273325,44822.35880981199,10.203531095521573,70480.28914318533,-15395.728658811511,9.829045631493983,70746.50703417537,12111.383118509157,40.88972914169515,0.962531869190438,160.0,117.0,81.0,304.0,385.0,43.0,1196.0,1201.0,43.0,22.0,21.0,0.5116279069767442,48.4838700263508,2227.401528488582,21.0,16.0,5.0,0.7619047619047619,833.6483651911801,5850.939260106834,23.0,12.0,11.0,0.5217391304347826,2207.7170885191445,40022.32805533355,19.0,6.0,13.0,0.3157894736842105,1545.8262948262889,27506.334619196405,101.0,50.0,51.0,0.495049504950495,54.7389257680364,12348.794554239448,,,,,70252.0,70295.0,70412.0,70433.0,70443.0,70466.0,70475.0,70493.0,70698.0,70797.0,0.02027736209037223,-0.1781167830975603,0.049254817174768074,-0.10040617947248366,0.004519626307946772
63,63,71436.08123270882,1733.4893096554893,16.556673721185398,71585.972626301,-5235.413124270578,17.8357578060484,71612.93944857574,44478.71304780168,10.40415447492104,71637.32311519711,-16878.900398929774,10.754764963015806,71901.64770238633,12529.851706555006,40.991890750036355,0.9584546060119932,156.0,114.0,81.0,301.0,382.0,42.0,1163.0,1158.0,43.0,23.0,20.0,0.5348837209302325,43.40066680863785,1564.040120946263,21.0,17.0,4.0,0.8095238095238095,901.4889125578476,6720.278385735668,23.0,12.0,11.0,0.5217391304347826,2212.0219188541523,37028.84855701778,20.0,5.0,15.0,0.25,1584.1515866670827,29312.057608252195,102.0,51.0,51.0,0.5,61.28742183758083,12838.807292441928,,,,,71414.0,71456.0,71570.0,71590.0,71601.0,71624.0,71632.0,71651.0,71852.0,71952.0,0.025036593284364254,-0.17219059721928767,0.04973214752137438,-0.09385395666932946,0.004891312624675219
64,64,72570.2346330321,2050.105025634239,17.90757853520034,72724.54796540074,-5452.735624009851,15.28779239874573,72751.2535966738,44290.768823614664,10.54482591223007,72775.4825089735,-16959.760695001663,10.860841910609889,73040.88681762152,12338.57000681057,40.61727446962388,0.9648056178873856,157.0,118.0,82.0,302.0,384.0,39.0,1137.0,1138.0,41.0,21.0,20.0,0.5121951219512195,47.25452369544745,2074.838941558186,24.0,20.0,4.0,0.8333333333333334,969.1101416649911,8299.235600499194,23.0,12.0,11.0,0.5217391304347826,2205.0539504442986,38199.63194036504,20.0,5.0,15.0,0.25,1601.6671405006468,29556.026209373016,100.0,49.0,51.0,0.49,56.89233244005797,12683.936966017558,,,,,72551.0,72590.0,72708.0,72728.0,72739.0,72762.0,72770.0,72790.0,72993.0,73092.0,0.023049806280450613,-0.17772916357758856,0.04978585852112421,-0.09443925355460268,0.004610934039248866
65,65,73678.61872102243,2797.3538665222445,19.94962966789568,73826.54796540085,-5262.768635714067,10.459710174592502,73853.96606576742,45235.71754047971,10.520628274314287,73879.20556788104,-16129.132858594368,10.737898297160946,74138.76959775272,13616.347651920616,43.40175875937218,0.9710556273579652,159.0,106.0,79.0,299.0,378.0,53.0,1105.0,1103.0,54.0,25.0,29.0,0.4629629629629629,48.93076477246675,2623.619826276796,18.0,14.0,4.0,0.7777777777777778,962.081380523856,8110.57875247901,24.0,13.0,11.0,0.5416666666666666,2252.889901788355,39928.1107153675,21.0,6.0,15.0,0.2857142857142857,1514.9018637141464,28156.437482030546,107.0,53.0,54.0,0.4953271028037383,51.701272918548966,13885.43331776324,,,,,73655.0,73708.0,73814.0,73830.0,73841.0,73865.0,73874.0,73893.0,74087.0,74192.0,0.0174918037213858,-0.18280898270826568,0.04980334179008723,-0.09392332972859943,0.003797000064937119
66,66,74738.73381325213,1638.3290129085756,13.033028477550909,74882.98961273371,-5051.272129604637,20.383723206912453,74912.24101763868,48640.85620914956,10.555816823906165,74935.60271279886,-15665.274081103127,12.235343416565826,75197.90901159366,12326.33964855025,38.57462120254883,0.9609891267551806,145.0,114.0,83.0,296.0,379.0,31.0,1063.0,1058.0,31.0,16.0,15.0,0.5161290322580645,56.55051868279899,1614.4161059518126,21.0,15.0,6.0,0.7142857142857143,794.9274457807501,4293.599701916779,23.0,12.0,11.0,0.5217391304347826,2275.118673978056,40036.02207086024,21.0,5.0,16.0,0.238095238095238,1566.0559390173587,28864.84038351174,99.0,49.0,50.0,0.494949494949495,62.57830960560992,12610.776827548696,,,,,74723.0,74754.0,74868.0,74889.0,74900.0,74923.0,74931.0,74951.0,75150.0,75247.0,0.034517192967487724,-0.15737173238436653,0.04677382043184709,-0.09996990355288307,0.005076795820158176
67,67,75773.45283921824,1532.6469510869024,14.39823431040355,75918.60271281873,-5620.384943796663,20.383723206806582,75953.38508091422,47759.06708582896,10.325220093226536,75976.60271279886,-15581.81498159694,12.177416193111156,76242.81166362397,12628.830755722276,37.79203044817723,0.9588102424284872,79.0,42.0,158.0,299.0,457.0,37.0,1035.0,1041.0,37.0,18.0,19.0,0.4864864864864865,43.245876799011846,1513.5774984503782,98.0,87.0,11.0,0.8877551020408163,383.85856002822766,1821.445635009417,23.0,12.0,11.0,0.5217391304347826,2298.572931812565,39892.21882278043,20.0,5.0,15.0,0.25,1574.9353505638755,28966.989720575966,95.0,47.0,48.0,0.4947368421052631,64.20787300100255,12773.404398185816,,,,,75755.0,75792.0,75834.0,75930.0,75941.0,75964.0,75972.0,75992.0,76197.0,76291.0,0.02821646352954495,-0.06829755681626407,0.048128514061670104,-0.10107521828644281,0.0050842294304965
68,68,76873.11792395328,2110.390900780265,19.724089971303176,77025.39728720114,-4447.2031537787425,20.38372320691201,77052.78695618048,46591.54505819344,10.169882977425488,77077.57030983952,-14017.285295719825,9.392049035224437,77343.01150095588,12492.133962298853,39.543578868218546,0.9696124385986422,163.0,112.0,80.0,302.0,382.0,51.0,1102.0,1100.0,51.0,26.0,25.0,0.5098039215686274,36.76572507788787,2000.3026151861864,20.0,15.0,5.0,0.75,836.5678218613234,5885.773280135178,23.0,12.0,11.0,0.5217391304347826,2286.5259740792394,40672.03951147199,18.0,6.0,12.0,0.3333333333333333,1477.5766038281477,25532.076619215048,98.0,48.0,50.0,0.4897959183673469,58.12284172991531,12765.034837324882,,,,,76847.0,76898.0,77010.0,77030.0,77041.0,77064.0,77072.0,77090.0,77295.0,77392.0,0.017421286769334843,-0.1881109976166707,0.04907598516476195,-0.10541103877505621,0.004652755238242683
69,69,77999.88524643552,2114.943253566845,19.321763309532567,78154.54796540085,-4582.514646645129,15.287792405138408,78181.5255743687,44914.56144170641,10.305290310699531,78206.09642985999,-15003.827706380587,9.525089425384564,78468.37217058944,12468.647607972867,41.90822465074943,0.9597515530211068,164.0,117.0,79.0,301.0,380.0,47.0,1126.0,1129.0,47.0,24.0,23.0,0.5106382978723404,44.89007526450705,2049.9871887655945,21.0,18.0,3.0,0.8571428571428571,929.6897181652956,8332.743174499625,24.0,13.0,11.0,0.5416666666666666,2256.04139733151,38742.62251980097,18.0,5.0,13.0,0.2777777777777778,1552.3111509665075,27032.2585384508,104.0,51.0,53.0,0.4903846153846153,55.897779734908,12792.07801971873,,,,,77976.0,78023.0,78140.0,78158.0,78169.0,78193.0,78201.0,78219.0,78418.0,78520.0,0.021225191356222004,-0.20287763157416724,0.050229620971799414,-0.10346100884018852,0.004483066768136514
70,70,79120.09533525776,2392.033884305157,19.76830060674396,79273.97262629983,-4580.817209066561,17.835757793326103,79300.65417596108,45332.640645024454,10.21471864765979,79325.5921970836,-15612.411964772591,9.530823232758332,79587.95212175664,12464.046594496833,41.70778419755332,0.9661778827927858,162.0,114.0,80.0,302.0,382.0,48.0,1121.0,1119.0,49.0,25.0,24.0,0.5102040816326531,53.59754045711763,2300.051908769418,22.0,18.0,4.0,0.8181818181818182,917.121711596504,7727.993653557774,23.0,12.0,11.0,0.5217391304347826,2267.6716626336133,38942.058395412576,18.0,6.0,12.0,0.3333333333333333,1514.119587316813,26725.90818679198,103.0,51.0,52.0,0.4951456310679611,60.076759665726605,12888.208615250907,,,,,79096.0,79144.0,79258.0,79278.0,79289.0,79312.0,79320.0,79338.0,79538.0,79640.0,0.02240668111300052,-0.2002091918842112,0.050022933373560376,-0.09698178543669166,0.004820004419130774
71,71,80224.51068348606,2147.813503825329,17.776798246822345,80379.54796540084,-5431.043613197108,15.287792404570553,80406.22545700254,45312.02514048561,10.415777173186877,80430.45608825782,-16209.37831906474,10.36389019032326,80692.40064033163,12622.074609149577,39.20857170394201,0.9659357005364384,159.0,118.0,80.0,298.0,378.0,41.0,1101.0,1105.0,41.0,20.0,21.0,0.4878048780487805,53.23319860553334,2107.103791301373,23.0,19.0,4.0,0.8260869565217391,985.3659304058838,8388.021788968035,23.0,12.0,11.0,0.5217391304347826,2269.1492564000105,39890.07190226326,20.0,5.0,15.0,0.25,1621.8419683118907,29110.685718046392,98.0,48.0,50.0,0.4897959183673469,64.68845516974737,12901.936886450496,,,,,80205.0,80246.0,80364.0,80383.0,80394.0,80417.0,80425.0,80444.0,80645.0,80742.0,0.024784832812869088,-0.18143215201061985,0.0500783014964511,-0.10005577859851376,0.0051250255740728674
72,72,81210.10274268364,2193.989451412074,16.004633298863258,81357.972626301,-5527.838156612635,17.835757805991037,81384.76065684234,44263.42749056018,10.272311355846488,81409.52667951206,-16931.69429169777,10.5517607973611,81671.44293322074,11917.780500942028,38.091909241904666,0.9665424256234724,153.0,111.0,81.0,297.0,378.0,42.0,986.0,979.0,42.0,21.0,21.0,0.5,52.93769258396713,2011.0888602597895,21.0,17.0,4.0,0.8095238095238095,911.2401991392117,6311.868887929212,22.0,12.0,10.0,0.5454545454545454,2233.1038381570165,36774.34236816452,19.0,6.0,13.0,0.3157894736842105,1497.7375045672004,27785.471668745744,96.0,47.0,49.0,0.4895833333333333,65.26543636070613,12272.94359982799,,,,,81189.0,81231.0,81342.0,81362.0,81373.0,81395.0,81404.0,81423.0,81625.0,81720.0,0.02412850825235094,-0.16484567263409247,0.05045031450926973,-0.08845762738000744,0.005476307971567969
73,73,82175.25502630818,1674.0758247689748,11.740990733126344,82319.027373699,-5377.272323067087,17.8357578060484,82351.63530836267,43747.037739542706,10.089574208272534,82376.6182878741,-16870.86624426087,10.579054079939043,82637.0501747252,12412.305744350191,39.013811872411225,0.9555714458756556,142.0,109.0,89.0,297.0,386.0,33.0,964.0,966.0,33.0,16.0,17.0,0.4848484848484848,56.10415345819,1576.826288956153,96.0,86.0,10.0,0.8958333333333334,447.1154172846306,1102.324233740274,22.0,12.0,10.0,0.5454545454545454,2245.551930202561,36231.07428043106,20.0,7.0,13.0,0.35,1493.317857070109,27747.93992581439,97.0,47.0,50.0,0.4845360824742268,55.02764509733012,12579.8682375974,,,,,82159.0,82192.0,82301.0,82329.0,82340.0,82362.0,82370.0,82390.0,82591.0,82687.0,0.0335135079475462,-0.08314911174697677,0.051330376780524704,-0.08851459287563884,0.004433313699380753
74,74,83167.1405649284,1384.9103854028897,12.485116317915178,83310.70584484654,-5986.45885713677,17.8357578060484,83340.30004745992,48528.86366317304,10.64567522436977,83363.60271279886,-16866.5731044657,12.527206375135156,83622.64391208564,12822.892057580078,38.84908038733389,0.9623970396109064,143.0,109.0,87.0,292.0,379.0,34.0,990.0,989.0,35.0,18.0,17.0,0.5142857142857142,41.8983731054318,1278.5741266845655,24.0,18.0,6.0,0.75,804.4775348597526,3797.924551795733,23.0,12.0,11.0,0.5217391304347826,2286.9044634237757,39819.67409364857,21.0,5.0,16.0,0.238095238095238,1589.2687510522271,29902.519089578094,98.0,49.0,49.0,0.5,59.38142837474255,13056.341637570653,,,,,83150.0,83184.0,83293.0,83317.0,83328.0,83351.0,83359.0,83380.0,83575.0,83672.0,0.030253490440280712,-0.13438287208817828,0.047124624209143234,-0.09422594270981118,0.004630892010015792
75,75,84157.194520251,1249.4764902025674,15.187495637440376,84298.70142333924,-5498.381907621359,17.8357578060484,84331.93591041748,47196.354783521056,10.364117358810214,84355.027373699,-15329.04139566379,12.088848106665694,84615.63590045075,11733.07602598353,37.60080105713496,0.9580085005253682,149.0,101.0,87.0,294.0,381.0,48.0,987.0,991.0,49.0,23.0,26.0,0.4693877551020408,28.60549657267078,1045.8797858981347,28.0,18.0,10.0,0.6428571428571429,494.67493199695855,673.2133122594382,23.0,13.0,10.0,0.5652173913043478,2278.8790512728883,38380.301480769514,21.0,5.0,16.0,0.238095238095238,1596.47212338242,29154.04159355733,97.0,48.0,49.0,0.4948453608247423,53.43288952848349,11675.766936374308,,,,,84134.0,84182.0,84283.0,84308.0,84319.0,84342.0,84351.0,84370.0,84568.0,84664.0,0.022893985438680167,-0.08996736500083506,0.04828506484718127,-0.1041468988291742,0.004554039316727641
76,76,85171.17805189872,813.4578944866884,9.67400487618544,85312.60271283628,-5747.329719939257,20.38372320690716,85346.95380488758,46736.93566884615,10.231167515963987,85370.027373699,-14564.275548385864,11.670380111855954,85635.14343223978,11806.931649280634,37.01415017233568,0.9518606337095432,142.0,113.0,88.0,297.0,385.0,29.0,1023.0,1015.0,29.0,16.0,13.0,0.5517241379310345,39.78145743410224,610.113945471302,99.0,88.0,11.0,0.8888888888888888,424.95997277995144,2327.843945825527,22.0,12.0,10.0,0.5454545454545454,2276.599370237284,38438.71205366132,20.0,5.0,15.0,0.25,1576.7928350893494,28260.51567520217,93.0,46.0,47.0,0.4946236559139785,58.728309241783975,11972.949220969618,,,,,85155.0,85184.0,85297.0,85324.0,85335.0,85357.0,85366.0,85385.0,85589.0,85682.0,0.04890413837486364,-0.07394041989719755,0.04871092504583729,-0.10826441932184556,0.004974053461668184
77,77,86262.73661748866,1401.4856500177548,12.244215285649911,86411.60271284245,-5246.314132338076,20.383723206912453,86445.75875427092,44809.83448308658,10.027301522437044,86470.36145097631,-14539.874568173223,10.144465517432486,86734.98433376895,11679.59350884142,37.51646731966985,0.956560894730963,153.0,119.0,84.0,300.0,384.0,34.0,1089.0,1100.0,36.0,19.0,17.0,0.5277777777777778,43.62090326914914,1254.7881962748925,28.0,17.0,11.0,0.6071428571428571,400.01098362432737,2255.127547849129,23.0,12.0,11.0,0.5217391304347826,2253.2070138702907,38298.69887340173,19.0,5.0,14.0,0.2631578947368421,1528.1930649007406,27160.33017434206,95.0,47.0,48.0,0.4947368421052631,58.92330916781114,11845.592696380798,,,,,86246.0,86280.0,86399.0,86423.0,86434.0,86457.0,86465.0,86483.0,86689.0,86783.0,0.031124759121576823,-0.07624609841005807,0.0502837611399962,-0.10510359341378703,0.005044979444122465
78,78,87401.34729143073,1469.9278357020237,13.12756869495053,87552.15365199577,-5234.121846700595,17.8357578060484,87582.612192167,44179.81719714787,10.221176172718788,87607.08741951815,-15434.25020085784,10.362167293525918,87871.42495362528,11590.244963748495,39.80251302597159,0.9575028414340284,155.0,118.0,83.0,301.0,384.0,37.0,1139.0,1136.0,37.0,19.0,18.0,0.5135135135135135,38.4051489613936,1361.6171792338473,23.0,15.0,8.0,0.6521739130434783,599.3353618577761,1241.312999675618,23.0,13.0,10.0,0.5652173913043478,2221.4234885325523,36995.017362194136,20.0,6.0,14.0,0.3,1527.1034992588718,27532.351840354146,101.0,50.0,51.0,0.495049504950495,61.01325289025463,11820.285852698516,,,,,87382.0,87419.0,87537.0,87560.0,87570.0,87593.0,87602.0,87620.0,87822.0,87921.0,0.026127234295860287,-0.1145054279230385,0.05028140969030449,-0.09894251287788473,0.005264190108240977
79,79,88530.9244158117,1806.1595535688523,14.423684353825797,88679.9294378906,-5063.998392877165,17.8357578060484,88711.0175408135,43639.66259745849,10.118383134217837,88736.32459146554,-15272.183385293169,9.878765619668243,88999.04050320952,12040.37660161242,40.862230351987314,0.9596781729500008,154.0,117.0,83.0,301.0,384.0,37.0,1130.0,1129.0,37.0,19.0,18.0,0.5135135135135135,50.19698018676582,1686.9967905589947,23.0,15.0,8.0,0.6521739130434783,556.949348996014,713.715443461731,23.0,12.0,11.0,0.5217391304347826,2197.328831868795,38637.744007510526,19.0,6.0,13.0,0.3157894736842105,1493.8239559500978,26904.676562833003,103.0,51.0,52.0,0.4951456310679611,51.71080261192116,12194.915474383844,,,,,88512.0,88549.0,88666.0,88688.0,88699.0,88722.0,88730.0,88749.0,88949.0,89050.0,0.027792107340450567,-0.10998213383704833,0.0503516457525674,-0.09781338517638695,0.004294782823071844
80,80,89637.68806555906,1816.8718904484872,15.458267987920664,89788.69273536134,-5789.102651047498,17.8357578060484,89818.82148322082,44819.74140552857,10.46682369116212,89842.17805189872,-16989.52892745373,12.042470268336094,90106.83144884216,11843.456809784422,38.58608012706917,0.9551602899027054,155.0,116.0,84.0,299.0,383.0,39.0,1108.0,1107.0,39.0,20.0,19.0,0.5128205128205128,49.78380874472465,1782.410870130535,23.0,16.0,7.0,0.6956521739130435,701.8967421549803,2138.5032518021476,23.0,13.0,10.0,0.5652173913043478,2197.450275142824,35099.088876838585,21.0,5.0,16.0,0.238095238095238,1592.103382278591,29770.777302953335,97.0,48.0,49.0,0.4948453608247423,59.603078992229406,12081.802245051742,,,,,89618.0,89657.0,89773.0,89796.0,89806.0,89829.0,89837.0,89857.0,90059.0,90156.0,0.0274008360228611,-0.12124448026983543,0.04902862457996614,-0.0937108609118572,0.0050325745219071995
81,81,90725.68685116767,2496.2431061583266,20.014537091840133,90871.972626301,-4929.414520600882,12.727570845213092,90899.74868950268,45403.84789241987,10.529201477135194,90925.06594640086,-16286.880499818386,10.882368611392948,91181.55992480714,13152.121535099152,42.86383352440574,0.9698596386622732,158.0,102.0,81.0,296.0,377.0,56.0,1086.0,1082.0,58.0,27.0,31.0,0.4655172413793103,50.97302392942016,2480.267720262296,19.0,15.0,4.0,0.7894736842105263,869.6528851293882,6887.159769706332,24.0,13.0,11.0,0.5416666666666666,2246.707829067117,39099.996437522976,21.0,6.0,15.0,0.2857142857142857,1496.0402563611722,28211.14305726161,107.0,53.0,54.0,0.4953271028037383,67.76707538603144,13622.846834783271,,,,,90700.0,90756.0,90858.0,90876.0,90887.0,90911.0,90919.0,90939.0,91131.0,91235.0,0.020419895723965256,-0.17642113104811077,0.04948276265902571,-0.09185554326243472,0.005152558483069138
82,82,91743.87341134934,563.8984470782756,6.259867766860753,91882.60271279886,-6382.421213766584,20.383723206912453,91916.52274807992,48884.688271692205,10.30023623409531,91939.60271279886,-16252.742865164422,13.9786279518333,92203.0540153096,12059.449463914038,36.85911419675828,0.9483886968242886,63.0,43.0,159.0,295.0,454.0,20.0,1019.0,1016.0,20.0,10.0,10.0,0.5,52.0681551063183,479.599101032582,98.0,87.0,11.0,0.8877551020408163,461.3204951658498,2094.4925106925066,23.0,13.0,10.0,0.5652173913043478,2304.647869274364,35982.98347553886,21.0,5.0,16.0,0.238095238095238,1581.3120956951466,30301.053361649865,95.0,47.0,48.0,0.4947368421052631,58.16986554372082,12106.303604841476,,,,,91734.0,91754.0,91797.0,91894.0,91904.0,91927.0,91935.0,91956.0,92157.0,92251.0,0.0923360498261678,-0.07227985739499661,0.047144575341578336,-0.09729509097719606,0.004823592131447192
83,83,92774.22732657236,2045.2805485313595,18.761930595732835,92916.58486198472,-5131.08433920323,17.8357578060484,92948.56410261316,44923.0127316959,10.186654852559291,92972.9884788762,-13800.98188287132,9.733728865196806,93238.89463064566,11839.659598148106,39.02783062177463,0.9696831922360948,150.0,104.0,85.0,302.0,387.0,46.0,1033.0,1032.0,49.0,24.0,25.0,0.4897959183673469,40.10510360324302,2041.8482418864724,24.0,16.0,8.0,0.6666666666666666,537.7960183655377,443.5612151612081,24.0,13.0,11.0,0.5416666666666666,2239.502098945803,38703.294968308335,18.0,5.0,13.0,0.2777777777777778,1497.3762837594445,26020.207075631428,98.0,49.0,49.0,0.5,56.657048394293696,12020.88224407346,,,,,92751.0,92797.0,92901.0,92925.0,92936.0,92960.0,92968.0,92986.0,93191.0,93288.0,0.01960860754874974,-0.104811377637392,0.04985200151916123,-0.10849780808841353,0.004785361261835237
84,84,93831.83020172082,1924.99159726556,16.615450856853233,93981.34232087224,-4942.80500430599,20.383723206912453,94009.51878367492,44481.52742644197,10.116688673890684,94034.37150257616,-14464.185100991905,9.72987478096055,94297.9161889018,11970.277112108291,38.41237152916361,0.9621323259489404,156.0,115.0,80.0,299.0,379.0,41.0,1056.0,1062.0,42.0,21.0,21.0,0.5,43.93567075850852,1803.228934958854,20.0,14.0,6.0,0.7,755.1332429369202,3588.2650872263875,22.0,12.0,10.0,0.5454545454545454,2216.6935771742983,37538.49496646485,18.0,5.0,13.0,0.2777777777777778,1509.6090938404684,26693.95490061464,97.0,48.0,49.0,0.4948453608247423,55.81058432742721,12178.462266341465,,,,,93811.0,93852.0,93967.0,93987.0,93998.0,94020.0,94029.0,94047.0,94251.0,94346.0,0.022823824696647458,-0.1527742329060272,0.04983402561523974,-0.10436876210447173,0.004662430435380075
85,85,95961.92259794242,1888.6207063288723,14.917052881348187,96114.04320500782,-5580.6657890762135,17.8357578060484,96141.88430586796,44395.99362253333,10.475749615767928,96165.53975774732,-16947.63226226646,11.442661788261848,96428.35544831643,12107.760537245576,38.663845375978696,0.9565811801780052,156.0,117.0,82.0,297.0,379.0,39.0,2128.0,2131.0,39.0,20.0,19.0,0.5128205128205128,48.61510656961913,1712.3498551867765,22.0,17.0,5.0,0.7727272727272727,835.0304070624569,4962.290310138553,22.0,12.0,10.0,0.5454545454545454,2196.2439644960627,35625.39642705668,21.0,6.0,15.0,0.2857142857142857,1527.475774708186,28583.949142709527,99.0,49.0,50.0,0.494949494949495,55.4017471195044,12239.497794530178,,,,,95942.0,95981.0,96098.0,96119.0,96130.0,96152.0,96160.0,96180.0,96380.0,96477.0,0.025741064050980287,-0.14962917304544093,0.04946941796525874,-0.09012915497990112,0.004575722070904772
86,86,97039.21004880972,1957.7130392927677,14.444428469329976,97186.85277056773,-5522.255901964162,17.8357578060484,97219.51295044424,44476.08757945328,10.37093117638466,97242.60271279886,-16932.374781181745,12.073326702373564,97505.53166065922,12131.389086947282,38.41162110472843,0.9560077514669784,152.0,115.0,86.0,296.0,382.0,37.0,1080.0,1078.0,37.0,19.0,18.0,0.5135135135135135,50.81239257039672,1907.0932276539384,25.0,16.0,9.0,0.64,496.1763794533346,717.9712325732712,23.0,13.0,10.0,0.5652173913043478,2196.824739729642,33529.85355979449,20.0,5.0,15.0,0.25,1551.685941178353,29220.274149341647,98.0,49.0,49.0,0.5,59.5629120635221,12298.329420756563,,,,,97020.0,97057.0,97172.0,97196.0,97207.0,97230.0,97238.0,97258.0,97458.0,97554.0,0.02595497478463591,-0.08985030542986139,0.049393390005475976,-0.09164018403979939,0.004909817963683036
87,87,98094.56469406746,2468.4456233492183,17.67599390587074,98242.45509907542,-5758.473724861602,15.28779240518434,98270.62806560622,46756.5862597372,10.64492895054362,98294.60271279886,-16992.207792975754,12.283005035910811,98553.09603082362,13092.46381481466,39.67783996413976,0.9625582920057484,154.0,110.0,83.0,293.0,376.0,44.0,1057.0,1051.0,44.0,22.0,22.0,0.5,43.81426533384554,2372.1779753711335,20.0,15.0,5.0,0.75,828.2383122253503,4860.305154872999,23.0,13.0,10.0,0.5652173913043478,2262.2848898818556,37045.960427335645,22.0,6.0,16.0,0.2727272727272727,1537.2586542652605,29338.199801558432,98.0,48.0,50.0,0.4897959183673469,70.50368423244763,13542.5077445785,,,,,98073.0,98117.0,98227.0,98247.0,98258.0,98281.0,98290.0,98310.0,98505.0,98603.0,0.017749738912375874,-0.1438294853460074,0.048384304134494585,-0.09046844724325541,0.005385058551979331
88,88,99109.9513767024,348.08655017313447,5.363929021871914,99248.60271279886,-6430.29070034969,20.383723206912453,99282.8530686158,47600.011403754,10.28340511123668,99306.60271279886,-16155.330043180784,12.277470996509964,99569.13276649146,12169.777486501707,36.34644174166536,0.9524519291575136,60.0,44.0,160.0,294.0,454.0,16.0,1011.0,1012.0,17.0,9.0,8.0,0.5294117647058824,45.46206980690217,187.50841688538483,100.0,89.0,11.0,0.89,429.46254452199344,2395.3448875378117,23.0,13.0,10.0,0.5652173913043478,2313.7430317585618,38094.2534345332,21.0,6.0,15.0,0.2857142857142857,1546.7622436824497,29171.810748922107,95.0,47.0,48.0,0.4947368421052631,56.995997557849904,12114.346938242805,,,,,99102.0,99118.0,99162.0,99260.0,99270.0,99293.0,99302.0,99322.0,99523.0,99616.0,0.13060564903840677,-0.0667874229229852,0.04860803524043037,-0.09574315346998083,0.004683405068093305
89,89,100165.41147360818,2172.9726250458693,19.4883713534737,100315.972626301,-4899.450101324775,17.835757806000803,100343.09087952232,45893.49841594786,10.126250499660271,100367.57727404952,-14573.852163464222,9.329535464433835,100631.32839874526,12238.393944491385,40.22732397486589,0.9643738934663764,160.0,112.0,79.0,301.0,380.0,48.0,1054.0,1061.0,48.0,24.0,24.0,0.5,42.24837643606335,2104.3181998748123,20.0,16.0,4.0,0.8,892.5464459622461,6486.893131105493,23.0,12.0,11.0,0.5217391304347826,2295.9735600460604,41072.388861048195,18.0,6.0,12.0,0.3333333333333333,1517.7253797613228,26184.17683015336,99.0,48.0,51.0,0.4848484848484848,55.04489021290913,12518.921219932348,,,,,100141.0,100189.0,100301.0,100320.0,100331.0,100354.0,100362.0,100380.0,100584.0,100681.0,0.01944266391076672,-0.18217278010871227,0.05002829680223759,-0.10414030297124667,0.004497721715984257
90,90,101248.52345121812,1966.100653811184,15.836498682232476,101399.27298911172,-5221.189311162322,17.8357578060484,101426.60048264304,44255.27772823366,10.233559240961409,101451.04518472929,-15910.5158580058,9.98245365305293,101713.57675098916,12284.31911003002,40.0429292696012,0.9622814496690328,155.0,114.0,81.0,300.0,381.0,41.0,1084.0,1084.0,41.0,21.0,20.0,0.5121951219512195,44.193305786019145,1831.8655075809968,22.0,17.0,5.0,0.7727272727272727,825.9327977890212,5295.1952602699575,22.0,12.0,10.0,0.5454545454545454,2239.9328770236225,37059.25591253873,20.0,6.0,14.0,0.3,1555.9618948043135,27780.888925657564,100.0,50.0,50.0,0.5,57.218498912733594,12440.68665046654,,,,,101228.0,101269.0,101383.0,101404.0,101415.0,101437.0,101446.0,101464.0,101664.0,101764.0,0.022477641569546666,-0.1581886326211671,0.05061391526630521,-0.09779455981758063,0.0046578486280135206
91,91,102359.48993750218,1378.2025758404518,10.582558250533312,102506.6027127989,-5547.862048474655,20.383723206912453,102541.334938467,45553.66109812809,10.306516193986456,102563.60271284348,-17778.023752552777,12.1851756429942,102829.0306486292,11810.840457321752,37.58776032423812,0.948010539672672,103.0,74.0,131.0,298.0,429.0,29.0,1114.0,1114.0,29.0,14.0,15.0,0.4827586206896552,49.75157987874483,1295.1143382362925,104.0,93.0,11.0,0.8942307692307693,383.0206431466477,2359.9521069529733,22.0,12.0,10.0,0.5454545454545454,2235.9284478966024,35604.91662856001,21.0,5.0,16.0,0.238095238095238,1647.251037868489,30677.22080104417,95.0,47.0,48.0,0.4947368421052631,61.18123279668513,12017.046570269553,,,,,102345.0,102374.0,102448.0,102518.0,102529.0,102551.0,102559.0,102579.0,102782.0,102877.0,0.036098887602503175,-0.06903932358086598,0.04908339733836414,-0.09265658887602495,0.005180091376033937
92,92,103492.28266528482,1968.2258168033377,17.50030966953111,103648.97262623697,-5313.615432775856,17.83575780598351,103675.9943027584,44882.53747285224,10.399457598274036,103700.34105812084,-16730.191150157836,10.67893109800929,103963.44656929404,12946.842223612422,39.911876450090546,0.95553016199661,162.0,117.0,82.0,299.0,381.0,45.0,1129.0,1135.0,45.0,22.0,23.0,0.4888888888888889,41.88522836490196,1945.9445118248416,22.0,18.0,4.0,0.8181818181818182,901.3829806575004,6759.780903564898,23.0,12.0,11.0,0.5217391304347826,2235.073179689394,37759.92972861569,20.0,5.0,15.0,0.25,1592.7059617772234,29280.426681899942,99.0,49.0,50.0,0.494949494949495,64.12788386728934,13306.632093121045,,,,,103470.0,103515.0,103632.0,103653.0,103664.0,103687.0,103695.0,103714.0,103915.0,104013.0,0.021280702654804712,-0.1696364729554043,0.04979828025635372,-0.09519950773319152,0.004953167943170965
93,93,104596.64651329456,2393.0525373370665,19.427999844245257,104747.972626301,-5910.147988586032,17.83575780603322,104774.96820259078,48769.64172974191,10.689264546052058,104798.60271279886,-17303.536092983126,12.35438805713873,105058.54359291594,13295.411140631635,40.0388176453873,0.9646137374697016,158.0,107.0,83.0,295.0,378.0,51.0,1107.0,1098.0,51.0,24.0,27.0,0.4705882352941176,44.69449473856603,2348.1848059816903,23.0,19.0,4.0,0.8260869565217391,1002.7831019206744,7709.400323859287,23.0,13.0,10.0,0.5652173913043478,2299.784332161488,39038.479090040135,21.0,5.0,16.0,0.238095238095238,1598.753553947344,30172.911460014257,99.0,49.0,50.0,0.494949494949495,80.59608217155643,13863.404304045194,,,,,104573.0,104624.0,104731.0,104752.0,104762.0,104785.0,104794.0,104814.0,105011.0,105109.0,0.018676771212177826,-0.1696714031285339,0.04715606370261639,-0.09239461491317173,0.006061947337999168
94,94,105649.20727837375,1934.7928607164051,16.865526122067706,105796.66423494776,-5292.5553019707395,17.8357578060484,105825.26789615893,48262.12974315957,10.442470102775864,105848.60271279886,-15368.321750089684,12.296591158847605,106110.119043079,12397.034974828022,38.023789715426965,0.9677074445565162,152.0,112.0,83.0,294.0,377.0,40.0,1052.0,1051.0,40.0,20.0,20.0,0.5,49.41224037586126,1925.534847483486,22.0,17.0,5.0,0.7727272727272727,859.6814082292037,5534.866166076289,23.0,12.0,11.0,0.5217391304347826,2303.78989313447,40333.6534757974,21.0,5.0,16.0,0.238095238095238,1550.5951274772292,28740.928619659084,98.0,49.0,49.0,0.5,58.09424381861912,12628.062959052111,,,,,105629.0,105669.0,105781.0,105802.0,105813.0,105836.0,105844.0,105864.0,106062.0,106158.0,0.025538775431270276,-0.16243220130531127,0.047734940529867466,-0.10089554036491853,0.004686140188890209
95,95,106685.55471784993,1724.7507011316168,18.9238177317401,106830.00937622155,-4776.406547424046,17.8357578060484,106862.9067617842,45307.59455456869,10.307105477961574,106886.0273736991,-14087.160317209353,10.803931152080962,107148.52996724995,12159.259421878056,38.8132269115692,0.9650918110741832,154.0,106.0,84.0,297.0,381.0,48.0,1039.0,1038.0,52.0,25.0,27.0,0.4807692307692308,44.497197988990145,1717.5960664470176,25.0,16.0,9.0,0.64,457.9847977446547,245.61350499550963,24.0,13.0,11.0,0.5416666666666666,2228.6761605794545,38286.868136475925,19.0,4.0,15.0,0.2105263157894736,1556.5736588366092,27194.21973457455,96.0,47.0,49.0,0.4895833333333333,67.05389263698156,12441.101681687169,,,,,106662.0,106710.0,106816.0,106839.0,106850.0,106874.0,106882.0,106900.0,107102.0,107197.0,0.025799205624207216,-0.09588480235034631,0.049189902542612934,-0.11049591427841181,0.005514636238152139
96,96,107763.69551796348,1178.3302241611275,15.726981685004796,107911.60271279886,-4872.437517923106,20.383723206912453,107945.99407856536,44516.88429983537,10.153554894577452,107969.027373699,-13975.346679772356,10.883501602262816,108234.4216552168,11028.194733145388,36.45831804570409,0.9565045879296884,153.0,112.0,88.0,298.0,386.0,41.0,1073.0,1083.0,41.0,22.0,19.0,0.5365853658536586,36.915328587390256,1077.1263684142857,33.0,22.0,11.0,0.6666666666666666,379.495239674356,1657.7387728898093,22.0,12.0,10.0,0.5454545454545454,2205.027837625531,37359.34778798639,20.0,5.0,15.0,0.25,1538.9723450563697,27122.680706354276,94.0,46.0,48.0,0.4893617021276595,53.91009310628081,11072.41055587979,,,,,107742.0,107783.0,107895.0,107923.0,107934.0,107956.0,107965.0,107983.0,108189.0,108281.0,0.03132850862216564,-0.07788611722128706,0.04953239365931289,-0.11012051295184314,0.004888387846857047
97,97,108977.23248385896,2473.8989195198064,21.177088335129536,109131.972626301,-4275.016767865898,17.8357578060484,109159.24327619972,44888.89395133183,10.205523677330824,109183.44488154106,-13957.813206579833,9.117299617955297,109449.3788550351,12146.262647118609,42.32991463448241,0.9632837294999969,168.0,108.0,79.0,305.0,384.0,60.0,1217.0,1213.0,60.0,28.0,32.0,0.4666666666666667,32.91686758644385,2374.02546700482,20.0,16.0,4.0,0.8,859.586810705206,6857.132258218661,23.0,12.0,11.0,0.5217391304347826,2221.916020110787,40695.22758909872,18.0,5.0,13.0,0.2777777777777778,1577.0521479406452,26747.97382570786,102.0,50.0,52.0,0.4901960784313725,62.81465683468541,12711.109675022772,,,,,108949.0,109009.0,109117.0,109136.0,109147.0,109170.0,109179.0,109196.0,109400.0,109501.0,0.013305663916467996,-0.2010721495097935,0.04949812357862437,-0.112987050664728,0.005171521369133788
98,98,110179.06988043332,2466.962568217367,17.74128638554541,110332.972626301,-4521.919040348945,17.83575780603537,110360.07297981888,43797.83416216955,10.086786058357834,110384.86859480516,-15233.402668091256,9.290265729064744,110648.37081969512,11920.307803283366,43.22468119449255,0.9622457964929958,162.0,117.0,79.0,304.0,383.0,45.0,1199.0,1201.0,45.0,23.0,22.0,0.5111111111111111,49.39370866687683,2309.383188884549,20.0,16.0,4.0,0.8,846.8679300300852,6349.525534277408,23.0,12.0,11.0,0.5217391304347826,2215.1416863987574,38909.87354197788,18.0,6.0,12.0,0.3333333333333333,1512.6935284887156,26485.83306995816,105.0,51.0,54.0,0.4857142857142857,60.98379523663892,12369.344554412584,,,,,110156.0,110201.0,110318.0,110337.0,110348.0,110371.0,110379.0,110397.0,110598.0,110701.0,0.02002207463673389,-0.1872806484312321,0.0505765120301791,-0.09930109256924513,0.005115958097981443
99,99,111337.13955080626,2411.6276962459074,20.89343006991492,111488.54796540084,-5134.013003712108,15.28779240518434,111515.14081926912,43187.72269256828,10.323878163624885,111539.7915386374,-16393.884099816514,10.123178462146296,111802.71028794735,12531.653712461712,43.10828728219517,0.9606509407670094,160.0,101.0,80.0,302.0,382.0,59.0,1159.0,1155.0,60.0,25.0,35.0,0.4166666666666667,40.48414154801032,2227.549110487239,22.0,18.0,4.0,0.8181818181818182,944.4632066933332,7973.362365745511,23.0,12.0,11.0,0.5217391304347826,2190.8730841229494,37853.58382534219,19.0,6.0,13.0,0.3157894736842105,1515.8831293312398,27558.69833572979,105.0,52.0,53.0,0.4952380952380952,60.23236289760656,13061.620475135993,,,,,111313.0,111372.0,111473.0,111492.0,111503.0,111526.0,111534.0,111553.0,111752.0,111855.0,0.016787061125160613,-0.18396198178899165,0.05072907177159294,-0.09246638076136003,0.004806417754562622
100,100,112465.1302041464,2202.72891983059,16.296452614527173,112614.00768922122,-5255.172149223072,17.8357578060484,112642.93999425392,43415.63842262499,10.230943512860582,112667.89926235624,-16794.906789023727,10.512813709127272,112930.6106635959,12134.11660137716,41.06258299941021,0.9622977733342144,154.0,115.0,82.0,301.0,383.0,39.0,1128.0,1128.0,40.0,20.0,20.0,0.5,58.37186297847195,2118.1160711854654,22.0,16.0,6.0,0.7272727272727273,714.9626027626301,3134.99214759661,23.0,12.0,11.0,0.5217391304347826,2198.624372720555,36777.88743084176,20.0,6.0,14.0,0.3,1506.3927430127237,28024.365954679342,102.0,51.0,51.0,0.5,60.62162153040754,12435.393604854282,,,,,112445.0,112484.0,112599.0,112620.0,112631.0,112654.0,112662.0,112681.0,112880.0,112982.0,0.026499794165757484,-0.13604932102335232,0.050641300061472695,-0.08969342681897009,0.004995964973958409
101,101,113583.94544408417,2415.2822883157437,16.643753282135883,113734.972626301,-4863.748133760198,17.8357578060484,113761.73475302986,43878.58589613343,10.3080083027499,113786.90907103173,-16662.557540324095,10.418757120343644,114049.9718922424,12423.306166277996,40.69647802102091,0.960644180020722,156.0,115.0,81.0,301.0,382.0,41.0,1118.0,1119.0,41.0,21.0,20.0,0.5121951219512195,53.50454427264128,2361.2572217182783,21.0,17.0,4.0,0.8095238095238095,897.2098042041741,7017.89961051047,22.0,12.0,10.0,0.5454545454545454,2197.9837775289025,36794.72876499901,20.0,6.0,14.0,0.3,1495.5995508651818,27777.308720324676,102.0,50.0,52.0,0.4901960784313725,62.13014558817449,12755.445233703744,,,,,113563.0,113604.0,113719.0,113739.0,113750.0,113772.0,113781.0,113800.0,114001.0,114101.0,0.02215250139972325,-0.1844688046193163,0.050092402310590145,-0.0897581026949655,0.005001095904471989
102,102,114696.3055429256,2715.8579897529708,18.36954146507273,114845.54796540084,-5292.063477576185,15.2877924046309,114871.68229244152,44999.73055792231,10.453254961849249,114897.40129093236,-16340.216729790633,10.42210354264055,115155.88776940297,13415.710795786268,42.726115870590306,0.9643986309762392,156.0,110.0,81.0,298.0,379.0,46.0,1114.0,1110.0,46.0,22.0,24.0,0.4782608695652174,52.333593230996115,2686.3660183384304,23.0,20.0,3.0,0.8695652173913043,1026.8996404319778,9412.819036239514,23.0,12.0,11.0,0.5217391304347826,2225.822820083978,38814.686828455706,20.0,6.0,14.0,0.3,1518.5023472865985,28155.750152726378,105.0,51.0,54.0,0.4857142857142857,66.67342530390245,13913.558250953634,,,,,114674.0,114720.0,114830.0,114849.0,114860.0,114883.0,114891.0,114911.0,115106.0,115209.0,0.019269635389056655,-0.1940452235282536,0.04946302550009639,-0.09293036759531739,0.004969801922447811
103,103,115757.54205966876,1678.4169798930711,15.91280632518939,115904.54796540084,-5830.34693320008,15.287792404214382,115931.48325979635,48952.74570576848,10.656769864847837,115954.60271279886,-17318.656120161115,12.884761499780506,116215.62022509649,12374.591760385503,38.856512411941935,0.964291998058606,155.0,112.0,81.0,294.0,375.0,43.0,1062.0,1059.0,44.0,23.0,21.0,0.5227272727272727,39.10880399290322,1535.959039091866,21.0,17.0,4.0,0.8095238095238095,1062.0531133767545,8845.629652718633,23.0,12.0,11.0,0.5217391304347826,2310.9430782870554,40386.79679061129,22.0,5.0,17.0,0.2272727272727272,1615.3258874572762,30636.212712116787,97.0,48.0,49.0,0.4948453608247423,63.244073988800906,12713.887852602453,,,,,115735.0,115778.0,115890.0,115908.0,115919.0,115942.0,115950.0,115971.0,116169.0,116265.0,0.023301005924877362,-0.18215950535105285,0.047207629418317576,-0.09327085636724616,0.005110800842033651
104,104,116782.50896499227,1452.2018298036546,12.53993815879988,116923.02737372006,-5339.158527949079,17.8357578060484,116956.80488475806,46984.700297720214,10.33795493889888,116980.027373699,-15128.611031929308,11.452281111897864,117242.3221589846,12682.091774627072,38.18706940079345,0.9586897308514228,140.0,106.0,90.0,296.0,386.0,34.0,1023.0,1025.0,34.0,18.0,16.0,0.5294117647058824,43.65104389269304,1308.807006694073,70.0,60.0,10.0,0.8571428571428571,430.6647283918893,1350.1003736207017,23.0,13.0,10.0,0.5652173913043478,2299.09306328538,38599.54930030408,20.0,5.0,15.0,0.25,1603.0562149234372,28813.859358453017,96.0,47.0,49.0,0.4895833333333333,72.12326404315803,13159.63776399647,,,,,116765.0,116799.0,116905.0,116933.0,116944.0,116967.0,116976.0,116995.0,117196.0,117291.0,0.03005852423322927,-0.08066153610863465,0.04893280256587987,-0.10596188979544437,0.005687016410609352
105,105,117833.21347372176,390.9174508599498,5.842867680449415,117975.60271279886,-6121.299787752641,20.383723206912453,118009.99379709108,49187.1303923163,10.172679511741716,118032.60271279886,-15902.428531137655,13.515524844680243,118296.9597151137,12290.87985876852,35.62813319741667,0.9446984014888434,63.0,45.0,161.0,295.0,456.0,18.0,1052.0,1053.0,18.0,9.0,9.0,0.5,55.26023345304951,341.10748525214376,101.0,90.0,11.0,0.8910891089108911,411.07265818066577,2245.932212748411,22.0,12.0,10.0,0.5454545454545454,2354.1425895639113,38091.54066496286,21.0,5.0,16.0,0.238095238095238,1634.2584179267917,30377.9846515098,91.0,45.0,46.0,0.4945054945054945,62.14200646337364,12408.88284989707,,,,,117824.0,117842.0,117887.0,117987.0,117998.0,118020.0,118028.0,118048.0,118253.0,118343.0,0.14136036478158417,-0.06715447248689416,0.047860945958572536,-0.10276785176093335,0.0050559445033579505
106,106,118921.93616133256,2830.539564876928,20.553478136177592,119073.972626301,-5900.4173756879845,17.83575780469465,119100.99771268014,46770.14196903076,10.45928847870621,119123.60271279886,-17867.864129133428,12.21257072341758,119387.9811599194,12453.071307160531,38.98600648838904,0.9687008550988774,160.0,108.0,81.0,298.0,379.0,52.0,1089.0,1091.0,55.0,25.0,30.0,0.4545454545454545,50.12156982451217,2758.2769334402496,22.0,18.0,4.0,0.8181818181818182,951.4100818371425,6599.74690097074,22.0,12.0,10.0,0.5454545454545454,2282.536896271634,36017.311853985906,21.0,5.0,16.0,0.238095238095238,1643.6324896013057,30891.765318199497,98.0,49.0,49.0,0.5,57.565606035241096,12691.730313930875,,,,,118898.0,118950.0,119058.0,119078.0,119089.0,119111.0,119119.0,119139.0,119339.0,119437.0,0.017707425978584213,-0.1612445393706083,0.04880329201872072,-0.09198819051468912,0.004622603100501063
107,107,120024.43129099278,2754.0036063527996,21.125981471386034,120177.972626301,-4631.974692874999,17.835757802307157,120204.79355757828,46024.06814186034,10.206240681724152,120229.3136035928,-16955.09222794481,9.8746407654496,120492.1352831484,12688.471023307357,41.69382507844008,0.9691415163099314,162.0,114.0,79.0,302.0,381.0,48.0,1102.0,1105.0,51.0,24.0,27.0,0.4705882352941176,50.271897358239784,2844.4393368495794,20.0,16.0,4.0,0.8,929.0343549397982,7476.351976860904,23.0,12.0,11.0,0.5217391304347826,2328.1100427683346,38977.91893189141,19.0,5.0,14.0,0.2631578947368421,1657.8686145306533,29815.97905612807,103.0,51.0,52.0,0.4951456310679611,63.586297675522474,13184.746454263466,,,,,120001.0,120049.0,120163.0,120182.0,120193.0,120216.0,120224.0,120242.0,120443.0,120544.0,0.018254114570610967,-0.20056982529910156,0.05058462097684157,-0.09777998209872373,0.005011344358096518
108,108,121100.1381870774,2511.5478284784463,17.755492134198608,121247.972626301,-4980.947388446558,12.615832659814672,121275.3931949371,44886.44623416395,10.315921557170752,121300.01767069157,-17232.063475322626,10.01920484849292,121562.12092514624,12792.396151531178,40.43290216053219,0.9683848503129584,157.0,114.0,78.0,300.0,378.0,43.0,1076.0,1070.0,45.0,22.0,23.0,0.4888888888888889,53.454375246522126,2390.878497430893,18.0,14.0,4.0,0.7777777777777778,888.2760035082724,6712.821342633394,23.0,12.0,11.0,0.5217391304347826,2295.5106593395326,40456.74794353483,20.0,6.0,14.0,0.3,1617.7015656554577,29357.42720960332,101.0,50.0,51.0,0.495049504950495,60.10838756099262,13164.62614982788,,,,,121078.0,121121.0,121235.0,121252.0,121263.0,121286.0,121294.0,121313.0,121513.0,121613.0,0.02128343909695959,-0.17833474924241374,0.051140396532269344,-0.09387741450535543,0.004698759079142337
109,109,122181.97042552756,2504.7292789756307,17.221971857295053,122329.54796540084,-4924.183764136183,15.28779240457608,122356.60777410732,46637.3246292168,10.373192089642377,122381.93245767085,-16750.584013654578,9.984512653696308,122642.53029138694,13259.348827470394,41.196434422272254,0.960820967287799,154.0,114.0,80.0,299.0,379.0,40.0,1080.0,1082.0,40.0,21.0,19.0,0.525,61.35843550014671,2429.0466346524736,21.0,17.0,4.0,0.8095238095238095,975.96749526117,8418.441189906189,24.0,13.0,11.0,0.5416666666666666,2325.5443083440355,40087.291091957806,19.0,6.0,13.0,0.3157894736842105,1569.9480666034458,28550.42620713735,103.0,51.0,52.0,0.4951456310679611,67.15304091498092,13727.97672299386,,,,,122161.0,122201.0,122315.0,122333.0,122344.0,122368.0,122376.0,122395.0,122593.0,122694.0,0.024497032879034625,-0.19819883700712734,0.049864444987634565,-0.09372497492169055,0.005064580605636899
110,110,123232.05998147714,1619.2659537870584,13.544908715131651,123370.60271279886,-5266.890817812114,20.383723206912453,123404.97782257244,48994.77201430932,10.348097762910818,123428.60271279886,-17425.78856376402,13.2595780903798,123690.27982054364,12332.724541138025,38.25437432143812,0.9597932605711684,148.0,108.0,86.0,294.0,380.0,40.0,1053.0,1047.0,40.0,21.0,19.0,0.525,40.766665786447085,1482.5292053825417,97.0,86.0,11.0,0.8865979381443299,426.24336178906793,1430.596651305364,23.0,13.0,10.0,0.5652173913043478,2329.763092381098,38003.423443099186,23.0,6.0,17.0,0.2608695652173913,1576.2821554570544,30933.631233571017,99.0,49.0,50.0,0.494949494949495,53.52166885659808,12340.094766551822,,,,,123211.0,123251.0,123359.0,123382.0,123392.0,123415.0,123424.0,123445.0,123642.0,123739.0,0.025176016139352553,-0.08092883952474471,0.04755125897311394,-0.09045686223548284,0.004339808991765519
111,111,124258.0292945724,1486.0957483252485,13.15926091863747,124396.18410687038,-5214.556920450575,20.383723206912453,124429.24863683316,47994.66006410422,10.410966048890351,124452.60271279886,-15473.177193414893,12.143234885717815,124714.65619178566,11858.411712853103,39.16803969198306,0.9597476035583972,145.0,109.0,84.0,297.0,381.0,36.0,1028.0,1025.0,38.0,20.0,18.0,0.5263157894736842,43.32540781254458,1347.639609379687,23.0,13.0,10.0,0.5652173913043478,484.90325763104113,964.8443934095098,23.0,12.0,11.0,0.5217391304347826,2279.875691810503,39831.580881846865,21.0,5.0,16.0,0.238095238095238,1556.324627436396,28728.95733308752,99.0,49.0,50.0,0.494949494949495,57.27616650924853,12144.994543122017,,,,,124239.0,124275.0,124384.0,124406.0,124417.0,124440.0,124448.0,124468.0,124667.0,124765.0,0.029153846824048875,-0.09299030867403822,0.04750269485741498,-0.10058209816783717,0.004830003199093518
112,112,125281.77715640508,1351.9698218755534,14.89631062557582,125419.60271279886,-5399.336900433144,20.383723206912453,125454.62932805216,47691.001990589895,10.368809156371968,125477.027373699,-15082.642255186393,12.38082110701888,125742.3992786772,11040.107463108316,38.09270795750916,0.961794296992336,126.0,87.0,105.0,300.0,405.0,39.0,1020.0,1025.0,40.0,21.0,19.0,0.525,40.6918992536533,1253.2727462502762,95.0,84.0,11.0,0.8842105263157894,389.0640855051548,2105.294475180272,23.0,13.0,10.0,0.5652173913043478,2271.628612992742,36938.49417109838,21.0,4.0,17.0,0.1904761904761904,1631.342090855357,29139.39959307088,98.0,48.0,50.0,0.4897959183673469,50.14903267817166,11030.808754843118,,,,,125261.0,125300.0,125387.0,125431.0,125442.0,125465.0,125473.0,125492.0,125695.0,125792.0,0.03009823044511634,-0.07205775314260228,0.047632226587333314,-0.10816023235546779,0.004542440628023771
113,113,126322.63179904238,1009.0359897831084,11.150476043244293,126465.60271279886,-4835.96286465868,20.383723206912453,126499.6374448267,45190.75101781982,10.102674298779506,126524.10783638428,-14474.992958739917,9.947423298474488,126788.52976181245,11868.780259342882,39.50065844980296,0.9507781473330204,72.0,40.0,159.0,302.0,461.0,32.0,1042.0,1046.0,33.0,17.0,16.0,0.5151515151515151,49.6539949847541,894.9071564448936,100.0,89.0,11.0,0.89,391.0873094223144,1282.6594950199744,22.0,12.0,10.0,0.5454545454545454,2262.8702538788443,38485.355862070275,18.0,5.0,13.0,0.2777777777777778,1522.8717690972956,27010.755011241617,99.0,49.0,50.0,0.494949494949495,61.351384286014216,12052.932375532451,,,,,126306.0,126338.0,126378.0,126477.0,126488.0,126510.0,126519.0,126537.0,126741.0,126839.0,0.04920933989225418,-0.08087061881314037,0.05007374745745073,-0.10520708185752826,0.0051691397890461024
114,114,127407.12288179086,1198.866828856227,10.788807025945871,127551.6027128077,-5338.78372855385,20.383723206912453,127585.3655750492,44388.39622145371,10.012365684800644,127609.81723232096,-15563.202625331707,10.367919166517837,127874.04980726435,11388.71163826932,39.27501321141816,0.9535422089148295,147.0,116.0,85.0,301.0,386.0,31.0,1086.0,1085.0,31.0,16.0,15.0,0.5161290322580645,39.624984728849974,1060.5928622477209,31.0,20.0,11.0,0.6451612903225806,417.6266377781308,2062.098855422497,23.0,12.0,11.0,0.5217391304347826,2245.90409407877,38931.12243220591,19.0,6.0,13.0,0.3157894736842105,1513.6935667248445,27487.93727622905,101.0,50.0,51.0,0.495049504950495,57.34027330169908,11534.001183383036,,,,,127391.0,127422.0,127538.0,127563.0,127573.0,127596.0,127604.0,127623.0,127825.0,127924.0,0.033052031948080506,-0.0782250525610364,0.05059664879248969,-0.09726105886850409,0.005034834064023485
115,115,128493.18809646994,2892.769706796776,21.195693830875488,128642.972626301,-4415.350167852356,17.83575780597166,128669.7910099325,44065.75357174362,10.172638899911622,128695.08464160394,-15461.153242153763,9.430959197626006,128957.6097012735,12292.411845993603,43.44244700787843,0.9692567324517464,159.0,104.0,80.0,303.0,383.0,55.0,1082.0,1085.0,55.0,24.0,31.0,0.4363636363636363,50.53698647292422,2931.8070998726403,21.0,17.0,4.0,0.8095238095238095,880.2101141852648,7162.889585253439,23.0,12.0,11.0,0.5217391304347826,2207.1049368527065,38463.16000337528,19.0,6.0,13.0,0.3157894736842105,1504.9696355446426,26758.41218046356,107.0,54.0,53.0,0.5046728971962616,56.660606660138725,12645.37281222746,,,,,128469.0,128524.0,128628.0,128647.0,128658.0,128681.0,128689.0,128708.0,128906.0,129011.0,0.01747010360146673,-0.19935227801273178,0.05008662641521178,-0.09733876975240419,0.004609397030461992
116,116,129575.36576837594,2718.7212911262695,19.12654332760767,129723.972626301,-4594.527284242781,17.835757806047173,129750.82020313788,44347.453523870914,10.191953822057284,129776.42957548924,-15899.214805732285,9.667304127855694,130037.83897299222,12553.516514426288,42.6012535422096,0.9667332975059024,158.0,107.0,80.0,302.0,382.0,51.0,1080.0,1081.0,51.0,24.0,27.0,0.4705882352941176,50.74461231403492,2636.7878659903176,21.0,17.0,4.0,0.8095238095238095,886.9927583234617,7046.41370349514,23.0,12.0,11.0,0.5217391304347826,2213.417601012857,38642.53057084007,19.0,6.0,13.0,0.3157894736842105,1522.9736053189515,27571.9811254342,105.0,52.0,53.0,0.4952380952380952,58.703836499096,12930.027629293829,,,,,129551.0,129602.0,129709.0,129728.0,129739.0,129762.0,129770.0,129789.0,129987.0,130091.0,0.01866488208249299,-0.1930541932715165,0.04991081618297295,-0.09578923386643348,0.004676286236739685
117,117,130656.2036263118,2598.9040065294853,20.04669218686411,130806.97262630097,-4845.176893435029,17.835757779673624,130833.54772653608,44528.502419272205,10.235594449527117,130859.17091735476,-16459.561926698232,10.034316210533335,131119.18814342548,12865.763858904937,41.9957544662016,0.9671410827098124,160.0,108.0,80.0,299.0,379.0,52.0,1084.0,1083.0,54.0,25.0,29.0,0.4629629629629629,45.615425700536406,2511.2719724920635,21.0,17.0,4.0,0.8095238095238095,922.0747165568616,7316.35057659741,23.0,12.0,11.0,0.5217391304347826,2229.5303971946546,37563.748957420525,19.0,6.0,13.0,0.3157894736842105,1507.7402785935171,27804.71605795849,104.0,51.0,53.0,0.4903846153846153,61.22755277517099,13238.123567517332,,,,,130632.0,130684.0,130792.0,130811.0,130822.0,130845.0,130853.0,130872.0,131069.0,131171.0,0.017551793212035625,-0.1903077507461547,0.050069736821638545,-0.09160269789124138,0.0047589520098950695
118,118,131741.21818611797,2856.6804591248174,21.06182418629506,131889.97262630097,-5709.7445659753275,10.535713363709284,131916.9932530886,45657.658460544306,10.562393515238536,131941.8538238862,-16993.803547472915,11.230961705158329,132200.1753037123,13767.986368491976,42.19478733654133,0.9680370301153024,161.0,105.0,79.0,297.0,376.0,56.0,1079.0,1082.0,56.0,25.0,31.0,0.4464285714285714,43.167077083089346,2845.9511884842973,18.0,14.0,4.0,0.7777777777777778,979.7227000429212,7777.676956704235,24.0,13.0,11.0,0.5416666666666666,2281.7003253982284,39473.3742591928,21.0,6.0,15.0,0.2857142857142857,1523.699066885605,28914.10719746663,105.0,52.0,53.0,0.4952380952380952,60.74289428089354,14049.281664492257,,,,,131716.0,131772.0,131877.0,131894.0,131904.0,131928.0,131936.0,131956.0,132149.0,132253.0,0.01511092252029972,-0.1715878335225609,0.049974098592243645,-0.08966203843825113,0.00441189384236344
119,119,132797.98810213612,1315.00031477369,13.2034318748936,132933.60271280215,-4948.959183767227,20.383723206912453,132968.12917146375,49135.182329496434,10.34891089783843,132991.02737369903,-16012.779081770865,12.990178729867829,133250.93396159305,12824.742381681755,38.751898375544904,0.9589701670764664,141.0,105.0,86.0,294.0,380.0,36.0,1064.0,1051.0,36.0,18.0,18.0,0.5,45.68752394255798,1266.378984426875,99.0,88.0,11.0,0.8888888888888888,422.9083570724107,1256.497578224637,23.0,13.0,10.0,0.5652173913043478,2315.673910977642,39119.518164502195,22.0,5.0,17.0,0.2272727272727272,1647.4046659309004,30433.031719509258,101.0,50.0,51.0,0.495049504950495,54.0863281027021,12802.574751773443,,,,,132780.0,132816.0,132921.0,132945.0,132955.0,132978.0,132987.0,133007.0,133202.0,133301.0,0.03474335589829935,-0.08545399979445498,0.0471286316889785,-0.1028806216284046,0.004217342266458031
120,120,133827.63008649787,1339.8781260829178,16.23196501624593,133970.02737369903,-4981.413904107431,17.8357578060484,134003.29276139897,46172.30620666276,10.30638386060532,134026.60271279886,-14295.228470730211,11.131935077870272,134288.61402106646,12427.422616422276,37.31951557007667,0.9631685657250432,150.0,105.0,87.0,295.0,382.0,45.0,1034.0,1036.0,46.0,24.0,22.0,0.5217391304347826,34.87163513165456,1167.5216150226647,45.0,35.0,10.0,0.7777777777777778,444.1043428430398,659.6831333886021,23.0,12.0,11.0,0.5217391304347826,2253.732244298578,39998.69779378253,19.0,5.0,14.0,0.2631578947368421,1527.918099139407,27137.840242980295,94.0,47.0,47.0,0.5,59.43720910618061,12598.87172849084,,,,,133804.0,133849.0,133954.0,133980.0,133991.0,134014.0,134022.0,134041.0,134242.0,134336.0,0.026025975387478296,-0.08915226708562662,0.0488113423273919,-0.10688308355951445,0.004782746265314662
121,121,134902.1598557252,1125.2006648368665,14.137515767972568,135049.17805189872,-4647.312577594873,22.93168860777651,135084.96421987124,46694.21825778536,10.129765439757085,135108.02737369903,-14409.785114927136,11.453313469370697,135372.36569818982,12029.03324665454,36.45826308439643,0.9590591503865432,154.0,114.0,85.0,297.0,382.0,40.0,1064.0,1082.0,41.0,20.0,21.0,0.4878048780487805,34.956945053574614,1035.655231901161,101.0,88.0,13.0,0.8712871287128713,290.22740668585175,2822.757396135167,22.0,12.0,10.0,0.5454545454545454,2283.806301172662,38366.37111848957,20.0,5.0,15.0,0.25,1586.0537992619654,28214.66772845245,93.0,46.0,47.0,0.4946236559139785,56.16463627549152,12067.871650105018,,,,,134883.0,134923.0,135037.0,135062.0,135073.0,135095.0,135104.0,135122.0,135327.0,135419.0,0.031067298612592564,-0.06245058877362051,0.04890983051829723,-0.11006783145010039,0.004669089786671906
122,122,136087.9197218302,1786.4516369650314,16.105531347537564,136234.07108628517,-5137.265760878167,17.8357578060484,136264.69964431148,45967.47514021535,10.275774336512017,136288.37577019175,-15267.408919011154,10.45263203513373,136552.74352246316,12300.279275814795,38.28873447274886,0.9572374281261904,153.0,110.0,83.0,299.0,382.0,43.0,1191.0,1180.0,43.0,22.0,21.0,0.5116279069767442,44.52381065625126,1727.130257493973,22.0,15.0,7.0,0.6818181818181818,618.8171571351583,1558.4302402213136,23.0,13.0,10.0,0.5652173913043478,2292.7224844013176,38441.10642569954,20.0,5.0,15.0,0.25,1623.0375286020803,28725.875441250864,95.0,47.0,48.0,0.4947368421052631,58.98767016981334,12547.493620494406,,,,,136066.0,136109.0,136219.0,136241.0,136252.0,136275.0,136284.0,136302.0,136506.0,136601.0,0.02492304282689226,-0.12045652024616638,0.04987705932091742,-0.10630733330139965,0.004795636655648689
123,123,137262.10529544132,2144.197559517732,18.552482027912887,137413.04823422365,-4998.522790142272,20.383723206912453,137440.30073374545,45634.22312009872,10.21299331762588,137464.9359071433,-15564.579167328597,9.977401415911345,137727.36217371997,12504.892948910829,40.54894452960819,0.9647886451418533,159.0,113.0,81.0,299.0,380.0,46.0,1174.0,1175.0,46.0,24.0,22.0,0.5217391304347826,43.316507510494155,2129.0256034728577,22.0,17.0,5.0,0.7727272727272727,874.0568229687161,6045.06193143794,23.0,12.0,11.0,0.5217391304347826,2257.5074765128684,40077.19282379482,19.0,6.0,13.0,0.3157894736842105,1541.9849305236428,27548.20175246204,100.0,49.0,51.0,0.49,64.35708466763366,12957.94175526158,,,,,137238.0,137284.0,137397.0,137418.0,137428.0,137451.0,137459.0,137478.0,137679.0,137777.0,0.020201733426203884,-0.17486302647103424,0.0494696156122047,-0.09907013314952987,0.005146552228041195
124,124,138418.05621452548,1647.6167201344676,15.256782566928583,138567.69887651,-5235.429862886617,17.8357578060484,138595.84070472134,45553.104268807045,10.336216272317063,138619.99815194897,-16633.192239870757,10.62296817727103,138882.3140329794,12606.216738759756,40.04348096282008,0.9580722993726962,154.0,116.0,82.0,298.0,380.0,38.0,1154.0,1156.0,38.0,20.0,18.0,0.5263157894736842,43.69916703072179,1494.8537473474662,22.0,17.0,5.0,0.7727272727272727,842.4027491719513,5461.891655695165,22.0,12.0,10.0,0.5454545454545454,2280.9640934109484,38032.40602381383,20.0,6.0,14.0,0.3,1595.0327387515797,29110.762833938137,100.0,49.0,51.0,0.49,59.441632299525736,13002.911715962498,,,,,138398.0,138436.0,138552.0,138573.0,138584.0,138606.0,138615.0,138634.0,138835.0,138932.0,0.026522653294727035,-0.16090421822736106,0.05007263785912527,-0.09589456526139287,0.004715263391970985
125,125,139560.35106367496,1796.2357582464176,14.378222053408129,139710.39826800182,-5317.5497358162975,17.8357578060484,139738.25298252204,45851.68748560193,10.39581184228622,139762.596734787,-17035.42100324438,10.750867490967936,140025.08687201867,13025.726015992148,39.68374306181006,0.9600656641232906,153.0,117.0,82.0,299.0,381.0,36.0,1143.0,1142.0,36.0,19.0,17.0,0.5277777777777778,46.63328980557265,1722.405060901678,22.0,17.0,5.0,0.7727272727272727,811.368499074486,4940.696649671736,23.0,12.0,11.0,0.5217391304347826,2275.8025937144203,39382.87209551176,20.0,6.0,14.0,0.3,1563.5402868433132,28802.020404640847,98.0,48.0,50.0,0.4897959183673469,60.36342895871251,13311.190694699406,,,,,139541.0,139577.0,139694.0,139715.0,139726.0,139749.0,139757.0,139776.0,139978.0,140075.0,0.025961675460184908,-0.15258315189974103,0.04963399862718366,-0.09178172271442768,0.004634170017441037
126,126,140672.4987547018,2039.83501235283,16.488686036146174,140822.5479653931,-5980.481348383426,15.287792373968625,140849.1411982838,46547.82917507463,10.667784566179016,140873.68796893302,-16845.85985868326,11.428321285520814,141133.58722046472,13693.707519860336,39.531779238596066,0.966559117975068,154.0,113.0,82.0,295.0,377.0,41.0,1111.0,1111.0,41.0,20.0,21.0,0.4878048780487805,48.91824128392254,2007.867546758863,23.0,20.0,3.0,0.8695652173913043,1038.8143467331622,8957.801312436064,23.0,12.0,11.0,0.5217391304347826,2259.531015916807,39830.11116831996,21.0,6.0,15.0,0.2857142857142857,1534.8705515800568,28832.971864025774,99.0,50.0,49.0,0.5050505050505051,67.7260744885077,14028.288658259062,,,,,140652.0,140693.0,140806.0,140826.0,140837.0,140860.0,140869.0,140888.0,141085.0,141183.0,0.023981469573609394,-0.17370079199627675,0.04854213517494684,-0.09111262734320458,0.004945780709152933
127,127,141768.12398021825,1815.6228250262552,14.676171204788895,141917.9726263009,-5597.313819165603,17.83575779543125,141945.22754085812,48485.88311791161,10.619524865504165,141968.97139315316,-16284.157153381948,11.613016328254934,142230.39619630956,13320.741832067471,38.48055743123109,0.9627077027043736,153.0,116.0,82.0,295.0,377.0,37.0,1099.0,1096.0,37.0,19.0,18.0,0.5135135135135135,49.82556356573007,1730.9912166815552,21.0,17.0,4.0,0.8095238095238095,978.3672191511964,7363.705298276356,23.0,12.0,11.0,0.5217391304347826,2307.865340144365,40875.24472837837,21.0,5.0,16.0,0.238095238095238,1609.9383861822846,29597.914821107057,97.0,47.0,50.0,0.4845360824742268,64.61690899214051,13460.821912380354,,,,,141749.0,141786.0,141902.0,141922.0,141933.0,141956.0,141964.0,141984.0,142184.0,142279.0,0.02744268406353041,-0.1747922755020805,0.04759870691706129,-0.09886531866636569,0.004850849134887221
128,128,142874.74469926892,1229.001129798302,12.791140470772012,143022.7375362087,-5581.661190887064,17.8357578060484,143053.2190523145,49241.37848878997,10.427169745044662,143076.02737369903,-16728.49032805725,12.205044585794392,143340.9482215325,13023.785892759826,38.13102009904744,0.9605088615088184,151.0,115.0,84.0,298.0,382.0,36.0,1108.0,1108.0,36.0,19.0,17.0,0.5277777777777778,38.400025764963495,1142.7195708210947,23.0,16.0,7.0,0.6956521739130435,719.2874870131262,2564.390015793778,23.0,12.0,11.0,0.5217391304347826,2371.488012696891,40124.57048412283,21.0,5.0,16.0,0.238095238095238,1700.5380517673902,31046.34543519045,96.0,48.0,48.0,0.5,62.46784352536991,13172.28624742611,,,,,142856.0,142892.0,143007.0,143030.0,143041.0,143064.0,143072.0,143091.0,143294.0,143389.0,0.031244906805956745,-0.12886620352153866,0.04816047164960606,-0.10165520130141241,0.004796442757869429
129,129,144034.36582863043,2254.969329122149,20.24739948948843,144185.4567848648,-5238.984191526418,17.8357578060484,144212.98794692816,47187.66296323415,10.255503090728473,144237.1217498139,-15460.019880304417,9.73161685560334,144500.51689908025,12955.0424840556,41.40851289875327,0.9630872877051704,161.0,102.0,80.0,302.0,382.0,59.0,1156.0,1160.0,59.0,25.0,34.0,0.423728813559322,41.98478587985747,2129.6695059575068,21.0,16.0,5.0,0.7619047619047619,844.5046152493675,5389.950231660996,23.0,12.0,11.0,0.5217391304347826,2356.341149385704,41317.80110309041,18.0,5.0,13.0,0.2777777777777778,1638.6070093742817,28475.45665948873,101.0,50.0,51.0,0.495049504950495,63.72957097727679,13363.063356690223,,,,,144009.0,144068.0,144170.0,144190.0,144201.0,144224.0,144232.0,144250.0,144451.0,144552.0,0.018618783562879763,-0.16119625186410702,0.04993553402340833,-0.1059899678047514,0.0049192869151692764
130,130,145206.96159473556,2625.4918097807695,21.763276634951776,145356.97262630097,-4759.1359420581075,17.8357578060484,145383.99845605445,46953.17184923035,10.239004431256488,145408.65447015027,-15734.246291023965,9.647711409945003,145671.218128539,13201.868323160064,41.92364429775989,0.9644364250907732,163.0,101.0,79.0,301.0,380.0,62.0,1174.0,1171.0,63.0,28.0,35.0,0.4444444444444444,41.719698694360176,2556.8136122386086,21.0,17.0,4.0,0.8095238095238095,922.1485743916088,7447.137966861699,23.0,12.0,11.0,0.5217391304347826,2338.0374529942305,41309.21003810855,19.0,6.0,13.0,0.3157894736842105,1573.026853748373,27626.61765331916,102.0,50.0,52.0,0.4901960784313725,64.0654065984189,13720.23910654994,,,,,145179.0,145241.0,145342.0,145361.0,145372.0,145395.0,145403.0,145421.0,145622.0,145722.0,0.015890241416462007,-0.1937638650416071,0.04979509074491962,-0.09997471913514851,0.004852753036934086
131,131,146385.95663021164,2003.1087255058071,15.244780518621162,146533.71207214778,-5151.48504184188,20.383723206912453,146561.53368432485,46942.76870655631,10.260749130494492,146586.3024070479,-16439.991972561842,10.23699500212038,146849.07806723646,13089.228183227564,39.97787949611923,0.9573014184908376,151.0,113.0,82.0,299.0,381.0,38.0,1179.0,1177.0,39.0,20.0,19.0,0.5128205128205128,56.460966694460815,1940.219038119349,23.0,18.0,5.0,0.782608695652174,883.4346844611396,5926.168668518656,23.0,13.0,10.0,0.5652173913043478,2329.2309217774946,38643.96326409106,20.0,6.0,14.0,0.3,1613.3336581965652,29387.266012262015,99.0,49.0,50.0,0.494949494949495,71.65245507866615,13556.19750871264,,,,,146367.0,146405.0,146518.0,146539.0,146549.0,146572.0,146581.0,146600.0,146801.0,146899.0,0.028186671035644255,-0.1714912646131402,0.049618524555671985,-0.0981346986597804,0.005474154325652375
132,132,147554.30250976083,2342.852599157154,18.59492105693276,147702.97262630097,-5315.95993237865,17.8357578060484,147729.7115020106,46913.251857788826,10.329410310654444,147754.6818656789,-16397.98568327025,10.040697088034632,148017.9809959756,13138.043134288138,40.754689208083654,0.962594413361142,156.0,103.0,81.0,300.0,381.0,53.0,1169.0,1169.0,53.0,23.0,30.0,0.4339622641509434,46.18677759695054,2254.38172731178,22.0,18.0,4.0,0.8181818181818182,963.518725612115,7543.920933632546,23.0,12.0,11.0,0.5217391304347826,2327.580476242552,40025.4875145881,19.0,6.0,13.0,0.3157894736842105,1559.3043043648029,28066.44674192573,100.0,49.0,51.0,0.49,67.09354354629171,13574.677258594002,,,,,147531.0,147584.0,147687.0,147707.0,147718.0,147741.0,147749.0,147768.0,147970.0,148068.0,0.01971390671934134,-0.1812501858306867,0.04961456271030405,-0.0950912102549068,0.005106814071205823
133,133,148711.47196186273,2276.8679970569865,20.22467018690886,148859.54796540082,-4901.4823523701725,15.287792403364708,148886.61658039977,46860.32700012559,10.348575156631442,148912.1222561139,-15935.63102193439,9.720206813780328,149172.0188784842,13983.041786741758,42.77705716599055,0.9607923535947848,158.0,100.0,80.0,299.0,379.0,58.0,1156.0,1157.0,58.0,24.0,34.0,0.4137931034482758,41.68786850427546,2156.451731025729,20.0,16.0,4.0,0.8,981.1715792423838,8371.356404492348,24.0,13.0,11.0,0.5416666666666666,2320.4100970333766,40960.87381051081,19.0,6.0,13.0,0.3157894736842105,1558.9999769479173,28038.313910874615,104.0,51.0,53.0,0.4903846153846153,67.66697838483415,14515.662264363647,,,,,148687.0,148745.0,148845.0,148863.0,148874.0,148898.0,148906.0,148925.0,149123.0,149224.0,0.01830930407830405,-0.2001785396142304,0.04951758226158255,-0.09783107897026809,0.004839217347472541
134,134,149825.02206583993,1960.2790168368304,15.289292830344294,149971.97262630097,-5321.683708513578,17.8357578060484,149999.50694463553,48444.92094480708,10.42944138265004,150025.1846158211,-15567.921179913112,10.585166465389284,150283.52149772638,14090.98858325005,40.52198268296029,0.9613484514458004,152.0,113.0,82.0,295.0,377.0,39.0,1116.0,1112.0,40.0,20.0,20.0,0.5,50.11869892907527,1854.7998015243456,20.0,16.0,4.0,0.8,936.7813816654962,6692.006412892828,24.0,13.0,11.0,0.5416666666666666,2335.748197753401,41195.90852874736,20.0,6.0,14.0,0.3,1524.688889252638,28004.79879705207,102.0,51.0,51.0,0.5,70.97376572840591,14495.913360163113,,,,,149805.0,149844.0,149957.0,149976.0,149987.0,150011.0,150019.0,150039.0,150234.0,150334.0,0.025567125138108365,-0.17603101442628813,0.04821451149470345,-0.09793786027256517,0.005036819475730211
135,135,150916.54654950646,2288.80027248425,18.6225240738048,151061.97262630097,-4424.178578125026,17.835757793801722,151089.27254769267,48656.861453925565,10.343983743247222,151114.52188847252,-15350.806298734042,10.087133184378418,151374.47925111398,14152.674346833655,41.678591529322254,0.9664392422445004,152.0,104.0,80.0,297.0,377.0,48.0,1087.0,1090.0,48.0,21.0,27.0,0.4375,52.41524267742383,2270.7943441771636,19.0,15.0,4.0,0.7894736842105263,942.3649811917912,7817.556856614468,23.0,12.0,11.0,0.5217391304347826,2353.7512239715197,43893.139154400065,19.0,6.0,13.0,0.3157894736842105,1508.1124785656127,27126.321953944564,102.0,50.0,52.0,0.4901960784313725,71.78631703627386,14664.441150778994,,,,,150896.0,150944.0,151048.0,151066.0,151077.0,151100.0,151109.0,151128.0,151326.0,151425.0,0.02290074992892789,-0.2130033778137335,0.04837449752488346,-0.09824320945864483,0.005072279293442122
136,136,152010.77802496153,2253.7155106343953,19.524214369355704,152158.97262630097,-4727.1812710581735,14.222085180100166,152186.9268390945,48161.80179464109,10.256381164196917,152211.26550443852,-14781.928657888897,9.256916360530116,152474.40930148197,13392.83769265021,40.0423635812358,0.9640899791859798,157.0,111.0,79.0,300.0,379.0,46.0,1098.0,1098.0,47.0,24.0,23.0,0.5106382978723404,49.76382656811941,2243.639998165213,19.0,14.0,5.0,0.7368421052631579,879.4332131131031,6518.091569500964,23.0,12.0,11.0,0.5217391304347826,2405.2189231204916,43410.99631619484,18.0,5.0,13.0,0.2777777777777778,1658.4132533513557,28191.05973665379,98.0,48.0,50.0,0.4897959183673469,63.349784190603835,13802.247953346234,,,,,151988.0,152034.0,152145.0,152163.0,152175.0,152198.0,152206.0,152224.0,152427.0,152524.0,0.022080793397970387,-0.1860375481044845,0.04994038498343967,-0.11219194001902351,0.004730124089039715
