Unnamed: 0,cycle,p_center,p_height,p_width,q_center,q_height,q_width,r_center,r_height,r_width,s_center,s_height,s_width,t_center,t_height,t_width,r_squared,pr_interval,pr_segment,qrs_duration,st_segment,qt_interval,p_duration,pp_interval,rr_interval,fwhm_p,rise_time_p,decay_time_p,rise_decay_symmetry_p,sharpness_deriv_p,sharpness_diff_p,fwhm_q,rise_time_q,decay_time_q,rise_decay_symmetry_q,sharpness_deriv_q,sharpness_diff_q,fwhm_r,rise_time_r,decay_time_r,rise_decay_symmetry_r,sharpness_deriv_r,sharpness_diff_r,fwhm_s,rise_time_s,decay_time_s,rise_decay_symmetry_s,sharpness_deriv_s,sharpness_diff_s,fwhm_t,rise_time_t,decay_time_t,rise_decay_symmetry_t,sharpness_deriv_t,sharpness_diff_t,Average_Heart_Rate,SDNN,RMSSD,NN50,p_on,p_off,q_on,q_off,r_on,r_off,s_on,s_off,t_on,t_off,sharpness_deriv_p_norm,sharpness_deriv_q_norm,sharpness_deriv_r_norm,sharpness_deriv_s_norm,sharpness_deriv_t_norm
0,0,,,,,,,,,,,,,,,,,,,,,,,,,,,,,,,,,,,,,,,,,,,,,,,,,,,,,,,58.45904321517876,368.38043621955336,530.2164665327629,348.0,,,,,,,,,,,,,,,
1,1,2205.806117291239,2299.962605727282,10.43276233139809,2351.5602252726508,-5686.5083859778215,20.383723206912453,2383.4852866426313,41469.96466928425,10.537949397627806,2417.381906894371,-16409.249950859314,11.916683857347884,2635.8973389184,16518.483337102294,38.93096374610813,0.9398895152803416,146.0,118.0,94.0,252.0,346.0,28.0,,,29.0,14.0,15.0,0.4827586206896552,86.31512897038824,2274.8751955228045,24.0,15.0,9.0,0.625,558.922415537328,500.42701035411574,25.0,12.0,13.0,0.48,1866.4297486411224,39670.4585754144,25.0,10.0,15.0,0.4,886.0073478496325,20924.97889239945,97.0,48.0,49.0,0.4948453608247423,90.08479970076338,17216.510930161843,,,,,2192.0,2220.0,2338.0,2361.0,2371.0,2396.0,2407.0,2432.0,2590.0,2684.0,0.03752892710318398,-0.0982892097575301,0.0450067841515076,-0.053994384295623116,0.0054535757225618415
2,2,3283.1330543302893,3085.9540776550193,13.54029594224144,3433.9726263010075,-5515.057061785558,12.81781806650294,3461.41532820926,41766.94372581151,10.724874462594403,3494.05974388144,-15684.30255405552,10.784412875839385,3712.338324173596,17408.495101375236,41.73387309808216,0.9403358747927094,153.0,118.0,88.0,255.0,343.0,35.0,1076.0,1079.0,36.0,16.0,20.0,0.4444444444444444,94.40846444661156,3087.607775391797,19.0,15.0,4.0,0.7894736842105263,876.038070280449,6244.577737214792,25.0,12.0,13.0,0.48,1903.3508489664712,41371.24298091443,23.0,9.0,14.0,0.391304347826087,969.8108194983336,20673.94732295262,101.0,49.0,52.0,0.4851485148514851,97.16063430529223,18351.181621694723,,,,,3267.0,3302.0,3420.0,3438.0,3449.0,3474.0,3485.0,3508.0,3665.0,3763.0,0.03059295831075732,-0.15884478808943137,0.045570747562030056,-0.06183321293094844,0.005581219613728514
3,3,4408.996567884013,2704.040679569513,11.005870425941472,4563.397287201151,-5924.522448180106,20.38372320691183,4590.578195954827,44237.88223925183,10.61830239269078,4622.827069943656,-16064.911117002885,10.800242227625196,4843.431771271612,17281.08583684934,39.34062500613622,0.9384067880034004,152.0,124.0,89.0,257.0,346.0,28.0,1126.0,1129.0,30.0,15.0,15.0,0.5,100.46528900969471,2675.8931685950256,22.0,17.0,5.0,0.7727272727272727,883.1063448650765,5087.219582328302,25.0,13.0,12.0,0.52,1973.0451872624212,39833.21593010567,23.0,10.0,13.0,0.4347826086956521,1007.7134304986738,21137.51200962491,99.0,48.0,51.0,0.4848484848484848,97.27553096890746,18060.302013972538,,,,,4395.0,4423.0,4547.0,4568.0,4578.0,4603.0,4613.0,4636.0,4797.0,4893.0,0.03715376390923561,-0.1490594984809871,0.044600805630604035,-0.06272760696647263,0.005629017290191447
4,4,5554.550011885243,2805.465548550383,11.040433582575425,5707.972626301007,-6218.999105182245,17.835757806047848,5735.099374406176,43929.92891675133,10.60091303298748,5767.436846100742,-16501.192432227213,10.686190549070384,5988.40187739485,17115.581890015863,39.681227077423465,0.9365014568344074,152.0,122.0,89.0,257.0,346.0,30.0,1146.0,1144.0,30.0,15.0,15.0,0.5,96.51753872902806,2685.178582405021,23.0,18.0,5.0,0.782608695652174,926.6132073632256,5712.419067859352,24.0,12.0,12.0,0.5,1984.3471150396267,41617.06569391688,23.0,9.0,14.0,0.391304347826087,1058.3143971463492,22428.24362056113,99.0,48.0,51.0,0.4848484848484848,97.817984628795,17893.11534471259,,,,,5540.0,5570.0,5692.0,5712.0,5723.0,5747.0,5758.0,5781.0,5942.0,6038.0,0.03440339475168384,-0.14899716042587716,0.04517073357437091,-0.06413563150014762,0.005715142217037667
5,5,6684.076442940531,2384.305983484907,9.624668497862162,6836.7285504270085,-5929.9995014126025,20.383723206912453,6866.5994177178245,44174.715068645826,10.541096253383778,6899.103749186502,-16694.80515371068,11.018722187930246,7120.795648376396,17464.420688754595,38.57582508744009,0.9374116657872764,150.0,124.0,92.0,257.0,349.0,26.0,1130.0,1132.0,26.0,13.0,13.0,0.5,99.12421814809632,2404.1400889031615,23.0,16.0,7.0,0.6956521739130435,721.2626788152364,2012.399532171522,25.0,13.0,12.0,0.52,1996.5971057506747,39933.46046080538,24.0,10.0,14.0,0.4166666666666667,1019.9693752534066,21973.03595479136,96.0,47.0,49.0,0.4895833333333333,87.91221983118503,18047.583951141653,,,,,6671.0,6697.0,6821.0,6844.0,6854.0,6879.0,6889.0,6913.0,7075.0,7170.0,0.04157361464287237,-0.12162946702498412,0.0451977359140413,-0.061095015237521505,0.005033789634247189
6,6,7814.67718470744,3130.4852334191046,12.210748501234663,7966.972626301007,-5595.938682603312,17.835757805809504,7993.436566338652,43873.78197892702,10.530688873338104,8026.963447637667,-16619.984102155715,10.984474860478445,8246.359262784139,17601.312054637267,42.40599673807589,0.9406800226387304,152.0,120.0,90.0,258.0,348.0,32.0,1131.0,1127.0,32.0,16.0,16.0,0.5,98.55200743748972,3023.7050603546263,21.0,17.0,4.0,0.8095238095238095,966.19236434374,7222.028601472402,25.0,12.0,13.0,0.48,1972.1947942291663,42505.55431341612,24.0,10.0,14.0,0.4166666666666667,944.179000510319,20798.426643678493,105.0,51.0,54.0,0.4857142857142857,102.51194553992995,18577.470910713047,,,,,7799.0,7831.0,7951.0,7971.0,7981.0,8006.0,8017.0,8041.0,8197.0,8299.0,0.03148138390349523,-0.1726595695816762,0.04495155660791744,-0.056809861833011815,0.005824108181351288
7,7,8848.50344380815,2633.230113800253,9.659797126043776,8996.204666171445,-6243.722983996589,17.8357578060484,9025.742161187449,41699.281609785474,10.524244323798593,9060.282872596525,-16790.139365948773,12.276050959723742,9277.9713170087,16847.622437581205,40.33962143793281,0.9390835410144164,146.0,119.0,94.0,253.0,347.0,27.0,1033.0,1032.0,27.0,14.0,13.0,0.5185185185185185,105.17985903457442,2505.1220734978724,22.0,15.0,7.0,0.6818181818181818,682.10155213226,1143.1693553334874,24.0,12.0,12.0,0.5,1918.8977920987184,38451.034456985624,26.0,11.0,15.0,0.4230769230769231,841.9356349816882,20692.87193831828,100.0,49.0,51.0,0.49,91.32636566063684,17589.995579212627,,,,,8835.0,8862.0,8981.0,9003.0,9014.0,9038.0,9049.0,9075.0,9232.0,9328.0,0.03994328428926397,-0.10924596652999631,0.04601752639422966,-0.050144648393400174,0.005420727227179509
8,8,9845.661162497505,2139.896359215293,8.470206921982925,9987.602712856924,-5782.486852610018,20.383723206912453,10021.394877115184,40868.39357470168,10.446417605700873,10055.757430735752,-16585.44152469274,12.594950246165046,10273.688604108036,16325.31601100556,38.644170847129374,0.931052993552454,141.0,117.0,96.0,251.0,347.0,24.0,998.0,995.0,25.0,13.0,12.0,0.52,98.47896802513282,2095.303244431103,27.0,16.0,11.0,0.5925925925925926,435.20827670610527,2455.003782172525,24.0,12.0,12.0,0.5,1868.051484184875,38655.17225403078,27.0,12.0,15.0,0.4444444444444444,807.1188459417048,19829.284008478626,97.0,48.0,49.0,0.4948453608247423,85.53627540594104,16920.21930099448,,,,,9834.0,9858.0,9975.0,9999.0,10009.0,10033.0,10044.0,10071.0,10228.0,10322.0,0.04602043813993186,-0.07526316752621184,0.04570895307569013,-0.048664296620626595,0.005239486656691825
9,9,10851.549428351664,1875.5824224960977,8.218426026716697,10994.27991667842,-6086.416260114734,20.383723206912453,11027.488073978251,40802.0793859669,10.609145542298164,11061.81396753205,-16757.68222929023,12.90289380798175,11281.22040830057,15996.476595956712,37.74828983006568,0.9363465424721966,139.0,117.0,98.0,251.0,349.0,22.0,1006.0,1006.0,23.0,12.0,11.0,0.5217391304347826,92.41699231627088,1904.1280978164127,29.0,18.0,11.0,0.6206896551724138,439.36379479454246,2617.1736455328155,24.0,12.0,12.0,0.5,1844.4801382447629,38583.12791554704,27.0,12.0,15.0,0.4444444444444444,821.6707337066321,20338.77100870811,94.0,46.0,48.0,0.4893617021276595,94.70695682671004,16743.17522381599,,,,,10840.0,10862.0,10979.0,11005.0,11015.0,11039.0,11050.0,11077.0,11237.0,11328.0,0.049273756891621306,-0.07218760203336144,0.0452055426096528,-0.04903248089228351,0.005920488568754464
10,10,11915.50448108699,1849.4214468431496,7.060847835846877,12062.581515559066,-6202.981733581967,17.8357578060484,12094.020274604494,41244.86705532962,10.562585302567657,12127.13331047878,-16036.149073670213,11.806440859191264,12347.634436741197,16578.868866163702,38.662351145037945,0.9302566800435932,142.0,122.0,94.0,255.0,349.0,20.0,1064.0,1067.0,20.0,11.0,9.0,0.55,107.44315528133,1888.663733650823,24.0,16.0,8.0,0.6666666666666666,597.7027276877129,187.47290248898776,24.0,12.0,12.0,0.5,1890.622966491227,38677.22074757687,24.0,10.0,14.0,0.4166666666666667,912.267799567222,20767.03917623152,97.0,48.0,49.0,0.4948453608247423,88.89307102517529,17240.91547800786,,,,,11905.0,11925.0,12047.0,12071.0,12082.0,12106.0,12117.0,12141.0,12302.0,12396.0,0.05809554953779137,-0.09635732513153221,0.045838988011646965,-0.05688820896938882,0.005361829672626204
11,11,13008.249937446655,2585.8994693893383,11.282892056035832,13159.972626301009,-6146.929205462049,17.83575780604729,13187.051322579526,43372.53586809884,10.737798960827147,13219.473742389351,-15821.480051585362,11.042487242842393,13440.353301869278,17332.0800588558,40.68841419434879,0.9414852153654129,149.0,120.0,90.0,258.0,348.0,29.0,1092.0,1093.0,31.0,15.0,16.0,0.4838709677419355,93.03438624526204,2603.1613237071697,23.0,19.0,4.0,0.8260869565217391,914.9313170494848,6159.196681595946,24.0,12.0,12.0,0.5,1940.748663179635,40899.44402263712,23.0,9.0,14.0,0.391304347826087,1018.4474820368014,21855.477704926256,102.0,50.0,52.0,0.4901960784313725,99.03930496321875,18194.083127648813,,,,,12994.0,13023.0,13143.0,13164.0,13175.0,13199.0,13210.0,13233.0,13393.0,13491.0,0.035977572734964894,-0.1488436398838779,0.04474602704996747,-0.06437118896058967,0.005714219218172533
12,12,14128.432549213096,2689.626304451096,10.551494417407936,14284.397287200998,-6020.946104623976,20.383723206296633,14311.39894921478,44548.63634715564,10.612034338552824,14343.87709007433,-15834.104146282798,10.57182131856475,14566.378333537155,17260.344064636494,39.821197842527965,0.9365289670743788,152.0,125.0,90.0,259.0,349.0,27.0,1120.0,1125.0,28.0,14.0,14.0,0.5,103.3492714605656,2743.5824375532393,24.0,19.0,5.0,0.7916666666666666,894.7148595684515,5472.7538744243575,25.0,12.0,13.0,0.48,1971.4408434008624,42494.58783675339,23.0,10.0,13.0,0.4347826086956521,992.7521914681804,20728.991084681016,99.0,48.0,51.0,0.4848484848484848,92.97742113555752,18015.525083070203,,,,,14115.0,14142.0,14267.0,14289.0,14299.0,14324.0,14334.0,14357.0,14520.0,14616.0,0.03842514154830045,-0.1486003767549633,0.044253674299656445,-0.06269708613109243,0.005386765222487796
13,13,15259.407601377265,2358.0861040227373,9.333917070647594,15412.903017066456,-6818.677091953214,17.8357578060484,15440.597122140274,43441.29323956965,10.655000754705505,15472.958813062029,-17107.110219964026,11.598043504334663,15695.400903021804,16826.82526668985,39.47453388624343,0.934876266548436,150.0,124.0,91.0,258.0,349.0,26.0,1131.0,1129.0,26.0,13.0,13.0,0.5,100.99763272336462,2413.680414272682,23.0,18.0,5.0,0.782608695652174,888.4614039832865,4327.229739552673,24.0,12.0,12.0,0.5,1994.2032508598168,39218.636602297614,24.0,10.0,14.0,0.4166666666666667,1015.4687258912844,22385.589003917405,99.0,48.0,51.0,0.4848484848484848,89.19172392891147,17415.0729144066,,,,,15246.0,15272.0,15396.0,15418.0,15429.0,15453.0,15463.0,15487.0,15648.0,15745.0,0.04283034133107752,-0.13029820770245423,0.04590570634861635,-0.059359454217243,0.005300567547074621
14,14,16340.57686122844,2459.4173285207403,10.815641524482224,16492.397287201147,-5632.913748240641,20.3837232069044,16519.552977977048,44821.546134953474,10.55202522925387,16552.480118612406,-16524.942441865984,10.770105711578925,16774.312447387343,17142.12325054867,40.39908399262912,0.9381282419664938,150.0,121.0,90.0,259.0,349.0,29.0,1081.0,1079.0,30.0,15.0,15.0,0.5,87.37613271938713,2365.669748592629,22.0,17.0,5.0,0.7727272727272727,892.0398026520963,5369.71556047039,25.0,13.0,12.0,0.52,1997.7063952939784,40530.072972424074,23.0,9.0,14.0,0.391304347826087,1023.76790932603,22054.81061856904,101.0,49.0,52.0,0.4851485148514851,99.5327434679492,17939.739302834707,,,,,16326.0,16355.0,16476.0,16497.0,16507.0,16532.0,16543.0,16566.0,16727.0,16825.0,0.03552716804347355,-0.15836205603728834,0.044570224982401804,-0.0619528880616438,0.005806325273315454
15,15,17398.782903736617,2574.9269473407053,10.22468595506801,17547.972626248065,-6502.400488803878,17.835757805865548,17574.922136748202,43921.708120891955,10.710531769847966,17607.872266319046,-16921.30814999589,11.298612560412444,17829.600831825155,17430.20436002371,40.17125318901852,0.9384543502539736,146.0,118.0,91.0,258.0,349.0,28.0,1058.0,1055.0,28.0,14.0,14.0,0.5,95.49395434050072,2498.098070484749,24.0,19.0,5.0,0.7916666666666666,941.4882796929452,6086.722498342122,24.0,12.0,12.0,0.5,1978.552465288911,40979.97598148651,24.0,10.0,14.0,0.4166666666666667,987.156519022222,21652.63529960772,100.0,49.0,51.0,0.49,92.01141218923992,18180.660434310543,,,,,17385.0,17413.0,17531.0,17552.0,17563.0,17587.0,17598.0,17622.0,17783.0,17880.0,0.03708608294271166,-0.14479087858615314,0.04504725681075654,-0.058338073526689,0.005278848732276985
16,16,18438.151373234577,2426.7488127215584,10.033114647325464,18585.88407875892,-6412.19951424675,20.383723206912453,18613.278419733895,44232.230762955776,10.590176486076569,18646.60679602885,-17016.400208989795,11.23956776965625,18866.86167396943,17359.46795169091,40.952772703180074,0.9347051775091992,144.0,116.0,92.0,258.0,350.0,28.0,1041.0,1038.0,28.0,14.0,14.0,0.5,95.49274511917142,2428.561492830443,24.0,19.0,5.0,0.7916666666666666,908.011587976319,5132.975169253954,25.0,12.0,13.0,0.48,1974.1665942481677,41670.73533078396,24.0,11.0,13.0,0.4583333333333333,949.166046101048,20876.590073290987,102.0,50.0,52.0,0.4901960784313725,97.56002245410964,18129.162454716345,,,,,18424.0,18452.0,18568.0,18591.0,18601.0,18626.0,18636.0,18660.0,18820.0,18918.0,0.03935007390075856,-0.14160688324792156,0.044631856910583856,-0.05577948534611932,0.005619989202757032
17,17,19427.69233317132,2667.576615355382,10.183016298200798,19576.397286903742,-6573.5904704639515,20.38372320654165,19603.11880670873,43399.057828239485,10.517356460468218,19637.797035361193,-16922.09302912606,11.953353767068394,19856.56097938132,16516.279182799604,40.23406873021326,0.9400872211775364,145.0,117.0,93.0,255.0,348.0,28.0,989.0,990.0,28.0,14.0,14.0,0.5,99.33975401710704,2573.389814309551,23.0,18.0,5.0,0.782608695652174,906.7147985531244,4643.960652278167,24.0,12.0,12.0,0.5,1949.7989967281217,40371.71622536096,25.0,11.0,14.0,0.44,838.5747823504369,20056.3807891944,100.0,50.0,50.0,0.5,87.28214334243378,17238.451650248262,,,,,19414.0,19442.0,19559.0,19581.0,19591.0,19615.0,19627.0,19652.0,19809.0,19907.0,0.03723970042520137,-0.13793296108528802,0.044927219490451704,-0.049555027318848456,0.005284612979497901
18,18,20411.710651971414,1899.272552128436,8.564542843643386,20552.76815735524,-6501.166472446277,20.383723206912453,20586.28515227321,41058.53192812132,10.482363302374823,20620.784551399694,-17282.57423634514,13.146937166053778,20840.198091113492,15784.333725662736,38.338106545647335,0.9359898475586902,138.0,113.0,99.0,253.0,352.0,25.0,983.0,983.0,26.0,13.0,13.0,0.5,82.34790234435825,1830.922134757175,34.0,23.0,11.0,0.6764705882352942,452.27818101453863,3062.6990665679195,24.0,12.0,12.0,0.5,1890.3389315687407,38185.64291048399,27.0,12.0,15.0,0.4444444444444444,816.3911326840949,20632.06059327651,98.0,48.0,50.0,0.4897959183673469,80.42883951784012,16228.897896637847,,,,,20399.0,20424.0,20537.0,20564.0,20574.0,20598.0,20609.0,20636.0,20794.0,20889.0,0.04335760144170692,-0.06956877399331603,0.046040100383473094,-0.047237820102472336,0.005095485239714365
19,19,21394.876876970746,1583.1823587906358,7.573660138733645,21536.602712798853,-6706.76508019666,20.383723206912453,21570.59058386895,40607.029161338585,10.565014068832538,21604.646913003387,-17147.240879416924,13.180020933566816,21823.15454344103,15907.715603307584,37.904738280872095,0.9304773140639396,133.0,112.0,103.0,252.0,355.0,21.0,984.0,984.0,21.0,11.0,10.0,0.5238095238095238,86.04322173730367,1672.8150302538115,67.0,56.0,11.0,0.835820895522388,437.31131455827614,3313.792284012713,24.0,13.0,11.0,0.5416666666666666,1864.1941724733329,35782.69186168912,27.0,12.0,15.0,0.4444444444444444,829.1346719165888,20646.36498754059,96.0,47.0,49.0,0.4895833333333333,89.1857639407716,16460.7307034106,,,,,21384.0,21405.0,21517.0,21548.0,21558.0,21582.0,21593.0,21620.0,21778.0,21872.0,0.054348269647869575,-0.06520450758735283,0.045908164447750525,-0.048353824253548526,0.005606446969810536
20,20,22454.915285122745,2251.1682172290116,9.087628200754864,22605.41777204273,-5915.08161339072,17.8357578060484,22636.16394538435,41949.370041968694,10.568647131896872,22669.002414905663,-16154.506263278394,11.26657550015998,22890.08265518619,16983.23623273609,39.56626011212498,0.9337253673744528,148.0,123.0,93.0,256.0,349.0,25.0,1060.0,1066.0,25.0,13.0,12.0,0.52,101.33942274626916,2264.493688857617,23.0,15.0,8.0,0.6521739130434783,583.4114471519165,12.413232512654986,24.0,12.0,12.0,0.5,1911.0007178403976,39921.29779921237,24.0,10.0,14.0,0.4166666666666667,957.420042086628,20917.4085980592,98.0,48.0,50.0,0.4897959183673469,95.95800942510262,17797.118663413763,,,,,22442.0,22467.0,22590.0,22613.0,22624.0,22648.0,22659.0,22683.0,22844.0,22939.0,0.045016370598465985,-0.09863117456083345,0.045554932432322975,-0.059266437889407164,0.005650160435273135
21,21,23626.84939145631,2275.484020315612,10.378802785728062,23785.39728701516,-6061.1334755252265,20.38372320690972,23812.35979852586,44665.197861947614,10.666739362251876,23844.54714242573,-16224.22911930664,10.82829221672038,24066.73620645031,17020.504995980875,39.2914052036152,0.9342944539887692,155.0,128.0,90.0,259.0,349.0,27.0,1171.0,1177.0,28.0,14.0,14.0,0.5,88.33298002358511,2270.76484866013,23.0,18.0,5.0,0.782608695652174,907.8383951239654,5572.640316920724,25.0,12.0,13.0,0.48,1975.6437285839352,42218.62353878959,23.0,10.0,13.0,0.4347826086956521,1006.819951832586,20976.878930307135,98.0,48.0,50.0,0.4897959183673469,82.72386465591372,17539.515238629716,,,,,23613.0,23640.0,23768.0,23790.0,23800.0,23825.0,23835.0,23858.0,24020.0,24117.0,0.03881942445428962,-0.14978030079519025,0.04423228426504026,-0.062056566412420924,0.004860247370771176
22,22,24835.437320644753,2742.8896264044606,12.102044667049844,24993.972626301005,-5507.621540582515,17.835757804359744,25020.699581511828,44866.283668157965,10.616499722110804,25052.89628733932,-15994.14506825241,10.479170621313228,25275.64509786561,17664.25541070032,41.163940988032586,0.9336658435283628,158.0,126.0,88.0,261.0,349.0,32.0,1208.0,1208.0,32.0,15.0,17.0,0.46875,91.33161346079068,2805.4790181785884,22.0,18.0,4.0,0.8181818181818182,962.3528707980006,7453.27230357288,25.0,13.0,12.0,0.52,2011.2118618013656,41547.008756170515,22.0,9.0,13.0,0.4090909090909091,1032.5018344205682,21278.095943769473,102.0,50.0,52.0,0.4901960784313725,96.78808140336048,18520.13799809527,,,,,24820.0,24852.0,24978.0,24998.0,25008.0,25033.0,25044.0,25066.0,25228.0,25327.0,0.03329758973222465,-0.17473111827074034,0.04482679859728926,-0.06455498746663449,0.00547931849676098
23,23,25977.01644904809,2496.8224803074204,10.255807980914776,26131.665326726135,-6310.176586342895,17.835757806048385,26159.961891627085,42298.89829267565,10.598071214841651,26194.03053583126,-17081.447225422264,12.164833721715508,26414.97374334508,17001.14319117942,39.450936734441456,0.9345092737427542,152.0,123.0,94.0,256.0,350.0,29.0,1142.0,1139.0,29.0,14.0,15.0,0.4827586206896552,88.30042266267091,2434.0856231878643,23.0,18.0,5.0,0.782608695652174,825.7294115013777,3948.955825239644,24.0,12.0,12.0,0.5,1937.2286197931016,39406.114895991486,26.0,11.0,15.0,0.4230769230769231,878.173880048685,21059.337834203907,99.0,48.0,51.0,0.4848484848484848,92.03801259321077,17637.833041064143,,,,,25963.0,25992.0,26115.0,26137.0,26148.0,26172.0,26183.0,26209.0,26369.0,26465.0,0.03536511840913854,-0.13085678351514007,0.04579855972581078,-0.05141097639207652,0.005413636692440904
24,24,27064.947991639063,2457.250339686494,9.198910443737676,27212.941227507083,-6056.524487887654,20.383723206912453,27243.652467180174,41133.37525988895,10.531538894941333,27278.080020892703,-16787.697721219232,12.488185055375965,27498.511155722157,16273.045264280212,39.24125094308291,0.9346461304922392,146.0,120.0,95.0,255.0,350.0,26.0,1089.0,1084.0,26.0,13.0,13.0,0.5,103.04551879640418,2405.438903979758,23.0,15.0,8.0,0.6521739130434783,616.2675154819811,153.4491241436524,25.0,13.0,12.0,0.52,1870.6105130408373,36932.35040831282,26.0,11.0,15.0,0.4230769230769231,824.2299468073913,20462.830019921108,97.0,48.0,49.0,0.4948453608247423,88.0639883146836,16979.8228722215,,,,,27052.0,27078.0,27198.0,27221.0,27231.0,27256.0,27267.0,27293.0,27452.0,27548.0,0.04193529537147247,-0.10175266635418459,0.04547670842039933,-0.04909725922486591,0.0054116477207856424
25,25,28124.43457535728,2640.6030053236345,10.792162388746323,28270.972626224717,-6322.986046245717,17.83575778542929,28298.150681191742,41413.52295727797,10.760157122881225,28332.450722000485,-16497.65697679829,12.077282850105965,28553.017952778777,16590.60010035087,40.098598964056734,0.9434364902849546,144.0,114.0,93.0,256.0,349.0,30.0,1058.0,1054.0,30.0,14.0,16.0,0.4666666666666667,91.54534466734786,2686.591933217507,24.0,19.0,5.0,0.7916666666666666,881.4436491953112,5224.5175161809075,25.0,12.0,13.0,0.48,1853.059992742384,39142.1408960621,25.0,10.0,15.0,0.4,874.5048867673579,20998.728942055153,99.0,48.0,51.0,0.4848484848484848,88.46669742128658,17344.28190373094,,,,,28110.0,28140.0,28254.0,28275.0,28286.0,28311.0,28322.0,28347.0,28507.0,28603.0,0.034668348283625465,-0.13940306727683982,0.04474528753938643,-0.053007823353172515,0.0053323386065712965
26,26,29170.706169838548,2802.556656427284,11.350790073117542,29316.97262630071,-5830.578564351877,17.835757786079917,29344.129189780677,41637.72837397021,10.879779764236917,29378.223169528905,-15962.459762356935,11.931788227242444,29597.023336973936,16438.200776002745,41.1339391029127,0.9393587857681378,144.0,114.0,93.0,255.0,348.0,30.0,1047.0,1046.0,31.0,15.0,16.0,0.4838709677419355,98.55848300658074,2753.399748735458,23.0,19.0,4.0,0.8260869565217391,881.950486721755,6144.36137294578,25.0,12.0,13.0,0.48,1833.135652810048,39403.454221626336,25.0,10.0,15.0,0.4,869.5206485150272,20439.04675077338,102.0,50.0,52.0,0.4901960784313725,91.04718627285904,17234.67322267912,,,,,29156.0,29186.0,29300.0,29321.0,29332.0,29357.0,29368.0,29393.0,29549.0,29648.0,0.0351673472079682,-0.1512629453471385,0.04402583244565357,-0.05447284826149114,0.005538756188315572
27,27,30193.836680250955,2338.1023058422034,10.215635652122137,30337.81578774338,-6153.00210038471,17.8357578060484,30367.125431464327,41268.654470785186,10.840587614537917,30401.07261983823,-16265.811355455076,12.37040791385604,30620.731058608377,16099.147392224218,39.00688748322921,0.9428422707162988,141.0,113.0,95.0,254.0,349.0,28.0,1023.0,1023.0,28.0,14.0,14.0,0.5,88.74358529470675,2304.930056154265,23.0,17.0,6.0,0.7391304347826086,739.4308961859642,2663.1252568168443,24.0,12.0,12.0,0.5,1844.2614666207044,38833.92270271404,26.0,11.0,15.0,0.4230769230769231,869.2607747877331,20654.31403364448,97.0,48.0,49.0,0.4948453608247423,81.97138298852641,16654.643769294078,,,,,30180.0,30208.0,30321.0,30344.0,30355.0,30379.0,30390.0,30416.0,30574.0,30670.0,0.03795539017816442,-0.12017400353881436,0.044689159127450834,-0.05344097234327069,0.005091659886791151
28,28,31245.40665146262,2193.185689408528,9.41566982231466,31389.75074701174,-6038.199834168837,17.8357578060484,31418.51691822677,41419.21045293771,10.80652302631982,31452.254222245523,-16216.290458293455,12.065399646082728,31671.83953712737,16271.669337723812,40.0436180078959,0.9412453926161624,142.0,116.0,93.0,255.0,348.0,26.0,1052.0,1052.0,26.0,13.0,13.0,0.5,93.75151472638343,2266.4084006177504,23.0,17.0,6.0,0.7391304347826086,785.7094956600881,3563.0847591953097,25.0,13.0,12.0,0.52,1853.8816979708483,37485.63680698099,25.0,10.0,15.0,0.4,890.9941967907541,20904.82903789865,100.0,49.0,51.0,0.49,88.64327175894765,17020.207231650165,,,,,31232.0,31258.0,31374.0,31395.0,31406.0,31431.0,31442.0,31467.0,31625.0,31722.0,0.042746729189021344,-0.1301231355765889,0.04475898206889551,-0.05494439058564564,0.005447706066238662
29,29,32367.62485516289,2342.5233515688265,9.469918603931806,32519.295852408955,-5919.604044740803,20.383723206912453,32548.59265452932,42457.58574700724,10.687629496597662,32581.97688830704,-16124.060063421372,11.908234683157522,32804.2214632021,17184.54716880318,38.32893734223921,0.9312289463960188,149.0,124.0,92.0,256.0,348.0,25.0,1123.0,1130.0,25.0,13.0,12.0,0.52,100.49466407791492,2321.437315361607,23.0,16.0,7.0,0.6956521739130435,710.5436016964072,1836.876506125159,25.0,13.0,12.0,0.52,1895.632589807248,38090.06445031216,24.0,10.0,14.0,0.4166666666666667,897.4095564753251,20611.43619335383,96.0,47.0,49.0,0.4895833333333333,93.7723038517084,17834.221195069375,,,,,32355.0,32380.0,32504.0,32526.0,32536.0,32561.0,32572.0,32596.0,32759.0,32852.0,0.04290017600491026,-0.12003228532281321,0.04464767735741705,-0.0556565500838815,0.005456780614035766
30,30,33488.36951798913,2664.438463867588,10.82641929206532,33643.39728720114,-5499.534850743017,20.383723206912325,33670.687652306224,43542.12496460966,10.666726771614249,33703.444541738885,-15817.746243053138,11.040957807569043,33925.664908950195,17725.41580568571,39.65069957239606,0.9346840710185133,153.0,125.0,90.0,258.0,348.0,28.0,1120.0,1122.0,29.0,14.0,15.0,0.4827586206896552,102.41522591340323,2736.1341961435546,23.0,18.0,5.0,0.782608695652174,853.1967935968246,5351.731410415741,25.0,13.0,12.0,0.52,1930.1262901931736,39575.74273258698,23.0,9.0,14.0,0.391304347826087,983.8126854289884,21430.051786779102,98.0,48.0,50.0,0.4897959183673469,95.67232339888172,18477.01497685213,,,,,33474.0,33502.0,33627.0,33648.0,33658.0,33683.0,33694.0,33717.0,33880.0,33975.0,0.03843782744554046,-0.15513981032078614,0.04432779272398738,-0.06219676749847095,0.0053974656757103156
31,31,34613.58246684253,2023.955131017932,8.661169490489925,34764.226331596794,-5779.2479097209425,20.383723206912453,34795.575027306004,43292.57563578493,10.492913253080133,34827.973125750854,-16552.235676418186,11.152225934280708,35052.41586395829,17738.631710995334,37.953998245523195,0.9328630121363952,149.0,125.0,92.0,258.0,350.0,24.0,1125.0,1125.0,24.0,13.0,11.0,0.5416666666666666,93.0618203911063,1996.537140393036,23.0,14.0,9.0,0.6086956521739131,565.3447467135142,526.0444090399665,25.0,13.0,12.0,0.52,1969.2605851700569,38973.236680574824,24.0,10.0,14.0,0.4166666666666667,1002.8707728045156,21642.90663470325,95.0,46.0,49.0,0.4842105263157895,98.03981815296562,18407.485675064858,,,,,34601.0,34625.0,34750.0,34773.0,34783.0,34808.0,34818.0,34842.0,35007.0,35100.0,0.04598017958248986,-0.09782323851561725,0.04548725864077023,-0.06058823668353733,0.005526909840074948
32,32,35721.14849680887,2301.747575248108,9.234944267570343,35873.53759770424,-6129.480795204748,20.383723206912453,35902.61302883566,43849.04216908001,10.551368467388446,35935.27333323954,-16808.627191091804,11.064497578583875,36158.49616183116,17641.45796663067,39.43657209357684,0.9307924682602462,149.0,123.0,92.0,259.0,351.0,26.0,1108.0,1107.0,26.0,13.0,13.0,0.5,100.1502381638068,2331.4078016768763,23.0,17.0,6.0,0.7391304347826086,800.1744026627906,3104.483539411,25.0,13.0,12.0,0.52,1979.0659078316144,39607.88087660662,24.0,10.0,14.0,0.4166666666666667,1022.089622034568,22217.714657551085,99.0,48.0,51.0,0.4848484848484848,104.30459667815248,18503.904621353824,,,,,35708.0,35734.0,35857.0,35880.0,35890.0,35915.0,35925.0,35949.0,36112.0,36208.0,0.043510521849039634,-0.13054521735165364,0.04513361774700624,-0.06080744194125816,0.005912470322773075
33,33,36802.47707111148,2508.6548330027667,10.078686656048871,36949.70409892692,-5901.025363273674,20.383723206912453,36981.20048859925,42094.038611626,10.40667729564914,37015.236608369494,-17419.892911019273,11.87249561747066,37238.08912342641,17449.52180906732,39.8490306915929,0.9365081234183166,146.0,118.0,95.0,258.0,353.0,28.0,1081.0,1078.0,28.0,13.0,15.0,0.4642857142857143,94.56445340415844,2536.251831166819,24.0,15.0,9.0,0.625,575.9876998916742,567.9133028706926,24.0,12.0,12.0,0.5,1930.6516501870196,39505.00495276708,26.0,11.0,15.0,0.4230769230769231,907.6182749599336,21513.060473245052,100.0,49.0,51.0,0.49,88.50124880803602,18092.03402381328,,,,,36789.0,36817.0,36935.0,36959.0,36969.0,36993.0,37004.0,37030.0,37191.0,37288.0,0.03769528281057634,-0.0976080705357513,0.04586520357430828,-0.05210240267239548,0.005071843788982687
34,34,37816.63927628943,1849.5806619477385,7.780736111272848,37958.60271279886,-6760.453959867054,20.383723206912453,37992.46258028232,40786.287675448795,10.428495466311778,38026.83741452422,-17567.83517437658,13.08688876531634,38249.42281061476,16199.70215613646,37.77550149183149,0.9304802414740292,139.0,116.0,98.0,255.0,353.0,23.0,1015.0,1011.0,23.0,12.0,11.0,0.5217391304347826,91.71358462336724,1792.1268145273878,64.0,53.0,11.0,0.828125,449.4016540116221,3612.6732502494433,24.0,12.0,12.0,0.5,1889.5535940034376,38269.531011336134,27.0,12.0,15.0,0.4444444444444444,826.1397025320463,20955.981760760624,95.0,46.0,49.0,0.4842105263157895,86.34610556976767,16741.35083842243,,,,,37805.0,37828.0,37944.0,37970.0,37980.0,38004.0,38015.0,38042.0,38204.0,38297.0,0.04958615026110102,-0.06647507056174963,0.04632815835163272,-0.04702569749384975,0.005330104512882028
35,35,38782.67030361471,1355.9599463589714,5.7652516272702865,38924.60271279886,-7203.6340291098795,20.383723206912453,38958.17468801713,40420.971270188034,10.548002285834183,38992.48260991422,-17570.229185238157,13.311402682122203,39213.502091904054,16110.723414508147,37.45906172696067,0.9235000509601846,79.0,61.0,155.0,253.0,408.0,18.0,967.0,966.0,18.0,9.0,9.0,0.5,102.619987310512,1433.216563495332,88.0,77.0,11.0,0.875,454.7243666209685,3369.817979328108,24.0,12.0,12.0,0.5,1868.8500449910623,37083.70663241438,27.0,11.0,16.0,0.4074074074074074,860.657286846848,22063.58277386336,95.0,47.0,48.0,0.4947368421052631,85.84058620938285,16659.80832129425,,,,,38774.0,38792.0,38853.0,38936.0,38946.0,38970.0,38981.0,39008.0,39168.0,39261.0,0.07568069218126064,-0.06312430153772772,0.04623466448886172,-0.048983839526119545,0.005328164601974425
36,36,39758.40222277814,1809.5196045761932,8.1392170153611,39897.602718350725,-6165.603096491137,20.383723206912453,39932.01335860739,41175.10649506716,10.47007774199773,39966.24255344477,-16943.590724091377,12.49116996545716,40186.95619026475,15995.23313383649,38.624328123371626,0.9313363691263596,135.0,112.0,99.0,255.0,354.0,23.0,975.0,974.0,23.0,11.0,12.0,0.4782608695652174,90.82502235482588,1910.6584176807623,51.0,40.0,11.0,0.7843137254901961,409.73938595233744,3182.012722787946,24.0,12.0,12.0,0.5,1884.6343302157916,38022.242549890245,26.0,11.0,15.0,0.4230769230769231,858.4233860745699,21041.57695989692,97.0,48.0,49.0,0.4948453608247423,85.55225604082176,16556.88890480456,,,,,39747.0,39770.0,39882.0,39909.0,39920.0,39944.0,39955.0,39981.0,40141.0,40236.0,0.050192892149459725,-0.06645568641703864,0.04577120718416536,-0.05066360490247288,0.00534860950915705
37,37,40765.61140993987,2022.910952984411,8.836716538274743,40905.172646419254,-6234.468555454172,20.383723206912453,40938.81113393063,41083.75231302349,10.578322592547948,40972.84073770381,-16677.533706826478,12.778376616726684,41193.40980142874,15586.430046772884,38.94026745758532,0.934442016266194,138.0,113.0,97.0,255.0,352.0,25.0,1007.0,1007.0,25.0,13.0,12.0,0.52,89.63541000012775,2004.8989748932197,28.0,17.0,11.0,0.6071428571428571,431.5296841361414,3111.7516114253967,25.0,13.0,12.0,0.52,1866.1057834795424,37147.95619061897,26.0,11.0,15.0,0.4230769230769231,836.7522343637557,20472.620562632525,99.0,48.0,51.0,0.4848484848484848,85.09548784360274,16083.307584551383,,,,,40753.0,40778.0,40891.0,40916.0,40926.0,40951.0,40962.0,40988.0,41147.0,41243.0,0.04431011155873577,-0.06921675525311957,0.04542198992101287,-0.05017242051930345,0.005459588089655043
38,38,41832.698381367656,2556.543152190458,10.827173441488917,41980.972626301,-6089.355138762358,17.835757806046217,42008.115487603245,42526.65286935808,10.767865344306792,42041.47478804223,-16024.881088288856,11.702096235728854,42263.73695875508,16877.986587769512,40.47668575941327,0.9410345634161412,146.0,116.0,92.0,258.0,350.0,30.0,1065.0,1069.0,31.0,15.0,16.0,0.4838709677419355,88.0124938840103,2455.9120462089913,23.0,19.0,4.0,0.8260869565217391,899.2392177595716,5893.890822741392,24.0,12.0,12.0,0.5,1899.4383270070648,40105.741682776395,25.0,10.0,15.0,0.4,932.3412793344932,21297.238625461352,101.0,50.0,51.0,0.495049504950495,90.52217231226663,17612.685688840364,,,,,41818.0,41848.0,41964.0,41985.0,41996.0,42020.0,42031.0,42056.0,42217.0,42314.0,0.03442636742063234,-0.1476739650205948,0.04466465613558023,-0.058180854771887044,0.005363327660057672
39,39,42930.667130925925,2576.7672721714257,10.633969003051728,43080.74610414438,-5749.017107828471,20.383723206912453,43110.41552197537,42846.8802420742,10.551694189933896,43143.22135241728,-16317.86629500845,11.205282348718558,43365.920678237744,16980.012945334798,40.95364324589739,0.9331269659204672,148.0,120.0,92.0,259.0,351.0,28.0,1100.0,1103.0,29.0,15.0,14.0,0.5172413793103449,95.59179604000327,2491.8173830359656,23.0,16.0,7.0,0.6956521739130435,715.1149607199274,2178.2115798041395,25.0,12.0,13.0,0.48,1924.4110847504155,40792.160006771395,24.0,10.0,14.0,0.4166666666666667,972.3262843731676,21403.909793886873,102.0,50.0,52.0,0.4901960784313725,95.3229368036198,17770.64510051199,,,,,42917.0,42945.0,43065.0,43088.0,43098.0,43123.0,43133.0,43157.0,43319.0,43416.0,0.03709756681263988,-0.12438908204780796,0.04491368038648257,-0.05958660690035174,0.005613831809816697
40,40,44026.85938206177,2171.336784683381,9.197063745824996,44176.845914665886,-6365.607080541371,17.8357578060484,44208.108045337714,42594.82755483554,10.491272430590833,44240.45892102626,-16673.77061103259,11.285664717704236,44463.53253905796,17085.557138009433,39.793918253021786,0.9305500206024416,148.0,123.0,92.0,259.0,351.0,25.0,1096.0,1097.0,25.0,13.0,12.0,0.52,93.50417568013314,2148.407230273293,23.0,15.0,8.0,0.6521739130434783,603.6387204450336,397.058177039376,24.0,12.0,12.0,0.5,1968.712883885806,40160.549973724395,23.0,9.0,14.0,0.391304347826087,1029.165291901718,22523.542976544668,99.0,49.0,50.0,0.494949494949495,88.6261866591202,17768.801736137488,,,,,44014.0,44039.0,44162.0,44185.0,44196.0,44220.0,44231.0,44254.0,44417.0,44513.0,0.043062953817073424,-0.09482814644502005,0.04621952938655129,-0.06172360864918862,0.00518719910291703
41,41,45119.52957410313,2766.028734413707,10.407096955154303,45272.14971732435,-6339.432783631831,20.383723206912453,45300.51830243818,43650.29478876724,10.568999298429546,45333.17664531466,-16981.99080066049,11.189177162723936,45557.47480901294,17032.636917112206,40.25923602577589,0.9354892894813877,149.0,121.0,92.0,261.0,353.0,28.0,1092.0,1093.0,28.0,14.0,14.0,0.5,103.0342794678923,2661.745345074375,23.0,17.0,6.0,0.7391304347826086,803.4010539924691,3000.901240293314,25.0,13.0,12.0,0.52,1975.1967679407192,38981.36495171653,24.0,10.0,14.0,0.4166666666666667,1014.4447245377564,22192.193409614163,100.0,48.0,52.0,0.48,91.58090262631384,17744.129087955294,,,,,45106.0,45134.0,45255.0,45278.0,45288.0,45313.0,45323.0,45347.0,45511.0,45608.0,0.03724989483514229,-0.1267307472786555,0.04525047946409303,-0.05973650182982675,0.0053767894584957135
42,42,46173.09575645657,2583.5965575787104,10.360638423548894,46324.397287201085,-6276.808180116193,20.383723205444344,46351.48835132139,44229.44742918362,10.626895483486734,46384.46808394134,-16970.51947707981,11.168058151614993,46607.60342042661,16991.121443967615,40.324632066455145,0.9366001423156468,148.0,120.0,91.0,260.0,351.0,28.0,1054.0,1051.0,28.0,14.0,14.0,0.5,98.72127327887316,2558.9523896050655,23.0,18.0,5.0,0.782608695652174,890.0428095658533,4926.3979015916075,25.0,12.0,13.0,0.48,1968.1371112326017,42084.606446412654,24.0,10.0,14.0,0.4166666666666667,1024.1286232733269,22529.236841272468,101.0,50.0,51.0,0.495049504950495,94.43205226655706,17754.518127849715,,,,,46159.0,46187.0,46307.0,46329.0,46339.0,46364.0,46374.0,46398.0,46560.0,46658.0,0.03821079300840707,-0.14179863141036392,0.044498342747415355,-0.0603475117338926,0.005557729228054187
43,43,47203.119764495474,2775.2750776522107,10.878069880222965,47351.972626301,-6238.6876134813565,17.835757806033577,47378.57092381338,43556.591904107016,10.61307031658585,47411.84564444387,-17004.062490146818,11.072979540017444,47634.88291415878,17404.84677063642,40.84472548301754,0.9366889687572528,147.0,118.0,90.0,260.0,350.0,29.0,1030.0,1027.0,31.0,15.0,16.0,0.4838709677419355,96.46646206596074,2730.0704057678363,22.0,18.0,4.0,0.8181818181818182,962.6373589622524,6483.50972346542,24.0,12.0,12.0,0.5,1967.0133297620653,39850.574489159866,24.0,10.0,14.0,0.4166666666666667,969.656289666144,21266.725771752823,102.0,50.0,52.0,0.4901960784313725,93.81130539450466,18170.33255202246,,,,,47189.0,47218.0,47336.0,47356.0,47367.0,47391.0,47402.0,47426.0,47588.0,47686.0,0.03475924345040713,-0.15430125991275187,0.04515994580321131,-0.057024978014990325,0.005389952961422962
44,44,48170.086925146985,2059.415158532371,8.523779179580313,48314.935244960805,-6419.129473037652,20.383723206912453,48345.64486202102,41697.032337382545,10.341979306025676,48380.34553028051,-17445.653052982583,12.404078028570906,48599.67792695132,16012.362117219276,39.71423287371069,0.9270657387906828,142.0,117.0,95.0,255.0,350.0,25.0,968.0,967.0,25.0,12.0,13.0,0.48,92.9513674275363,2035.0459442338904,24.0,15.0,9.0,0.625,613.229263736217,755.1494954042562,24.0,12.0,12.0,0.5,1932.1266513298683,37511.90250366796,26.0,11.0,15.0,0.4230769230769231,838.8448991001599,21141.856250310662,100.0,49.0,51.0,0.49,84.59354966917472,16636.003616085683,,,,,48158.0,48183.0,48300.0,48324.0,48334.0,48358.0,48369.0,48395.0,48553.0,48650.0,0.045134836966907385,-0.09553153060893559,0.04633727013703235,-0.04808331889626496,0.005283015026134403
45,45,49110.00716067029,2021.8760553186191,8.407072765089312,49251.70973059725,-6196.951654623852,20.383723206912453,49282.98256605207,40600.253155787024,10.487804191113677,49317.721927204635,-16937.520100749196,12.5794539805002,49536.92487075376,15548.126993016727,39.39606724830933,0.9330406321967196,140.0,116.0,95.0,254.0,349.0,24.0,939.0,937.0,24.0,12.0,12.0,0.5,94.3541692842116,2040.825786290437,23.0,14.0,9.0,0.6086956521739131,594.243368047056,869.1708038989993,24.0,12.0,12.0,0.5,1853.361866512832,37356.48890286993,27.0,12.0,15.0,0.4444444444444444,798.4130863053332,19881.21638079798,99.0,48.0,51.0,0.4848484848484848,80.96302992046033,16122.827492082022,,,,,49098.0,49122.0,49238.0,49261.0,49271.0,49295.0,49306.0,49333.0,49490.0,49587.0,0.04666664360360245,-0.0958928520288942,0.045649022418685584,-0.04713872406091002,0.005207252935149295
46,46,50048.311309170946,1254.5561051182394,6.385758483150013,50186.60271279886,-6426.205659774256,20.383723206912453,50220.332329709105,40025.360682334554,10.55569299945762,50254.767382197606,-17364.501732171117,12.571384052656327,50474.218019551816,15095.60782482274,37.59839009029391,0.9302374017385948,129.0,109.0,103.0,252.0,355.0,20.0,939.0,937.0,20.0,10.0,10.0,0.5,86.14437020458757,1442.1447038743513,75.0,64.0,11.0,0.8533333333333334,440.7697455704897,2899.0970224524617,24.0,12.0,12.0,0.5,1824.635757221182,37639.26495357062,27.0,12.0,15.0,0.4444444444444444,837.6548459883865,20634.326907035727,95.0,46.0,49.0,0.4842105263157895,93.14341516399794,15816.9933995741,,,,,50038.0,50058.0,50167.0,50198.0,50208.0,50232.0,50243.0,50270.0,50430.0,50522.0,0.06866521939763598,-0.06858942413398786,0.0455869910005957,-0.04823949796592596,0.006170232841557785
47,47,51026.93583467856,1667.6408396172264,8.035990100674136,51164.60271279886,-6087.489362007634,20.383723206912453,51198.67114235283,40108.144879496256,10.649085978342436,51232.80757709,-16768.98807039038,12.65660392911076,51451.89294727756,15039.768053610158,38.82117096457823,0.9346239889941146,126.0,102.0,107.0,253.0,360.0,24.0,978.0,979.0,24.0,12.0,12.0,0.5,81.43999168815964,1697.8636334905664,72.0,61.0,11.0,0.8472222222222222,420.8964145302819,2600.41734248131,25.0,13.0,12.0,0.52,1812.7757567403933,35995.13088711254,26.0,11.0,15.0,0.4230769230769231,839.772286314026,20438.187038090146,99.0,49.0,50.0,0.494949494949495,79.41360186669299,15480.74846504166,,,,,51015.0,51039.0,51141.0,51176.0,51186.0,51211.0,51222.0,51248.0,51405.0,51501.0,0.04883545050794784,-0.06914121561462108,0.04519719778082045,-0.05007888864783933,0.005280241130289937
48,48,52069.1571488127,2463.069165459805,10.64877893267888,52214.33263840628,-5593.9443046096485,20.383723206912453,52243.10918013533,41521.39304723432,10.789186074918677,52276.932922306514,-15419.787139880307,11.679646071459146,52496.07305249868,15678.96960834485,41.203057771644914,0.9414585191313364,143.0,117.0,92.0,257.0,349.0,26.0,1042.0,1044.0,26.0,13.0,13.0,0.5,103.87879169777035,2579.5270891975606,22.0,16.0,6.0,0.7272727272727273,734.560424544256,2825.39573671818,25.0,12.0,13.0,0.48,1815.1786787709011,38866.85538052583,24.0,10.0,14.0,0.4166666666666667,852.2328653054631,19501.26139979115,104.0,51.0,53.0,0.4903846153846153,83.96814403744817,16308.68849264273,,,,,52056.0,52082.0,52199.0,52220.0,52231.0,52256.0,52267.0,52291.0,52448.0,52548.0,0.04217453295850841,-0.13131350341456688,0.04371670952142603,-0.055268782738338004,0.005355463154463775
49,49,53149.60926087319,1941.4745536849575,9.753387116611966,53292.108026983,-5452.313984244087,20.383723206912453,53326.22591632094,40266.806356064495,10.55081083940572,53359.60402301728,-16123.842533381743,12.00286743447983,53580.57949265388,16239.671729433445,39.99263960726165,0.9332973960622812,142.0,116.0,96.0,257.0,353.0,26.0,1080.0,1083.0,28.0,14.0,14.0,0.5,79.54090188066662,1921.516420814227,33.0,22.0,11.0,0.6666666666666666,381.51924305131774,2565.6388700003154,24.0,12.0,12.0,0.5,1823.891767298095,37728.97492172805,25.0,11.0,14.0,0.44,856.7687192815882,19792.232251468027,100.0,50.0,50.0,0.5,87.65860772954899,16945.067346699627,,,,,53136.0,53162.0,53278.0,53303.0,53314.0,53338.0,53349.0,53374.0,53533.0,53631.0,0.04096932495442518,-0.06997382105172578,0.04529516821299642,-0.05313675803443197,0.005397806629962412
50,50,54258.54461652467,2780.544574127595,11.551737739842062,54409.972626301,-5774.676685009727,17.835757806037602,54437.16980990317,42300.61379243331,10.73012068175529,54470.17308642853,-16088.592910817324,11.215927212482782,54692.88992289362,17152.79168715433,41.10837926549894,0.936595095845094,149.0,118.0,91.0,260.0,351.0,31.0,1108.0,1111.0,33.0,16.0,17.0,0.4848484848484848,91.56504552665596,2641.163131017869,23.0,19.0,4.0,0.8260869565217391,879.3645639706044,6016.165937710561,25.0,12.0,13.0,0.48,1890.6877765308025,40179.26462466759,24.0,10.0,14.0,0.4166666666666667,954.7287436749637,21071.588147203172,102.0,50.0,52.0,0.4901960784313725,92.60787462737233,18020.61567992717,,,,,54244.0,54275.0,54393.0,54414.0,54425.0,54450.0,54460.0,54484.0,54645.0,54744.0,0.03293061595870471,-0.15227944557542328,0.044696461990085985,-0.05934196663233628,0.005398997219602804
51,51,55348.81475042153,2482.1055155641675,10.453052174018548,55501.02547808186,-6286.906871142705,17.835757806048395,55528.984373061176,42307.60181065019,10.666276461182054,55561.457690728654,-16526.291215946876,11.299335138507336,55785.16245652731,17409.92718130001,39.96771747596436,0.9324419625130234,149.0,122.0,91.0,260.0,351.0,27.0,1091.0,1092.0,28.0,14.0,14.0,0.5,96.85304574990678,2448.6289458485876,23.0,18.0,5.0,0.782608695652174,824.77751730771,4084.198749267759,24.0,12.0,12.0,0.5,1927.84599889196,39491.30764118434,23.0,9.0,14.0,0.391304347826087,1013.1287293881971,22305.849891496535,100.0,49.0,51.0,0.49,91.1414761853078,18050.9745945575,,,,,55335.0,55362.0,55484.0,55506.0,55517.0,55541.0,55552.0,55575.0,55738.0,55835.0,0.03902051912885447,-0.13118971446729874,0.045567366534272784,-0.06130405885687098,0.005235029143786586
52,52,56413.83694161484,2292.583828528738,10.198489566071297,56565.38704807067,-6415.239107512365,17.8357578060484,56594.03796806235,42635.7748844625,10.589061357483851,56626.582816703645,-16998.768297335333,11.186398219532071,56850.58359595545,16990.800212477927,38.99303825115169,0.9373193934331346,149.0,122.0,91.0,260.0,351.0,27.0,1066.0,1065.0,28.0,14.0,14.0,0.5,88.6532113566295,2250.919390498517,23.0,16.0,7.0,0.6956521739130435,751.18120299643,2245.005613347543,24.0,12.0,12.0,0.5,1954.3335527232384,40028.73622347305,23.0,10.0,13.0,0.4347826086956521,986.922406380597,21312.50397290533,98.0,49.0,49.0,0.5,89.5289892976681,17660.910677764154,,,,,56400.0,56427.0,56549.0,56571.0,56582.0,56606.0,56617.0,56640.0,56804.0,56900.0,0.03866956150236938,-0.1170932509930585,0.04583788046585836,-0.05805846571456024,0.005269262670272506
53,53,57477.33097358955,2503.124076507204,10.182988058469254,57628.97262580699,-6361.490728400792,17.835757806047436,57655.756942489716,43417.97854398368,10.611591886568055,57688.61191704405,-16536.054868103314,10.843577381371931,57911.6331999612,17214.532689891257,40.78483390933538,0.9278473775199524,148.0,121.0,90.0,261.0,351.0,27.0,1063.0,1062.0,29.0,14.0,15.0,0.4827586206896552,94.9455413244346,2513.8327021823275,23.0,19.0,4.0,0.8260869565217391,936.8155997365308,6117.003071052065,24.0,12.0,12.0,0.5,1965.9756609816743,40322.64393444912,23.0,10.0,13.0,0.4347826086956521,968.4503511247028,20656.083806339044,102.0,50.0,52.0,0.4901960784313725,88.91138949507301,17953.46477357918,,,,,57464.0,57491.0,57612.0,57633.0,57644.0,57668.0,57679.0,57702.0,57864.0,57963.0,0.03793081702003331,-0.14726353298828682,0.04528022093405578,-0.05856598559023674,0.005164902881580032
54,54,58498.20629805677,2446.183027364203,8.861757205887212,58643.46966441849,-6400.929452290095,20.383723206912453,58674.26307591079,41464.57180829198,10.35862949769191,58708.78852231049,-17486.384347214243,12.142387092185029,58930.00484555265,16429.23397900153,40.35356237085033,0.930348136861527,143.0,118.0,94.0,257.0,351.0,25.0,1022.0,1018.0,25.0,12.0,13.0,0.48,105.688505280214,2423.6937996035294,24.0,15.0,9.0,0.625,571.0734985407707,1461.7308838502474,24.0,12.0,12.0,0.5,1912.7453184606416,38952.08211718043,26.0,12.0,14.0,0.4615384615384615,838.2757023435513,20442.8278478945,100.0,49.0,51.0,0.49,91.38837466901708,17156.900432149454,,,,,58486.0,58511.0,58629.0,58652.0,58662.0,58686.0,58697.0,58723.0,58883.0,58980.0,0.043205477308087964,-0.08921727739655914,0.04612962910370958,-0.04793876685417229,0.005562546299226249
55,55,59447.47189005635,1881.3715560933624,8.339620413866092,59587.6670659616,-6187.97528539509,20.383723206912453,59620.40435537976,40220.070786490745,10.433066951472856,59655.22668077817,-17299.03724094877,12.481528244428857,59874.397281064135,15742.414362417236,39.04071271591654,0.9281226578732392,138.0,113.0,97.0,254.0,351.0,25.0,949.0,946.0,25.0,12.0,13.0,0.48,86.98111537774496,1952.3723161863609,26.0,16.0,10.0,0.6153846153846154,492.44535108574865,2243.254407517702,24.0,12.0,12.0,0.5,1842.9593671358068,38103.38548850978,26.0,11.0,15.0,0.4230769230769231,831.0488842493558,20830.180409675333,99.0,48.0,51.0,0.4848484848484848,90.85289146285903,16349.260118229657,,,,,59435.0,59460.0,59573.0,59598.0,59608.0,59632.0,59644.0,59670.0,59828.0,59924.0,0.04623282152641865,-0.07958101452797042,0.045821882734100663,-0.048040181235182805,0.0057712171317099445
56,56,60393.33176543592,1805.03029876018,7.878187467880641,60534.34996236026,-6373.7701903296,17.8357578060484,60566.07497422052,40074.7279986721,10.592950391956869,60600.36421721824,-16925.216138250915,12.659340763659683,60820.547208544645,15695.162220303782,38.69465193351994,0.9285709738731002,137.0,115.0,96.0,254.0,350.0,22.0,945.0,946.0,22.0,11.0,11.0,0.5,93.23620520624324,1898.063975025858,25.0,16.0,9.0,0.64,520.4520849594392,1624.6603003898526,24.0,12.0,12.0,0.5,1842.0268249043056,37413.841110287896,26.0,11.0,15.0,0.4230769230769231,856.0189355245917,21205.670410310708,97.0,48.0,49.0,0.4948453608247423,87.70598784732519,16375.844686652585,,,,,60382.0,60404.0,60519.0,60543.0,60554.0,60578.0,60589.0,60615.0,60775.0,60869.0,0.051653540259287804,-0.08165529496954228,0.045964799186293724,-0.050576543810864114,0.0055880905604063025
57,57,61384.84864343708,2610.322099640567,11.106339914700554,61529.66520613957,-5965.401545710905,17.83575780604819,61557.08347950501,41707.859420272274,10.750511299875969,61590.88331521083,-16276.805149883992,11.585383711785266,61811.055162153694,16862.600068352047,40.863551818410485,0.935976980165278,143.0,112.0,92.0,257.0,349.0,31.0,992.0,991.0,32.0,15.0,17.0,0.46875,87.22012498508094,2521.787272033476,23.0,19.0,4.0,0.8260869565217391,883.805510555947,5863.296943739767,24.0,12.0,12.0,0.5,1863.6464744024804,39450.590051351246,25.0,11.0,14.0,0.44,886.0040637160125,20263.591042619955,101.0,49.0,52.0,0.4851485148514851,93.94551815238034,17624.11811943214,,,,,61370.0,61401.0,61513.0,61534.0,61545.0,61569.0,61580.0,61605.0,61764.0,61862.0,0.03341354884789539,-0.14815524215488876,0.04468334026983527,-0.05443353628413542,0.005571235620341761
58,58,62426.76985033417,2455.2519656719633,10.09163976369835,62576.39728720114,-5721.657032783616,20.383723206911768,62603.6244592088,43113.53984085258,10.633987750753304,62636.72214808148,-16113.615498568104,11.071018463323368,62858.983116119605,16901.040012152967,40.180983946425464,0.935803227315836,146.0,119.0,91.0,259.0,350.0,27.0,1042.0,1047.0,28.0,14.0,14.0,0.5,96.40442837901551,2409.157790572661,23.0,18.0,5.0,0.782608695652174,851.958306304923,5020.328308364757,25.0,13.0,12.0,0.52,1917.2424815144525,39068.09687337706,23.0,10.0,13.0,0.4347826086956521,935.1933935919463,20265.673266887563,100.0,49.0,51.0,0.49,95.97518403145622,17692.406776431486,,,,,62413.0,62440.0,62559.0,62581.0,62591.0,62616.0,62627.0,62650.0,62812.0,62909.0,0.039264576396594454,-0.1489006246657956,0.04446961415350437,-0.05803746488024677,0.005678655512468091
59,59,63472.84469927735,2074.639413281094,8.7956799925645,63621.32106239592,-6096.524993936471,20.383723206912453,63653.03193037319,42779.62512664855,10.429577000473328,63685.83415305998,-16715.306581143526,11.205331948329908,63908.96162387536,16891.098199423766,38.59747608063744,0.930409383779408,146.0,122.0,92.0,258.0,350.0,24.0,1046.0,1049.0,25.0,13.0,12.0,0.52,93.65928598799204,2067.111597215474,25.0,15.0,10.0,0.6,530.0359122038205,1479.8190516485893,24.0,12.0,12.0,0.5,1954.7197659910903,39848.571032217995,23.0,10.0,13.0,0.4347826086956521,968.9585987460014,21146.483964191677,97.0,48.0,49.0,0.4948453608247423,94.45831802688554,17591.365573576273,,,,,63461.0,63485.0,63607.0,63631.0,63641.0,63665.0,63676.0,63699.0,63863.0,63957.0,0.04514485041999059,-0.08694066090616995,0.04569277454405378,-0.05796834141463369,0.005592195185397001
60,60,64517.24465350526,2623.272676493399,11.1297729253253,64667.972626301,-6156.774415861599,17.83575780604835,64694.92321825246,43455.52436910519,10.592210904571289,64728.26171709142,-16777.37654772875,11.2399989063613,64949.84825467254,17407.85007480188,41.31448228294855,0.9367880097859648,149.0,118.0,91.0,259.0,350.0,31.0,1044.0,1042.0,31.0,15.0,16.0,0.4838709677419355,87.66097897086541,2617.38338902956,23.0,18.0,5.0,0.782608695652174,922.2945599017931,5992.105646199235,24.0,12.0,12.0,0.5,1970.11349534364,40709.20495468558,24.0,10.0,14.0,0.4166666666666667,970.3372886744291,21633.04044820477,102.0,50.0,52.0,0.4901960784313725,99.6202204655186,18308.508632840625,,,,,64502.0,64533.0,64651.0,64672.0,64683.0,64707.0,64718.0,64742.0,64902.0,65001.0,0.0334166477455345,-0.14980158401219,0.04533631854513524,-0.05783605594795983,0.005722718201124694
61,61,65520.2663388588,1572.7162543110862,7.32408352856281,65666.027373699,-6917.859649484699,17.8357578060484,65698.51349363793,40453.57253059547,10.38482847567309,65732.91694241209,-17878.690678321338,12.578773927879917,65953.65685861696,15607.56344486955,38.14686963784509,0.9204677870613376,88.0,66.0,151.0,254.0,405.0,22.0,1004.0,1003.0,23.0,11.0,12.0,0.4782608695652174,85.9804875317554,1616.4079528575728,84.0,74.0,10.0,0.8809523809523809,487.6653554455236,2645.7244458786563,24.0,13.0,11.0,0.5416666666666666,1907.846881853878,36312.50985109718,27.0,12.0,15.0,0.4444444444444444,853.0190023110459,21211.67547438907,97.0,48.0,49.0,0.4948453608247423,87.76150371101394,16114.524236357436,,,,,65509.0,65531.0,65597.0,65676.0,65686.0,65710.0,65721.0,65748.0,65908.0,66002.0,0.05467005716769829,-0.07049367581226501,0.0471613942232408,-0.047711491722677836,0.005623011177946711
62,62,66506.88631549894,2200.1484224038077,9.340798583199518,66653.4796968794,-5978.158206524028,20.383723206912453,66682.29837297804,41886.44799346998,10.539632257609275,66716.51376674112,-16952.852532787303,11.790819771664662,66936.55830769193,17058.199818971825,40.9770483931277,0.928474169630172,144.0,118.0,93.0,257.0,350.0,26.0,986.0,984.0,27.0,13.0,14.0,0.4814814814814814,88.56208755206339,2127.266396830094,22.0,15.0,7.0,0.6818181818181818,713.9589951030491,1688.474067103113,24.0,12.0,12.0,0.5,1884.0987374088772,39503.162690863945,26.0,12.0,14.0,0.4615384615384615,855.3012825422203,19912.848656472015,103.0,51.0,52.0,0.4951456310679611,87.91506618872015,17663.22169515508,,,,,66494.0,66520.0,66638.0,66660.0,66670.0,66694.0,66705.0,66731.0,66889.0,66988.0,0.040252778699040426,-0.11942791917482178,0.044981105528513775,-0.05045176207886213,0.0051538302471367805
63,63,67530.89106570165,2304.548108342043,9.388910193666078,67678.36131475342,-6297.673428497989,20.383723206912453,67706.22596159251,42853.302138032996,10.598754625078795,67739.27064026428,-16642.51547875013,11.292700925305835,67962.0673658606,17262.559552918436,39.92228923111351,0.934490219305549,143.0,117.0,92.0,258.0,350.0,26.0,1024.0,1024.0,26.0,13.0,13.0,0.5,96.36135029903288,2282.122945449527,23.0,17.0,6.0,0.7391304347826086,810.5270223171872,3329.6221270669066,24.0,12.0,12.0,0.5,1920.542253719407,40143.28443249127,24.0,10.0,14.0,0.4166666666666667,977.1975794182432,21648.263617488243,99.0,49.0,50.0,0.494949494949495,97.65944448797696,18058.90136385001,,,,,67518.0,67544.0,67661.0,67684.0,67694.0,67718.0,67729.0,67753.0,67915.0,68011.0,0.04181355552970337,-0.1287026124043558,0.044816668912309905,-0.058716939795908286,0.005657298049492695
64,64,68535.46234179898,2396.8045149499826,9.953656598487472,68684.39728720108,-6066.01019375918,20.383723206211343,68711.4929818509,43283.228519765165,10.553786330085122,68744.73288359464,-16543.274491760087,10.984302562273625,68965.5940258061,17381.06108040589,41.345273501622344,0.9302669273260612,145.0,118.0,91.0,259.0,350.0,27.0,1004.0,1006.0,27.0,13.0,14.0,0.4814814814814814,94.37497169232314,2455.1748019945408,22.0,17.0,5.0,0.7727272727272727,868.1299292701552,4688.275537374442,25.0,12.0,13.0,0.48,1931.098209097869,41392.0696569264,23.0,10.0,13.0,0.4347826086956521,941.641648220732,20482.489229809333,102.0,50.0,52.0,0.4901960784313725,95.66351295538722,18255.06643874498,,,,,68522.0,68549.0,68667.0,68689.0,68699.0,68724.0,68735.0,68758.0,68918.0,69017.0,0.0393753312394326,-0.14311382631095854,0.04461539203842057,-0.05691990716165334,0.005503893721611227
65,65,69526.91628437347,1545.4834343380458,6.675990455276723,69670.027373699,-6685.06033779119,17.8357578060484,69702.86031117529,40682.23753360824,10.40595266033506,69737.15844715916,-17683.128491589614,12.730016566183114,69957.90866100526,15862.811009446938,37.791013741567866,0.9230602074833076,125.0,105.0,110.0,254.0,364.0,20.0,994.0,991.0,20.0,10.0,10.0,0.5,95.07632835294582,1550.839695543465,87.0,76.0,11.0,0.8735632183908046,461.068575278939,2575.2767700600716,24.0,12.0,12.0,0.5,1915.179435232208,37339.939995575034,26.0,11.0,15.0,0.4230769230769231,859.83469804554,21508.301417078168,97.0,48.0,49.0,0.4948453608247423,85.60185061673225,16289.055984079576,,,,,69517.0,69537.0,69642.0,69680.0,69691.0,69715.0,69726.0,69752.0,69912.0,70006.0,0.06151882720999107,-0.06896999458217017,0.047076551127504924,-0.048624580116266844,0.005396385959950788
66,66,70513.11777063418,2224.915057244455,9.55111260821409,70659.66214827908,-6260.672194092321,17.8357578060484,70688.59083971889,42143.9239894279,10.535419949862565,70721.85997471878,-16391.49320071407,10.99558354433749,70942.07362812063,17315.512731852818,41.0672997791751,0.9320124580499224,144.0,117.0,92.0,257.0,349.0,27.0,984.0,986.0,27.0,13.0,14.0,0.4814814814814814,88.39634834160152,2215.312886126334,23.0,17.0,6.0,0.7391304347826086,777.4832649456858,2868.5442789391636,24.0,12.0,12.0,0.5,1921.5466361733372,38870.34506386184,24.0,10.0,14.0,0.4166666666666667,937.4569428948038,20488.757869532947,102.0,50.0,52.0,0.4901960784313725,102.6943900388298,18166.151747229636,,,,,70500.0,70527.0,70644.0,70666.0,70677.0,70701.0,70712.0,70736.0,70894.0,70993.0,0.03973021264509752,-0.12418526970304125,0.04559486764107136,-0.057191674450620816,0.0059307738459236
67,67,71537.90971274165,2175.3678617874425,8.910935274596966,71686.66246669804,-6032.770469518185,17.8357578060484,71715.20477930704,42823.98967286848,10.577202803062288,71748.09653886221,-16532.75809743134,10.944428091965912,71969.11778011863,17174.67409411179,40.783531667719075,0.929188633755631,146.0,121.0,91.0,258.0,349.0,25.0,1025.0,1026.0,25.0,13.0,12.0,0.52,95.03490509329542,2161.705609958534,23.0,17.0,6.0,0.7391304347826086,812.5384268900599,3939.999488002965,25.0,12.0,13.0,0.48,1940.8359013967404,40961.017738928495,24.0,10.0,14.0,0.4166666666666667,987.6303622992776,21389.688521538992,102.0,50.0,52.0,0.4901960784313725,95.71418045900997,17895.47100057227,,,,,71525.0,71550.0,71671.0,71692.0,71703.0,71728.0,71738.0,71762.0,71921.0,72020.0,0.04368682040526596,-0.13468744269247068,0.045321230371638495,-0.059737785823692886,0.0055729837978017215
68,68,72582.98163517992,2760.9296567851084,11.383149826228616,72734.972626301,-5810.670294232818,17.835757805978197,72761.42290343471,43053.90334842307,10.538040476047874,72794.91345505448,-16416.92475342362,10.729627406609884,73015.55213354895,17247.826624442343,41.95659068216334,0.934840168071831,151.0,120.0,89.0,260.0,349.0,31.0,1044.0,1047.0,31.0,15.0,16.0,0.4838709677419355,91.73207079226056,2706.922739894393,22.0,18.0,4.0,0.8181818181818182,951.4465573801964,6860.4620040236005,25.0,12.0,13.0,0.48,1932.566223731773,41814.49337766052,23.0,10.0,13.0,0.4347826086956521,943.9634512526994,20426.972586272084,104.0,51.0,53.0,0.4903846153846153,99.20522970667226,18166.96561304936,,,,,72568.0,72599.0,72719.0,72739.0,72749.0,72774.0,72785.0,72808.0,72968.0,73068.0,0.03322506626230946,-0.16374127410473144,0.04488713155906123,-0.05749940780205156,0.005751752488402565
69,69,73604.15079740161,2497.9741226750157,9.492113028149756,73755.26083507841,-6282.800809990404,17.8357578060484,73782.73525018433,41742.226766404674,10.577318811372216,73816.5776930123,-16892.634347189614,11.70451642169926,74038.21336037599,16946.23121747778,40.80338394035489,0.9314918201259136,148.0,121.0,92.0,258.0,350.0,27.0,1022.0,1021.0,28.0,14.0,14.0,0.5,96.39483394319144,2426.205780577477,22.0,17.0,5.0,0.7727272727272727,829.483694597065,4010.515085589485,24.0,12.0,12.0,0.5,1909.3630596860012,38441.04091127085,25.0,11.0,14.0,0.44,875.8613320649519,20193.250045098255,102.0,50.0,52.0,0.4901960784313725,92.75287784718402,17626.252642469026,,,,,73591.0,73618.0,73739.0,73760.0,73771.0,73795.0,73806.0,73831.0,73990.0,74089.0,0.03858920437492952,-0.13202450940002536,0.04574176337958833,-0.051848711933474526,0.005473363171837393
70,70,74632.40179125415,2139.815791173054,9.03508943839192,74781.99797741759,-6416.826470199349,17.8357578060484,74811.01620824743,42075.41927926988,10.58752547795986,74844.00235022981,-16791.27069845921,11.082192161145228,75066.0956019225,16991.42367375313,39.66361932225309,0.9328223677976366,146.0,121.0,92.0,258.0,350.0,25.0,1028.0,1028.0,25.0,12.0,13.0,0.48,94.64223542568035,2189.3054270829566,23.0,16.0,7.0,0.6956521739130435,750.6649129794656,2176.782579058379,24.0,12.0,12.0,0.5,1917.563783944949,39709.123654888805,24.0,10.0,14.0,0.4166666666666667,978.8637190048912,21395.70077187805,99.0,48.0,51.0,0.4848484848484848,86.95991584239988,17569.127485831643,,,,,74620.0,74645.0,74766.0,74788.0,74799.0,74823.0,74834.0,74858.0,75020.0,75116.0,0.04422915085311954,-0.11698382626765111,0.04557444267441234,-0.05829598823004581,0.005117871080851688
71,71,75650.63295962925,2356.2834581484194,9.155966193258235,75801.31278301051,-6573.994585505666,20.383723206912155,75828.16962961652,43446.9113038132,10.687062103120365,75861.13338286067,-17076.07728814742,11.55165311435662,76083.9881206723,17150.176225819952,39.89609339128312,0.9332996717637946,146.0,121.0,91.0,259.0,350.0,25.0,1019.0,1017.0,26.0,13.0,13.0,0.5,99.38045692696156,2270.23370349365,24.0,19.0,5.0,0.7916666666666666,913.1284383908792,5064.503437925956,24.0,12.0,12.0,0.5,1938.062849813261,40199.77520916068,24.0,10.0,14.0,0.4166666666666667,990.4160574190906,22133.60851178733,100.0,49.0,51.0,0.49,94.6242228590967,17777.765744038014,,,,,75638.0,75663.0,75784.0,75806.0,75816.0,75840.0,75851.0,75875.0,76037.0,76134.0,0.042176783350614054,-0.1389000898181668,0.04460760941694751,-0.0580002093400305,0.005517390702763622
72,72,76666.44273245355,2705.6816269731303,10.743947995958884,76813.39728720073,-6206.826722824088,20.38372318371344,76840.24470683404,42645.764546328326,10.515613532456287,76874.21690817339,-17200.452451309513,11.268991804877665,77095.36735520179,16792.786234619456,41.298037474507304,0.937623238335458,144.0,114.0,92.0,259.0,351.0,30.0,1015.0,1012.0,30.0,14.0,16.0,0.4666666666666667,96.42984688343918,2733.9300594225156,23.0,18.0,5.0,0.782608695652174,877.2682057909309,4653.420437092747,25.0,12.0,13.0,0.48,1911.929492768748,40099.85064368743,25.0,11.0,14.0,0.44,929.2046817077232,21281.211758979844,103.0,50.0,53.0,0.4854368932038835,87.91419313218739,17468.648820939285,,,,,76652.0,76682.0,76796.0,76818.0,76828.0,76853.0,76863.0,76888.0,77047.0,77147.0,0.035639761131584465,-0.14133924547385726,0.04483281078691224,-0.054022106938063745,0.005235235648444472
73,73,77626.72786308297,2497.5103267182053,9.991768289943396,77772.65099815234,-6113.158287426099,20.38372320691245,77800.29404778745,42236.49151594474,10.561368897585496,77834.20635770212,-16917.252517724766,11.45638501742044,78054.74019778128,17106.536009509626,40.380445583401126,0.9348268040155456,142.0,114.0,93.0,257.0,350.0,28.0,960.0,960.0,28.0,14.0,14.0,0.5,91.6383043317748,2388.1655788820613,24.0,19.0,5.0,0.7916666666666666,868.0672341291389,4808.187021176065,25.0,12.0,13.0,0.48,1891.7127186870553,39837.31363421097,25.0,11.0,14.0,0.44,915.6469421345402,21077.55216039769,101.0,50.0,51.0,0.495049504950495,93.6247974080897,17871.881287951262,,,,,77613.0,77641.0,77755.0,77778.0,77788.0,77813.0,77823.0,77848.0,78007.0,78105.0,0.036691862032134204,-0.14199979671958277,0.044788585670590395,-0.05412503839942015,0.005473042429866755
74,74,78619.30830463015,2137.4749410338068,9.114478635020037,78760.37650551515,-6013.455855252484,20.383723206912453,78792.41040548375,42494.65046856652,10.424072964350897,78825.54236364226,-16919.03051306392,11.05244527296249,79046.5519963027,16917.78162239049,40.26245700598908,0.9261443123179184,140.0,114.0,93.0,258.0,351.0,26.0,993.0,993.0,26.0,13.0,13.0,0.5,92.83246046547318,2179.6987916634052,25.0,15.0,10.0,0.6,504.0466700718423,1793.016728977791,25.0,12.0,13.0,0.48,1928.1302864637437,40704.63825020369,24.0,11.0,13.0,0.4583333333333333,945.4196388712168,20555.04587063116,101.0,50.0,51.0,0.495049504950495,98.7150429743116,17714.54387437219,,,,,78606.0,78632.0,78746.0,78770.0,78780.0,78805.0,78815.0,78839.0,79000.0,79097.0,0.043430900022890566,-0.08381980049484859,0.045373482666718014,-0.05587906695606566,0.005834987421971648
75,75,79617.60170252869,1779.8937821319437,7.299169731070728,79760.25446945173,-6350.716279437829,20.383723206912453,79793.59668502017,41676.293725055606,10.33418487728038,79827.26664692975,-17401.38531062512,11.733458655781908,80048.25807412293,16897.702405291937,39.523970562022534,0.9282512582998336,139.0,118.0,95.0,257.0,352.0,21.0,999.0,1001.0,21.0,11.0,10.0,0.5238095238095238,97.8678771521174,1745.2715744699344,29.0,18.0,11.0,0.6206896551724138,429.5301208614701,3343.008846943579,24.0,12.0,12.0,0.5,1931.1375596787389,37582.54584271433,25.0,11.0,14.0,0.44,934.7437654579044,21742.8751179513,101.0,50.0,51.0,0.495049504950495,94.16436035460605,17526.295073075908,,,,,79607.0,79628.0,79746.0,79771.0,79782.0,79806.0,79816.0,79841.0,80001.0,80098.0,0.054985234587926916,-0.06763490950653718,0.04633659538966507,-0.05371662938163658,0.005572613252149365
76,76,80589.1968354313,1296.9079202213584,6.552108593882061,80731.60271279886,-6860.950344391541,20.383723206912453,80765.03419907164,40488.84740967058,10.346863926610888,80799.39763242633,-17594.910569491534,12.245099873796942,81019.12850846833,16400.91427912849,38.622165896320965,0.9220331999742628,134.0,114.0,101.0,254.0,355.0,20.0,973.0,971.0,20.0,10.0,10.0,0.5,83.49602432559938,1386.2664213648231,83.0,72.0,11.0,0.8674698795180723,456.5000684282225,3382.7811308635764,24.0,12.0,12.0,0.5,1886.3019767507376,37508.40404055099,26.0,11.0,15.0,0.4230769230769231,879.5951217931256,21568.450890840497,99.0,49.0,50.0,0.494949494949495,85.5350813404421,16855.351153941905,,,,,80579.0,80599.0,80713.0,80743.0,80753.0,80777.0,80788.0,80814.0,80972.0,81068.0,0.06438084232791803,-0.06653598197243722,0.04658818656073185,-0.04999145169389426,0.005215262995996054
77,77,81585.97251905556,2331.617735168185,9.730066111919406,81734.39728720114,-5699.502810847029,20.383723206912453,81761.2579985754,43561.362657623155,10.555687422328075,81794.37322199962,-16156.62046205299,10.501221773789274,82015.26926571707,17532.875552511858,41.355487731239904,0.936220752138265,145.0,119.0,90.0,258.0,348.0,26.0,994.0,996.0,28.0,14.0,14.0,0.5,92.93602106779352,2295.1771708184433,22.0,17.0,5.0,0.7727272727272727,894.7935806663062,5442.651432503168,25.0,12.0,13.0,0.48,1922.181881003854,41372.84778273183,24.0,10.0,14.0,0.4166666666666667,997.8532300896212,21215.538839775854,102.0,50.0,52.0,0.4901960784313725,100.79085658048244,18401.589719780903,,,,,81573.0,81599.0,81718.0,81739.0,81749.0,81774.0,81785.0,81808.0,81968.0,82066.0,0.039859029919880856,-0.1569950240156697,0.04412584372329032,-0.06176125956744954,0.005748678035078084
78,78,82610.45752864519,2012.034481365018,8.373203731466964,82756.71869129289,-6559.815197879349,20.383723206912453,82790.2336555675,42293.20794786688,10.4134371563651,82823.03590550342,-17407.525840673152,11.565399223816538,83045.26930778376,17085.956576721175,39.10901263092803,0.925289417656912,142.0,118.0,97.0,258.0,355.0,24.0,1025.0,1029.0,24.0,12.0,12.0,0.5,95.83346421437253,2080.45622135287,33.0,22.0,11.0,0.6666666666666666,458.9151633981364,2990.7421337381775,24.0,12.0,12.0,0.5,1951.0216576406356,39660.224144971864,24.0,10.0,14.0,0.4166666666666667,992.7878126087728,22180.509564380132,98.0,48.0,50.0,0.4897959183673469,88.69863549280586,17666.666002660764,,,,,82598.0,82622.0,82740.0,82768.0,82778.0,82802.0,82813.0,82837.0,82998.0,83095.0,0.04763013015033248,-0.06995855059247615,0.046130850609525306,-0.05703210333826404,0.005191318091821306
79,79,83631.1213776939,2023.5481962533795,8.41049554448086,83778.10885203058,-6116.621448494778,20.383723206912453,83810.3781747398,41489.78390619793,10.296289057330798,83844.56473003986,-17622.95955114745,11.60452547207946,84065.34732726871,16517.889779149053,39.47353729355025,0.9250880492646169,146.0,122.0,94.0,256.0,350.0,24.0,1021.0,1020.0,24.0,12.0,12.0,0.5,93.03747186601224,2034.9649558419587,25.0,15.0,10.0,0.6,493.5543770546946,2237.575021070962,24.0,12.0,12.0,0.5,1914.420170565725,39547.985221081486,26.0,12.0,14.0,0.4615384615384615,875.1110792490949,20374.481725788355,99.0,48.0,51.0,0.4848484848484848,87.97054069781547,17042.42277416501,,,,,83619.0,83643.0,83765.0,83788.0,83798.0,83822.0,83833.0,83859.0,84019.0,84115.0,0.04597739358927654,-0.08069068540708074,0.04614196533040366,-0.04965744128897552,0.005325773562726087
80,80,85546.76414077658,1603.3263165124729,7.363089832044707,85688.73242274707,-6063.005596294526,20.383723206912453,85720.28961790088,40413.00488873809,10.495420972085247,85754.60677393095,-16822.351047144806,12.050946333493885,85974.01352715229,16922.976580618746,38.8478890130498,0.9271677741370736,138.0,116.0,95.0,254.0,349.0,22.0,1915.0,1910.0,22.0,11.0,11.0,0.5,86.5691156911701,1615.7444113356526,24.0,15.0,9.0,0.625,563.452495889329,952.7851955378684,24.0,12.0,12.0,0.5,1836.0569277140587,38139.83932274033,26.0,12.0,14.0,0.4615384615384615,833.6049723070676,19797.44534711539,98.0,48.0,50.0,0.4897959183673469,96.0027334922168,17637.647430196266,,,,,85536.0,85558.0,85674.0,85698.0,85708.0,85732.0,85743.0,85769.0,85928.0,86023.0,0.053993447746478525,-0.09293286752591641,0.04543232884485938,-0.04955341675910111,0.005672922433879933
81,81,86561.8743133083,2743.0381092017888,10.81755603671109,86708.97262629744,-6099.04884220873,17.835757805868173,86735.47900257108,41798.00162853508,10.65617538060804,86768.53198492352,-16250.981996740302,10.793532460122552,86989.1212382346,17329.322124211405,41.20159331596851,0.9338158944108312,145.0,115.0,90.0,258.0,348.0,30.0,1016.0,1016.0,30.0,15.0,15.0,0.5,95.49595559955172,2669.8185873759626,23.0,19.0,4.0,0.8260869565217391,925.8576744325716,6446.123546187877,25.0,12.0,13.0,0.48,1870.9992591580512,40567.81185601251,23.0,10.0,13.0,0.4347826086956521,937.7216314215232,19996.431568587228,103.0,50.0,53.0,0.4854368932038835,100.95554742990728,18187.44519115473,,,,,86547.0,86577.0,86692.0,86713.0,86723.0,86748.0,86759.0,86782.0,86942.0,87040.0,0.03481393688232082,-0.1518036169878053,0.044762887847746735,-0.05770245955657423,0.005825706666786391
82,82,87592.48160350323,2303.1380980909544,9.470249524600252,87741.56182832451,-6402.768299863218,17.8357578060484,87771.77901149607,42097.81518740836,10.485077850806489,87804.43903564707,-16863.8653598508,10.915850872483576,88027.01018042142,17224.03797832738,40.0704205112016,0.9306548522676912,146.0,121.0,92.0,259.0,351.0,25.0,1031.0,1036.0,25.0,12.0,13.0,0.48,98.29354666666995,2362.796774826269,23.0,16.0,7.0,0.6956521739130435,696.5935231568411,1007.148272159799,24.0,12.0,12.0,0.5,1939.6919416046296,39103.43650540047,24.0,10.0,14.0,0.4166666666666667,1025.6121089729154,22304.01638126826,100.0,49.0,51.0,0.49,95.58310354970932,17978.823306407932,,,,,87580.0,87605.0,87726.0,87749.0,87760.0,87784.0,87794.0,87818.0,87980.0,88077.0,0.042678095051332084,-0.10879567876471845,0.046075833935077935,-0.06081714287251576,0.005549401578769125
83,83,88626.04085427868,1826.0405814695089,7.717461407365097,88776.53198941772,-6540.275711976015,17.8357578060484,88806.97206313153,42604.41904601385,10.4976674175604,88839.69652837644,-17123.357848620537,11.065617013543358,89061.28525282256,17209.789783671033,40.326724817927854,0.9227180067289704,146.0,124.0,92.0,259.0,351.0,22.0,1034.0,1035.0,22.0,11.0,11.0,0.5,95.99861424245772,1867.4369470584388,23.0,16.0,7.0,0.6956521739130435,689.5030907008271,791.33667434313,24.0,12.0,12.0,0.5,1963.8173091525716,40033.83707919241,23.0,10.0,13.0,0.4347826086956521,985.7658402788678,21386.20093332459,102.0,50.0,52.0,0.4901960784313725,102.61874630165887,17997.381528674156,,,,,88615.0,88637.0,88761.0,88784.0,88795.0,88819.0,88830.0,88853.0,89014.0,89112.0,0.05257200481557901,-0.10542416269061344,0.04609421635421432,-0.05756848913592502,0.0059628123057624705
84,84,89680.0092227585,2310.969084169521,8.963376899051752,89829.60078810397,-5905.630900319343,20.383723206912453,89861.06605664201,42349.63541024213,10.35040511201838,89894.69365134936,-17346.499869760988,11.571921776432044,90116.28199168829,16707.723228057926,40.70919720465207,0.925001454517742,148.0,123.0,93.0,259.0,352.0,25.0,1054.0,1054.0,25.0,12.0,13.0,0.48,101.78240494888408,2287.607530552893,24.0,15.0,9.0,0.625,585.4284794432909,509.0674022912581,24.0,12.0,12.0,0.5,1951.7590863313928,39461.46624575143,25.0,11.0,14.0,0.44,910.75396839468,20807.71393880997,103.0,50.0,53.0,0.4854368932038835,91.4816276558336,17361.831584032025,,,,,89668.0,89693.0,89816.0,89839.0,89849.0,89873.0,89884.0,89909.0,90069.0,90168.0,0.04404317030725705,-0.099130556806663,0.04608679785373939,-0.05250361601664307,0.005475409570000834
85,85,90645.72768467304,1816.9474000674472,7.912311767044715,90790.13778752997,-6309.8812288973995,20.383723206912453,90822.64335340654,40548.04179607505,10.29540481994818,90857.54801337974,-17300.213608411068,12.090057749262009,91075.85651982464,16060.59918373079,40.1458982211427,0.9234958634289688,142.0,119.0,96.0,254.0,350.0,23.0,966.0,962.0,24.0,12.0,12.0,0.5,89.25505955468023,1775.2607006317005,27.0,16.0,11.0,0.5925925925925926,472.34597780285,2736.3762356249563,24.0,12.0,12.0,0.5,1878.346988558684,36813.018449643605,26.0,12.0,14.0,0.4615384615384615,802.1612106333189,19598.68518412106,101.0,50.0,51.0,0.495049504950495,90.90394672645532,16683.692041451242,,,,,90634.0,90657.0,90776.0,90801.0,90811.0,90835.0,90846.0,90872.0,91028.0,91126.0,0.04912363426226152,-0.07485814085368903,0.04632398767874663,-0.04636712752744982,0.00566005948386658
86,86,92605.35416695794,2502.724830841606,10.618856166400942,92752.97262589334,-6180.666836323646,17.835757805682846,92779.64966002856,41829.59902987427,10.708459032121244,92812.90023788052,-16204.450171613224,11.178290354936392,93034.8638099452,17247.150028948196,40.05403981361608,0.9349509078284136,145.0,116.0,91.0,258.0,349.0,29.0,1958.0,1957.0,29.0,14.0,15.0,0.4827586206896552,93.1947257747723,2536.239107906403,24.0,20.0,4.0,0.8333333333333334,915.0008678964338,6234.107876067203,24.0,12.0,12.0,0.5,1879.8241011050304,38485.1043515811,24.0,10.0,14.0,0.4166666666666667,932.5438197743084,20510.029384830963,99.0,48.0,51.0,0.4848484848484848,91.33793606612896,18009.850776940733,,,,,92591.0,92620.0,92736.0,92757.0,92768.0,92792.0,92803.0,92827.0,92988.0,93085.0,0.03723730416796686,-0.14804241874339405,0.04494004591730558,-0.05754862459992184,0.0052958277693893946
87,87,93665.0176245728,2293.4494947462827,9.51790453038232,93816.15943795624,-6095.586905629122,20.383723206912453,93846.16826679876,42826.14499713065,10.541656179614494,93878.73071897964,-16686.184321033135,10.990690109955864,94100.9453256478,17259.91885125017,40.17480103685509,0.929527082177276,149.0,123.0,91.0,259.0,350.0,26.0,1060.0,1066.0,26.0,13.0,13.0,0.5,95.31495725208444,2292.263070000542,23.0,15.0,8.0,0.6521739130434783,667.6600406959374,757.8694541511848,24.0,12.0,12.0,0.5,1932.3665330476945,40172.16929658791,23.0,10.0,13.0,0.4347826086956521,989.7177025814284,21173.31413944958,100.0,49.0,51.0,0.49,101.83645374405673,18174.766326296696,,,,,93652.0,93678.0,93801.0,93824.0,93834.0,93858.0,93869.0,93892.0,94054.0,94151.0,0.04155964954555445,-0.10953170728800043,0.045121187843948196,-0.05931360241141993,0.005900169903561308
88,88,94766.00384441044,2211.3026667883687,9.35215426129048,94920.03832656764,-6175.289668022062,17.8357578060484,94948.88446505512,43218.9899152345,10.570001262092484,94981.40552885162,-16520.062858810485,10.676803609424272,95203.68647463038,17506.05907580932,40.45390672909255,0.9257106276903218,151.0,125.0,91.0,259.0,350.0,26.0,1101.0,1103.0,26.0,13.0,13.0,0.5,92.82919879365475,2207.8503806645494,22.0,16.0,6.0,0.7272727272727273,771.3377037281787,2811.626242128391,24.0,12.0,12.0,0.5,1963.294121062381,40576.023133793205,23.0,9.0,14.0,0.391304347826087,1041.5741058455676,22168.39451811673,101.0,50.0,51.0,0.495049504950495,99.43127337320178,18316.54400962496,,,,,94753.0,94779.0,94904.0,94926.0,94937.0,94961.0,94972.0,94995.0,95156.0,95254.0,0.041979417918614086,-0.12490712908941763,0.04542665446168441,-0.06304904011246391,0.005679820509151628
89,89,95845.11910184562,2663.1871308537143,10.764926517555526,96001.972626301,-6177.362901403935,17.83575780604767,96028.58413814346,42446.947534477426,10.576875807257894,96062.24431690387,-16841.40754722371,11.42571582003327,96283.80395078695,17131.18274146796,40.4442117410919,0.9285009814156188,155.0,124.0,91.0,259.0,350.0,31.0,1078.0,1080.0,31.0,15.0,16.0,0.4838709677419355,88.63124999420367,2566.314945557237,23.0,19.0,4.0,0.8260869565217391,926.953574727468,6212.139096076273,24.0,12.0,12.0,0.5,1934.843077384456,38801.83166013033,24.0,10.0,14.0,0.4166666666666667,931.6933760292033,21279.953035025897,102.0,50.0,52.0,0.4901960784313725,88.45447921501345,17780.970558553447,,,,,95830.0,95861.0,95985.0,96006.0,96017.0,96041.0,96052.0,96076.0,96236.0,96335.0,0.033280143542069436,-0.15005651918503904,0.04558261994723848,-0.05532158600263742,0.005163360904492566
90,90,96881.96147839211,2107.1994812171474,8.415129810861234,97031.60271279886,-6189.045508468933,20.383723206912453,97065.15254096528,40572.8523378613,10.328294045857142,97099.73443041748,-17202.40629683158,12.096198729233269,97319.98092021022,16444.81976497001,39.26974766433116,0.9194309646781283,148.0,123.0,96.0,255.0,351.0,25.0,1039.0,1036.0,25.0,12.0,13.0,0.48,95.29791886681453,2056.956075584065,53.0,42.0,11.0,0.7924528301886793,444.8316857577803,2884.864803698325,24.0,12.0,12.0,0.5,1875.7920574700877,38066.515912691146,26.0,12.0,14.0,0.4615384615384615,822.6721352078272,20010.61059800662,99.0,49.0,50.0,0.494949494949495,93.26847348622232,17138.647878678654,,,,,96870.0,96895.0,97018.0,97043.0,97053.0,97077.0,97088.0,97114.0,97273.0,97369.0,0.0452249156837155,-0.07187403698180662,0.04623268883956817,-0.047823084806417504,0.0056716020497165
91,91,97931.42421131828,2346.4181466981,10.09539131960002,98080.54185137764,-5979.944361041325,20.383723206912453,98109.3717268942,40875.16737305771,10.595938766551209,98143.75738546556,-16603.54208125027,11.822108677931764,98364.7480677596,16204.953634069276,39.83583764402927,0.9329748821019328,148.0,119.0,93.0,257.0,350.0,29.0,1048.0,1045.0,29.0,14.0,15.0,0.4827586206896552,88.93624870568075,2384.369429524359,23.0,17.0,6.0,0.7391304347826086,774.9037438215663,2958.6909724931083,25.0,12.0,13.0,0.48,1826.8678037812615,38755.64987711319,25.0,11.0,14.0,0.44,841.221730722095,19784.31714119006,101.0,50.0,51.0,0.495049504950495,86.2616224246498,16835.036078260844,,,,,97917.0,97946.0,98065.0,98087.0,98097.0,98122.0,98133.0,98158.0,98317.0,98415.0,0.03790298367357609,-0.1295837715263671,0.04469383053793721,-0.05066519701672896,0.0053231637913047445
92,92,98988.0965277086,2414.1638130032225,10.284970397277023,99136.8158887574,-5898.013208018896,20.383723206912453,99164.71216821794,41940.84694927087,10.613536504293686,99198.08158757372,-16205.85867708336,11.20098803653147,99420.58434511398,17198.582816083697,40.24267787773778,0.9310416953199638,146.0,118.0,92.0,259.0,351.0,28.0,1057.0,1055.0,29.0,14.0,15.0,0.4827586206896552,91.51413137209371,2421.8056516800734,23.0,18.0,5.0,0.782608695652174,832.0883668275528,4383.515309532295,24.0,12.0,12.0,0.5,1872.7176664830477,38211.85442344089,24.0,10.0,14.0,0.4166666666666667,925.0878361169744,20590.106473352167,100.0,49.0,51.0,0.49,94.74399771417812,17977.70511243953,,,,,98974.0,99002.0,99120.0,99142.0,99153.0,99177.0,99188.0,99212.0,99374.0,99471.0,0.03790717551111415,-0.14107943429089842,0.044651403171427954,-0.057083543337641054,0.005508825856603478
93,93,100069.2411047854,2676.4182036479588,10.078354894783148,100216.28798547263,-5837.954664759734,20.383723206912453,100245.38655297112,42949.93945080547,10.608836315331184,100278.11619701749,-16212.53851266267,10.839138205540122,100501.69386664648,17263.264217549233,40.23275482903918,0.9366594794064196,145.0,118.0,91.0,260.0,351.0,27.0,1081.0,1081.0,27.0,13.0,14.0,0.4814814814814814,107.44584526535888,2691.3428075270967,23.0,16.0,7.0,0.6956521739130435,724.8796875683691,2183.1704917599404,25.0,12.0,13.0,0.48,1908.8451593582424,40982.005514524266,24.0,10.0,14.0,0.4166666666666667,992.6428636647188,21237.167290619756,101.0,50.0,51.0,0.495049504950495,97.6927185458422,18068.71816982935,,,,,100056.0,100083.0,100201.0,100223.0,100233.0,100258.0,100268.0,100292.0,100454.0,100552.0,0.04014538726381033,-0.1241667209140964,0.04444348894937603,-0.06122686233802457,0.005658994574533082
94,94,101175.12496052583,2951.876797222116,11.496224951406916,101327.972626301,-6097.637263299687,17.835757806046455,101355.24541508273,43367.82094118143,10.626862098612962,101387.74098099172,-16467.939798483203,10.62503487676649,101611.77065459004,17620.21198491082,41.18338618896036,0.9356646635738468,152.0,121.0,89.0,262.0,351.0,31.0,1106.0,1110.0,31.0,15.0,16.0,0.4838709677419355,100.52427413937558,2958.9002737340875,23.0,18.0,5.0,0.782608695652174,902.2841961022204,5544.148982462957,25.0,12.0,13.0,0.48,1948.2589733313953,41533.696503129606,23.0,10.0,13.0,0.4347826086956521,1007.6042023724548,21090.65583161041,102.0,50.0,52.0,0.4901960784313725,95.98053009303332,18389.248473032814,,,,,101160.0,101191.0,101312.0,101332.0,101343.0,101368.0,101378.0,101401.0,101564.0,101663.0,0.034054359665001824,-0.14797275684679817,0.04492406883836208,-0.061185807982201953,0.005447183619313256
95,95,102266.89007277788,2578.2096677344266,10.096588204358577,102417.95115655434,-6370.254666476562,17.8357578060484,102446.79308101986,42952.17516715481,10.594499998399812,102479.52361530636,-16947.76636779397,11.115074100518822,102703.932482006,17602.926455244666,39.828830191792726,0.9299131284216012,149.0,122.0,91.0,261.0,352.0,27.0,1092.0,1091.0,28.0,14.0,14.0,0.5,101.33365118631566,2545.393737115402,22.0,16.0,6.0,0.7272727272727273,778.6084921473782,2739.5365929554023,24.0,12.0,12.0,0.5,1961.5568299306296,39841.96668352541,23.0,10.0,13.0,0.4347826086956521,976.1136412384332,21061.92548094059,99.0,48.0,51.0,0.4848484848484848,99.7082804049638,18441.991498026124,,,,,102253.0,102280.0,102402.0,102424.0,102435.0,102459.0,102470.0,102493.0,102658.0,102754.0,0.03930388302180307,-0.12222564605537704,0.04566839333041779,-0.05759541523379463,0.005664301368211218
96,96,103337.6392290844,2828.946660105289,10.89184455150272,103489.97262629836,-6149.474267968394,17.835757803538097,103516.45205261858,43158.58260426424,10.591380561455663,103549.87885039678,-16766.00647107104,10.995186111140612,103772.71336439627,17611.144414683105,41.35697187905468,0.9294281088235165,150.0,120.0,91.0,260.0,351.0,30.0,1071.0,1070.0,30.0,15.0,15.0,0.5,95.05212422642914,2702.8028228726284,22.0,18.0,4.0,0.8181818181818182,958.8732713938484,6626.440933276545,25.0,12.0,13.0,0.48,1941.028981265206,41794.049579363265,24.0,10.0,14.0,0.4166666666666667,949.5800643689496,20858.181307786,102.0,50.0,52.0,0.4901960784313725,102.25491983721464,18514.209399017076,,,,,103323.0,103353.0,103473.0,103494.0,103504.0,103529.0,103540.0,103564.0,103725.0,103824.0,0.03359982906955603,-0.15592768253189748,0.04497434494230644,-0.05663722401678692,0.005806262070735204
97,97,104364.2745756148,2131.2029859177533,8.350134458148663,104510.39728798869,-6311.393730807658,20.383723206912453,104542.0496635452,41147.71324540018,10.39461432223272,104576.69810326288,-17470.639521411995,12.293346536165554,104798.2988651882,16464.656448888494,38.975753175059026,0.9297118386670176,144.0,119.0,95.0,257.0,352.0,25.0,1026.0,1025.0,25.0,12.0,13.0,0.48,99.10143922244656,2155.677831883756,24.0,14.0,10.0,0.5833333333333334,522.0190973728929,2121.2644350016963,24.0,12.0,12.0,0.5,1895.4679370194276,38142.079540792736,26.0,12.0,14.0,0.4615384615384615,832.0996798643654,20321.89540985581,100.0,49.0,51.0,0.49,92.95292252421908,17012.680083003226,,,,,104352.0,104377.0,104496.0,104520.0,104530.0,104554.0,104565.0,104591.0,104752.0,104848.0,0.04650023478630348,-0.0827105897109181,0.04606496418683287,-0.047628461387721095,0.005645603527335926
98,98,105358.10147805122,1553.5161668114588,6.946582411536336,105499.60271279886,-6256.318641238923,20.383723206912453,105533.51836430962,40546.17087569805,10.378376607221554,105567.80093525136,-17270.19242007173,12.093063561711547,105789.43804003016,16862.08003842394,38.181336055094505,0.923895376356407,115.0,95.0,119.0,256.0,375.0,20.0,995.0,991.0,20.0,10.0,10.0,0.5,91.8821350583537,1611.2582464564491,68.0,57.0,11.0,0.8382352941176471,417.0798470581102,2971.9408313544195,24.0,13.0,11.0,0.5416666666666666,1875.4802689845817,36348.25022210347,26.0,12.0,14.0,0.4615384615384615,853.608392209356,20452.117324094062,97.0,47.0,50.0,0.4845360824742268,97.36949688767952,17520.67700533849,,,,,105348.0,105368.0,105463.0,105511.0,105521.0,105545.0,105556.0,105582.0,105744.0,105838.0,0.059144627536730936,-0.0666653779922432,0.046255422607827036,-0.04942668682818362,0.005774465348628508
99,99,106416.46406964012,2734.848664101698,11.5708432605807,106564.972626301,-6098.777526427716,17.835757805982524,106591.74140745011,42889.7494513955,10.678867291132574,106624.52319202562,-16007.487368210648,10.862001421954837,106848.62724004978,17721.804078522247,40.40826912961515,0.9359415467850366,147.0,115.0,90.0,261.0,351.0,32.0,1056.0,1059.0,32.0,15.0,17.0,0.46875,91.7955229079734,2750.9605576664285,23.0,19.0,4.0,0.8260869565217391,932.1317762748348,6359.109806123734,24.0,12.0,12.0,0.5,1923.1517697759589,39792.677376397405,23.0,10.0,13.0,0.4347826086956521,953.674046403512,20141.12549633392,100.0,49.0,51.0,0.49,94.02629074412968,18472.859013522662,,,,,106401.0,106433.0,106548.0,106569.0,106580.0,106604.0,106615.0,106638.0,106802.0,106899.0,0.033565119749733946,-0.15283911771427078,0.04483942653839367,-0.05957674833449615,0.005305683909353442
100,100,107499.98571299568,2437.8278660855867,10.20376923892218,107652.70759061436,-6417.913212744261,17.8357578060484,107680.77412809349,43056.54310274576,10.629061072068394,107713.36301222196,-16625.422923105245,10.890583959764031,107937.97716890417,17560.763168753045,39.569131245009345,0.9337757704543584,149.0,121.0,92.0,261.0,353.0,28.0,1085.0,1089.0,28.0,14.0,14.0,0.5,95.11670153107418,2423.850600916508,24.0,19.0,5.0,0.7916666666666666,853.8439789073517,4462.847606521771,24.0,12.0,12.0,0.5,1956.00438606421,39991.02392651288,23.0,9.0,14.0,0.391304347826087,1030.8195329949865,22187.42173719383,98.0,48.0,50.0,0.4897959183673469,96.24373990434482,18303.068340981903,,,,,107486.0,107514.0,107635.0,107658.0,107669.0,107693.0,107704.0,107727.0,107892.0,107988.0,0.03901698838310631,-0.13304074869878976,0.045428737309370144,-0.06200260515252223,0.005480612600914593
101,101,108587.78864120058,2917.2631946548745,11.186541731100917,108744.5784815067,-6311.07419056988,17.835757806047702,108771.6755985933,42793.642297056955,10.616666706177194,108804.99656919044,-16931.677051767292,11.339177776813944,109028.77431885988,17389.890020495746,40.415581851955984,0.9291087829037912,154.0,124.0,92.0,260.0,352.0,30.0,1088.0,1091.0,31.0,15.0,16.0,0.4838709677419355,98.50346725490186,2841.5021238282707,25.0,21.0,4.0,0.84,927.4838703834172,6277.720808699291,24.0,12.0,12.0,0.5,1949.188561110682,39345.01817577951,24.0,10.0,14.0,0.4166666666666667,951.5028349230492,21322.230778498342,101.0,50.0,51.0,0.495049504950495,89.68616097360785,17995.011547861723,,,,,108573.0,108603.0,108727.0,108749.0,108760.0,108784.0,108795.0,108819.0,108982.0,109079.0,0.033765711450164604,-0.14696133215630394,0.04554855479653185,-0.056196608995901766,0.005157373673318442
102,102,109619.41912386502,2143.658725559592,8.680468903557475,109767.60271279886,-6384.5425698963745,20.383723206912453,109800.813853438,40600.54693538621,10.337326236928364,109835.47049562764,-17577.515020362927,12.33352810342863,110056.7703100884,16474.72468636501,39.0188100888499,0.9259528584636476,146.0,121.0,97.0,256.0,353.0,25.0,1031.0,1029.0,25.0,12.0,13.0,0.48,93.98278928366489,2180.932962776361,29.0,18.0,11.0,0.6206896551724138,467.91835205626194,2832.741820915149,24.0,12.0,12.0,0.5,1885.813580948147,37066.68183118927,26.0,11.0,15.0,0.4230769230769231,861.5147639746805,21469.66722688249,98.0,48.0,50.0,0.4897959183673469,87.67245670753945,17061.66988444392,,,,,109607.0,109632.0,109753.0,109779.0,109789.0,109813.0,109824.0,109850.0,110011.0,110106.0,0.043842234849733895,-0.07328925243016378,0.04644798465275178,-0.04901231846348282,0.005321634101727956
103,103,110629.9461659511,1991.544863525855,8.886300931465705,110776.0200908636,-6084.607169173602,17.8357578060484,110805.87455311736,41854.027890252786,10.568128769008569,110839.27262894945,-16509.321198312595,11.33744503606828,111061.9626198534,17428.32620469432,39.194197604450494,0.9249251221342298,143.0,117.0,93.0,258.0,351.0,26.0,1011.0,1005.0,26.0,13.0,13.0,0.5,86.99547598686664,1998.493510622104,23.0,16.0,7.0,0.6956521739130435,675.4795817030057,1331.5404411462878,24.0,12.0,12.0,0.5,1908.3113128415969,39184.89515956496,24.0,10.0,14.0,0.4166666666666667,944.0553984111588,21204.508757007432,98.0,48.0,50.0,0.4897959183673469,99.40426472254993,18196.62476369167,,,,,110617.0,110643.0,110760.0,110783.0,110794.0,110818.0,110829.0,110853.0,111016.0,111111.0,0.04368240835551593,-0.11101449328153551,0.045594448349044456,-0.05718317470906375,0.005703603636692053
104,104,111713.03075727772,2459.707990174537,10.065953898683356,111863.972626301,-6266.95063507157,17.83575780604673,111891.0134154538,43166.2960907974,10.6888870616893,111923.706301119,-16353.893525665344,10.96741730455089,112148.23697113984,17472.48291634284,40.12733977308702,0.9277736064165538,147.0,121.0,90.0,262.0,352.0,26.0,1084.0,1085.0,27.0,14.0,13.0,0.5185185185185185,98.92309211394068,2462.479330777021,24.0,19.0,5.0,0.7916666666666666,915.997127225466,5903.706756597555,24.0,12.0,12.0,0.5,1940.0329520193263,40656.676274838544,23.0,10.0,13.0,0.4347826086956521,978.4971202846704,20885.12509674083,102.0,50.0,52.0,0.4901960784313725,100.04120655955576,18287.87024312139,,,,,111700.0,111726.0,111847.0,111868.0,111879.0,111903.0,111914.0,111937.0,112101.0,112199.0,0.04021741300556626,-0.1461631310927033,0.044943234136618944,-0.05983267035150035,0.0057256434038909535
105,105,112772.88216177218,2112.5824213728065,8.458151207113927,112919.602712799,-6444.548486457503,20.383723206912453,112953.1880223743,41984.81360559806,10.32912540698598,112986.39213597296,-17190.245651763493,11.307305820936008,113210.32473953768,17044.601509882643,39.47936085203594,0.9235854213757634,144.0,120.0,95.0,260.0,355.0,24.0,1058.0,1062.0,25.0,13.0,12.0,0.52,96.09526644578015,2091.5044517834513,31.0,20.0,11.0,0.6451612903225806,457.5578260994674,3037.007730736908,24.0,12.0,12.0,0.5,1939.5181886039363,39575.39710972071,24.0,10.0,14.0,0.4166666666666667,975.7760132525974,22006.988160864057,100.0,49.0,51.0,0.49,97.88516509810216,17714.71723793156,,,,,112761.0,112785.0,112905.0,112931.0,112941.0,112965.0,112976.0,113000.0,113164.0,113260.0,0.0454871087980251,-0.07099920608262533,0.04619570797249723,-0.05676335481293693,0.0057428837536241195
106,106,113849.18834385584,2808.29408731894,10.480620605360317,114000.6040630996,-6138.067591128469,20.383723206912453,114029.27017129306,43447.05097804105,10.518273282675592,114062.35641416984,-16854.780237798128,11.019582840313532,114285.9607483333,17627.694708509407,41.7646970514833,0.9277838937477904,149.0,121.0,92.0,262.0,354.0,28.0,1077.0,1076.0,29.0,14.0,15.0,0.4827586206896552,106.00530962813724,2797.885652525705,24.0,18.0,6.0,0.75,814.695076288863,3489.2726620145077,25.0,12.0,13.0,0.48,1954.2481421410916,41080.33129866596,24.0,10.0,14.0,0.4166666666666667,993.8709793510784,21897.90430614732,104.0,51.0,53.0,0.4903846153846153,103.91598873583752,18514.09883566201,,,,,113835.0,113863.0,113984.0,114007.0,114017.0,114042.0,114052.0,114076.0,114238.0,114338.0,0.037747225301941155,-0.1327282673567111,0.04497999514693886,-0.0589667124298807,0.005895041322996944
107,107,114869.33994856157,2365.337870293917,9.449592025362758,115018.85342035542,-6261.078600796632,20.383723206912453,115047.03022316446,42463.41089329682,10.51820975970612,115081.8667465529,-17025.98292960099,11.857739404141968,115303.20171379628,16398.508569344445,40.37134642604331,0.9327957845842656,147.0,120.0,93.0,258.0,351.0,27.0,1020.0,1018.0,27.0,13.0,14.0,0.4814814814814814,92.8868393125051,2338.638207943639,23.0,17.0,6.0,0.7391304347826086,825.947397532846,3301.9630387291363,24.0,12.0,12.0,0.5,1909.3684213803645,39506.72807701248,25.0,11.0,14.0,0.44,836.647401908887,20082.213843069218,102.0,50.0,52.0,0.4901960784313725,91.54711260283597,16999.228963625592,,,,,114856.0,114883.0,115003.0,115025.0,115035.0,115059.0,115071.0,115096.0,115256.0,115354.0,0.039270008939975655,-0.13191774935196568,0.04496502709540399,-0.049139447946603465,0.005582648703429967
108,108,116803.73728424095,2277.2304559114073,9.792598676930403,116944.67703139508,-5950.616012067257,20.383723206912453,116975.33400318686,40441.29389896199,10.57266288306591,117009.76995863672,-16720.048650574907,12.47958044869563,117230.63549206384,15777.964629294564,39.054890766713875,0.9350090618393326,140.0,112.0,95.0,254.0,349.0,28.0,1934.0,1928.0,28.0,14.0,14.0,0.5,87.59918398347084,2207.0315559981636,23.0,15.0,8.0,0.6521739130434783,633.1792441995871,272.40289894859643,24.0,12.0,12.0,0.5,1828.071229607722,37992.38688693572,27.0,12.0,15.0,0.4444444444444444,815.3875219333524,19979.040214896293,98.0,49.0,49.0,0.5,86.44882487078897,16417.119273809065,,,,,116790.0,116818.0,116930.0,116953.0,116963.0,116987.0,116998.0,117025.0,117184.0,117279.0,0.03846742158048793,-0.10640566336587046,0.04520308460394348,-0.04876705438924162,0.005479085984910977
109,109,117808.72334588096,1859.0455822565737,8.79625503056311,117947.60271282143,-5994.8740789026315,20.383723206912453,117981.56490411976,40076.74760297581,10.593134629782863,118015.81243991324,-16582.189625103278,12.104716909867824,118236.27274307144,15647.899962794883,39.64759185199868,0.931141008945432,135.0,110.0,99.0,256.0,355.0,25.0,1006.0,1007.0,26.0,13.0,13.0,0.5,81.41140221103389,1844.744082992182,34.0,23.0,11.0,0.6764705882352942,428.77748557880295,2582.528494651649,25.0,13.0,12.0,0.52,1807.7066630893585,36109.409785567725,25.0,11.0,14.0,0.44,836.5449535905806,20001.4575857245,100.0,49.0,51.0,0.49,90.7306874776319,16348.456682458174,,,,,117796.0,117821.0,117931.0,117959.0,117969.0,117994.0,118005.0,118030.0,118189.0,118286.0,0.04379204199620212,-0.07152401867585034,0.04510612190883302,-0.050448401116108356,0.005798266073617359
110,110,118874.51572880783,2132.484146148306,9.710431284782848,119015.21223260764,-5214.848003007255,20.383723206912453,119048.86737585624,40708.26962001163,10.511957508461473,119082.67664864312,-16224.305423728045,11.509765171515404,119304.94101142071,16326.99343685262,40.573644941209736,0.93000735075538,142.0,115.0,94.0,259.0,353.0,27.0,1065.0,1067.0,28.0,14.0,14.0,0.5,82.03923516763034,2029.5764820147333,26.0,15.0,11.0,0.5769230769230769,399.5480971261935,2096.4232189121653,25.0,13.0,12.0,0.52,1835.0092037747725,37711.81721691367,25.0,11.0,14.0,0.44,860.800983934176,19615.50415070485,103.0,51.0,52.0,0.4951456310679611,91.96385612522518,17006.242590091097,,,,,118861.0,118888.0,119003.0,119026.0,119036.0,119061.0,119072.0,119097.0,119257.0,119356.0,0.03847120519784855,-0.07661740033377491,0.045077062250582785,-0.05305626105110513,0.005632626513932941
111,111,119973.21611562566,2635.2458243104647,11.31018087664386,120122.87740948085,-6160.513182474378,17.835757806037062,120150.03700854404,42200.98184713228,10.727144750316068,120183.08772423804,-15978.353657924525,11.010681765665865,120406.787587043,17097.93423194932,41.1361397439657,0.9296926896123752,147.0,117.0,91.0,261.0,352.0,30.0,1098.0,1101.0,30.0,14.0,16.0,0.4666666666666667,94.49225066069552,2680.3729992567996,23.0,19.0,4.0,0.8260869565217391,895.1748696628924,5829.160334616934,25.0,12.0,13.0,0.48,1886.6158942879008,39920.03402763976,24.0,10.0,14.0,0.4166666666666667,950.5556594335578,20723.82134771456,102.0,50.0,52.0,0.4901960784313725,92.91235972745616,17882.34923497136,,,,,119959.0,119989.0,120106.0,120127.0,120138.0,120163.0,120173.0,120197.0,120359.0,120458.0,0.03585709150508577,-0.14530849024226003,0.044705497637991656,-0.059490212808134095,0.005434127799710416
112,112,121056.46623924303,2528.962982739937,10.925797379046672,121206.97194409683,-6152.186463342985,17.835757806032696,121234.21472738111,43011.93733674908,10.666320875486964,121266.95120858436,-16070.643646539653,10.71133145895638,121490.35488847736,17261.01366499828,41.41136528467641,0.9297293853418234,148.0,118.0,90.0,262.0,352.0,30.0,1083.0,1084.0,30.0,14.0,16.0,0.4666666666666667,88.42884055415756,2547.332700927217,24.0,19.0,5.0,0.7916666666666666,891.437149429395,5624.360582829182,25.0,12.0,13.0,0.48,1925.6828398817731,41235.12178918072,23.0,10.0,13.0,0.4347826086956521,983.4499488717634,20857.123059899433,102.0,49.0,53.0,0.4803921568627451,98.8052472033881,18135.606169487888,,,,,121042.0,121072.0,121190.0,121211.0,121222.0,121247.0,121257.0,121280.0,121443.0,121542.0,0.0349664432250217,-0.14489761562672215,0.04477089289899258,-0.06119543003391285,0.00572418567767804
113,113,122129.71442458135,2684.518220367822,11.348118153547585,122280.97262629856,-5847.243215826852,17.835757797597257,122308.05948423546,43516.62811541944,10.65632980435661,122340.8666252019,-16295.890994953164,10.689982698050304,122564.33790268414,17259.27478422109,41.83659354667474,0.9332411321189018,149.0,119.0,90.0,262.0,352.0,30.0,1074.0,1074.0,30.0,15.0,15.0,0.5,91.22671764225656,2591.931169137628,23.0,19.0,4.0,0.8260869565217391,909.5102396227962,6282.354644069553,25.0,12.0,13.0,0.48,1946.898253446259,41310.47733097192,23.0,10.0,13.0,0.4347826086956521,987.729879664777,20937.946056139474,104.0,51.0,53.0,0.4903846153846153,95.13337166262409,18066.500427991337,,,,,122115.0,122145.0,122264.0,122285.0,122296.0,122321.0,122331.0,122354.0,122516.0,122616.0,0.033982528764419054,-0.15554513572498685,0.04473917988963869,-0.06061220463309903,0.005512014430038374
114,114,123172.95923433948,2861.217261555866,11.142954587523068,123322.39728720114,-6167.169876886723,20.383723206912208,123349.09892292504,43378.054436575185,10.611284563218106,123382.56556599826,-16899.629726190426,11.102345122969512,123605.98117454317,17573.29331827813,41.49128892040336,0.9382318759725672,147.0,116.0,91.0,262.0,353.0,31.0,1044.0,1041.0,31.0,15.0,16.0,0.4838709677419355,95.46948415603104,2777.957313029842,24.0,19.0,5.0,0.7916666666666666,900.1901145191368,5454.372464212247,24.0,12.0,12.0,0.5,1929.5366804141615,40460.31009275418,24.0,11.0,13.0,0.4583333333333333,935.4427924800952,20505.115753070662,104.0,51.0,53.0,0.4903846153846153,95.38775941043448,18336.85887479508,,,,,123158.0,123189.0,123305.0,123327.0,123337.0,123361.0,123372.0,123396.0,123558.0,123658.0,0.033366737101298234,-0.14596486435258793,0.044481863132783316,-0.055352857289552346,0.005427995634217342
115,115,124169.49440279385,2396.244947319585,9.341178693447086,124316.20081419896,-6057.028256810668,20.383723206912453,124345.84926934788,41476.62168094096,10.424510188618816,124380.61032891476,-17052.35739369678,11.82552708111306,124602.0586976252,16399.48823398167,40.27083528594433,0.9305990593728392,144.0,117.0,95.0,258.0,353.0,27.0,997.0,997.0,27.0,13.0,14.0,0.4814814814814814,98.0344775109489,2421.996117607569,24.0,16.0,8.0,0.6666666666666666,660.6300535263288,695.809783024333,24.0,12.0,12.0,0.5,1889.77290579166,38217.87400159618,26.0,12.0,14.0,0.4615384615384615,820.8225837862192,19634.378845528427,100.0,48.0,52.0,0.48,88.79832066648409,17103.302503682964,,,,,124156.0,124183.0,124300.0,124324.0,124334.0,124358.0,124369.0,124395.0,124556.0,124653.0,0.04091170963995532,-0.10906834598030817,0.04556236330742518,-0.048135431649446156,0.00541470071501887
116,116,125142.88138575546,2097.537429920896,8.989065252255081,125284.51891332392,-6160.462482807607,20.383723206912453,125317.10027056398,40148.19649091657,10.433619580027903,125351.77930498474,-17095.049422173528,12.069491442053597,125572.16571291056,16021.026438622535,39.97678737859903,0.9288094811705137,140.0,114.0,96.0,257.0,353.0,26.0,973.0,971.0,26.0,13.0,13.0,0.5,87.53408196656389,2033.9215195773352,26.0,16.0,10.0,0.6153846153846154,508.95140161769905,1915.518331341396,24.0,12.0,12.0,0.5,1836.32585139945,37560.73802633562,26.0,12.0,14.0,0.4615384615384615,829.3624578346369,20028.571930411028,101.0,49.0,52.0,0.4851485148514851,86.8687527030716,16660.155886773136,,,,,125130.0,125156.0,125270.0,125295.0,125305.0,125329.0,125340.0,125366.0,125525.0,125623.0,0.04173183310958367,-0.082615778123487,0.04573868845677574,-0.048514773918049814,0.005422171484197392
117,117,126131.57684200205,1745.0666424890603,7.801973906655561,126271.75370962424,-5968.337568030503,20.383723206912453,126305.27005665917,40465.98163783173,10.47094228254566,126339.48729123452,-17114.039665282184,12.17818816139165,126559.924101374,15941.329681324652,39.182674311707366,0.9301284090514448,138.0,115.0,96.0,256.0,352.0,23.0,989.0,988.0,23.0,12.0,11.0,0.5217391304347826,88.43547460931342,1730.817074009606,26.0,15.0,11.0,0.5769230769230769,446.9812795254236,2630.2971428206956,24.0,12.0,12.0,0.5,1847.1866495562224,38087.18002333443,26.0,11.0,15.0,0.4230769230769231,883.8421047732977,21458.32228338391,100.0,49.0,51.0,0.49,90.82009125224444,16581.207646145653,,,,,126120.0,126143.0,126258.0,126283.0,126293.0,126317.0,126328.0,126354.0,126514.0,126610.0,0.05067741967904118,-0.07489209087630802,0.04564788928360715,-0.051644271139926944,0.005697146540958916
118,118,127152.1400793021,2162.532715295384,9.395307389352617,127298.0137300645,-6062.781229346019,17.8357578060484,127327.77893344565,41417.26563065092,10.618570470824398,127361.1804428904,-16313.524642063285,11.392583150567027,127583.6943152228,16736.080148095883,39.49980214702282,0.9335366359648192,143.0,117.0,93.0,258.0,351.0,26.0,1021.0,1023.0,26.0,13.0,13.0,0.5,91.96138487320349,2191.828322800267,23.0,16.0,7.0,0.6956521739130435,679.8926516378231,1491.527314927051,24.0,12.0,12.0,0.5,1881.0576311027023,38495.86871613305,24.0,10.0,14.0,0.4166666666666667,928.0739730169056,20882.800527774853,99.0,49.0,50.0,0.494949494949495,88.55823328371771,17382.746724035052,,,,,127139.0,127165.0,127282.0,127305.0,127316.0,127340.0,127351.0,127375.0,127537.0,127633.0,0.04252485255957957,-0.11214203942357356,0.0454172336695888,-0.05688985019361981,0.005291456093665593
119,119,128217.11287283334,2231.243984305094,9.28619984086156,128362.5920743033,-5862.854462234488,20.383723206912453,128395.63133430618,42131.206918523494,10.398113981078575,128428.4726005809,-16158.786610381583,10.84966233151025,128651.79199719094,17377.076256623408,40.18845100912527,0.9271340356518214,145.0,119.0,93.0,260.0,353.0,26.0,1064.0,1068.0,26.0,13.0,13.0,0.5,94.99439754567678,2256.6407156479845,25.0,15.0,10.0,0.6,488.354971126177,1882.220157411636,25.0,13.0,12.0,0.52,1918.71394659693,38537.80520295879,24.0,10.0,14.0,0.4166666666666667,991.8344907960068,21432.690974339326,101.0,50.0,51.0,0.495049504950495,97.01622039635186,18142.04644339726,,,,,128204.0,128230.0,128349.0,128373.0,128383.0,128408.0,128418.0,128442.0,128604.0,128702.0,0.04257463469431477,-0.08329645128868714,0.04554139524907235,-0.06138050552377367,0.005583000210370451
120,120,129297.71902098956,2649.497404620593,10.43629365322554,129449.972626301,-6034.15321279661,17.835757806048054,129477.16880711298,43448.665000576606,10.654411747856257,129509.84466201755,-16223.83397386874,10.542655334710036,129733.78588441724,17465.568403412388,40.832793180871974,0.932882794472738,149.0,121.0,90.0,261.0,351.0,28.0,1080.0,1081.0,29.0,15.0,14.0,0.5172413793103449,98.45929182643027,2558.9561588479196,23.0,18.0,5.0,0.782608695652174,907.2984542624016,5834.7144525249405,25.0,12.0,13.0,0.48,1940.2927266642153,41579.56618085776,23.0,10.0,13.0,0.4347826086956521,1000.7338049496808,20909.762504253897,101.0,50.0,51.0,0.495049504950495,98.99257979701748,18405.24545506142,,,,,129284.0,129312.0,129433.0,129454.0,129465.0,129490.0,129500.0,129523.0,129686.0,129784.0,0.03716149774471268,-0.15036052653391307,0.04465713104507275,-0.061682941686997894,0.0056678704929910275
121,121,130348.16288957992,2625.774548429614,10.173103113384135,130500.72401368672,-6425.7887113699,17.8357578060484,130529.7344939942,42821.52256736715,10.627035965862564,130562.56360660309,-17128.865706310808,11.30389183071237,130786.82056861217,17476.105327152876,39.42933844770612,0.9340623305096002,149.0,122.0,92.0,260.0,352.0,27.0,1052.0,1053.0,28.0,14.0,14.0,0.5,101.63414742209656,2625.0701780304134,24.0,18.0,6.0,0.75,781.6577432602743,2901.4991444187835,24.0,12.0,12.0,0.5,1956.0968117032853,39457.63505613411,23.0,10.0,13.0,0.4347826086956521,975.053200247843,21285.72927006719,99.0,49.0,50.0,0.494949494949495,98.3346297303097,18221.541314097267,,,,,130335.0,130362.0,130484.0,130507.0,130518.0,130542.0,130553.0,130576.0,130740.0,130836.0,0.03870634951613819,-0.12164386013458485,0.0456802256067831,-0.0569245633053567,0.005626804593442555
122,122,131393.43815148383,2408.7383584651902,9.472573263304495,131540.1273330809,-6047.178290894179,20.383723206912453,131571.10670946303,41857.36692589304,10.386404460466174,131605.03172146756,-17573.498214788473,11.48581126181332,131828.8922909992,16957.070621982442,39.44055588062836,0.9284191044020674,145.0,118.0,94.0,259.0,353.0,27.0,1044.0,1041.0,27.0,13.0,14.0,0.4814814814814814,95.15306764753063,2426.0242735629254,24.0,15.0,9.0,0.625,579.7351345696503,749.2473359341261,24.0,12.0,12.0,0.5,1919.752146677209,39176.977269394694,25.0,11.0,14.0,0.44,921.6259025358128,21311.881449414443,98.0,48.0,50.0,0.4897959183673469,97.76375205988845,17787.758916428815,,,,,131380.0,131407.0,131525.0,131549.0,131559.0,131583.0,131594.0,131619.0,131783.0,131878.0,0.03950328075821429,-0.09586870217513077,0.04586414023787166,-0.05244407751213955,0.00576536798361573
123,123,134267.70188340795,1808.5416024725432,7.758728539975626,134406.95773510964,-6239.36862870575,20.383723206912453,134439.55113826788,40690.22625688256,10.495102301415246,134473.65491977724,-16856.66141857036,12.206317313755411,134694.34257216842,16866.832345124134,39.19696875912508,0.9241214206739184,137.0,114.0,95.0,256.0,351.0,23.0,2875.0,2869.0,23.0,12.0,11.0,0.5217391304347826,91.91311341700244,1804.2584299143227,25.0,15.0,10.0,0.6,495.64653814969984,2327.0051782248615,25.0,13.0,12.0,0.52,1857.074359609239,36437.28181950976,25.0,11.0,14.0,0.44,848.0541321762443,20120.583369200715,100.0,49.0,51.0,0.49,94.61595712048135,17512.455581114686,,,,,134256.0,134279.0,134393.0,134417.0,134427.0,134452.0,134463.0,134488.0,134648.0,134744.0,0.050821674929315226,-0.07943857265771348,0.04563932252146481,-0.05030973281826581,0.005609586624475635
124,124,135268.70775347995,2402.100015421684,9.256145396137123,135414.81021001618,-6234.0140840517015,17.8357578060484,135442.99900716357,41558.06701085605,10.659566058199683,135476.1271605242,-16518.847161965812,11.123927483316338,135698.93070541628,17188.3651984706,40.30228780119808,0.934481002760288,142.0,117.0,92.0,259.0,351.0,25.0,1001.0,1003.0,26.0,13.0,13.0,0.5,101.69537286319152,2347.5907584933493,23.0,18.0,5.0,0.782608695652174,814.3253258603877,3893.888871357442,24.0,12.0,12.0,0.5,1879.0283683329271,39176.193486153556,24.0,10.0,14.0,0.4166666666666667,965.4810216564856,21214.531303524505,101.0,50.0,51.0,0.495049504950495,99.4276509790754,18046.19050568416,,,,,135256.0,135281.0,135398.0,135420.0,135431.0,135455.0,135466.0,135490.0,135652.0,135749.0,0.04233602773002734,-0.13062616074988548,0.04521452761125959,-0.05844723982188533,0.005784590322058222
125,125,136293.20695064685,2065.313810809721,7.925705175438364,136439.60271280468,-6386.45197377237,20.383723206912453,136473.04224130636,42339.52576573264,10.412841610880104,136505.8449319751,-17018.657090990673,11.243676799691448,136729.43434825307,17534.209567206115,38.668819307580634,0.928913611842478,142.0,120.0,95.0,259.0,354.0,22.0,1025.0,1030.0,22.0,11.0,11.0,0.5,106.059631035408,2102.207226498947,30.0,19.0,11.0,0.6333333333333333,470.4311483654552,2677.0252739798443,24.0,12.0,12.0,0.5,1943.1652822612864,39472.93518753533,23.0,10.0,13.0,0.4347826086956521,981.556211035597,21443.199397023185,97.0,47.0,50.0,0.4845360824742268,99.0239094886844,18310.51250645754,,,,,136282.0,136304.0,136424.0,136451.0,136461.0,136485.0,136496.0,136519.0,136684.0,136778.0,0.05135279223927069,-0.0736607979355992,0.04589482870008859,-0.05767530339131239,0.0056474692576896565
126,126,137357.76293340424,2290.9723270909803,10.034833357835254,137512.39728720114,-6322.856688437021,20.383723206912215,137539.14189983063,44104.94504871212,10.612534990703525,137571.8582616466,-16870.025377301114,11.016440968164302,137795.6208717504,17644.46262513583,40.25068497400414,0.9308070029650908,151.0,123.0,90.0,261.0,351.0,28.0,1064.0,1066.0,28.0,14.0,14.0,0.5,87.7454933516051,2249.496600400059,23.0,18.0,5.0,0.782608695652174,917.6428078009236,5368.058290580214,24.0,12.0,12.0,0.5,1967.9716826492815,41063.00351757835,23.0,10.0,13.0,0.4347826086956521,1003.067827536728,21602.26042616449,101.0,50.0,51.0,0.495049504950495,97.20294547263327,18454.325523634892,,,,,137344.0,137372.0,137495.0,137517.0,137527.0,137551.0,137562.0,137585.0,137748.0,137846.0,0.03830054702713155,-0.14513104645864752,0.04462020484269364,-0.05945858438875686,0.005508977379348496
127,127,138416.1841749229,1954.1388169455297,7.975205784020116,138565.0325107453,-6244.666155212798,20.383723206912453,138597.56297825588,41356.60226207735,10.32611948723956,138631.67463703334,-17512.432914267578,11.936074414509706,138854.23565171173,17151.49014546908,39.87075985300566,0.920938532202306,146.0,123.0,95.0,258.0,353.0,23.0,1059.0,1059.0,23.0,11.0,12.0,0.4782608695652174,97.35753703438398,1963.8358859053296,25.0,15.0,10.0,0.6,484.4416431353002,2491.2537210306764,23.0,12.0,11.0,0.5217391304347826,1917.4641904378504,37156.01521043214,26.0,12.0,14.0,0.4615384615384615,872.2349044923195,20582.60075472878,101.0,49.0,52.0,0.4851485148514851,94.35321719608471,17783.67532030435,,,,,138405.0,138428.0,138551.0,138575.0,138586.0,138609.0,138620.0,138646.0,138808.0,138904.0,0.04982119805928698,-0.07757686817747778,0.046364161598355054,-0.04980660932506413,0.005501167326910662
128,128,139424.31737559754,1988.8191423196863,8.214704780104888,139571.11646414382,-6123.142290243111,20.383723206912453,139603.20559383702,40480.24339986145,10.410110487029078,139637.9332080914,-17081.46836634654,12.1772230650414,139858.4495292471,16449.229543854293,39.20142093486023,0.924269726480426,144.0,120.0,97.0,255.0,352.0,24.0,1008.0,1005.0,25.0,12.0,13.0,0.48,94.31896847862149,2024.186343446211,26.0,16.0,10.0,0.6153846153846154,499.1521389468477,1992.942314594481,24.0,12.0,12.0,0.5,1855.388997797591,38057.47563317854,27.0,12.0,15.0,0.4444444444444444,823.8184901865851,20182.54632746131,99.0,48.0,51.0,0.4848484848484848,88.3862766333224,17007.104206453077,,,,,139412.0,139436.0,139556.0,139581.0,139591.0,139615.0,139626.0,139653.0,139812.0,139908.0,0.04742460813636944,-0.08151895142829181,0.045834432848393926,-0.04822878645548123,0.005373277599274854
129,129,140420.05450353443,1804.740764001908,8.385557050696308,140561.906016337,-6253.976019645192,17.8357578060484,140594.2139024369,39524.19913698063,10.591662513295528,140628.50754275662,-16890.44948779484,12.298305587614353,140849.2699008331,16195.563441624588,39.480317261203304,0.9281799707719964,139.0,115.0,96.0,256.0,352.0,24.0,995.0,991.0,25.0,12.0,13.0,0.48,82.9365407269468,1825.3457974041153,25.0,16.0,9.0,0.64,508.4966194763378,1648.830597972256,24.0,12.0,12.0,0.5,1809.9573312302864,37466.81913247515,26.0,12.0,14.0,0.4615384615384615,826.7048268788866,19865.117060257064,100.0,49.0,51.0,0.49,93.36529768596216,16837.918334202313,,,,,140408.0,140432.0,140547.0,140571.0,140582.0,140606.0,140617.0,140643.0,140803.0,140899.0,0.04595482208926219,-0.08130773413249935,0.04579364973234356,-0.04894510518954925,0.00576486875695858
130,130,141432.17731340416,1535.4313388263647,7.401666195769647,141574.47107054005,-6111.376440910526,20.383723206912453,141607.40316639433,40476.9599211528,10.508299745130264,141641.36732932343,-16778.73462728084,11.918850143290442,141864.31076861295,16807.87279458723,39.02948227072974,0.9226165578781071,139.0,117.0,96.0,257.0,353.0,22.0,1013.0,1013.0,22.0,11.0,11.0,0.5,84.70666118889534,1643.315677486412,27.0,16.0,11.0,0.5925925925925926,440.3530619379289,2825.0360169363853,25.0,12.0,13.0,0.48,1835.3981534377144,38508.340812172755,26.0,11.0,15.0,0.4230769230769231,891.7110417209151,21112.29870210326,98.0,48.0,50.0,0.4897959183673469,100.1342676463768,17587.9430878747,,,,,141421.0,141443.0,141560.0,141585.0,141595.0,141620.0,141630.0,141656.0,141818.0,141913.0,0.05516799028841136,-0.07205464533163682,0.04534426886339743,-0.05314530931737048,0.005957581240061729
131,131,142495.36302994026,2227.1051341961384,9.684002230469924,142643.3525593755,-6143.964477325104,17.8357578060484,142671.99802106657,41525.85419602024,10.656164308386083,142704.96784696227,-16182.767705144935,10.995852548302633,142928.93142366665,17316.21980170882,40.85420613182709,0.9261141152599184,145.0,118.0,92.0,261.0,353.0,27.0,1062.0,1065.0,27.0,13.0,14.0,0.4814814814814814,91.3549080963042,2297.119849291217,22.0,16.0,6.0,0.7272727272727273,737.3718015219724,2502.3371754306354,24.0,12.0,12.0,0.5,1874.563609787576,39209.28646948058,24.0,10.0,14.0,0.4166666666666667,953.8701873779116,20719.309006155738,103.0,51.0,52.0,0.4951456310679611,103.56371386013817,18130.95950392158,,,,,142482.0,142509.0,142627.0,142649.0,142660.0,142684.0,142695.0,142719.0,142881.0,142980.0,0.04101957590308293,-0.12001563554661074,0.0451420842769137,-0.05894357533629126,0.0059807345394124745
132,132,143561.1061092503,2636.773575769201,9.80080199276202,143711.49188934412,-5888.700478794945,20.383723206912453,143739.49121966472,43424.555548144446,10.62353954828953,143772.2329513449,-16263.187835065875,10.664109789449284,143996.4479940988,17285.4539349015,40.705840717967625,0.9283473321258934,147.0,121.0,91.0,261.0,352.0,26.0,1067.0,1068.0,27.0,13.0,14.0,0.4814814814814814,104.96387415036446,2625.3194690393843,22.0,16.0,6.0,0.7272727272727273,797.936941945236,3530.43373381888,25.0,12.0,13.0,0.48,1921.123377937142,41706.2923670123,23.0,9.0,14.0,0.391304347826087,1013.2657099962267,21479.124247150212,101.0,49.0,52.0,0.4851485148514851,101.15432728190918,18102.461947517677,,,,,143548.0,143574.0,143695.0,143717.0,143727.0,143752.0,143763.0,143786.0,143949.0,144047.0,0.03980769343068994,-0.13550306129825854,0.044240484529708274,-0.06230424934350655,0.005851991371639127
133,133,144608.76169518774,2662.834948731121,10.008179167983211,144758.74950673126,-6257.474388658495,20.383723206912453,144788.33613158262,42774.363169715645,10.553451112814756,144821.26456400607,-17146.378095415774,11.148430355722306,145044.95570334853,17191.096592149017,40.66572335251332,0.9292653270710222,147.0,119.0,93.0,261.0,354.0,28.0,1047.0,1049.0,28.0,14.0,14.0,0.5,100.58321489414077,2566.7545637101525,24.0,17.0,7.0,0.7083333333333334,729.6699486270173,1762.635261289822,25.0,12.0,13.0,0.48,1927.8538435893877,40469.87681742283,24.0,10.0,14.0,0.4166666666666667,1004.7054338099867,22182.76409522923,101.0,49.0,52.0,0.4851485148514851,97.57410533591198,17951.183664797725,,,,,144595.0,144623.0,144742.0,144766.0,144776.0,144801.0,144811.0,144835.0,144998.0,145096.0,0.037772981364117254,-0.11660774032883373,0.045070310829415525,-0.05859578204907327,0.005675851148464432
134,134,145640.19629771973,2021.815885519079,8.215544767580488,145788.8867224087,-6314.108352914074,20.383723206912453,145819.23384756103,42935.77162770391,10.52946231821784,145852.26697643715,-17254.572826463194,11.164644663349735,146075.65693827395,16818.24281606967,39.915736344935205,0.9235926094027322,146.0,122.0,92.0,260.0,352.0,24.0,1032.0,1030.0,24.0,12.0,12.0,0.5,95.6076715275328,2049.1248547961186,23.0,15.0,8.0,0.6521739130434783,672.4155392734822,424.24733593123074,24.0,12.0,12.0,0.5,1938.986412339121,40446.01521691861,24.0,10.0,14.0,0.4166666666666667,1005.6581075553177,22255.26123966624,101.0,50.0,51.0,0.495049504950495,91.84783480712753,17523.08399951468,,,,,145628.0,145652.0,145774.0,145797.0,145807.0,145831.0,145842.0,145866.0,146029.0,146126.0,0.047288020740319084,-0.10649414005750318,0.04516016223376799,-0.05828357025523971,0.00546120280290922
135,135,146681.45023926065,1976.7837307801951,8.405213114186157,146825.60271279886,-6320.912602441267,20.383723206912453,146859.33437214073,41215.03788713983,10.327573009838346,146893.62490873382,-17517.69700409579,11.655115963675897,147117.14699292352,16235.556584636764,38.87520644542085,0.9207636695770828,141.0,116.0,98.0,258.0,356.0,25.0,1041.0,1040.0,25.0,12.0,13.0,0.48,88.26612986431785,2024.8833033714277,71.0,60.0,11.0,0.8450704225352113,437.6887471427353,3026.437474610505,24.0,12.0,12.0,0.5,1898.8178019985787,39306.592919772615,26.0,12.0,14.0,0.4615384615384615,871.1081806248692,20346.96431681182,98.0,48.0,50.0,0.4897959183673469,98.68944121119463,17032.01124671794,,,,,146669.0,146694.0,146810.0,146837.0,146847.0,146871.0,146882.0,146908.0,147071.0,147166.0,0.04465138421059397,-0.06924454974645447,0.04607099494117072,-0.049727323199002506,0.006078599196567218
136,136,147661.31075038735,1951.392831649592,8.079928188332206,147805.2929564092,-6372.2887020600665,20.383723206912453,147838.28463625675,40367.62326013832,10.439256096454692,147873.17118966306,-17226.667577976456,12.233223223259555,148094.6324425857,15717.860763985916,38.834621012736925,0.9265724814804212,142.0,118.0,97.0,256.0,353.0,24.0,980.0,979.0,24.0,12.0,12.0,0.5,93.26057505283738,1987.0894707052723,28.0,17.0,11.0,0.6071428571428571,447.13733107979954,3132.047146991426,24.0,12.0,12.0,0.5,1842.5435317800664,38195.00979297768,26.0,11.0,15.0,0.4230769230769231,839.8121535245475,20650.568699903837,98.0,48.0,50.0,0.4897959183673469,92.91409685866552,16400.25742155977,,,,,147649.0,147673.0,147791.0,147816.0,147826.0,147850.0,147862.0,147888.0,148049.0,148144.0,0.04779179954965829,-0.07016903219329135,0.045644092541844455,-0.048750702927489634,0.005911370399180409
137,137,148656.54146048127,1978.2740910430584,8.631234125874313,148797.91141712898,-5683.085377524894,20.383723206912453,148830.69693477213,40565.743560399285,10.527972562065331,148865.30655113995,-16691.15684309487,11.893241347627422,149086.50569064418,16058.4261808809,39.87688369832,0.9323949367266025,139.0,114.0,97.0,257.0,354.0,25.0,994.0,993.0,25.0,13.0,12.0,0.52,85.86444994244665,1893.2686146883304,26.0,16.0,10.0,0.6153846153846154,469.151182917245,1669.7170309026312,25.0,13.0,12.0,0.52,1829.0424058872095,37114.702805192355,26.0,11.0,15.0,0.4230769230769231,855.5995041518054,20532.527404613935,101.0,50.0,51.0,0.495049504950495,82.27533783387838,16570.886800691394,,,,,148644.0,148669.0,148783.0,148808.0,148818.0,148843.0,148854.0,148880.0,149039.0,149137.0,0.04340371757948568,-0.08255219687049123,0.045088349068812345,-0.05126064731131964,0.005123499457987675
