Unnamed: 0,cycle,p_center,p_height,p_width,q_center,q_height,q_width,r_center,r_height,r_width,s_center,s_height,s_width,t_center,t_height,t_width,r_squared,pr_interval,pr_segment,qrs_duration,st_segment,qt_interval,p_duration,pp_interval,rr_interval,fwhm_p,rise_time_p,decay_time_p,rise_decay_symmetry_p,sharpness_deriv_p,sharpness_diff_p,fwhm_q,rise_time_q,decay_time_q,rise_decay_symmetry_q,sharpness_deriv_q,sharpness_diff_q,fwhm_r,rise_time_r,decay_time_r,rise_decay_symmetry_r,sharpness_deriv_r,sharpness_diff_r,fwhm_s,rise_time_s,decay_time_s,rise_decay_symmetry_s,sharpness_deriv_s,sharpness_diff_s,fwhm_t,rise_time_t,decay_time_t,rise_decay_symmetry_t,sharpness_deriv_t,sharpness_diff_t,Average_Heart_Rate,SDNN,RMSSD,NN50,p_on,p_off,q_on,q_off,r_on,r_off,s_on,s_off,t_on,t_off,sharpness_deriv_p_norm,sharpness_deriv_q_norm,sharpness_deriv_r_norm,sharpness_deriv_s_norm,sharpness_deriv_t_norm
0,0,,,,,,,,,,,,,,,,,,,,,,,,,,,,,,,,,,,,,,,,,,,,,,,,,,,,,,,76.44101073705355,467.5546111510115,687.266526633798,473.0,,,,,,,,,,,,,,,
1,1,1101.1500521643532,3375.3160377871363,24.15098720214675,1204.762016261927,-10405.796634701192,9.92133348464304,1229.8408094916713,41518.40882704589,10.470622007207083,1257.4520345991502,-4712.07447474169,11.45056374953453,1638.2663369059237,3468.3868790077954,26.71732594405473,0.9736308892335748,117.0,58.0,81.0,398.0,479.0,59.0,,,61.0,28.0,33.0,0.4590163934426229,43.777339264110715,2997.7284985698984,19.0,15.0,4.0,0.7894736842105263,1256.1183591304186,5647.238175264478,24.0,12.0,12.0,0.5,2008.0382403848912,42095.70651555105,21.0,4.0,17.0,0.1904761904761904,847.5716471601737,14002.0347538664,62.0,29.0,33.0,0.4677419354838709,51.98023515527384,3664.4870712112897,,,,,1074.0,1133.0,1191.0,1209.0,1218.0,1242.0,1254.0,1272.0,1610.0,1670.0,0.012969848978293369,-0.12071332962067721,0.04836500957321892,-0.17987229440099978,0.014986861895332701
2,2,2757.836638537895,1619.2130846647487,10.491000837205558,2864.8219481012957,-10945.561322764128,13.814139863754352,2889.2018549781205,42867.15809944964,10.222863158580378,2918.153715115761,-6072.107922739692,22.93168860777651,3325.013603673333,1970.2135730598577,14.771869315324883,0.968160101789506,105.0,77.0,89.0,407.0,496.0,28.0,1662.0,1660.0,29.0,15.0,14.0,0.5172413793103449,60.327635023243495,1533.1417450911822,22.0,17.0,5.0,0.7727272727272727,1234.2806473473397,3986.599271871947,23.0,11.0,12.0,0.4782608695652174,1985.5576150936156,39951.06760384255,27.0,7.0,20.0,0.2592592592592592,709.8387529418625,14253.611271524464,37.0,17.0,20.0,0.4594594594594595,50.67293102440797,1933.221005037327,,,,,2744.0,2772.0,2849.0,2870.0,2878.0,2901.0,2911.0,2938.0,3308.0,3345.0,0.0372573786579387,-0.11276540425389912,0.046318853479561724,-0.11690153764948043,0.025719511690151402
3,3,3865.844050115812,2248.099868354062,17.31190589685148,3976.397287201152,-11166.141750692952,11.892951252687654,4001.4604642321615,41926.86010303299,10.462870667556322,4029.027373698993,-5371.483566457316,17.835757806037417,4410.343717599081,3167.3853677301604,21.505338561198656,0.971949250239464,115.0,72.0,86.0,391.0,477.0,43.0,1109.0,1112.0,43.0,20.0,23.0,0.4651162790697674,54.795407306916665,2277.2874958759853,20.0,15.0,5.0,0.75,1177.1688247109137,2858.67835870955,24.0,11.0,13.0,0.4583333333333333,1983.256887025971,41805.75137340123,24.0,5.0,19.0,0.2083333333333333,804.7360242407492,14590.346167918682,53.0,25.0,28.0,0.4716981132075472,51.37264097183712,3213.760073196214,,,,,3846.0,3889.0,3961.0,3981.0,3990.0,4014.0,4025.0,4047.0,4385.0,4438.0,0.02437409835668685,-0.1054230593694425,0.0473027763622705,-0.1498163429682614,0.01621925816013106
4,4,4410.517788025352,3295.103581979923,22.640308062409694,4518.408967126597,-10912.31797930334,10.309594760941106,4543.2392465890625,41603.62636657014,10.585916183184152,4572.602712798993,-4321.733879717399,11.161393438791128,4958.78813537224,3217.3056698031687,23.837222626271434,0.9706942304010512,119.0,65.0,83.0,402.0,485.0,54.0,544.0,542.0,55.0,27.0,28.0,0.4909090909090909,48.505935871298426,3278.442549067928,19.0,14.0,5.0,0.7368421052631579,1228.842521992256,4427.726245341566,24.0,11.0,13.0,0.4583333333333333,1989.738283812378,43781.82570533785,19.0,5.0,14.0,0.2631578947368421,660.8920091608037,11302.4584648675,59.0,29.0,30.0,0.4915254237288136,42.947532977690265,3340.3847344482965,,,,,4385.0,4439.0,4504.0,4523.0,4532.0,4556.0,4568.0,4587.0,4930.0,4989.0,0.014720610343348524,-0.11261058597475981,0.04782607809907641,-0.15292288409114627,0.01334891284368319
5,5,5870.424660900143,60.286367394804365,2.5479654008640567,6212.397287201151,-11107.513070919573,20.383723206912453,6236.942065577563,46713.57575132893,10.158504171830335,6271.821948101295,-6369.6468567375705,22.93168860777651,6714.153628521161,437.7633977688962,4.531672908870366,0.952524515638313,327.0,325.0,109.0,416.0,525.0,2.0,1461.0,1693.0,2.0,1.0,1.0,0.5,26.16648828261084,823.9721509986377,22.0,17.0,5.0,0.7727272727272727,1256.9330679263824,2478.58839120926,23.0,11.0,12.0,0.4782608695652174,2031.598292779232,40686.15829265066,62.0,13.0,49.0,0.2096774193548387,341.37617698389954,8462.619191794665,14.0,7.0,7.0,0.5,54.33090349418582,560.3803843071637,,,,,5869.0,5871.0,6196.0,6217.0,6226.0,6249.0,6259.0,6305.0,6707.0,6721.0,0.4340365726674375,-0.11316062019473482,0.043490532679280845,-0.053594207757813886,0.1241102014720476
6,6,6714.3870075830255,635.6321235961791,5.755883758749228,6823.397287201151,-12397.259148227811,15.600138973855437,6847.687678985448,45281.60291445565,10.408524286715744,6884.729018025508,-5318.643074002904,22.93168860777651,7076.588463502202,1337.164371710411,21.467612035035057,0.9747985402825038,101.0,84.0,92.0,212.0,304.0,17.0,844.0,611.0,17.0,8.0,9.0,0.4705882352941176,54.30419852237865,745.8639025059691,22.0,17.0,5.0,0.7727272727272727,1290.1504818807036,2973.773373221205,23.0,11.0,12.0,0.4782608695652174,2020.833483914369,42286.120830901134,39.0,14.0,25.0,0.358974358974359,272.6114877373412,6418.948691438494,71.0,37.0,34.0,0.5211267605633803,21.965599733232633,1286.71646405734,,,,,6706.0,6723.0,6807.0,6828.0,6837.0,6860.0,6872.0,6899.0,7041.0,7111.0,0.08543337648692914,-0.10406739638617063,0.04462813491236284,-0.051255834231449755,0.016427000448071848
7,7,7387.798928851018,2326.8781860421573,28.862846131298888,7496.531811101129,-10446.321498297131,9.696836389308196,7522.2631822392605,41863.657984265636,10.197250256263429,7549.027373698993,-5321.736766764919,14.00214477975476,7745.9902400919,3360.541398195252,42.29782674461752,0.989728561559782,116.0,65.0,84.0,233.0,317.0,51.0,676.0,674.0,52.0,22.0,30.0,0.4230769230769231,50.73107726876305,2804.987327466621,19.0,14.0,5.0,0.7368421052631579,1237.969858452606,4446.31492728917,23.0,11.0,12.0,0.4782608695652174,2068.688667785921,42155.23304497851,22.0,4.0,18.0,0.1818181818181818,845.2720170338905,14981.737828427336,108.0,54.0,54.0,0.5,24.040177314733015,3257.88256855954,,,,,7367.0,7418.0,7483.0,7502.0,7511.0,7534.0,7545.0,7567.0,7692.0,7800.0,0.02180220587956637,-0.11850773103761063,0.049414904654615545,-0.1588338645971268,0.007153662004474509
8,8,8039.937294278411,2067.45633950897,14.63282860252197,8145.914753424275,-11033.471274136218,11.29067863953043,8170.916290968349,42515.0710278548,10.152827544693771,8196.027373698993,-6175.3076473972815,17.605190954623833,8389.325493783945,3012.930842305961,34.24092572894476,0.9920887214416688,111.0,73.0,84.0,223.0,307.0,38.0,648.0,649.0,38.0,19.0,19.0,0.5,50.60567788263906,1953.573710934772,20.0,15.0,5.0,0.75,1232.9241940706663,3513.6187406627546,22.0,11.0,11.0,0.5,2076.2156034610643,40012.87572650256,26.0,4.0,22.0,0.1538461538461538,980.6513381363068,17717.261015994744,95.0,45.0,50.0,0.4736842105263157,23.531600083971774,2808.5728170434295,,,,,8021.0,8059.0,8132.0,8151.0,8160.0,8182.0,8192.0,8216.0,8344.0,8439.0,0.024477265572949478,-0.11174399818856544,0.04883481441441743,-0.15880202155590156,0.0078102025288976605
9,9,8696.889571747473,2250.5793568618096,18.12382786986726,8806.67555778915,-11740.948499446584,10.915785691464537,8831.676442957281,43234.98022602455,10.715248249942515,8861.60271279885,-4342.675736230589,13.3140429242875,9053.999294994228,2752.30421534408,39.54201073898171,0.9935474028033636,113.0,73.0,84.0,231.0,315.0,40.0,658.0,661.0,41.0,19.0,22.0,0.4634146341463415,56.24700077700796,2428.4611243286668,20.0,16.0,4.0,0.8,1330.1439958299031,5729.882248934512,24.0,12.0,12.0,0.5,2027.7255143165823,43686.4086991965,20.0,5.0,15.0,0.25,641.5156128379684,11275.00592071136,106.0,53.0,53.0,0.5,25.896129908041168,2632.977288960916,,,,,8679.0,8719.0,8792.0,8811.0,8820.0,8844.0,8857.0,8876.0,9001.0,9107.0,0.024992231713810056,-0.11329101698151561,0.046900114299023736,-0.1477235814513748,0.009408890835420878
10,10,9358.37193965012,2185.183082902427,23.673528130068696,9469.22562472592,-11448.24752280732,10.40674940277375,9494.485165326152,43130.81541120078,10.709098507592042,9524.60271279885,-3856.04954789916,11.289145327090212,9713.178013738476,3327.112447169496,48.75822371638538,0.9956382414302012,116.0,72.0,84.0,235.0,319.0,44.0,660.0,663.0,44.0,19.0,25.0,0.4318181818181818,56.08821399219822,2573.7359836844867,20.0,15.0,5.0,0.75,1268.4370530947926,4416.732119995343,24.0,11.0,13.0,0.4583333333333333,2033.4093167013536,46173.85480825046,19.0,5.0,14.0,0.2631578947368421,626.3876496755527,10519.300823020583,124.0,62.0,62.0,0.5,25.68219019109015,3131.095759755166,,,,,9339.0,9383.0,9455.0,9474.0,9483.0,9507.0,9520.0,9539.0,9654.0,9774.0,0.025667512452869686,-0.11079748673915366,0.047145162856654245,-0.16244284257623687,0.007719062880768874
11,11,10045.775355062591,2002.940084982789,14.830281371542458,10153.472621047322,-11298.911322886888,10.91825886617803,10179.06740399417,43383.37718007035,10.380180328760536,10207.60271279885,-4304.216729660026,20.383723169932814,10402.909728465267,3688.723016251136,39.09012455491489,0.9946716859044809,110.0,75.0,87.0,229.0,316.0,35.0,690.0,684.0,35.0,17.0,18.0,0.4857142857142857,60.22959835451696,2078.3066896614228,20.0,14.0,6.0,0.7,1188.342368939719,2034.5904796473776,23.0,11.0,12.0,0.4782608695652174,2047.4883340998704,42897.08135008856,23.0,5.0,18.0,0.217391304347826,687.7121919643276,12564.676105827051,104.0,51.0,53.0,0.4903846153846153,24.070782128867236,3446.637298088378,,,,,10029.0,10064.0,10139.0,10159.0,10168.0,10191.0,10203.0,10226.0,10352.0,10455.0,0.03007059412615156,-0.10517317420950392,0.04719522700137911,-0.15977638561398544,0.00652550544533172
12,12,10718.78421024362,2158.098535735617,15.80003649052157,10824.568803219605,-10579.744296206994,10.72831935339289,10850.31976251326,41758.435231251366,10.000302371169242,10876.027373698991,-5910.1405698857,16.742785452328754,11072.446413824086,3871.699790765172,36.639179473812895,0.9931377433750838,110.0,72.0,84.0,227.0,311.0,38.0,673.0,671.0,38.0,18.0,20.0,0.4736842105263157,54.71439518372618,2187.4721075932284,19.0,14.0,5.0,0.7368421052631579,1193.8332392311345,3122.7303469488807,23.0,11.0,12.0,0.4782608695652174,2072.2962065664537,40631.81889989377,25.0,5.0,20.0,0.2,913.9971184080936,16666.914569254302,97.0,47.0,50.0,0.4845360824742268,27.52769395692773,3736.1916783418415,,,,,10701.0,10739.0,10811.0,10830.0,10839.0,10862.0,10872.0,10895.0,11025.0,11122.0,0.025353056997963273,-0.1128414076755279,0.04962581081140654,-0.15464896436900993,0.0071099763526570785
13,13,11357.53429812248,1203.4335405736776,8.685931789374301,11468.39728720115,-11533.537514835372,13.719683836351814,11493.035550176184,45075.10288246846,10.420754305089638,11521.178051898703,-5475.456690092276,22.93168860777651,11714.241836415242,2753.311734107315,30.36636016155164,0.988535583250332,108.0,82.0,89.0,218.0,307.0,26.0,637.0,643.0,26.0,13.0,13.0,0.5,54.65047063325995,1125.5371686782223,21.0,16.0,5.0,0.7619047619047619,1237.4219703187885,3116.49698985574,23.0,11.0,12.0,0.4782608695652174,2051.3693978610563,42306.26592748311,28.0,5.0,23.0,0.1785714285714285,794.1168384387182,15057.042640358042,90.0,44.0,46.0,0.4888888888888889,20.302284054670007,2461.678740649566,,,,,11345.0,11371.0,11453.0,11473.0,11482.0,11505.0,11516.0,11542.0,11670.0,11760.0,0.0454121218918396,-0.1072890228801975,0.04551003251639648,-0.14503207374019703,0.0073737687611506375
14,14,12018.93392812667,2128.147129207337,17.11087903059283,12124.727031357852,-11460.073733918793,10.494096788095217,12150.38970905071,43727.67826756705,10.683913923187664,12181.178051898703,-3655.230272502219,17.71517783382786,12373.59541678539,3078.7312555867375,37.17204201329277,0.99345717266978,112.0,72.0,86.0,227.0,313.0,40.0,663.0,658.0,40.0,20.0,20.0,0.5,49.131503848862614,2132.5790950179226,20.0,15.0,5.0,0.75,1289.1859048064644,4826.089619652132,24.0,11.0,13.0,0.4583333333333333,2025.235748810887,45373.33338127852,21.0,5.0,16.0,0.238095238095238,603.3646952945561,10698.04839063256,100.0,50.0,50.0,0.5,26.783912989089973,2890.921593952176,,,,,11999.0,12039.0,12111.0,12129.0,12139.0,12163.0,12176.0,12197.0,12324.0,12424.0,0.023086516516911328,-0.11249368326408009,0.04631473311751405,-0.16506886032149148,0.008699659296499901
15,15,12665.312818180431,1533.859045129882,12.030780934844492,12773.39728720115,-12107.99232699243,11.743802645756883,12798.699821372478,44179.69725150854,10.749409394985465,12828.60271279885,-4239.789307358456,20.38372320688672,13020.407167137731,3070.280678323002,31.58139820535185,0.9914267453576996,109.0,76.0,88.0,219.0,307.0,33.0,645.0,648.0,33.0,16.0,17.0,0.4848484848484848,46.981071935533855,1506.6004654213964,20.0,15.0,5.0,0.75,1247.9403675650378,2969.3110264897196,24.0,12.0,12.0,0.5,2011.959284990155,43198.54411745655,23.0,5.0,18.0,0.217391304347826,643.3952462354675,11696.958233028656,88.0,42.0,46.0,0.4772727272727273,21.49762507879503,2784.703902933121,,,,,12649.0,12682.0,12758.0,12778.0,12787.0,12811.0,12824.0,12846.0,12979.0,13065.0,0.03062932808898073,-0.10306748913137283,0.04554035926358584,-0.15175170264211224,0.007001843587322155
16,16,,,,,,,,,,,,,,,,,,,,,,,,,,,,,,,,,,,,,,,,,,,,,,,,,,,,,,,,,,,,13062.0,13384.0,13406.0,13415.0,13437.0,13447.0,13491.0,13613.0,13676.0,,,,,
17,17,,,,,,,,,,,,,,,,,,,,,,,,,,,,,,,,,,,,,,,,,,,,,,,,,,,,,,,,,,,,13669.0,13990.0,14013.0,14021.0,14043.0,14052.0,14098.0,14225.0,14267.0,,,,,
18,18,,,,,,,,,,,,,,,,,,,,,,,,,,,,,,,,,,,,,,,,,,,,,,,,,,,,,,,,,,,,,,,,,,,,,,,,,
19,19,14860.150678199714,85.39124298518107,4.7140527927076485,15210.821948101297,-12226.281980802034,18.28697578435649,15235.823944098767,46021.97105521456,10.40372685080111,15272.821948101297,-6071.29311223519,22.93168860777651,15452.079849700049,1149.475073230611,14.735115144525787,0.9570103388715608,341.0,331.0,141.0,140.0,281.0,10.0,2197.0,2437.0,16.0,13.0,3.0,0.8125,21.87823145232969,8.687860622967435,23.0,18.0,5.0,0.782608695652174,1296.2803308159696,2612.1696313871944,23.0,11.0,12.0,0.4782608695652174,2002.972935208785,41603.82896385499,83.0,14.0,69.0,0.1686746987951807,264.8738919546464,7247.702498507926,46.0,23.0,23.0,0.5,25.40054802843275,1012.068941046828,,,,,14853.0,14863.0,15194.0,15216.0,15225.0,15248.0,15260.0,15335.0,15429.0,15475.0,0.25621165224315184,-0.10602408261574667,0.04352210236292859,-0.0436272614512481,0.022097519659164296
20,20,,,,,,,,,,,,,,,,,,,,,,,,,,,,,,,,,,,,,,,,,,,,,,,,,,,,,,,,,,,,15488.0,15811.0,15833.0,15842.0,15865.0,15877.0,15962.0,16044.0,16102.0,,,,,
21,21,,,,,,,,,,,,,,,,,,,,,,,,,,,,,,,,,,,,,,,,,,,,,,,,,,,,,,,,,,,,16105.0,16429.0,16450.0,16459.0,16481.0,16491.0,16523.0,16652.0,16715.0,,,,,
22,22,,,,,,,,,,,,,,,,,,,,,,,,,,,,,,,,,,,,,,,,,,,,,,,,,,,,,,,,,,,,16715.0,17043.0,17066.0,17074.0,17096.0,17105.0,17152.0,17277.0,17324.0,,,,,
23,23,17587.35078103349,1604.1041702814548,11.984011541602053,17696.397287201147,-12073.793725923542,12.907827254847424,17720.96508754035,44904.60844905689,10.757561791200915,17749.602712909746,-4985.319303434073,20.38372320672845,17939.36996811884,3580.062650991688,27.559854165551975,0.9912712255880988,108.0,77.0,87.0,209.0,296.0,31.0,2725.0,2485.0,32.0,15.0,17.0,0.46875,51.30081773450931,1603.8037372021972,21.0,16.0,5.0,0.7619047619047619,1277.1511286673224,4212.258466786125,24.0,11.0,13.0,0.4583333333333333,2020.4517632638428,43435.460356909214,25.0,5.0,20.0,0.2,743.0983465300767,13576.7732131642,76.0,37.0,39.0,0.4868421052631579,26.83842897938592,3318.453266745187,,,,,17573.0,17604.0,17681.0,17701.0,17710.0,17734.0,17745.0,17768.0,17902.0,17977.0,0.031980976475803384,-0.10577877655182744,0.044994307556561655,-0.14905732237014446,0.007496636678118356
24,24,18249.776201327088,1966.0002414414737,20.469243000682784,18359.397287201147,-11488.580209695065,10.762202015138612,18384.44909210544,43015.289114529405,10.800330075876388,18414.602712798853,-4058.694049409669,12.72748165810873,18602.996874123597,4482.850598883496,36.30131327353363,0.9961349470048416,112.0,73.0,85.0,217.0,302.0,39.0,669.0,664.0,41.0,18.0,23.0,0.4390243902439024,53.54154911158703,2337.2055296401927,20.0,15.0,5.0,0.75,1256.8514498604188,4416.5436151976755,24.0,11.0,13.0,0.4583333333333333,2014.6466164758965,45663.61720118168,20.0,5.0,15.0,0.25,625.0786331003595,10770.133124120808,87.0,43.0,44.0,0.4942528735632184,27.947893438213303,4476.6755863593335,,,,,18233.0,18272.0,18345.0,18364.0,18373.0,18397.0,18410.0,18430.0,18560.0,18647.0,0.027233744931959063,-0.10940006745130944,0.04683559399337858,-0.15400979366534817,0.006234402155890281
25,25,18996.6312680715,1657.8974879323257,11.561808646370729,19099.972626301005,-11776.006627046329,11.125665949235644,19125.168285479605,44040.97777561097,10.822392486196511,19155.027373698995,-3922.1312910101233,17.8357578060483,19345.9879749413,3999.613627782814,32.598804513438665,0.9954699153339428,103.0,73.0,86.0,217.0,303.0,30.0,742.0,740.0,30.0,15.0,15.0,0.5,61.50534577577561,1664.6784997617776,21.0,16.0,5.0,0.7619047619047619,1293.9537931475818,5081.109041740869,24.0,11.0,13.0,0.4583333333333333,2018.7700282698377,44963.18838055762,23.0,5.0,18.0,0.217391304347826,668.1124177609411,11695.750255902463,84.0,42.0,42.0,0.5,25.9880954955021,3762.3379277905983,,,,,18982.0,19012.0,19085.0,19104.0,19114.0,19138.0,19151.0,19171.0,19304.0,19388.0,0.037098400970788016,-0.10988052521775225,0.04583844706072337,-0.17034422567452412,0.006497651501879846
26,26,19750.824644080625,1771.33747580736,13.58237321337038,19853.52653367761,-11550.283637975685,10.582195821057924,19879.163284225622,43890.12864983813,10.716123670268749,19909.602712798853,-3465.859682223108,20.383723206911572,20097.707586406807,4492.526523871679,34.16108682988989,0.9966815595819378,105.0,73.0,86.0,214.0,300.0,32.0,752.0,754.0,32.0,16.0,16.0,0.5,58.139829522621966,1818.9638758645556,20.0,15.0,5.0,0.75,1308.1068244062333,5199.391108227792,24.0,11.0,13.0,0.4583333333333333,2011.5097821396907,44678.2868239837,21.0,5.0,16.0,0.238095238095238,580.3263944109395,10323.192246551444,82.0,40.0,42.0,0.4878048780487805,30.710940508513296,4462.139841377024,,,,,19735.0,19767.0,19840.0,19858.0,19868.0,19892.0,19905.0,19926.0,20058.0,20140.0,0.03282255940309869,-0.11325322090839092,0.04583057384469775,-0.1674408220816085,0.006836006497752733
27,27,20508.825809094385,1541.1175165188697,10.65976366888471,20609.729048820253,-11308.8364841542,11.20946293464327,20634.953023433605,43158.32931660859,10.283939222860624,20662.027373698995,-5182.332593158052,17.83575779963463,20851.84665515663,5163.035981130861,32.79546161662797,0.9945140460753126,101.0,73.0,85.0,214.0,299.0,28.0,760.0,756.0,28.0,14.0,14.0,0.5,59.751518393746366,1497.4459730545352,20.0,15.0,5.0,0.75,1265.2841170033798,4020.823349908684,23.0,11.0,12.0,0.4782608695652174,2076.645131898528,41886.184277413704,25.0,5.0,20.0,0.2,832.5398445674381,15094.414618371367,84.0,41.0,43.0,0.4880952380952381,33.014020294433216,5019.314105330868,,,,,20495.0,20523.0,20596.0,20615.0,20624.0,20647.0,20658.0,20681.0,20812.0,20895.0,0.038771552301031,-0.11188455317894816,0.04811690268787522,-0.16064963597021822,0.006394303742040192
28,28,21229.330833006956,1712.4862762021623,14.09745822727442,21332.66680376886,-10934.263615817768,10.824616292592724,21358.12247447122,42867.96053956712,10.3088339790174,21384.45203459914,-5660.3537977121105,15.28779239700876,21576.373123478283,5278.703216448735,32.778924274960694,0.994754451246032,104.0,73.0,84.0,216.0,300.0,31.0,721.0,723.0,33.0,15.0,18.0,0.4545454545454545,60.39797805752432,1832.4722142592916,20.0,15.0,5.0,0.75,1249.9110608927433,4337.703763663591,23.0,11.0,12.0,0.4782608695652174,2084.406543868968,42176.60888453599,25.0,4.0,21.0,0.16,937.9282809073964,16567.775901107027,85.0,42.0,43.0,0.4941176470588235,26.500886444392684,5124.282156778954,,,,,21215.0,21246.0,21319.0,21338.0,21347.0,21370.0,21381.0,21403.0,21535.0,21619.0,0.03526917493988385,-0.11431140722495403,0.04862387941094285,-0.165701352676312,0.0050203402914970555
29,29,21945.84111778496,1507.3847069278545,22.250964368034374,22049.397287201147,-11132.685791282647,10.153026632378428,22075.06858464736,43637.03294052646,10.7116359753713,22105.602712798853,-3800.442383961662,11.217873173720877,22295.26750282303,5242.231303540176,38.9935328886627,0.9953422997001096,104.0,69.0,84.0,221.0,305.0,35.0,719.0,717.0,36.0,15.0,21.0,0.4166666666666667,50.1951692963444,1943.18306629394,19.0,14.0,5.0,0.7368421052631579,1233.0324319765252,3818.695356289092,25.0,12.0,13.0,0.48,2030.296841557992,45590.24483645923,19.0,5.0,14.0,0.2631578947368421,602.3692006165833,10212.02202332364,94.0,47.0,47.0,0.5,29.22285532267348,5386.02262739173,,,,,21932.0,21967.0,22036.0,22054.0,22063.0,22088.0,22101.0,22120.0,22249.0,22341.0,0.03329950812533142,-0.11075785799524142,0.046526922312181786,-0.1584997586487973,0.005574507043010244
30,30,22659.808138396547,1503.4311938618207,61.151169620737264,22769.972626301005,-11095.518054006556,10.006173409813169,22795.722155826516,43983.81840416608,10.686716236136332,22827.027373698995,-2980.0350964947547,9.156419649489864,23013.682519537735,5364.772359360842,39.422748236585704,0.995121422202084,114.0,63.0,82.0,220.0,302.0,51.0,721.0,721.0,71.0,31.0,40.0,0.4366197183098591,45.00939615672962,2535.665469351011,19.0,14.0,5.0,0.7368421052631579,1273.944726116852,4946.260508920814,25.0,12.0,13.0,0.48,2019.8814499756315,45569.00320573405,17.0,4.0,13.0,0.2352941176470588,575.2680509609272,9143.8845202933,89.0,44.0,45.0,0.4943820224719101,30.149413918418123,5497.577931663456,,,,,22643.0,22694.0,22757.0,22774.0,22784.0,22809.0,22823.0,22839.0,22970.0,23059.0,0.029937782547344433,-0.1148161554887322,0.0459232855004765,-0.19304069661380238,0.005619886902714754
31,31,23391.07544728565,1846.4288961432535,16.155948294367427,23496.397287201147,-11478.719542932073,10.620550162493386,23521.595038421943,44098.13565789148,10.8874179601058,23552.027373698995,-3556.6339694065346,13.394287840048642,23738.936749245375,4937.048261202655,37.05584330555028,0.9973815503944764,107.0,73.0,85.0,217.0,302.0,34.0,723.0,726.0,34.0,16.0,18.0,0.4705882352941176,60.004085307884026,2041.4619633000889,20.0,15.0,5.0,0.75,1271.278997373183,4847.532791115414,25.0,12.0,13.0,0.48,2018.0754812579405,44663.135067564566,20.0,4.0,16.0,0.2,640.726187242979,10761.72305614726,90.0,45.0,45.0,0.5,33.23523331981053,5138.565675418678,,,,,23375.0,23409.0,23482.0,23501.0,23510.0,23535.0,23548.0,23567.0,23695.0,23784.0,0.03249737124089541,-0.11075094156786526,0.04576328343932609,-0.18014960008659298,0.006731802397190765
32,32,24130.38441215833,2028.741182560776,16.378445659575135,24234.239582780345,-11566.85722934975,10.914867491196713,24259.73053116944,44234.28629106469,10.792392138309724,24289.602712798853,-3581.347617053263,18.002203886472188,24478.2226841059,5601.151611358425,35.465386118851704,0.9969519254225702,107.0,71.0,86.0,218.0,304.0,36.0,737.0,738.0,36.0,17.0,19.0,0.4722222222222222,63.75003023831318,2222.210070488857,20.0,15.0,5.0,0.75,1260.6603864373562,4138.72893067579,25.0,12.0,13.0,0.48,2018.2144732853703,44149.435715720254,22.0,5.0,17.0,0.2272727272727272,631.9464054119027,10966.764504478222,89.0,43.0,46.0,0.4831460674157303,31.698692887137863,5487.487611495099,,,,,24113.0,24149.0,24220.0,24239.0,24248.0,24273.0,24285.0,24306.0,24436.0,24524.0,0.03142344168211974,-0.10898901589608592,0.04562556881793861,-0.17645491948415465,0.005659317063094121
33,33,24850.49234565087,2137.1100351713226,22.721088390449633,24954.705349569245,-10357.245281492942,9.60925614903499,24980.806500190494,41745.19702409205,10.06495304587881,25008.602712798853,-4703.586136751357,12.818238306738492,25196.563058889016,6314.790496888064,37.181564503088026,0.9953491278990638,111.0,67.0,83.0,217.0,300.0,44.0,721.0,721.0,45.0,19.0,26.0,0.4222222222222222,52.79292033045062,2514.614595359385,18.0,13.0,5.0,0.7222222222222222,1193.4501570508298,3192.616933155754,24.0,12.0,12.0,0.5,2070.6997258932142,41528.51151179189,21.0,5.0,16.0,0.238095238095238,713.5206133909467,12695.738285250784,89.0,44.0,45.0,0.4943820224719101,39.17564284591808,6410.1917251065925,,,,,24831.0,24875.0,24942.0,24960.0,24969.0,24993.0,25004.0,25025.0,25153.0,25242.0,0.02470294905812767,-0.11522853081247104,0.049603304655579154,-0.15169715035425216,0.006203791379179385
34,34,25550.150079568884,2315.631556151179,25.017303141571062,25658.656076617677,-10081.907410618389,9.569234933791368,25684.610726456125,42840.47009817396,10.351577004053134,25712.027373698995,-4560.981225893922,11.008060409315837,25901.24720392474,6097.53899494992,41.07835852486913,0.9957160736631974,125.0,70.0,81.0,221.0,302.0,55.0,704.0,704.0,59.0,31.0,28.0,0.5254237288135594,55.644926505543545,2755.6740358840425,19.0,14.0,5.0,0.7368421052631579,1228.4668969700656,4921.1852917522965,24.0,12.0,12.0,0.5,2062.4979609041307,42601.25352454781,20.0,4.0,16.0,0.2,827.9854605182512,13811.458365502833,93.0,46.0,47.0,0.4946236559139785,34.61579685409336,6334.319147689404,,,,,25521.0,25576.0,25646.0,25663.0,25673.0,25697.0,25708.0,25727.0,25856.0,25948.0,0.02403012964550855,-0.12184865888336062,0.04814368180782505,-0.18153669561662614,0.005677011148721266
35,35,26265.023530379138,1974.2061130862792,14.80398702519742,26372.397287201147,-11830.243897106697,10.936545576503566,26397.964982250385,44367.85118594815,10.89703088077218,26428.027373698995,-4057.087893717984,17.835757806047543,26617.97271517427,4854.048990265992,32.93023911454481,0.9967548663838692,108.0,76.0,87.0,214.0,301.0,32.0,713.0,713.0,32.0,15.0,17.0,0.46875,68.88520886038083,2174.623516832888,20.0,15.0,5.0,0.75,1254.7225128430837,3702.6353473067384,25.0,12.0,13.0,0.48,2014.8826130492896,44719.68855528083,23.0,5.0,18.0,0.217391304347826,668.4659035995406,11800.15917591695,82.0,41.0,41.0,0.5,32.78741522520644,4867.4005988872805,,,,,26250.0,26282.0,26358.0,26377.0,26386.0,26411.0,26424.0,26445.0,26578.0,26659.0,0.034892612480412435,-0.106060578611566,0.04541312141993994,-0.16476495484226425,0.0067546527220792955
36,36,27033.670679444203,1575.3290367895634,10.923911307656066,27139.397287201147,-12194.240426779928,11.584883281888114,27164.41186783701,44985.570642954415,11.008659937475048,27194.6382724295,-4045.2730109561694,20.38372320687769,27385.524655974248,4948.823726350912,31.336616207312183,0.99616518386814,104.0,76.0,89.0,213.0,302.0,28.0,765.0,767.0,29.0,14.0,15.0,0.4827586206896552,61.650928453729854,1487.343835430761,21.0,16.0,5.0,0.7619047619047619,1286.5843552664946,4577.971341178491,24.0,11.0,13.0,0.4583333333333333,2018.7418548846997,46079.74629862384,26.0,5.0,21.0,0.1923076923076923,638.9186269040154,11445.939127525178,80.0,40.0,40.0,0.5,33.80554042309265,4801.0334196049425,,,,,27020.0,27048.0,27124.0,27144.0,27153.0,27177.0,27190.0,27213.0,27346.0,27426.0,0.039135270799915654,-0.10550754374507905,0.04487531948649122,-0.157942028924519,0.006831025369339568
37,37,27800.824952232477,1449.1255208867728,9.756195171023782,27904.397287201147,-10801.62372655742,12.242370069178715,27929.091550375266,43755.53119690423,10.28998430071574,27955.602712798853,-5597.163924310232,20.383723206912453,28147.63060778938,5752.250990611808,30.5563544313663,0.993945989134768,101.0,75.0,87.0,210.0,297.0,26.0,769.0,764.0,26.0,13.0,13.0,0.5,61.20330199299263,1380.4423348894552,20.0,15.0,5.0,0.75,1203.5489562310463,3529.635938386556,23.0,11.0,12.0,0.4782608695652174,2055.8304676889184,41512.24718675117,27.0,5.0,22.0,0.1851851851851851,851.9589133855193,15819.6552223279,78.0,39.0,39.0,0.5,38.76495477300635,5653.2849235492995,,,,,27788.0,27814.0,27889.0,27909.0,27918.0,27941.0,27951.0,27976.0,28109.0,28186.0,0.042234645039954916,-0.1114229662779254,0.046984470567560416,-0.15221260711790047,0.0067390930674399024
38,38,28551.759400665145,1660.816329961342,14.556406185901754,28657.875131726596,-10768.736530103675,10.940318019633205,28683.982624263834,44224.82613153842,10.365147887505769,28711.602712798853,-4722.531933988419,20.38372318597407,28903.91741883003,5350.077260576032,32.11544700315945,0.9956754289054168,108.0,75.0,86.0,214.0,300.0,33.0,753.0,755.0,34.0,16.0,18.0,0.4705882352941176,53.517119173777395,1752.8622556595144,19.0,14.0,5.0,0.7368421052631579,1202.8043930198153,3135.3425840224418,24.0,12.0,12.0,0.5,2066.338631009453,42814.67956150636,23.0,5.0,18.0,0.217391304347826,783.6437046582702,14112.484524942674,80.0,40.0,40.0,0.5,38.777131745942825,5250.512574377039,,,,,28536.0,28569.0,28644.0,28663.0,28672.0,28696.0,28707.0,28730.0,28864.0,28944.0,0.03222338208525628,-0.1116941054001472,0.04672349925952264,-0.16593719547311628,0.0072479573391745315
39,39,29315.471312118185,1124.7252039161726,9.605373389308232,29421.397287201147,-11981.3211835593,11.373799074955496,29447.30461167478,44721.331485876675,10.838199861234571,29477.602712798853,-3714.589835367572,19.12315017472925,29667.657317065656,5110.396742273334,30.49572023852934,0.9957358981362264,104.0,78.0,87.0,213.0,300.0,26.0,760.0,763.0,26.0,12.0,14.0,0.4615384615384615,49.63335164561727,1101.4424010436453,20.0,15.0,5.0,0.75,1234.4877094276485,2663.8681886819286,24.0,11.0,13.0,0.4583333333333333,2024.4375539684763,45856.40397985607,22.0,5.0,17.0,0.2272727272727272,621.0497512117508,10923.499336336468,78.0,39.0,39.0,0.5,31.57566580899423,4972.989781944298,,,,,29303.0,29329.0,29407.0,29426.0,29436.0,29460.0,29473.0,29494.0,29630.0,29707.0,0.04412931396291223,-0.10303435577051431,0.045267828275815276,-0.167192012775832,0.006178711243258181
40,40,30060.761283519467,1535.6520441440332,16.17833410632779,30167.268389631136,-11609.5170282077,11.007478614713882,30192.700422180587,44393.6328831582,10.802060993516392,30222.602712798853,-3869.3772487962583,16.80127707594553,30412.343337628703,5704.348415936206,34.616259838479316,0.9957166400540076,107.0,73.0,85.0,216.0,301.0,34.0,747.0,746.0,34.0,15.0,19.0,0.4411764705882353,51.396970418009225,1732.184634828008,20.0,15.0,5.0,0.75,1262.0733068684854,4310.746521790274,25.0,12.0,13.0,0.48,2028.1093781816403,44239.216313987024,21.0,5.0,16.0,0.238095238095238,645.4480313279764,11216.523606498971,82.0,40.0,42.0,0.4878048780487805,34.29316633926458,5786.0522811982155,,,,,30046.0,30080.0,30153.0,30172.0,30181.0,30206.0,30218.0,30238.0,30372.0,30454.0,0.03346915117523105,-0.10871023349223054,0.04568469049423195,-0.1668092795885363,0.006011758721374725
41,41,30736.00774227651,1839.9738440416436,20.167329273151378,30839.243009091475,-11470.423298569502,10.452201766318248,30864.95463787443,44105.79066465295,10.846119257669336,30895.027373698995,-3600.5911370876943,17.81248329807741,31082.2416777302,5663.186291317363,31.796184115201655,0.9968998072090184,113.0,67.0,86.0,211.0,297.0,46.0,680.0,672.0,52.0,29.0,23.0,0.5576923076923077,44.73861463545494,2090.6499815607885,19.0,14.0,5.0,0.7368421052631579,1253.5533881141669,4148.120887214407,25.0,12.0,13.0,0.48,2006.462749552824,44639.13078142972,21.0,4.0,17.0,0.1904761904761904,656.6871989802917,11360.103370692956,78.0,38.0,40.0,0.4871794871794871,35.0071490664053,5651.413012079516,,,,,30712.0,30758.0,30825.0,30844.0,30853.0,30878.0,30891.0,30911.0,31044.0,31122.0,0.024314810115552046,-0.10928571295799519,0.04549204808068057,-0.18238316264685558,0.006181528783553751
42,42,31399.51531357475,1018.9325892680488,8.333281525713199,31503.397287201147,-11382.8714913954,12.02290375801946,31528.47772122021,44195.34653983289,10.364406451025316,31555.602712798853,-5687.451523096997,20.38372320676476,31745.748484459487,6174.147434303986,28.886536175206327,0.9909632324510992,100.0,78.0,87.0,208.0,295.0,22.0,658.0,664.0,22.0,11.0,11.0,0.5,52.795129282675894,937.2127063104232,20.0,15.0,5.0,0.75,1216.0923981642527,2696.9535078027934,23.0,11.0,12.0,0.4782608695652174,2080.5644364493496,43150.32603982795,26.0,5.0,21.0,0.1923076923076923,820.4528815400292,15418.182141273748,75.0,37.0,38.0,0.4933333333333333,46.55374673290062,6136.466566706349,,,,,31389.0,31411.0,31489.0,31508.0,31517.0,31540.0,31551.0,31576.0,31709.0,31784.0,0.05181415320183382,-0.10683529187547515,0.047076549893644445,-0.14425668125840424,0.007540109339508935
43,43,32068.84455338971,2169.5433836298175,23.525146689067572,32177.443509641012,-10135.944887491954,9.80613422389232,32203.77393293864,42292.36476298746,10.073722097139656,32230.027373698995,-5399.434561164506,16.340000895223458,32419.233721081982,6170.3917080135125,33.62669641129445,0.996405527816456,115.0,71.0,83.0,214.0,297.0,44.0,672.0,675.0,46.0,20.0,26.0,0.4347826086956521,53.65500758502559,2667.2467153745984,19.0,13.0,6.0,0.6842105263157895,1105.1078359435803,1538.6630941013475,23.0,12.0,11.0,0.5217391304347826,2060.0646899192607,40162.01047777843,24.0,4.0,20.0,0.1666666666666666,878.9752327789779,15757.18134237456,84.0,41.0,43.0,0.4880952380952381,33.54502747381145,6089.477204736744,,,,,32050.0,32094.0,32165.0,32183.0,32192.0,32215.0,32226.0,32248.0,32378.0,32462.0,0.024731013903606075,-0.10902859557842653,0.04871008517646534,-0.16279023716687246,0.0054364502386852346
44,44,32792.348637628085,1771.0349701248026,17.803178429297507,32901.39728720114,-11313.879903180155,10.30301470979222,32927.347589571174,43682.961775709955,10.802186778923277,32957.027373699,-3791.7426351488143,12.318887136924864,33147.048743129475,5256.811040955727,33.08229166901645,0.9973658396162464,113.0,74.0,83.0,218.0,301.0,39.0,723.0,724.0,39.0,17.0,22.0,0.4358974358974359,47.69189671578668,1957.7184372404583,19.0,14.0,5.0,0.7368421052631579,1225.909591199926,3344.214360934975,24.0,11.0,13.0,0.4583333333333333,2017.2939787610312,46028.80846018583,19.0,4.0,15.0,0.2105263157894736,696.7544079427488,11552.043120348382,82.0,40.0,42.0,0.4878048780487805,38.140370506235314,5222.861289395961,,,,,32775.0,32814.0,32888.0,32906.0,32916.0,32940.0,32953.0,32971.0,33107.0,33189.0,0.026928828351947164,-0.1083544815475142,0.046180338895490225,-0.18375572262841708,0.007255419722924094
45,45,33608.18488579666,1552.4962840480798,10.7020263226552,33715.39728719953,-12033.214504868103,11.32930821771889,33740.45479722538,45358.44310712495,10.932889684797486,33771.178051898714,-3870.056066049927,22.93168860775221,33963.14401797362,5159.817797788982,29.399089790556857,0.995961090893374,106.0,78.0,89.0,212.0,301.0,28.0,814.0,813.0,29.0,14.0,15.0,0.4827586206896552,59.23982914024603,1534.3773069644544,20.0,15.0,5.0,0.75,1297.7508337478712,4396.917394919235,24.0,11.0,13.0,0.4583333333333333,2033.172428691657,46414.76733477175,26.0,5.0,21.0,0.1923076923076923,631.6960392870074,11487.499378111655,77.0,38.0,39.0,0.4935064935064935,32.45994627532816,4893.476547157364,,,,,33595.0,33623.0,33701.0,33720.0,33729.0,33753.0,33766.0,33790.0,33925.0,34002.0,0.03815779126103944,-0.10784739466107406,0.04482456383897101,-0.1632265859992474,0.006290909397854605
46,46,34439.038274091596,1346.8403287021406,9.364488357514189,34544.34419666057,-10855.147532502317,11.60254281527058,34569.0969667015,42845.39753662433,10.239155675516106,34595.02737369905,-6129.581538763069,17.835757802142005,34788.16536075981,5963.420400200401,32.789549100988374,0.9930274303651124,103.0,78.0,86.0,214.0,300.0,25.0,831.0,828.0,26.0,13.0,13.0,0.5,60.293507617192795,1285.2292560982992,20.0,15.0,5.0,0.75,1206.092975177766,3477.1076945024465,23.0,11.0,12.0,0.4782608695652174,2068.399972214847,40871.23908942465,27.0,4.0,23.0,0.1481481481481481,919.8299784755042,16996.32210999544,83.0,41.0,42.0,0.4939759036144578,28.099343008788825,5850.761495719143,,,,,34427.0,34452.0,34530.0,34549.0,34558.0,34581.0,34591.0,34616.0,34747.0,34830.0,0.04476663367757453,-0.11110793027607417,0.04827589638879589,-0.15006407413924752,0.004711950713359827
47,47,35237.76478645664,820.0551282234372,6.444647423062005,35342.39728720114,-12135.65063847524,12.93123799217483,35367.630792899145,44526.085969456435,10.621883142810107,35402.49240001687,-4571.5700157981355,20.383723206912453,35590.1867737425,4405.430612338733,25.94737749331924,0.9879051274293504,99.0,79.0,92.0,207.0,299.0,20.0,799.0,799.0,20.0,10.0,10.0,0.5,55.16535316449972,705.7012431202481,21.0,16.0,5.0,0.7619047619047619,1244.9053978578863,2654.6676125267863,24.0,12.0,12.0,0.5,2024.96815859936,43370.21659650805,28.0,10.0,18.0,0.3571428571428571,386.96016507939675,8157.043174918856,70.0,34.0,36.0,0.4857142857142857,35.26430591641874,4104.863858029887,,,,,35228.0,35248.0,35327.0,35347.0,35356.0,35380.0,35392.0,35419.0,35557.0,35626.0,0.06727029838104863,-0.10258250133791756,0.04547824302339145,-0.08464491711647527,0.008004735295943704
48,48,36060.42522916813,1451.386721176413,12.000553710723487,36168.972626301,-11603.75212986916,11.091509006795116,36194.411695398965,44207.97542278224,10.998213219681924,36225.027373699,-3516.529139386619,17.835757806045514,36415.94145276491,5169.025470001374,30.87394394109359,0.996056553394867,108.0,79.0,87.0,215.0,302.0,29.0,823.0,827.0,30.0,14.0,16.0,0.4666666666666667,56.08407927930081,1514.15778852035,21.0,16.0,5.0,0.7619047619047619,1282.2431238107058,5360.052537940125,24.0,11.0,13.0,0.4583333333333333,1989.5691818567125,45982.92435924578,22.0,4.0,18.0,0.1818181818181818,627.2206277998848,10802.125907800124,80.0,40.0,40.0,0.5,32.595818453422666,5098.701153852884,,,,,36046.0,36075.0,36154.0,36173.0,36183.0,36207.0,36221.0,36241.0,36377.0,36456.0,0.038641719991651974,-0.11050245726208595,0.04500475678493531,-0.1783635519395382,0.0063059891352042425
49,49,36893.133077491075,1107.9741819416672,8.735990824551621,36997.972626301,-11452.547159832762,12.592310093090916,37022.210002314176,43781.48999280814,10.402678013145426,37049.60271279886,-5711.51248347898,20.383723206911228,37244.15472163704,6178.184410127276,29.96106564732676,0.9935460193462224,102.0,78.0,87.0,213.0,300.0,24.0,831.0,828.0,24.0,12.0,12.0,0.5,51.659506427789374,1081.2223332632454,22.0,17.0,5.0,0.7727272727272727,1282.4930469599833,4957.408751389377,23.0,11.0,12.0,0.4782608695652174,2046.56509689094,41930.183511312134,26.0,5.0,21.0,0.1923076923076923,785.9662118865105,15096.7869852232,78.0,39.0,39.0,0.5,36.58385809670763,6049.690641747538,,,,,36881.0,36905.0,36983.0,37002.0,37011.0,37034.0,37045.0,37070.0,37205.0,37283.0,0.046625189710881865,-0.1119832146562155,0.04674498508906671,-0.13761087175419512,0.0059214577727300256
50,50,37657.659227322554,886.232288463794,7.042948123943143,37760.972626301,-10990.912772082058,12.342010315036276,37785.86059146025,44021.22111082736,10.501252797564533,37813.60271279886,-4969.747164030352,20.38372320609996,38005.22285784879,5440.361450158577,29.10088560786667,0.991597763317202,99.0,78.0,87.0,210.0,297.0,21.0,764.0,763.0,21.0,11.0,10.0,0.5238095238095238,54.87682453167836,773.1154007373252,21.0,16.0,5.0,0.7619047619047619,1250.2274422423588,4736.161665945639,23.0,11.0,12.0,0.4782608695652174,2026.5376270294864,42011.02997049502,25.0,5.0,20.0,0.2,773.008404451548,14137.037801555118,76.0,37.0,39.0,0.4868421052631579,34.820498094242005,5317.410228190568,,,,,37647.0,37668.0,37746.0,37765.0,37775.0,37798.0,37809.0,37833.0,37968.0,38043.0,0.061921490839385376,-0.11375101123703328,0.046035470527441676,-0.15554280307182786,0.006400401593395426
51,51,38461.04541933896,1357.8068339821891,11.921131607102964,38563.39728720114,-11298.67008820751,10.543692702428205,38588.92101031567,43655.52315031122,10.87819089842297,38619.60271279886,-3468.2431773901476,15.330499346502554,38810.87284981451,5376.029089991378,31.241841406870783,0.9976712337408444,101.0,73.0,85.0,216.0,301.0,28.0,806.0,803.0,28.0,13.0,15.0,0.4642857142857143,53.36581363834078,1413.500907564622,19.0,14.0,5.0,0.7368421052631579,1243.340642453872,4172.302273730742,25.0,12.0,13.0,0.48,1988.859712688169,44678.43501180129,20.0,5.0,15.0,0.25,583.2787812476892,10063.226497244275,78.0,39.0,39.0,0.5,36.817219121339896,5398.8722747542915,,,,,38448.0,38476.0,38549.0,38568.0,38577.0,38602.0,38615.0,38634.0,38772.0,38850.0,0.0393029496558277,-0.11004309646597737,0.04555803181742401,-0.16817701395627233,0.006848403999502715
52,52,39277.85830697978,401.8832584332071,4.0081404969698795,39380.39728720114,-11590.678671368503,13.109010859159744,39404.70385048436,44288.18858118691,10.519703931107424,39432.60271279886,-5462.4815636309395,20.383723206912453,39627.40840436153,6046.446022809311,28.78512352802109,0.9884743726982056,93.0,81.0,88.0,213.0,301.0,12.0,815.0,816.0,12.0,6.0,6.0,0.5,54.798215997531045,351.18146234857335,21.0,16.0,5.0,0.7619047619047619,1255.5724157047605,4171.121808113619,23.0,11.0,12.0,0.4782608695652174,2029.455683873839,41375.10485808342,27.0,5.0,22.0,0.1851851851851851,761.5868581597255,14396.648234476155,76.0,37.0,39.0,0.4868421052631579,36.98425193703136,5812.501250834412,,,,,39272.0,39284.0,39365.0,39385.0,39394.0,39417.0,39428.0,39453.0,39590.0,39666.0,0.13635356747919494,-0.10832604813782798,0.04582385843470527,-0.13942140569047426,0.006116692648460569
53,53,40064.10681558262,375.99808366067856,3.709806372455729,40167.39728720114,-11145.484335267694,13.864680044834037,40191.9951158495,42999.26468197272,10.193178027137652,40219.79626413291,-6686.6824349413455,17.8357578060484,40411.35408842028,5570.54521923857,27.88507344475052,0.9869381665146086,94.0,81.0,88.0,209.0,297.0,13.0,785.0,787.0,13.0,6.0,7.0,0.4615384615384615,59.25397001559099,266.06900936518144,21.0,16.0,5.0,0.7619047619047619,1189.3126834589043,2728.7932171091006,23.0,11.0,12.0,0.4782608695652174,2043.6267132982928,40000.27428652584,26.0,6.0,20.0,0.2307692307692307,763.6798775417172,15310.834082423917,75.0,37.0,38.0,0.4933333333333333,36.33038532651838,5443.803001502149,,,,,40058.0,40071.0,40152.0,40172.0,40181.0,40204.0,40214.0,40240.0,40375.0,40449.0,0.1575911489726236,-0.10670803059635176,0.04752701536673197,-0.11420908424648644,0.006521872437377742
54,54,40877.71290635184,921.2616043929228,8.93124916416264,40982.39728720114,-11540.852541704628,11.208559231295729,41007.98185278387,44419.38765425534,10.894840230817357,41038.027373699,-3522.618806148004,17.835757806047898,41229.37241448785,5421.280163605487,29.9895736083576,0.9958692264547708,101.0,78.0,85.0,216.0,301.0,23.0,814.0,816.0,23.0,11.0,12.0,0.4782608695652174,44.54963330314432,859.2439282003277,20.0,15.0,5.0,0.75,1239.7092547150764,3931.2534651190126,25.0,12.0,13.0,0.48,1999.730947696501,44966.41826634404,20.0,4.0,16.0,0.2,664.7389724456881,11370.07523637696,79.0,38.0,41.0,0.4810126582278481,32.87626914479503,5262.069490960868,,,,,40867.0,40890.0,40968.0,40987.0,40996.0,41021.0,41034.0,41053.0,41192.0,41269.0,0.04835720178797734,-0.1074192093032294,0.04501932721949463,-0.18870590575554852,0.006064299972080815
55,55,41734.65024236872,887.2651978586401,7.3380335472591804,41837.39728720114,-11519.010138372943,11.679493833178698,41862.50250381136,45243.227191958016,10.87752464706487,41893.178051898714,-3504.302018478516,22.931688607770457,42086.62377968382,5842.989296373858,28.266634056377335,0.995736555833576,97.0,77.0,88.0,213.0,301.0,20.0,858.0,855.0,20.0,10.0,10.0,0.5,51.39784477449414,787.5766411448009,20.0,15.0,5.0,0.75,1266.5670614957978,4595.161220880522,25.0,12.0,13.0,0.48,2005.7802613519696,43907.259105922334,23.0,5.0,18.0,0.217391304347826,634.6240019245887,11219.575034439737,73.0,37.0,36.0,0.5068493150684932,43.47924637217257,5693.706012435079,,,,,41725.0,41745.0,41822.0,41842.0,41851.0,41876.0,41888.0,41910.0,42050.0,42123.0,0.05792839040519077,-0.10995450531608786,0.04433327120635853,-0.18109854646607407,0.007441267503117909
56,56,42575.03152798659,717.3275130870464,5.946591433167813,42677.39728720114,-11120.675407184675,12.561211124498096,42701.8522152837,43372.28489027606,10.26743562378904,42728.027373699,-6243.068040772926,17.835757805346645,42923.0879997188,6233.3873419258025,29.67459598988044,0.9907656548125284,95.0,78.0,86.0,214.0,300.0,17.0,840.0,839.0,17.0,8.0,9.0,0.4705882352941176,54.56486940112397,588.0240745711401,20.0,15.0,5.0,0.75,1225.0434929306498,3549.2393161472155,23.0,11.0,12.0,0.4782608695652174,2069.503169896539,40490.119377098,27.0,5.0,22.0,0.1851851851851851,918.8372773615368,17006.830978153765,77.0,38.0,39.0,0.4935064935064935,36.19302438020368,6097.00179382705,,,,,42567.0,42584.0,42662.0,42682.0,42691.0,42714.0,42724.0,42748.0,42885.0,42962.0,0.07606688493837628,-0.11015909088931707,0.04771487541253598,-0.14717720059443398,0.005806317238906232
57,57,43381.25975899919,1465.4443545414654,13.902694809154276,43482.524787173206,-10682.67462033734,10.061599008105803,43508.83611474639,44236.19958394482,10.643030854048188,43538.027373699,-3584.5454037143927,17.835757805976716,43731.66968930322,5739.044491438899,29.599900935371256,0.996553939659584,101.0,72.0,84.0,217.0,301.0,29.0,808.0,807.0,30.0,14.0,16.0,0.4666666666666667,54.54885877807135,1590.7890506358444,20.0,15.0,5.0,0.75,1254.0318534366577,5044.712189218366,24.0,12.0,12.0,0.5,2018.3954866543788,43942.58355444721,20.0,4.0,16.0,0.2,705.9810593528225,12004.095985650236,77.0,39.0,38.0,0.5064935064935064,36.88145896384597,5609.670212212971,,,,,43368.0,43397.0,43469.0,43487.0,43497.0,43521.0,43534.0,43553.0,43694.0,43770.0,0.037223425515286505,-0.11738931475543318,0.04562768740619706,-0.19695135082436613,0.006426411054812892
58,58,44211.58135815781,293.5925227184008,3.2245338266315557,44311.39728720114,-11989.55474557906,12.112991619921235,44337.06507915144,44446.73883571582,10.765869097785732,44375.055248726894,-3819.6649341774632,22.93168860777651,44562.28793404399,5314.678033483642,27.12168573832656,0.9893838907777144,90.0,80.0,106.0,197.0,303.0,10.0,828.0,828.0,11.0,6.0,5.0,0.5454545454545454,56.65661250502806,181.5784418176919,21.0,15.0,6.0,0.7142857142857143,1226.984434529776,2627.0572532064925,24.0,11.0,13.0,0.4583333333333333,2000.667129822182,45046.87957707459,47.0,12.0,35.0,0.2553191489361702,232.0792975680261,5327.8685042788475,73.0,36.0,37.0,0.4931506849315068,32.12324413929949,5078.964552139835,,,,,44206.0,44216.0,44296.0,44316.0,44326.0,44350.0,44363.0,44402.0,44526.0,44599.0,0.1929770280947183,-0.10233778155791859,0.04501268669490138,-0.06075907221375235,0.006044250270085219
59,59,45067.34551917395,1078.8066175926035,10.14660547070124,45167.39728720114,-11209.508358609071,10.507733868159375,45193.663777235786,44081.58240141546,10.785806144387474,45224.027373699,-3354.3034067834046,17.835757806048054,45419.380114277716,6014.406056718619,30.9036814591944,0.9973359575273312,97.0,73.0,87.0,218.0,305.0,24.0,857.0,857.0,26.0,12.0,14.0,0.4615384615384615,53.15034236537964,1092.521935142203,19.0,14.0,5.0,0.7368421052631579,1192.6034814234424,2807.7875927569175,24.0,12.0,12.0,0.5,1993.484350657211,43817.818441412965,22.0,5.0,17.0,0.2272727272727272,622.7357556132963,10674.428427416828,77.0,38.0,39.0,0.4935064935064935,37.03498213599726,5967.826251165303,,,,,45056.0,45080.0,45153.0,45172.0,45182.0,45206.0,45220.0,45240.0,45381.0,45458.0,0.04926771999599574,-0.10639213097222992,0.045222613210754437,-0.18565278094818088,0.006157712297231069
60,60,45882.09677126227,290.3938717553231,3.630388441859237,45983.39728720114,-11021.065099709163,13.41794676069083,46007.86497336829,44595.03903320783,10.325735790257896,46034.602712813234,-5970.146280289391,20.38372320688586,46230.40784248542,6402.626887765082,27.59259177456977,0.988023902829329,92.0,81.0,88.0,211.0,299.0,11.0,814.0,814.0,11.0,6.0,5.0,0.5454545454545454,43.18513927889214,211.38566372223733,21.0,16.0,5.0,0.7619047619047619,1223.454595484504,3817.634218622495,23.0,11.0,12.0,0.4782608695652174,2065.8934448652967,41147.61312475015,28.0,5.0,23.0,0.1785714285714285,844.6136005047607,15995.637621998689,72.0,35.0,37.0,0.4861111111111111,47.56644080123006,6345.462855304779,,,,,45876.0,45887.0,45968.0,45988.0,45997.0,46020.0,46030.0,46056.0,46195.0,46267.0,0.14871229553796714,-0.11101055881765819,0.046325633739818524,-0.14147284854531567,0.007429207048145473
61,61,46646.68686278968,1162.1207523206326,11.832267534765954,46750.22039164382,-10921.679940866945,10.899635044177431,46775.93276027341,43610.033695335296,10.536317957190017,46804.60271279886,-4393.516346727717,16.174571752864363,46998.17784219348,6703.1925190116835,31.43157565197785,0.9960978279191726,102.0,74.0,86.0,216.0,302.0,28.0,766.0,768.0,28.0,13.0,15.0,0.4642857142857143,47.4340764263515,1193.6660637286857,19.0,14.0,5.0,0.7368421052631579,1208.3882340658731,3628.630147846732,24.0,12.0,12.0,0.5,2045.9805205856712,43452.27470414303,22.0,5.0,17.0,0.2272727272727272,700.2427884886529,12441.163156184595,77.0,37.0,40.0,0.4805194805194805,38.4479293309096,6685.374956098619,,,,,46634.0,46662.0,46736.0,46755.0,46764.0,46788.0,46800.0,46822.0,46961.0,47038.0,0.04081682246154769,-0.1106412420624325,0.04691536206734272,-0.15938094529002775,0.005735763850115162
62,62,47446.5236959788,705.8392591091465,5.8328430296755025,47549.39728720114,-11922.259972049344,12.09680905904907,47575.035914677224,44549.82798846272,10.808153280611336,47608.85135656868,-3777.186855450344,20.383723206912453,47798.61407043713,5640.634388153592,27.937146513201203,0.9935844479402688,96.0,79.0,90.0,212.0,302.0,17.0,799.0,799.0,17.0,9.0,8.0,0.5294117647058824,55.57329393767695,618.4981426483973,20.0,15.0,5.0,0.75,1232.7200695918143,2863.0434319694746,24.0,11.0,13.0,0.4583333333333333,2006.3476539461449,45022.76855782361,23.0,8.0,15.0,0.3478260869565217,410.6308734208846,8038.977505276995,73.0,36.0,37.0,0.4931506849315068,36.03485022010057,5457.046022468454,,,,,47438.0,47455.0,47534.0,47554.0,47564.0,47588.0,47601.0,47624.0,47763.0,47836.0,0.07873363973522397,-0.10339650976256302,0.045036035929605346,-0.10871341268922376,0.006388439267714396
63,63,48311.32401185448,1254.9245883764695,9.039340224995138,48413.39728720114,-11250.934545773223,10.31917529800586,48439.86158153315,44773.88677253356,10.783553129803275,48470.60271279886,-3098.2317795069166,20.383723206912453,48666.07593537706,6537.522823303278,30.786525921148048,0.9974767192603312,101.0,76.0,86.0,218.0,304.0,25.0,864.0,865.0,25.0,12.0,13.0,0.48,60.59159637847779,1284.9058963956502,20.0,14.0,6.0,0.7,1195.8554017735255,2663.640106046659,25.0,12.0,13.0,0.48,2011.8921261286223,44903.191736364286,21.0,5.0,16.0,0.238095238095238,573.3979414809384,9943.60867264309,77.0,38.0,39.0,0.4935064935064935,42.60578336796037,6570.344223175411,,,,,48299.0,48324.0,48400.0,48418.0,48428.0,48453.0,48466.0,48486.0,48628.0,48704.0,0.048283057754782546,-0.10628942839444278,0.04493449801107759,-0.18507264216758973,0.006517114283118102
64,64,49136.324973632305,665.137290973145,6.829980427566411,49240.39728720114,-11108.578911129383,11.79200494207164,49265.354292094555,43158.01453099858,10.40073770423404,49292.02737369907,-5906.156016535705,17.835757805505835,49488.57535365454,6846.395765771586,28.912757194473897,0.9909440327971352,99.0,80.0,87.0,213.0,300.0,19.0,825.0,826.0,19.0,9.0,10.0,0.4736842105263157,46.46453496220981,679.5673302772503,20.0,15.0,5.0,0.75,1203.6808280152295,3306.5298396180624,23.0,11.0,12.0,0.4782608695652174,2054.911627315353,42157.46191225972,27.0,4.0,23.0,0.1481481481481481,866.7408183576847,16134.800858824288,74.0,37.0,37.0,0.5,52.176528234064456,6829.642191770898,,,,,49127.0,49146.0,49226.0,49245.0,49254.0,49277.0,49288.0,49313.0,49452.0,49526.0,0.0698570589753414,-0.10835596862973124,0.04761367383662649,-0.1467521033868789,0.007621021340150963
65,65,49941.54211940969,555.7130140390574,6.9674284101222,50043.32268792023,-10926.9045332477,11.316889200952213,50068.9601012735,44296.357838644064,10.48409476259944,50097.60271279886,-4625.71920076444,20.383723206903824,50292.65575402993,6113.978596401749,28.787027886311172,0.9929783829397344,98.0,78.0,87.0,214.0,301.0,20.0,806.0,803.0,20.0,11.0,9.0,0.55,38.96861721204335,485.3400555947959,19.0,14.0,5.0,0.7368421052631579,1198.0619428940793,3119.5002567839424,23.0,11.0,12.0,0.4782608695652174,2051.7913217381847,43119.201426300686,25.0,6.0,19.0,0.24,706.8243484423059,12970.0792100168,74.0,37.0,37.0,0.5,35.427217676888695,6013.813882656521,,,,,49931.0,49951.0,50029.0,50048.0,50058.0,50081.0,50093.0,50116.0,50256.0,50330.0,0.07012363617114158,-0.10964330650539607,0.04631963939816753,-0.15280312482554,0.005794462168666836
66,66,50796.198830060915,918.5554191198236,9.760784052756105,50899.35760545955,-11442.709860051036,10.628237462625323,50925.02189802458,44679.26110246698,10.924591860302096,50955.60271279886,-3485.569208177691,20.38372320691032,51150.077842303894,5730.250670814505,28.98435282711199,0.996200825073057,101.0,75.0,88.0,215.0,303.0,26.0,855.0,856.0,26.0,12.0,14.0,0.4615384615384615,40.065785309547515,895.6526478112228,20.0,15.0,5.0,0.75,1249.7158816712756,4181.759181018334,25.0,12.0,13.0,0.48,2003.1617156620991,45157.44294589615,22.0,5.0,17.0,0.2272727272727272,594.1622258667669,10482.935144424437,75.0,37.0,38.0,0.4933333333333333,34.188275348196385,5583.574804750638,,,,,50784.0,50810.0,50885.0,50904.0,50913.0,50938.0,50951.0,50973.0,51113.0,51188.0,0.043618255878278174,-0.10921502834169577,0.04483426239006208,-0.17046347106600818,0.005966279193042147
67,67,51626.55414448453,934.5694051094496,9.601110977839683,51727.972626301,-11292.248440756875,10.73489263414526,51753.661272060934,44394.8674034595,10.875818723786292,51784.53991688295,-3860.6997622513777,20.383723206912453,51980.32873664818,6410.312920533028,29.00658587442418,0.9960212780710208,100.0,74.0,88.0,215.0,303.0,26.0,832.0,829.0,26.0,13.0,13.0,0.5,40.689083930929925,856.4230765083685,20.0,15.0,5.0,0.75,1265.4998089697028,4898.494688598091,24.0,12.0,12.0,0.5,1991.9538193589624,43619.38792964798,24.0,6.0,18.0,0.25,565.2524549589159,10381.117845930828,74.0,37.0,37.0,0.5,37.52365971641866,6276.005106643705,,,,,51614.0,51640.0,51714.0,51732.0,51742.0,51766.0,51779.0,51802.0,51943.0,52017.0,0.04353778725097975,-0.11206800980415564,0.04486901157415638,-0.14641191746785495,0.005853639312400136
68,68,52396.748694534035,479.65960825405057,4.8254697298025695,52498.821948101286,-10961.476253254436,12.275693009280788,52523.56763157894,42821.17392200297,10.256562056705851,52551.091394152114,-6182.407430030849,17.8357578060484,52746.1212534629,7241.409592578752,29.597884502402486,0.9909157254953856,95.0,80.0,88.0,213.0,301.0,15.0,767.0,770.0,15.0,8.0,7.0,0.5333333333333333,48.06356616382519,455.0460176811613,21.0,16.0,5.0,0.7619047619047619,1240.5970264343332,4520.56195338346,22.0,11.0,11.0,0.5,2052.093748159256,39617.61266159383,28.0,6.0,22.0,0.2142857142857142,797.3283798973863,15490.40406028342,76.0,37.0,39.0,0.4868421052631579,43.04892322780594,7099.556013341193,,,,,52389.0,52404.0,52484.0,52504.0,52513.0,52535.0,52546.0,52572.0,52709.0,52785.0,0.10020348875898769,-0.11317791488769617,0.04792240754298473,-0.128967297759185,0.005944826442620229
69,69,53142.30112251097,1298.1921595636506,13.457192410790343,53246.29952733891,-9974.310197165252,9.941772439721111,53272.305029782685,42929.50020637212,10.443482730720826,53300.027373699,-4505.887461291176,13.008922241698436,53495.40189011073,6810.2706901019,33.72582607738333,0.9978431708998792,106.0,75.0,83.0,221.0,304.0,31.0,746.0,748.0,31.0,15.0,16.0,0.4838709677419355,45.61084642121695,1362.754151858465,18.0,13.0,5.0,0.7222222222222222,1160.5256116954426,3702.679676794331,24.0,11.0,13.0,0.4583333333333333,2045.8344964131277,43996.77589080535,21.0,4.0,17.0,0.1904761904761904,801.9787303181403,13617.4727372515,82.0,40.0,42.0,0.4878048780487805,38.19544345501833,6947.4844816077475,,,,,53127.0,53158.0,53233.0,53251.0,53261.0,53285.0,53296.0,53316.0,53455.0,53537.0,0.03513412562632307,-0.11635146579111504,0.047655679348194695,-0.17798463392788128,0.005608505916002998
70,70,53927.19046907914,1110.399008766626,11.284762734540568,54030.39728720114,-11312.107549909511,10.779163924601864,54056.33031734266,44510.19953107114,10.886539517962143,54086.60271279886,-3600.8995414359665,20.383723206912453,54281.07010815506,6305.68931363706,30.2833662151473,0.9971677556129824,102.0,75.0,88.0,216.0,304.0,27.0,783.0,784.0,27.0,13.0,14.0,0.4814814814814814,50.02640704471237,1158.028937400498,19.0,14.0,5.0,0.7368421052631579,1217.4982502585533,3516.3453265677854,25.0,12.0,13.0,0.48,1998.661910783292,45535.83269865516,24.0,5.0,19.0,0.2083333333333333,609.5173554400486,10851.659986561865,77.0,38.0,39.0,0.4935064935064935,40.79780819142616,6239.512037539878,,,,,53914.0,53941.0,54016.0,54035.0,54044.0,54069.0,54082.0,54104.0,54243.0,54320.0,0.045052640221895666,-0.10762788851563672,0.044903458799102666,-0.16926808105204327,0.006469999735507803
71,71,54709.43320979911,884.7762862989308,10.216903269987588,54814.972626301,-11265.989521685422,11.474243022640552,54840.13455988017,44735.805362266925,10.813032767547051,54869.60271279886,-4378.588718341363,20.383723206691236,55064.82965193116,6772.547156024655,30.07614537182491,0.9949682152308668,103.0,77.0,88.0,215.0,303.0,26.0,785.0,784.0,28.0,13.0,15.0,0.4642857142857143,42.34166387397525,886.6026401351471,21.0,16.0,5.0,0.7619047619047619,1279.1930589584474,5502.687090062916,24.0,11.0,13.0,0.4583333333333333,2020.081440994084,44531.59769615231,24.0,5.0,19.0,0.2083333333333333,674.318787100988,12254.1752961461,76.0,38.0,38.0,0.5,41.120255075374615,6701.588069594722,,,,,54697.0,54723.0,54800.0,54819.0,54829.0,54853.0,54865.0,54888.0,55027.0,55103.0,0.047855785162476294,-0.113544669688906,0.04515580807444123,-0.15400368257387373,0.006071608528970561
72,72,55490.45480252168,901.2067673468222,8.696960804614113,55593.17685218676,-10255.447151071246,10.31262910760899,55619.30669398857,43101.52400830343,10.166657099044372,55645.027373699,-5396.059542019347,17.8357578060484,55840.373231679514,7256.213978548001,31.27786101844565,0.9951164459915128,101.0,77.0,84.0,216.0,300.0,24.0,781.0,779.0,24.0,11.0,13.0,0.4583333333333333,48.67383987108139,925.73748284872,19.0,13.0,6.0,0.6842105263157895,1141.713861319114,2436.401729967331,23.0,11.0,12.0,0.4782608695652174,2075.938706060525,41992.8546845126,26.0,4.0,22.0,0.1538461538461538,935.0666484188896,16562.381020992776,78.0,38.0,40.0,0.4871794871794871,49.05486544885595,7338.851352840344,,,,,55479.0,55503.0,55580.0,55599.0,55608.0,55631.0,55641.0,55664.0,55802.0,55880.0,0.05400962535421092,-0.11132755544450879,0.048163928163203674,-0.1732869404307876,0.006760394000766779
73,73,56283.649535348806,482.3731014387105,5.597616989117873,56386.39728720114,-11617.654855111958,11.89531541475166,56411.65690233413,45103.11766882274,10.793598526367711,56442.00974303081,-4578.85776403448,20.383723206912453,56637.71572510112,6007.311153613239,27.07636700962612,0.99295670331629,96.0,78.0,91.0,211.0,302.0,18.0,793.0,793.0,18.0,9.0,9.0,0.5,42.974488704873195,425.49571642649823,20.0,15.0,5.0,0.75,1250.5933526936676,3948.517325769257,24.0,12.0,12.0,0.5,2030.7369416547847,43605.79921235448,27.0,6.0,21.0,0.2222222222222222,644.2338636080901,12025.637298914706,71.0,35.0,36.0,0.4929577464788732,37.03810554997866,5823.562746503962,,,,,56275.0,56293.0,56371.0,56391.0,56400.0,56424.0,56436.0,56462.0,56603.0,56673.0,0.08908972862852192,-0.10764593786700301,0.045024314207408316,-0.14069750510014725,0.006165504766254902
74,74,57110.01425269796,867.6674862566935,8.809222549016411,57212.972626301,-11733.997381519606,10.951975422291738,57238.47316960597,44559.51417843767,10.904525864268386,57269.28692163636,-3833.8494819648545,17.8357578060484,57464.468033519785,6453.2279783143895,29.36947029670333,0.9953799476685944,99.0,76.0,89.0,215.0,304.0,23.0,826.0,827.0,23.0,11.0,12.0,0.4782608695652174,45.62359585876685,849.4094450852099,20.0,15.0,5.0,0.75,1295.6430176652823,4977.457969376361,24.0,11.0,13.0,0.4583333333333333,2027.036279274742,46394.86350983757,24.0,5.0,19.0,0.2083333333333333,628.2212683289638,11169.889145533483,75.0,37.0,38.0,0.4933333333333333,46.04374588839904,6421.764424500519,,,,,57099.0,57122.0,57198.0,57217.0,57227.0,57251.0,57264.0,57287.0,57427.0,57502.0,0.0525818894696596,-0.11041787172254257,0.045490538140912314,-0.16386174555997418,0.0071349944621708315
75,75,,,,,,,,,,,,,,,,,,,,,,,,,,,,,,,,,,,,,,,,,,,,,,,,,,,,,,,,,,,,57704.0,58036.0,58055.0,58064.0,58088.0,58098.0,58125.0,58266.0,58338.0,,,,,
76,76,58723.68318844377,692.746892478665,9.081468686394777,58828.14363827741,-10662.3204015586,11.154487527824442,58854.031985877766,43732.40478357595,10.32369987490901,58881.60271279886,-4803.1591180705345,20.383723203254597,59077.866557667934,6605.920739657173,30.110129048120132,0.99331978171182,102.0,78.0,86.0,216.0,302.0,24.0,1617.0,1615.0,25.0,12.0,13.0,0.48,37.952622414063946,654.3771792597356,20.0,14.0,6.0,0.7,1175.2862900632167,2698.610085121922,23.0,11.0,12.0,0.4782608695652174,2052.834293207414,42323.807341240296,23.0,5.0,18.0,0.217391304347826,777.0569892910038,14129.068952823882,76.0,38.0,38.0,0.5,42.5289905269626,6563.959166675118,,,,,58712.0,58736.0,58814.0,58833.0,58843.0,58866.0,58877.0,58900.0,59040.0,59116.0,0.054785698537410325,-0.11022800345517805,0.04694080518477164,-0.16178039706566155,0.0064380110211812395
77,77,59533.71643983786,531.4179105948854,5.994196727160698,59636.972626301,-11843.29090239046,11.808718052865975,59662.04422493689,44788.1548418627,10.87808186691019,59697.02016179763,-3893.798920267363,20.383723206912453,59890.07733612234,6202.779852424229,28.76806747383076,0.9940630684041808,98.0,79.0,91.0,214.0,305.0,19.0,806.0,808.0,19.0,10.0,9.0,0.5263157894736842,44.469686165089115,425.670322659705,21.0,16.0,5.0,0.7619047619047619,1309.807189457671,5437.802528854165,24.0,11.0,13.0,0.4583333333333333,2013.3761666023124,45458.74095997024,26.0,9.0,17.0,0.3461538461538461,365.0062100832394,7470.709571043458,74.0,37.0,37.0,0.5,40.986172460491886,6114.963490816415,,,,,59524.0,59543.0,59622.0,59641.0,59651.0,59675.0,59688.0,59713.0,59853.0,59927.0,0.08368119568139583,-0.11059486761346869,0.04495331798577344,-0.09374038504745816,0.006607710322731071
78,78,60328.388791557794,706.0269795753163,6.136350758463724,60430.39728720114,-11092.072693160531,11.983332781235552,60455.60426587937,44377.15609325108,10.57009803165361,60484.565250991465,-4935.278831241876,20.383723206912453,60682.07814027841,6782.221860543558,28.706878973427685,0.9939439639966184,95.0,78.0,89.0,214.0,303.0,17.0,795.0,794.0,17.0,8.0,9.0,0.4705882352941176,51.83995700251845,682.4258645747077,20.0,15.0,5.0,0.75,1209.3609162122086,3676.730779337803,24.0,12.0,12.0,0.5,2040.049478287067,42141.5816059107,26.0,6.0,20.0,0.2307692307692307,680.5733065123719,12837.2850549438,72.0,36.0,36.0,0.5,43.1571620177377,6607.810147906424,,,,,60320.0,60337.0,60415.0,60435.0,60444.0,60468.0,60479.0,60504.0,60646.0,60718.0,0.07342489522666798,-0.10902929954271856,0.045970712363817286,-0.13789966682411692,0.006363277832123127
79,79,61075.75207578881,987.016931264366,10.26055482176402,61178.00884889176,-10502.72439337941,10.743523987397705,61204.239770338216,43468.903068513886,10.142484385023312,61230.60271279886,-5302.700309816406,20.383723206881232,61427.437179849534,6926.262930415489,30.63916597782919,0.9955024148483927,102.0,76.0,85.0,216.0,301.0,26.0,746.0,748.0,26.0,13.0,13.0,0.5,40.7573200073755,951.7910793491334,20.0,14.0,6.0,0.7,1153.769973921109,2038.6807940870576,23.0,11.0,12.0,0.4782608695652174,2076.055731173916,41892.74942097146,25.0,5.0,20.0,0.2,850.9206939281456,15669.828112073366,76.0,37.0,39.0,0.4868421052631579,46.09612425339222,6895.489736190547,,,,,61063.0,61089.0,61165.0,61184.0,61193.0,61216.0,61226.0,61250.0,61390.0,61466.0,0.04129343551904979,-0.10985435118609888,0.04775956107983039,-0.16046931642599407,0.006655266298218198
80,80,61856.20655612367,719.3078372349505,6.820055394730815,61959.39728720114,-11562.644988008418,11.340880437054883,61984.88787363635,44885.01954128505,10.91459714948752,62015.027373699,-3894.2665082683297,17.83575780604833,62212.42159619155,6289.762156059436,31.002928002263396,0.9964334996339562,98.0,79.0,87.0,219.0,306.0,19.0,780.0,781.0,21.0,10.0,11.0,0.4761904761904761,48.08894486772578,665.6690830604027,20.0,15.0,5.0,0.75,1254.5910272775504,4169.127880253108,25.0,12.0,13.0,0.48,2022.9245588933993,45043.52249928017,23.0,4.0,19.0,0.1739130434782608,663.7050812377491,11660.531244364236,78.0,38.0,40.0,0.4871794871794871,40.60242855116327,6274.036751545975,,,,,61847.0,61866.0,61945.0,61964.0,61973.0,61998.0,62011.0,62032.0,62174.0,62251.0,0.0668544708932711,-0.10850380934281756,0.04506903594043714,-0.17043134562787796,0.0064553201764629
81,81,62616.96034632449,1283.3647092737665,10.07798435886933,62721.972626301,-11835.536571107148,11.463425140092813,62747.14367365444,44625.793960766074,10.92438279730135,62777.60271279886,-3683.9057999734737,20.383723206912453,62972.38375406629,6526.886333059758,31.22177905057987,0.9969110972304056,103.0,77.0,87.0,217.0,304.0,26.0,762.0,762.0,26.0,13.0,13.0,0.5,56.94163812625733,1283.6731229202478,21.0,16.0,5.0,0.7619047619047619,1301.549362379031,5304.683039045926,24.0,11.0,13.0,0.4583333333333333,2002.839911746167,45287.15734555178,22.0,5.0,17.0,0.2272727272727272,611.1453452850631,10873.84828121551,77.0,38.0,39.0,0.4935064935064935,40.446987879695435,6572.360220581298,,,,,62604.0,62630.0,62707.0,62726.0,62736.0,62760.0,62773.0,62794.0,62934.0,63011.0,0.044369022862160205,-0.1099696118177157,0.04488076813842272,-0.1658960295047348,0.006196980583961568
82,82,63389.903027394634,655.4762774802614,6.1969239664445155,63493.55333650056,-11185.167936136251,11.78926133618769,63518.51585642064,43916.25742295691,10.344437255096503,63545.60271279886,-5191.812880317569,20.383723206912453,63741.48870722918,7490.019878730698,31.258236657232175,0.992218893198141,98.0,80.0,87.0,214.0,301.0,18.0,775.0,772.0,19.0,10.0,9.0,0.5263157894736842,48.98563285419546,595.5502729105092,21.0,16.0,5.0,0.7619047619047619,1288.0568206734538,4984.12802865953,24.0,12.0,12.0,0.5,2061.913275134076,40893.12672486027,26.0,5.0,21.0,0.1923076923076923,806.0986542906774,14975.662919009335,78.0,38.0,40.0,0.4871794871794871,50.934660061556315,7615.809608134125,,,,,63381.0,63399.0,63479.0,63498.0,63507.0,63531.0,63541.0,63566.0,63703.0,63780.0,0.07473288437302841,-0.11515757546313549,0.04695102442987834,-0.15526342587319336,0.006800337100064946
83,83,64137.95984877703,1301.057632081423,14.663264596411882,64241.920781249864,-10485.511267701548,10.74765275129576,64268.10788865815,43779.91237937673,10.33678938720653,64295.60271279886,-4677.637830392324,20.383723206912453,64491.57071799876,6846.537778624809,30.191816775718056,0.9958726142078852,104.0,73.0,87.0,215.0,302.0,31.0,747.0,749.0,31.0,14.0,17.0,0.4516129032258064,46.18985139105981,1432.7672004044366,19.0,14.0,5.0,0.7368421052631579,1177.8313675166196,3036.3589141585653,23.0,11.0,12.0,0.4782608695652174,2050.241562106069,42602.14762093163,25.0,5.0,20.0,0.2,772.8691114916398,14023.988711929784,76.0,38.0,38.0,0.5,50.83583670051645,6836.488607586988,,,,,64124.0,64155.0,64228.0,64247.0,64257.0,64280.0,64291.0,64315.0,64454.0,64530.0,0.03550177198312546,-0.112329416987485,0.04683064562440445,-0.16522636841827013,0.0074250428967511375
84,84,64934.111931217216,790.4635920212289,8.711639070863468,65035.821948101286,-11555.122288894185,11.035915486946442,65061.71525648363,44718.52581645485,10.890596999935196,65092.60271279886,-3398.647410743068,20.38372320691244,65287.69903830739,6288.350147730188,30.996881599419325,0.996620010496161,98.0,75.0,88.0,218.0,306.0,23.0,796.0,794.0,23.0,11.0,12.0,0.4782608695652174,44.78381367446388,793.8988094836325,20.0,15.0,5.0,0.75,1274.6544263957933,4694.827374223982,25.0,12.0,13.0,0.48,1998.9886952135648,44389.89187093267,22.0,5.0,17.0,0.2272727272727272,570.4975256717166,10133.832990356175,77.0,38.0,39.0,0.4935064935064935,42.244923464803925,6269.474161978571,,,,,64923.0,64946.0,65021.0,65041.0,65050.0,65075.0,65088.0,65109.0,65250.0,65327.0,0.05665512507660334,-0.11031076907086343,0.044701578567646054,-0.16786016809757418,0.006717966155248598
85,85,65742.22341920466,1050.4591538478348,9.611486712339284,65843.39728720114,-11180.978316601071,11.159615840309554,65869.0744334821,44487.530013618394,10.8081440353266,65898.60271279886,-3889.419603911739,20.383723206912453,66096.54324698953,6583.593970115007,29.856491031724904,0.9962679205237976,99.0,73.0,87.0,219.0,306.0,26.0,809.0,807.0,27.0,13.0,14.0,0.4814814814814814,47.335439089721454,988.7222284652192,20.0,15.0,5.0,0.75,1216.3813236092444,3713.6534373784007,25.0,12.0,13.0,0.48,2007.656420616188,44522.114697065015,23.0,5.0,18.0,0.217391304347826,662.612839680419,11752.409857989,76.0,38.0,38.0,0.5,41.44937902483195,6491.111165760703,,,,,65730.0,65756.0,65829.0,65848.0,65857.0,65882.0,65894.0,65916.0,66059.0,66135.0,0.04506166557388891,-0.10879024081490346,0.04512852073382383,-0.1703629094207279,0.006295858950746909
86,86,66516.48447061678,464.3012339133936,5.3187072859034155,66618.39728720114,-10889.708149626038,12.593641862895728,66643.1802894631,43954.01059136056,10.223819322478588,66670.17805189872,-5846.2167155374,22.93168860777651,66866.96406892553,6558.720951837418,29.14525128180051,0.990798624668484,96.0,79.0,89.0,213.0,302.0,17.0,773.0,775.0,17.0,8.0,9.0,0.4705882352941176,42.97027339035237,470.6528426126471,21.0,15.0,6.0,0.7142857142857143,1193.8101984340874,2681.31968602085,23.0,11.0,12.0,0.4782608695652174,2057.7928201800346,41301.43123710602,29.0,5.0,24.0,0.1724137931034483,858.2820422812695,16422.2412892981,76.0,37.0,39.0,0.4868421052631579,46.27301955102491,6415.527433944604,,,,,66508.0,66525.0,66604.0,66623.0,66632.0,66655.0,66665.0,66693.0,66830.0,66906.0,0.09254826447083628,-0.10962738229812742,0.04681695236667452,-0.1468098231802161,0.007055189554613019
87,87,67283.14665373947,700.1709263322456,6.728796163279961,67384.39728720114,-11292.536886768356,11.12006519931112,67410.28436457452,44443.019611377575,10.780091999431512,67439.60271279886,-4042.0463565107784,20.383723206912453,67637.05327964578,6250.357486406928,30.059323512813265,0.9956646561925434,97.0,77.0,87.0,218.0,305.0,20.0,770.0,766.0,20.0,10.0,10.0,0.5,47.564866123639014,641.9726240260177,19.0,14.0,5.0,0.7368421052631579,1208.3873164865154,3125.6810409212885,24.0,11.0,13.0,0.4583333333333333,2010.3647561182595,44837.57915017918,24.0,5.0,19.0,0.2083333333333333,675.8323627427825,12026.21268534088,77.0,39.0,38.0,0.5064935064935064,36.95682739375291,6096.749125461482,,,,,67273.0,67293.0,67370.0,67389.0,67399.0,67423.0,67435.0,67457.0,67598.0,67675.0,0.06793322078196161,-0.10700760410199783,0.04523465717895547,-0.16720054723127475,0.0059127541863206075
88,88,68061.66887761708,765.6235537048674,7.185825134747693,68162.972626301,-11514.202630198502,11.264255674729778,68188.46040403393,44421.918455144514,10.934119864833766,68219.17805191019,-3650.738191564934,22.93168860754258,68415.46381844099,6351.748032232907,30.836094459535673,0.9958234642023291,97.0,76.0,88.0,219.0,307.0,21.0,775.0,779.0,21.0,11.0,10.0,0.5238095238095238,46.377187846303535,710.7837462663331,21.0,16.0,5.0,0.7619047619047619,1268.970600498271,4811.432679912438,24.0,11.0,13.0,0.4583333333333333,1987.4645457608224,45468.065087886855,25.0,5.0,20.0,0.2,625.132333098801,11078.850178822744,78.0,38.0,40.0,0.4871794871794871,40.21418385960333,6308.97293928388,,,,,68051.0,68072.0,68148.0,68167.0,68177.0,68201.0,68214.0,68236.0,68377.0,68455.0,0.060574400593977826,-0.11020916004814085,0.04474062838523476,-0.1712345011601148,0.006331199483280881
89,89,68831.39217423579,979.0096027464256,8.138541691031682,68932.90700618648,-10789.7175902038,10.853564521289714,68958.63794081242,43300.67794662744,10.471156576693636,68987.60271279886,-4080.374402805037,20.383723206910087,69183.69155978276,6858.584328815212,30.95595055149254,0.996050426045917,99.0,76.0,86.0,218.0,304.0,23.0,771.0,770.0,23.0,11.0,12.0,0.4782608695652174,52.30945273229803,941.5212061425908,20.0,15.0,5.0,0.75,1217.026878117156,3798.308399325514,24.0,12.0,12.0,0.5,2005.8051157549112,41774.25585330366,22.0,5.0,17.0,0.2272727272727272,664.4600183141073,12016.185515771253,79.0,40.0,39.0,0.5063291139240507,38.25556429513654,6773.76663359276,,,,,68820.0,68843.0,68919.0,68938.0,68947.0,68971.0,68983.0,69005.0,69144.0,69223.0,0.05343099044744177,-0.11279506325745903,0.04632271850864029,-0.16284290428283418,0.005577763932188176
90,90,69577.98136294294,976.5123819253512,9.665699892738546,69681.21822046528,-10368.441448031332,10.451388476384585,69707.18420052108,42542.35880548307,10.132722472902053,69734.17805189872,-5343.844784128686,17.834222450413,69930.04985225585,6854.568530502359,31.564283618710952,0.9948508370541232,102.0,77.0,85.0,217.0,302.0,25.0,747.0,748.0,25.0,12.0,13.0,0.48,41.049044326724726,948.9739687166776,19.0,13.0,6.0,0.6842105263157895,1148.9922121007614,2217.2366826591115,23.0,11.0,12.0,0.4782608695652174,2062.696544638641,41426.483685525054,25.0,5.0,20.0,0.2,839.0092819275028,15356.853464892523,79.0,39.0,40.0,0.4936708860759494,42.17982439458307,6863.230790793092,,,,,69566.0,69591.0,69668.0,69687.0,69696.0,69719.0,69729.0,69753.0,69891.0,69970.0,0.04203637873571038,-0.11081628978277366,0.04848571171311711,-0.1570048000681785,0.006153534567038866
91,91,70348.55943387702,686.6173198071152,6.597621348024346,70451.39728720114,-11861.297857252472,12.258244126361545,70476.5893747199,44589.17195702231,10.827523265140467,70509.86365724735,-3727.4015270797304,20.383723206912453,70703.45464016327,5704.706965099995,28.061015388504295,0.9946378930893712,97.0,78.0,89.0,215.0,304.0,19.0,769.0,770.0,21.0,11.0,10.0,0.5238095238095238,48.98701068497903,588.324623508601,21.0,16.0,5.0,0.7619047619047619,1254.392151492728,3873.383033915658,25.0,12.0,13.0,0.48,1997.6635594431395,43875.7611836494,23.0,8.0,15.0,0.3478260869565217,439.1967184477291,8440.641380883062,72.0,35.0,37.0,0.4861111111111111,37.91820351447462,5620.432083561522,,,,,70339.0,70358.0,70436.0,70456.0,70465.0,70490.0,70502.0,70525.0,70668.0,70740.0,0.07134543401663751,-0.10575505029795222,0.0448015397408278,-0.11782919421397085,0.006646827566507612
92,92,71149.21048600643,495.1736427747155,5.548477794503772,71251.39728720114,-11798.73009613146,11.498023288638468,71276.79137345764,44472.9790146031,10.972235392362924,71307.60271279886,-3406.1312813248137,20.383723206912453,71503.46223969116,6100.579735799636,29.376967793048745,0.9942632705599426,96.0,79.0,87.0,217.0,304.0,17.0,801.0,800.0,17.0,8.0,9.0,0.4705882352941176,40.31277909044734,439.63230157010184,20.0,15.0,5.0,0.75,1249.741277739617,4028.5356768472343,25.0,12.0,13.0,0.48,1977.978501274853,44407.961777383454,22.0,5.0,17.0,0.2272727272727272,583.2380205140033,10252.202762797058,75.0,37.0,38.0,0.4933333333333333,45.36104665579108,6153.400649341278,,,,,71141.0,71158.0,71237.0,71256.0,71265.0,71290.0,71303.0,71324.0,71467.0,71541.0,0.081411399170105,-0.10592167695652088,0.04447596147371567,-0.1712318088594498,0.0074355304938646715
93,93,71719.57533909987,77.64341935902974,2.5479654008640567,72051.82194810128,-11128.047301451074,13.388110346060914,72076.83377933268,43663.12364063352,10.292938344265114,72105.19593673556,-5685.88580225816,20.383723206912443,72302.94095193181,6896.150129035165,29.207392845887192,0.9864395987651208,322.0,315.0,91.0,214.0,305.0,7.0,571.0,800.0,7.0,6.0,1.0,0.8571428571428571,23.55392546255798,22.595312916955464,21.0,16.0,5.0,0.7619047619047619,1226.4367493925408,3726.366975349166,23.0,11.0,12.0,0.4782608695652174,2038.977722277875,40767.67093341597,29.0,6.0,23.0,0.2068965517241379,747.4519881391012,14534.822047250544,76.0,38.0,38.0,0.5,41.06175187446764,6751.364035258743,,,,,71714.0,71721.0,72036.0,72057.0,72066.0,72089.0,72099.0,72127.0,72265.0,72341.0,0.3033602288127296,-0.1102113170594284,0.046697935288815974,-0.1314574393742219,0.005954300748410846
94,94,72727.15064726071,520.3821312045599,5.540416943849983,72829.39728720114,-11221.787463181026,11.109029262262434,72854.80192006512,44059.56926271783,10.713569374669458,72883.027373699,-4502.172300064544,17.8357578060484,73079.25324467747,6258.4002543807865,29.789232298236385,0.9921563615876168,96.0,79.0,86.0,216.0,302.0,17.0,1006.0,778.0,17.0,8.0,9.0,0.4705882352941176,46.71560506565594,531.2702590041097,20.0,15.0,5.0,0.75,1228.2691959568403,3818.8952319233167,24.0,12.0,12.0,0.5,2027.2194115239424,43194.42595499856,25.0,4.0,21.0,0.16,779.1602106177581,13661.183348909264,75.0,37.0,38.0,0.4933333333333333,39.512787628908306,6323.316054228542,,,,,72719.0,72736.0,72815.0,72834.0,72843.0,72867.0,72879.0,72901.0,73042.0,73117.0,0.08977173170323992,-0.10945397067863058,0.04601087676177824,-0.17306317010714758,0.00631356033856255
95,95,73299.56978433057,211.1047747149186,2.8528744515359374,73643.39728720114,-11569.464950715452,13.822787390388427,73668.28646533462,44357.26943985667,10.71741651237325,73705.82194810128,-4816.5252600362455,22.93168860777651,73894.95922820238,5735.195599215805,24.27882632302474,0.9823721899041128,331.0,323.0,117.0,185.0,302.0,8.0,574.0,814.0,8.0,4.0,4.0,0.5,58.268383613531405,136.2155514621067,22.0,17.0,5.0,0.7727272727272727,1224.4388932122274,3829.498943728921,24.0,11.0,13.0,0.4583333333333333,1977.1658475802903,44111.31382487772,58.0,13.0,45.0,0.2241379310344827,236.0105787797756,6065.649839962182,64.0,30.0,34.0,0.46875,95.72593756811384,5764.934464326849,,,,,73296.0,73304.0,73627.0,73648.0,73657.0,73681.0,73693.0,73744.0,73865.0,73929.0,0.27601641740324706,-0.10583366633013642,0.044573660023439876,-0.049000174615091624,0.016690963004156793
96,96,74361.34190560154,726.2212221487222,7.635049712767583,74463.39728720114,-12116.257660092137,11.505290301285154,74488.41228082862,44154.9474999431,10.861355355554007,74518.54866508134,-4075.4105691814425,17.835757806048203,74716.91050636249,6144.515268808686,29.45287872953528,0.9942984748423352,97.0,76.0,87.0,220.0,307.0,21.0,1062.0,820.0,21.0,10.0,11.0,0.4761904761904761,43.190620167679754,683.6154151467205,20.0,15.0,5.0,0.75,1277.2033138092718,4057.7350609212126,24.0,11.0,13.0,0.4583333333333333,2026.307896354164,45644.84330735591,23.0,5.0,18.0,0.217391304347826,619.91872544175,11118.96605557156,76.0,38.0,38.0,0.5,31.232607271177734,5924.362902471041,,,,,74351.0,74372.0,74448.0,74468.0,74477.0,74501.0,74514.0,74535.0,74680.0,74755.0,0.05947309008663862,-0.10541235995798058,0.04589084601123748,-0.1521119688233675,0.005083005884894349
97,97,75138.86733838229,737.0271761567906,5.656801864279237,75239.972626301,-11142.869292623503,11.997664397124034,75264.60470930813,43885.89728006562,10.37105124126691,75291.60271279886,-5500.105577982422,20.383723206912453,75489.80111108121,7019.396889543296,30.142653595541397,0.9904401881153032,94.0,77.0,87.0,217.0,304.0,17.0,778.0,776.0,17.0,8.0,9.0,0.4705882352941176,58.10751563772842,606.1119998195952,21.0,16.0,5.0,0.7619047619047619,1268.0601566551315,4602.520263223947,23.0,11.0,12.0,0.4782608695652174,2054.2722172606623,40803.68151324446,26.0,5.0,21.0,0.1923076923076923,819.8678001880518,15278.120493435326,75.0,36.0,39.0,0.48,38.56202746400853,6835.778946161732,,,,,75131.0,75148.0,75225.0,75244.0,75254.0,75277.0,75287.0,75312.0,75454.0,75529.0,0.07884039763734164,-0.11380014638550753,0.04680939309844711,-0.1490640113291789,0.005493638281296486
98,98,,,,,,,,,,,,,,,,,,,,,,,,,,,,,,,,,,,,,,,,,,,,,,,,,,,,,,,,,,,,,,,,,,,,,,,,,
99,99,76660.90402820088,1092.9047624303855,11.742069793822242,76764.16533776515,-11135.177300762794,10.623530906078134,76790.05700646466,43965.594572853435,10.7384381760314,76820.60271279886,-3121.044806747249,20.38372320675296,77016.7284144139,6283.385117444824,31.73402132832854,0.9962363985574132,103.0,74.0,86.0,221.0,307.0,29.0,1519.0,1525.0,31.0,15.0,16.0,0.4838709677419355,42.834807476090674,1124.4985078747973,19.0,14.0,5.0,0.7368421052631579,1227.3752164340283,3799.935995304885,25.0,12.0,13.0,0.48,1996.4120528642595,44610.28667029152,20.0,5.0,15.0,0.25,576.9073258460123,9977.614653764718,80.0,40.0,40.0,0.5,40.34663238855034,6268.330193449496,,,,,76647.0,76676.0,76750.0,76769.0,76778.0,76803.0,76816.0,76836.0,76977.0,77057.0,0.039193540872523296,-0.11022502680311604,0.04540850799950161,-0.18484429464095545,0.006421161783722966
100,100,77423.17525857655,1406.335553451621,13.042173680728675,77526.72518242922,-11179.769245786669,10.687964876327436,77552.23684154602,43862.07614242442,10.851617084616876,77582.027373699,-3265.069855427938,17.516396983000185,77776.63954222093,6662.23469215909,34.30899040423836,0.9980470386133206,103.0,74.0,85.0,221.0,306.0,29.0,764.0,762.0,29.0,14.0,15.0,0.4827586206896552,57.99839321243615,1530.9682447335963,20.0,16.0,4.0,0.8,1289.0922495031396,5813.509510725193,24.0,11.0,13.0,0.4583333333333333,1992.1763139383745,45238.86210920723,21.0,4.0,17.0,0.1904761904761904,664.8916622059223,11172.789272753418,83.0,42.0,41.0,0.5060240963855421,38.492205017204896,6699.008493658905,,,,,77409.0,77438.0,77512.0,77531.0,77541.0,77565.0,77578.0,77597.0,77735.0,77818.0,0.041240792832186145,-0.11530580114513196,0.04541910664396242,-0.20363780612552254,0.005777671726651584
101,101,78175.68598851703,1102.8688077297195,9.709167871571813,78280.972626301,-11677.88764331993,11.096735110487275,78305.75451241458,43710.106700055374,10.90564288191424,78336.027373699,-3774.848234953169,17.835757806045788,78531.25431336841,6397.232239975816,32.526690593055115,0.996911301444631,102.0,78.0,87.0,220.0,307.0,24.0,751.0,754.0,24.0,12.0,12.0,0.5,54.27539800476902,1082.4961958554886,20.0,16.0,4.0,0.8,1311.6794887496487,6027.161379157812,25.0,12.0,13.0,0.48,1986.8760377230235,43788.2249947627,23.0,5.0,18.0,0.217391304347826,642.05783109074,11211.100867804578,82.0,40.0,42.0,0.4878048780487805,29.771061693886107,6271.594284419063,,,,,78164.0,78188.0,78266.0,78285.0,78294.0,78319.0,78332.0,78353.0,78491.0,78573.0,0.049212923263734484,-0.11232163973592992,0.045455758123795806,-0.17008838266545712,0.0046537409581363974
102,102,78940.09079117967,1210.6927591491765,10.298696281012262,79045.295970771,-11471.498118535985,10.959913778800267,79070.84695127852,43537.76661551996,10.743966996261852,79101.17805189872,-3460.0987747109316,19.47846594617228,79296.9737424457,6492.859033821095,31.857986425160988,0.9968038086100006,103.0,78.0,86.0,219.0,305.0,25.0,766.0,765.0,25.0,12.0,13.0,0.48,56.1171064431097,1240.643611802157,20.0,15.0,5.0,0.75,1231.6508030680334,3557.7559181690776,25.0,12.0,13.0,0.48,1989.662955822315,43624.133281234535,21.0,5.0,16.0,0.238095238095238,632.9476768400888,10985.515513825028,78.0,39.0,39.0,0.5,41.6435948254021,6578.021646565727,,,,,78928.0,78953.0,79031.0,79050.0,79059.0,79084.0,79096.0,79117.0,79258.0,79336.0,0.04635123652886668,-0.10736616877248976,0.04569970190232628,-0.1829276324323913,0.006413753110683898
103,103,79671.6760605771,1182.5781879272477,9.318211572199068,79776.31860838497,-10611.078271718605,10.60970805811378,79801.7824655517,42611.504568444376,10.298558317109514,79828.027373699,-5273.537133714955,15.715465922359812,80025.24511906957,8014.355903175641,34.5665960201937,0.9966807031856828,103.0,80.0,84.0,220.0,304.0,23.0,732.0,731.0,23.0,12.0,11.0,0.5217391304347826,60.513604607660525,1231.731812016158,19.0,14.0,5.0,0.7368421052631579,1186.0861562460927,3195.782557200325,24.0,12.0,12.0,0.5,2061.2278864328273,41127.17801426022,25.0,4.0,21.0,0.16,890.3254911006446,15708.208263224888,84.0,42.0,42.0,0.5,46.76445852070229,8217.71809830853,,,,,79660.0,79683.0,79763.0,79781.0,79790.0,79814.0,79824.0,79847.0,79983.0,80067.0,0.05117091218613219,-0.11177809887684396,0.04837256762717677,-0.16882890335759385,0.005835086323302931
104,104,80383.68800814454,1409.4671341898922,16.289691713916937,80486.80389093123,-10556.14439673044,9.833652206836533,80512.65197485476,43025.64912273617,10.45008432755507,80541.027373699,-4378.826489201326,13.325831525748368,80736.8416641599,6791.736021419328,32.647435708536854,0.9984363732504008,105.0,73.0,84.0,219.0,303.0,32.0,710.0,711.0,33.0,17.0,16.0,0.5151515151515151,52.0147392704806,1497.352075668836,19.0,14.0,5.0,0.7368421052631579,1239.9776513334623,4584.107845719127,24.0,12.0,12.0,0.5,2043.7956194813369,42665.689993865315,21.0,4.0,17.0,0.1904761904761904,754.2751394087632,12965.800674700498,78.0,39.0,39.0,0.5,38.30565191637088,6943.074810303242,,,,,80368.0,80400.0,80473.0,80492.0,80501.0,80525.0,80537.0,80557.0,80698.0,80776.0,0.036903832667497194,-0.11746501418808947,0.04750179628089162,-0.17225508735477182,0.005640038393065491
105,105,81108.3756794785,1216.4038488200213,16.13465480184141,81207.27324762786,-10640.506856454016,9.867454791155687,81232.20407511339,43121.573477483966,10.561192818787426,81262.45203459915,-2822.1169258424866,10.163046514606872,81453.4886564524,6974.314745882912,36.76017392055837,0.994023555245026,100.0,70.0,82.0,220.0,302.0,30.0,723.0,719.0,30.0,15.0,15.0,0.5,54.17211916073129,1337.2825639412138,19.0,14.0,5.0,0.7368421052631579,1262.3621083179598,5514.871915008116,24.0,11.0,13.0,0.4583333333333333,2029.0908409654824,45834.8713924214,18.0,4.0,14.0,0.2222222222222222,641.3461871248361,10191.01413284536,86.0,41.0,45.0,0.4767441860465116,119.91278561576097,5845.20956831912,,,,,81093.0,81123.0,81193.0,81211.0,81221.0,81245.0,81259.0,81275.0,81415.0,81495.0,0.04453464958474213,-0.1186374037767075,0.047055120612075466,-0.22725712788578914,0.01719348638323902
106,106,81478.9159723564,810.0675844836744,3.2780940413341915,81901.75339099858,-13037.61468503604,25.47965400864057,81935.25407998681,47107.64653399409,10.066184739410971,81973.09593080172,-10579.141137255248,30.57558481036868,82167.99577487938,1701.7986834596031,6.775631409872931,0.8170750406641825,414.0,403.0,205.0,86.0,291.0,11.0,374.0,703.0,11.0,6.0,5.0,0.5454545454545454,124.63068664090268,281.4444549701616,61.0,47.0,14.0,0.7704918032786885,616.025938532233,12638.740536564535,21.0,10.0,11.0,0.4761904761904761,2067.6704620114933,37741.19897681786,137.0,17.0,120.0,0.1240875912408759,219.17612784175583,10287.607157489843,19.0,9.0,10.0,0.4736842105263157,106.01632564410876,1518.38427478707,,,,,81473.0,81484.0,81887.0,81916.0,81925.0,81946.0,81956.0,82092.0,82159.0,82178.0,0.15385220817142128,-0.047249896044195765,0.04389245938065297,-0.020717761961782554,0.06229663160191612
107,107,,,,,,,,,,,,,,,,,,,,,,,,,,,,,,,,,,,,,,,,,,,,,,,,,,,,,,,,,,,,82302.0,82601.0,82618.0,82628.0,82651.0,82661.0,82680.0,82830.0,82905.0,,,,,
108,108,83271.95921089004,1943.2564941790672,11.725906500246884,83365.93924621561,-10923.198278201891,9.838462126992262,83392.6175266985,45614.326438003445,10.420317084327571,83420.027373699,-4693.6673200562645,14.381631388364768,83620.04273788392,7403.632688145299,33.411723596753696,0.9916532254965847,92.0,66.0,91.0,212.0,303.0,26.0,1795.0,1458.0,26.0,11.0,15.0,0.4230769230769231,83.82077759754588,2174.0049871814335,18.0,13.0,5.0,0.7222222222222222,1240.2883492976468,3100.070666318827,24.0,12.0,12.0,0.5,2146.537054210951,44311.04416006646,30.0,4.0,26.0,0.1333333333333333,850.7148730237353,14800.48541027193,79.0,41.0,38.0,0.5189873417721519,52.29396665514596,7777.185214068199,,,,,83261.0,83287.0,83353.0,83371.0,83381.0,83405.0,83416.0,83444.0,83582.0,83656.0,0.04313418112772403,-0.1135462634394123,0.04705839638185624,-0.18124737332545707,0.007063284857294324
109,109,84008.1055374881,1000.015528836259,3.800921195375505,84106.67123696578,-15577.559045005915,10.12507892758587,84132.39566066855,44713.351985838366,11.047385447584398,84162.17805189872,-6765.759047010971,22.93168860777651,84360.15156228747,6130.0936002554445,29.21647770726707,0.9810981138612944,91.0,79.0,85.0,221.0,306.0,12.0,734.0,739.0,12.0,6.0,6.0,0.5,149.38441011623428,608.5544946359644,19.0,14.0,5.0,0.7368421052631579,1500.8737709864552,961.8177235198186,24.0,11.0,13.0,0.4583333333333333,2044.0894591116949,44425.17598410732,22.0,6.0,16.0,0.2727272727272727,853.9529720963986,15823.21510147067,81.0,42.0,39.0,0.5185185185185185,68.74741287150215,6468.206910104173,,,,,84002.0,84014.0,84093.0,84112.0,84121.0,84145.0,84157.0,84178.0,84318.0,84399.0,0.14938209038621264,-0.09634845656178896,0.04571541538104994,-0.1262168762089842,0.011214741136846167
110,110,84708.45251135202,1488.8092302430434,22.970472634058293,84805.98394313765,-11229.54558747831,9.274132245873457,84832.12122056591,44535.395089443075,10.626227545361584,84862.027373699,-4005.2443930969407,10.784031360323027,85055.47872103108,6671.992676457098,34.807720701858536,0.9967814396355414,106.0,51.0,83.0,220.0,303.0,55.0,697.0,700.0,57.0,23.0,34.0,0.4035087719298245,43.47878855239713,1565.4950599849471,18.0,13.0,5.0,0.7222222222222222,1288.4248415788122,4172.988860139309,25.0,12.0,13.0,0.48,2081.6188418015804,46514.949493930704,19.0,4.0,15.0,0.2105263157894736,690.3467088957982,11514.263134467194,86.0,43.0,43.0,0.5,39.46746088522835,6899.203298269341,,,,,84687.0,84742.0,84793.0,84811.0,84820.0,84845.0,84858.0,84876.0,85015.0,85096.0,0.02920373387616582,-0.11473526079412258,0.04674077411059095,-0.17236069541364674,0.005915393316376661
111,111,85362.45543929319,1035.2773980039567,6.95396261000595,85461.39728720114,-11613.078875554653,13.044951875267907,85486.38804351796,45489.83698919823,10.585012928917411,85517.4115827053,-5204.794166781832,22.93168860777651,85710.9284341148,6382.816474368919,26.63621871236495,0.98905424385255,93.0,73.0,90.0,210.0,300.0,20.0,657.0,655.0,20.0,9.0,11.0,0.45,65.0098585350993,928.8006724100989,21.0,16.0,5.0,0.7619047619047619,1241.4674923899352,3418.90343573475,24.0,11.0,13.0,0.4583333333333333,2062.2981671146854,44637.19210611282,26.0,7.0,19.0,0.2692307692307692,630.7528157845614,12504.975159776764,71.0,36.0,35.0,0.5070422535211268,40.604581965779104,6219.909028694166,,,,,85353.0,85373.0,85446.0,85466.0,85475.0,85499.0,85510.0,85536.0,85676.0,85746.0,0.06279462746935274,-0.10690252823505786,0.045335360678570635,-0.1211868895431385,0.006361546212214061
112,112,,,,,,,,,,,,,,,,,,,,,,,,,,,,,,,,,,,,,,,,,,,,,,,,,,,,,,,,,,,,85752.0,86091.0,86114.0,86123.0,86144.0,86154.0,86190.0,86327.0,86386.0,,,,,
113,113,,,,,,,,,,,,,,,,,,,,,,,,,,,,,,,,,,,,,,,,,,,,,,,,,,,,,,,,,,,,86411.0,86744.0,86765.0,86774.0,86797.0,86807.0,86833.0,86974.0,87042.0,,,,,
114,114,,,,,,,,,,,,,,,,,,,,,,,,,,,,,,,,,,,,,,,,,,,,,,,,,,,,,,,,,,,,87060.0,87404.0,87425.0,87434.0,87458.0,87469.0,87496.0,87635.0,87703.0,,,,,
115,115,88031.79431728004,1474.5796167213707,10.061280580490523,88140.39728720114,-11599.986793635935,12.65883164615711,88165.16875295907,43747.43208051333,10.674795943722856,88197.54538067624,-4847.646814314754,20.383723206912453,88391.41788820995,5633.802686445836,30.892554757284937,0.99356027222108,106.0,80.0,90.0,215.0,305.0,26.0,2670.0,2679.0,26.0,13.0,13.0,0.5,61.184959871216506,1452.3047240685037,21.0,16.0,5.0,0.7619047619047619,1238.817516161764,3962.466116526988,24.0,11.0,13.0,0.4583333333333333,1993.6203806070412,43466.60474016769,25.0,8.0,17.0,0.32,474.8286047805605,9710.39092613367,80.0,40.0,40.0,0.5,34.75704637833887,5550.857829747076,,,,,88019.0,88045.0,88125.0,88145.0,88154.0,88178.0,88190.0,88215.0,88352.0,88430.0,0.04149315450816903,-0.10679473504585475,0.04557114065433502,-0.09795032991645052,0.006169375875012379
116,116,88808.7693000942,1606.4552968605649,10.817549176443148,88916.39728720114,-11702.080366531436,11.932913389545607,88941.18996296459,44009.70037427496,10.820100489169764,88970.60271279886,-4031.923249181539,20.383723206907163,89166.7438446285,5639.491070680291,30.529388676895618,0.9948902506873308,106.0,77.0,87.0,218.0,305.0,29.0,777.0,776.0,29.0,14.0,15.0,0.4827586206896552,60.8419802330282,1567.6100476502695,21.0,16.0,5.0,0.7619047619047619,1260.8962999698842,4432.194020817424,24.0,11.0,13.0,0.4583333333333333,1990.265183480306,44196.32920305147,24.0,5.0,19.0,0.2083333333333333,664.7953133593586,11866.883457573356,78.0,39.0,39.0,0.5,37.72257808552173,5628.98746748673,,,,,88795.0,88824.0,88901.0,88921.0,88930.0,88954.0,88966.0,88988.0,89128.0,89206.0,0.03787343497944163,-0.10774975563969923,0.04522332955131133,-0.16488292863568493,0.006689003956694139
117,117,89581.54950732975,1674.1734409664875,11.786073835515378,89686.972626301,-11608.00741318664,11.52388783823138,89711.63668178661,43547.549276471655,10.813840950377209,89741.027373699,-4184.866987320067,17.8357578060484,89937.74168213704,6043.513799113093,32.22440297650945,0.9959715776918538,104.0,76.0,87.0,219.0,306.0,28.0,773.0,770.0,28.0,14.0,14.0,0.5,66.49726669185897,1713.452617546382,20.0,16.0,4.0,0.8,1298.4526085732782,5846.989877294719,24.0,12.0,12.0,0.5,1994.3567189071491,42808.08507453027,24.0,5.0,19.0,0.2083333333333333,689.6718782601098,12215.542770581807,82.0,41.0,41.0,0.5,37.3957875956277,6072.075650846551,,,,,89568.0,89596.0,89672.0,89691.0,89700.0,89724.0,89737.0,89759.0,89897.0,89978.0,0.0397194609977032,-0.1118583545267418,0.04579722055644316,-0.16480138564732888,0.006187755805424928
118,118,90335.67548849188,1853.2765075476616,12.432675813866014,90441.61915617745,-10767.581369841631,11.287948872836314,90466.67554162204,42682.231569285395,10.289311928301606,90493.027373699,-5524.680462419919,17.83575780575086,90690.70777024106,7212.349592562942,33.659609019829446,0.9945303066319036,105.0,76.0,86.0,219.0,305.0,29.0,755.0,755.0,30.0,15.0,15.0,0.5,68.99321026081927,1823.6734017319804,21.0,16.0,5.0,0.7619047619047619,1251.1720801829829,4888.289353737526,24.0,12.0,12.0,0.5,2046.9647805345207,40230.793638216026,26.0,4.0,22.0,0.1538461538461538,885.4344469028782,16001.945997119492,83.0,41.0,42.0,0.4939759036144578,41.601380968659576,7308.957641671632,,,,,90322.0,90351.0,90427.0,90446.0,90455.0,90479.0,90489.0,90513.0,90650.0,90732.0,0.03722769375203173,-0.11619806131090189,0.047958241761837474,-0.1602688975273405,0.005768076052713403
119,119,91050.53004031348,1505.9166395406623,11.251802775930868,91156.20546620704,-10337.718294035216,10.843851973734305,91181.77032880216,42395.651744654315,10.126240785023471,91208.027373699,-5693.8140376238935,17.83575780604748,91406.2340918202,6336.556452167321,31.010098858783618,0.9949941287711048,106.0,78.0,85.0,217.0,302.0,28.0,714.0,715.0,28.0,14.0,14.0,0.5,56.280677852022926,1489.5712838053378,20.0,14.0,6.0,0.7,1157.5089736168718,2720.3716945993283,22.0,11.0,11.0,0.5,2057.7524955785793,39874.72909024767,26.0,5.0,21.0,0.1923076923076923,883.1755158441546,16167.930024944017,77.0,38.0,39.0,0.4935064935064935,44.086090799912625,6395.052169025581,,,,,91037.0,91065.0,91143.0,91161.0,91171.0,91193.0,91204.0,91228.0,91368.0,91445.0,0.03737303671017923,-0.11196948308068576,0.04853687609220543,-0.15511140862842718,0.006957420979786846
120,120,91762.85405368522,1909.9917574746964,17.978414684441358,91871.39728720114,-10835.653890649248,10.715766653852658,91896.7057266128,43079.14577226306,10.65023314032535,91924.45203459916,-4791.874815973281,15.287792405183684,92121.78234792988,6383.026182081452,32.49137927978812,0.995678969370406,111.0,74.0,85.0,219.0,304.0,37.0,716.0,715.0,39.0,18.0,21.0,0.4615384615384615,56.33597194805766,2134.91929180156,19.0,14.0,5.0,0.7368421052631579,1215.392262744684,4135.706147582149,24.0,12.0,12.0,0.5,2016.7105132353065,42296.31159147261,25.0,4.0,21.0,0.16,841.3819696247126,14513.3048423875,79.0,40.0,39.0,0.5063291139240507,41.903620501117864,6472.473254751056,,,,,91746.0,91783.0,91857.0,91876.0,91885.0,91909.0,91921.0,91942.0,92082.0,92161.0,0.029495400557404763,-0.11216602846585205,0.046814078531097196,-0.17558513148549748,0.006564851734237042
121,121,92514.51744764014,1654.1780837816054,12.832146774552184,92622.57469565184,-11116.57872773962,11.07542688456537,92648.12113093345,44009.071661493785,10.70646325370377,92678.17805189872,-3619.935939656575,22.93168860777467,92875.10272843111,5964.133919151749,31.92941411292028,0.9961148199945012,108.0,77.0,87.0,220.0,307.0,31.0,749.0,751.0,31.0,15.0,16.0,0.4838709677419355,55.68969022286777,1704.8642330676985,21.0,16.0,5.0,0.7619047619047619,1280.16879893513,5286.471688403011,24.0,11.0,13.0,0.4583333333333333,1995.3110271356552,44084.59271114813,23.0,5.0,18.0,0.217391304347826,653.3511611808561,11586.923461853648,80.0,40.0,40.0,0.5,40.13108764814327,5977.073808242192,,,,,92500.0,92531.0,92608.0,92627.0,92637.0,92661.0,92673.0,92695.0,92835.0,92915.0,0.033666079105313704,-0.11515852406466356,0.04533863023703529,-0.18048694012050387,0.006728736844636602
122,122,93320.29166340652,1512.106628471085,9.556805618797965,93425.39728720114,-11431.535010682765,12.189619826694903,93450.52116590612,44305.89099031924,10.753466115623503,93482.54245401,-3916.094927062673,22.93168860777651,93679.16114505687,5776.2762727675035,30.441663133337368,0.9951598946772436,103.0,77.0,91.0,217.0,308.0,26.0,806.0,803.0,27.0,13.0,14.0,0.4814814814814814,66.3686568405017,1474.0862376426262,21.0,16.0,5.0,0.7619047619047619,1227.947408455561,3856.0463635706105,24.0,12.0,12.0,0.5,1988.1079426170136,42736.84066032707,25.0,7.0,18.0,0.28,478.853320614298,9328.531648368336,77.0,38.0,39.0,0.4935064935064935,38.44585810465484,5771.760851682878,,,,,93307.0,93333.0,93410.0,93430.0,93439.0,93463.0,93476.0,93501.0,93641.0,93718.0,0.0438915190178143,-0.10741754342772379,0.044872316032452925,-0.12227827198598307,0.006655820512933124
123,123,94139.64868891033,1022.2747814412436,7.291116519414021,94244.972626301,-11211.647861419462,12.748504874918671,94269.59599689614,43933.996629412366,10.452897765074765,94297.60271279898,-5189.674030536252,20.383723205916866,94495.5842139238,6143.15684577054,30.113800423695167,0.9896375773305328,101.0,79.0,87.0,218.0,305.0,22.0,818.0,819.0,22.0,11.0,11.0,0.5,59.55503490366559,956.2495036988892,21.0,16.0,5.0,0.7619047619047619,1264.2191410551138,4670.438248039248,23.0,11.0,12.0,0.4782608695652174,2030.3035263027928,41072.44600978893,25.0,5.0,20.0,0.2,745.6003610704754,14003.36542561336,79.0,40.0,39.0,0.5063291139240507,40.781417284616026,6110.133681456145,,,,,94129.0,94151.0,94230.0,94249.0,94259.0,94282.0,94293.0,94317.0,94457.0,94535.0,0.05825736483463139,-0.11275944059975641,0.04621258437807525,-0.14366997940204582,0.006638511486597212
124,124,94921.41653704122,751.2712308997425,6.0239606574010125,95027.39728720114,-11138.672186216098,13.299931552577132,95051.3304551609,43230.18990897524,10.196159484663198,95081.49181568512,-6070.764044397286,20.383723206912453,95278.8928739646,5866.871628162745,27.722988553741985,0.9860327592305091,100.0,81.0,90.0,214.0,304.0,19.0,781.0,782.0,19.0,9.0,10.0,0.4736842105263157,57.15421309948703,746.7016586589469,21.0,16.0,5.0,0.7619047619047619,1244.1962891524115,3943.294776959092,22.0,10.0,12.0,0.4545454545454545,2044.5667679489088,41462.884304341846,29.0,8.0,21.0,0.2758620689655172,636.4269530936549,13199.132194913072,74.0,37.0,37.0,0.5,39.66417474251596,5736.264457193849,,,,,94912.0,94931.0,95012.0,95032.0,95041.0,95063.0,95073.0,95102.0,95242.0,95316.0,0.07607666944871244,-0.1117005930645918,0.04729488286435739,-0.10483473718287799,0.006760702680473869
125,125,95683.45478957788,1408.5251642790536,13.238170566179464,95786.3556507107,-10662.731444283309,10.536333226443196,95812.46185278238,43721.30747747224,10.573871293234998,95842.60271279886,-3351.1294529830684,20.36077670394917,96039.81413137252,6461.340810514029,32.335450004763395,0.9969290308355316,104.0,74.0,85.0,221.0,306.0,30.0,762.0,761.0,30.0,14.0,16.0,0.4666666666666667,51.25017692274108,1516.7395939836415,20.0,14.0,6.0,0.7,1173.1212198330347,2962.992334387748,24.0,11.0,13.0,0.4583333333333333,2006.7135161779263,44870.949269964825,21.0,6.0,15.0,0.2857142857142857,593.9615626215494,10371.946010139967,81.0,41.0,40.0,0.5061728395061729,41.09779411220679,6530.073543737799,,,,,95669.0,95699.0,95773.0,95791.0,95801.0,95825.0,95838.0,95858.0,96000.0,96079.0,0.03638570202540416,-0.11002070397843408,0.045897838650225675,-0.17724220175762648,0.006360567460755452
126,126,96451.75942136194,1392.1963077958774,10.990871688171948,96554.97262630097,-11512.519017081177,11.313136389592527,96579.99712882804,43887.64065040337,10.866100534203149,96609.60271279886,-3994.780885566675,20.38372320666122,96807.94244513645,5970.6327947233585,30.865775978075675,0.996182513497976,101.0,74.0,88.0,219.0,307.0,27.0,769.0,767.0,27.0,13.0,14.0,0.4814814814814814,57.274707418484134,1399.5673624053193,21.0,16.0,5.0,0.7619047619047619,1286.4712351060805,5460.482207634761,25.0,12.0,13.0,0.48,1983.7424562156723,43789.87672727088,24.0,5.0,19.0,0.2083333333333333,650.0301049134131,11604.507215572266,78.0,39.0,39.0,0.5,34.62510878176902,5958.994315010029,,,,,96439.0,96466.0,96540.0,96559.0,96568.0,96593.0,96605.0,96628.0,96769.0,96847.0,0.04113982137272103,-0.11174541672394524,0.045200480746222106,-0.16271983959420688,0.0057992360227494665
127,127,97214.48767309012,1353.1877432901852,12.24353446061106,97319.73966502944,-11222.560426851704,10.929347744130824,97345.08610723462,43551.588012061686,10.761053164657318,97375.027373699,-3672.05438499896,17.835757804512653,97571.95490012236,6548.589556683848,32.49803226731179,0.9964279306041928,103.0,76.0,86.0,221.0,307.0,27.0,764.0,765.0,28.0,12.0,16.0,0.4285714285714285,58.415176089270545,1474.3337384389924,20.0,16.0,4.0,0.8,1282.808702599766,5575.500546400537,25.0,12.0,13.0,0.48,1998.6337191939335,44260.11201736861,22.0,5.0,17.0,0.2272727272727272,649.9061362219187,11254.007485147496,80.0,40.0,40.0,0.5,36.82753554470346,6555.138196641818,,,,,97202.0,97229.0,97305.0,97324.0,97333.0,97358.0,97371.0,97391.0,97532.0,97612.0,0.04316856724347648,-0.1143062415177956,0.04589117895403512,-0.17698706720600565,0.0056237354969231905
128,128,97957.4660431933,1345.3545595944047,12.750704315097629,98060.55614037914,-10348.42799391377,10.616712022181098,98086.43366867436,42246.80847668104,10.283714009601931,98113.60271279886,-4957.574600957136,16.905376820166122,98311.56454567776,6993.135278154551,32.160919428513765,0.9953078445974662,103.0,73.0,85.0,220.0,305.0,30.0,745.0,742.0,30.0,13.0,17.0,0.4333333333333333,48.86705911482616,1448.537249300137,20.0,15.0,5.0,0.75,1199.414117605846,4178.222474619081,23.0,11.0,12.0,0.4782608695652174,2027.6226818516056,42288.02652926612,24.0,5.0,19.0,0.2083333333333333,777.773938873392,14050.027123662683,80.0,40.0,40.0,0.5,44.192711669183275,7006.21355366969,,,,,97944.0,97974.0,98047.0,98066.0,98075.0,98098.0,98109.0,98132.0,98272.0,98352.0,0.03632281079090297,-0.11590302588096071,0.04799469486483913,-0.1568859778173042,0.006319441839947573
129,129,98687.46917852935,1072.7285977129336,9.60398670119291,98790.82194810128,-10702.147002725116,11.494285449226368,98816.23692112988,43504.68894506059,10.494852317635958,98844.027373699,-4740.09958825592,17.83575780604475,99041.94827313846,6536.332269057256,31.55453015608191,0.994928473439682,100.0,75.0,86.0,219.0,305.0,25.0,729.0,730.0,25.0,11.0,14.0,0.44,48.825108348892535,1070.9886037780277,20.0,15.0,5.0,0.75,1232.21147487981,4755.025405941149,24.0,11.0,13.0,0.4583333333333333,2031.1770639041856,43196.80444489909,24.0,4.0,20.0,0.1666666666666666,796.0107128774755,14160.39914881821,78.0,39.0,39.0,0.5,45.99346169335458,6650.617619352353,,,,,98676.0,98701.0,98776.0,98796.0,98805.0,98829.0,98840.0,98862.0,99003.0,99081.0,0.0455148752937025,-0.1151368482012113,0.04668869294685074,-0.1679312212869268,0.007036585626328369
130,130,99457.78010539386,1974.1502691284504,22.72473919194944,99565.13680149891,-10466.083556508383,10.106614823231434,99590.97585944242,44027.577952263295,10.722624572239257,99621.027373699,-3331.070069681863,17.8357578060484,99818.57891551238,5804.201932578129,31.01876458288101,0.9980704467569488,122.0,69.0,91.0,215.0,306.0,53.0,772.0,774.0,54.0,30.0,24.0,0.5555555555555556,45.95449116160382,2306.2555110934613,19.0,14.0,5.0,0.7368421052631579,1219.022168314499,4824.496825106037,25.0,12.0,13.0,0.48,2011.9976818354585,44505.236174575155,27.0,4.0,23.0,0.1481481481481481,613.54332609739,10807.039202946393,80.0,41.0,39.0,0.5125,38.67388383026958,5834.805852615712,,,,,99429.0,99482.0,99551.0,99570.0,99579.0,99604.0,99617.0,99642.0,99778.0,99857.0,0.023278112046603145,-0.11647357502285983,0.045698577469261606,-0.18418805767000485,0.006663083793346123
131,131,100192.97907981902,1679.6633471451528,16.72552803150402,100296.74763607324,-10009.974449063711,10.3588958068624,100322.50984140376,41548.92590624819,10.222000055139858,100349.027373699,-5200.9752444387,14.114720691083429,100547.05845753002,7394.36496963411,32.28734433709905,0.9963937275974488,105.0,71.0,84.0,220.0,304.0,34.0,733.0,732.0,34.0,15.0,19.0,0.4411764705882353,57.485508582192594,1945.6196776600011,19.0,14.0,5.0,0.7368421052631579,1175.8385747429634,4136.092562776896,23.0,12.0,11.0,0.5217391304347826,2026.2381097477175,39710.6927592241,23.0,4.0,19.0,0.1739130434782608,854.6821697045824,15041.927288580317,79.0,39.0,40.0,0.4936708860759494,44.91011315224484,7528.878195863495,,,,,100178.0,100212.0,100283.0,100302.0,100311.0,100334.0,100345.0,100367.0,100508.0,100587.0,0.03422442281657101,-0.11746669092176815,0.04876752083362542,-0.1643311358996521,0.006073559167916903
132,132,100873.47940829814,1070.0027146104596,15.19482059317521,100972.73742664311,-9381.180738340852,9.721105513634184,100998.70859140556,41396.06160343154,10.072027564839209,101025.027373699,-5680.6951047460825,13.277684517864987,101220.33187314564,7367.873912164995,34.84359506183941,0.9967396168471786,114.0,68.0,82.0,221.0,303.0,46.0,684.0,676.0,47.0,27.0,20.0,0.574468085106383,36.42185231881008,1019.0271667184325,19.0,14.0,5.0,0.7368421052631579,1150.8514278796963,4140.708452626283,23.0,12.0,11.0,0.5217391304347826,2049.9752156829286,39797.27165024042,23.0,5.0,18.0,0.217391304347826,881.5672643046332,15641.504442737954,84.0,41.0,43.0,0.4880952380952381,39.41580157340183,7493.216579486412,,,,,100846.0,100892.0,100960.0,100978.0,100987.0,101010.0,101021.0,101042.0,101179.0,101263.0,0.03403902795898014,-0.12267660755923512,0.049521020509665954,-0.15518651292657923,0.005349684596030199
133,133,101598.38550543328,1328.937383944164,10.793782830973804,101703.81893206824,-11232.06352856752,11.33799974283833,101729.0724433205,44402.85429168067,10.753153262665236,101758.60271279886,-4094.284639040739,20.383723206912453,101956.65982529074,6387.861297542395,30.47613455843723,0.995891473491206,103.0,77.0,87.0,219.0,306.0,26.0,720.0,730.0,26.0,12.0,14.0,0.4615384615384615,55.21223928984182,1381.603366073844,21.0,16.0,5.0,0.7619047619047619,1284.8059242390673,5471.6016234802355,24.0,11.0,13.0,0.4583333333333333,2014.1373668755937,44246.86900411728,23.0,5.0,18.0,0.217391304347826,658.100290574506,11838.886575686029,76.0,38.0,38.0,0.5,38.468445902124614,6326.8651320760055,,,,,101586.0,101612.0,101689.0,101708.0,101718.0,101742.0,101754.0,101776.0,101919.0,101995.0,0.04154615556526597,-0.11438734485175449,0.04536053816821778,-0.16073633090851594,0.006022116653804709
134,134,102319.05858468016,1701.506140712748,14.453605936392687,102427.39728720114,-11133.28750528595,10.943419327614324,102452.6328542146,43370.26810455583,10.84966755772853,102482.027373699,-3774.024368651476,15.343282443275369,102677.98812114932,6604.902588532346,33.432113789830645,0.9971181325385744,109.0,77.0,84.0,222.0,306.0,32.0,721.0,724.0,32.0,15.0,17.0,0.46875,55.021043097123055,1835.8352484123775,20.0,15.0,5.0,0.75,1232.7634645981568,4610.586048452077,24.0,12.0,12.0,0.5,1982.8444691824784,43323.3354082087,21.0,4.0,17.0,0.1904761904761904,700.5161686656008,11810.05132948219,81.0,40.0,41.0,0.4938271604938271,42.6973257927067,6816.911355789357,,,,,102304.0,102336.0,102413.0,102432.0,102441.0,102465.0,102478.0,102497.0,102639.0,102719.0,0.032336670306740804,-0.11072771308679988,0.045718981132472886,-0.18561516838215525,0.006464489857403686
135,135,103108.73197751956,1820.1075782124035,16.998204704088682,103215.19486668483,-10458.829177364552,10.208219263137572,103240.90018465834,43082.35163711976,10.629976052331864,103270.027373699,-3801.084452855012,15.357795560895164,103466.65016559287,7068.328180306411,32.7456736937802,0.9966631839778476,109.0,73.0,85.0,222.0,307.0,36.0,788.0,788.0,36.0,17.0,19.0,0.4722222222222222,55.41103056013764,1987.8658933721165,19.0,14.0,5.0,0.7368421052631579,1207.1619911996552,4423.123877604187,24.0,12.0,12.0,0.5,2001.846014551662,43388.136883652434,21.0,4.0,17.0,0.1904761904761904,692.5123815916672,11856.403805069598,81.0,40.0,41.0,0.4938271604938271,41.91097073407752,7104.60246961534,,,,,103092.0,103128.0,103201.0,103220.0,103229.0,103253.0,103266.0,103286.0,103427.0,103508.0,0.030443821685836234,-0.1154203755246569,0.04646556973985772,-0.18218810715229386,0.005929403624869705
136,136,103883.04740213195,1462.8054590234883,11.54243152908526,103988.17331940906,-9780.549854131012,10.69359161041668,104014.49889883625,42598.78068992676,10.015809505086152,104041.17805189872,-4971.183047578576,22.93168859500679,104239.8444252598,6736.1832095279005,31.915190751797724,0.9928975994241552,106.0,78.0,86.0,220.0,306.0,28.0,774.0,774.0,29.0,14.0,15.0,0.4827586206896552,57.199725345615846,1474.8745605666593,19.0,13.0,6.0,0.6842105263157895,1084.637732278356,1391.356940326929,23.0,11.0,12.0,0.4782608695652174,2032.557895335214,41292.54062684465,26.0,5.0,21.0,0.1923076923076923,846.6606180871986,15623.650569363634,81.0,40.0,41.0,0.4938271604938271,41.33106954272195,6712.810688662006,,,,,103869.0,103897.0,103975.0,103994.0,104003.0,104026.0,104036.0,104061.0,104200.0,104281.0,0.03910275627751632,-0.11089741869883087,0.04771399233536861,-0.17031370802159462,0.0061356807344939476
137,137,104639.01883366144,1113.14977201346,9.872146132700504,104744.39728720114,-11237.003605929092,11.78297831526307,104769.2736736972,44041.63445973592,10.755766372602146,104798.027373699,-4650.411287036719,17.835757806047514,104996.86522977008,6543.731961902462,29.801346415961632,0.993549997598412,102.0,77.0,87.0,219.0,306.0,25.0,758.0,755.0,25.0,12.0,13.0,0.48,49.92260622468447,1078.5436903028235,21.0,16.0,5.0,0.7619047619047619,1244.8532830214835,4757.734339190478,24.0,11.0,13.0,0.4583333333333333,2015.1726951522623,44241.06196534796,25.0,5.0,20.0,0.2,748.36838645063,13361.111158807484,76.0,38.0,38.0,0.5,46.9229842222588,6543.448047269523,,,,,104627.0,104652.0,104729.0,104749.0,104758.0,104782.0,104794.0,104816.0,104959.0,105035.0,0.04484805861693229,-0.11078160394686082,0.045756083303279516,-0.1609252043011225,0.007170676380915953
138,138,105431.39798188672,943.50642178523,7.270461113368995,105535.39728720114,-11846.892510223466,12.800609339905376,105560.11336851354,44052.35582605221,10.725751309628196,105594.83728061782,-4408.954663496553,20.383723206912453,105788.55443454935,5992.82942313517,29.39269047710707,0.9929620935336996,99.0,78.0,92.0,214.0,306.0,21.0,793.0,791.0,21.0,10.0,11.0,0.4761904761904761,55.71288606166696,903.4576841771188,21.0,16.0,5.0,0.7619047619047619,1259.2073660392746,4146.32920349762,24.0,11.0,13.0,0.4583333333333333,1995.2965806279624,44186.13500216362,28.0,10.0,18.0,0.3571428571428571,361.6575093874601,7677.540986271506,75.0,38.0,37.0,0.5066666666666667,37.94955887155672,5895.4483342881485,,,,,105421.0,105442.0,105520.0,105540.0,105549.0,105573.0,105585.0,105612.0,105751.0,105826.0,0.05904876191118163,-0.10629009801115535,0.04529375428879924,-0.08202794925104652,0.00633249441825482
139,139,106245.45203459916,657.6297507969723,5.783561437273772,106350.39728720114,-11462.420109006574,12.743491374045393,106375.0532004886,44558.483862899426,10.680390107652158,106410.36698418658,-3986.741621765101,22.93168860777651,106605.50848878048,5484.607050261949,26.912254358537265,0.991004412520494,98.0,81.0,90.0,216.0,306.0,17.0,815.0,815.0,17.0,8.0,9.0,0.4705882352941176,52.08727295788324,586.7214470154811,21.0,16.0,5.0,0.7619047619047619,1260.2046459578598,4517.64794819467,24.0,11.0,13.0,0.4583333333333333,2004.555296811085,44410.032238641914,25.0,10.0,15.0,0.4,354.3125021457018,7277.290662921796,71.0,36.0,35.0,0.5070422535211268,40.74250852134192,5376.18992006198,,,,,106237.0,106254.0,106335.0,106355.0,106364.0,106388.0,106400.0,106425.0,106570.0,106641.0,0.0792045568114268,-0.10994228391329476,0.04498706246331983,-0.08887270251259284,0.0074285191533267686
140,140,107070.54854166054,1016.5081423646592,8.011475354778776,107176.972626301,-11520.838539831911,12.338559829278356,107201.95474178244,43437.31508996158,10.697246889029074,107234.9378841308,-4382.671586071027,17.8357578060484,107432.25595232323,6182.847084871942,28.36397739117003,0.9914039852635756,102.0,80.0,90.0,217.0,307.0,22.0,824.0,826.0,23.0,12.0,11.0,0.5217391304347826,56.76581441575988,854.6125646387324,21.0,16.0,5.0,0.7619047619047619,1261.5352466832232,4829.806891066581,24.0,11.0,13.0,0.4583333333333333,1993.956626452395,43628.54849381181,25.0,8.0,17.0,0.32,446.7633387140546,8974.2626215804,74.0,37.0,37.0,0.5,38.9763106798557,6062.676493914952,,,,,107060.0,107082.0,107162.0,107181.0,107191.0,107215.0,107227.0,107252.0,107395.0,107469.0,0.0558439347900431,-0.10950029742380445,0.04590423285423553,-0.10193858470572022,0.006303942204105631
141,141,107859.93760869608,733.7975465284806,6.09876079905955,107963.39728720114,-11145.949410256557,13.554545439716785,107988.05004044352,44030.25015075307,10.3261030940505,108014.60271279936,-6205.639837842386,20.38372320688099,108216.687407925,6480.392260900097,28.27001435350172,0.9876859121987688,97.0,79.0,89.0,217.0,306.0,18.0,788.0,786.0,18.0,9.0,9.0,0.5,52.81642363925149,610.021242270097,21.0,16.0,5.0,0.7619047619047619,1200.865660139216,3012.100264724846,23.0,11.0,12.0,0.4782608695652174,2043.170963746629,40864.81041322633,28.0,5.0,23.0,0.1785714285714285,849.7829445012851,16283.898776506372,75.0,38.0,37.0,0.5066666666666667,43.22858693742525,6350.289801085253,,,,,107851.0,107869.0,107948.0,107968.0,107977.0,108000.0,108010.0,108037.0,108179.0,108254.0,0.07197683324115822,-0.10774009605984516,0.04640380094937262,-0.13693720014481903,0.006670674427881159
142,142,108611.7026685996,1163.1711537229298,9.99553461664444,108713.39728720114,-11211.56458874077,11.510275820318196,108738.37528250212,44043.01205880327,10.727887136095624,108766.027373699,-4855.831192659499,17.8357578060484,108967.54471905956,6559.080714628073,31.77205193569203,0.9951237459025584,98.0,73.0,87.0,222.0,309.0,25.0,752.0,751.0,25.0,12.0,13.0,0.48,55.4267478021453,1162.201319577593,20.0,15.0,5.0,0.75,1240.569659756762,4580.686848825919,24.0,11.0,13.0,0.4583333333333333,2029.656649260654,44191.853204387575,24.0,4.0,20.0,0.1666666666666666,835.654591528823,14588.615013786002,80.0,40.0,40.0,0.5,40.367769003461305,6476.132239801274,,,,,108600.0,108625.0,108698.0,108718.0,108727.0,108751.0,108762.0,108785.0,108928.0,109007.0,0.04765141193945744,-0.11065089532665279,0.046083511421761814,-0.17209300702052244,0.006154485782349505
143,143,109375.66905550908,1280.150995835186,10.944717928884812,109477.39728720114,-10912.974169164974,10.719604817439054,109503.21395861288,43010.505207485665,10.754585358234667,109532.45203459916,-3796.129115759242,15.28779240518434,109732.11249828484,6417.2238114060065,31.54924036950311,0.9962294102914708,100.0,74.0,86.0,222.0,308.0,26.0,763.0,764.0,26.0,13.0,13.0,0.5,56.31888779524351,1286.6471072286358,19.0,14.0,5.0,0.7368421052631579,1189.0855303796573,3474.900755836148,25.0,12.0,13.0,0.48,1986.84343989716,44262.6445444534,23.0,4.0,19.0,0.1739130434782608,723.0444368868377,12251.153188090831,79.0,39.0,40.0,0.4936708860759494,44.00219727940048,6487.695278818555,,,,,109363.0,109389.0,109463.0,109482.0,109491.0,109516.0,109529.0,109549.0,109693.0,109771.0,0.04399394132291432,-0.10896072069330687,0.04619437577662688,-0.1904688736442585,0.006856889921961385
144,144,110154.18541775038,1512.4398222023458,10.819107251893502,110258.972626301,-11265.08660655864,11.480067581931271,110283.69996314838,43763.68818783367,10.869998579128858,110313.027373699,-3821.650043925504,17.8357578060484,110512.2014394372,5981.88532637962,30.887267364593605,0.9954621150169524,103.0,76.0,86.0,222.0,308.0,27.0,779.0,781.0,27.0,13.0,14.0,0.4814814814814814,60.119179356506656,1529.4772688814023,20.0,16.0,4.0,0.8,1291.8935930989562,6321.59075162595,25.0,12.0,13.0,0.48,1981.1539104153085,43323.19156213547,23.0,4.0,19.0,0.1739130434782608,700.6149707116926,12035.889996508042,79.0,39.0,40.0,0.4936708860759494,38.98770767624977,5996.110120893656,,,,,110141.0,110168.0,110244.0,110263.0,110272.0,110297.0,110309.0,110330.0,110473.0,110552.0,0.039749799280584835,-0.11468119493611381,0.04526935439975258,-0.18332787216488255,0.006517628732252222
145,145,110932.92937331744,990.8899951452514,7.724854927850682,111035.972626301,-10572.406736055353,12.530102115213465,111060.47605743032,43815.18610986639,10.376047182931323,111088.17805189874,-5243.528831497104,22.93168859853255,111288.02001782092,6349.712282421178,29.49851686550017,0.9923352254657324,99.0,77.0,88.0,217.0,305.0,22.0,777.0,777.0,22.0,11.0,11.0,0.5,56.612285906838174,904.348846472263,21.0,16.0,5.0,0.7619047619047619,1242.733716843847,5038.156880710659,24.0,11.0,13.0,0.4583333333333333,2023.0413845920657,42430.16818806626,27.0,5.0,22.0,0.1851851851851851,804.253146945154,15214.381985948585,75.0,37.0,38.0,0.4933333333333333,39.673489885328735,6298.072246789759,,,,,110922.0,110944.0,111021.0,111040.0,111049.0,111073.0,111083.0,111109.0,111251.0,111326.0,0.057132765679544034,-0.11754501580096423,0.0461721508957944,-0.15338013250048785,0.006248076782181543
146,146,111657.81489709557,1318.7488310608553,17.876792379859694,111762.8878109972,-10174.224020845182,10.169722365148331,111788.98501522445,42337.48088648066,10.370535513454929,111816.60271279886,-5197.513549943765,14.59099719151006,112016.74844171447,6634.390696703229,32.10554879780605,0.9962336074766408,104.0,71.0,83.0,224.0,307.0,33.0,732.0,728.0,53.0,31.0,22.0,0.5849056603773585,46.497498110441946,1507.626846873579,19.0,14.0,5.0,0.7368421052631579,1180.0903684426653,3757.34041496268,24.0,12.0,12.0,0.5,2027.035675415878,41802.282537752115,21.0,5.0,16.0,0.238095238095238,777.8314152632869,13799.963137032037,80.0,40.0,40.0,0.5,38.03721027560014,6573.152754420845,,,,,111646.0,111679.0,111750.0,111768.0,111777.0,111801.0,111812.0,111833.0,111977.0,112057.0,0.03525879759304694,-0.11598824303699912,0.047878041701417275,-0.14965452380046276,0.005733338902470975
147,147,112397.16741472411,1260.2837020566246,13.82164692728712,112500.39728720114,-10723.93246779538,11.118205467686789,112526.0883506778,43350.21439304867,10.69935541627138,112555.027373699,-4272.265438116233,17.8357578060484,112755.587767587,6302.332706826344,31.63247802314872,0.9963645781750708,99.0,72.0,86.0,223.0,309.0,27.0,738.0,737.0,29.0,11.0,18.0,0.3793103448275862,52.85846453187255,1405.1883931529208,20.0,15.0,5.0,0.75,1178.9259501640863,3662.026079405533,25.0,12.0,13.0,0.48,1986.5610499621491,43328.32593488584,23.0,5.0,18.0,0.217391304347826,724.2770181601552,12726.554884496623,80.0,40.0,40.0,0.5,35.33122225694873,6215.891708781059,,,,,112387.0,112414.0,112486.0,112505.0,112514.0,112539.0,112551.0,112572.0,112716.0,112795.0,0.04194171871429756,-0.10993410800603907,0.04582586448016967,-0.16952996686449104,0.00560605475789621
148,148,113103.17652618336,1397.78324993124,14.935577402716518,113211.06569242444,-10801.955000073229,11.29575700883945,113236.24469115578,43154.59649034644,10.59614916563236,113264.60271279886,-4908.714694641603,20.383723206912453,113463.09800063352,6747.199271567217,31.01766392529935,0.9943786626853682,104.0,74.0,88.0,219.0,307.0,30.0,707.0,710.0,33.0,13.0,20.0,0.3939393939393939,49.02319824915232,1582.4052160434317,20.0,15.0,5.0,0.75,1221.2730613270348,4525.174384612564,24.0,11.0,13.0,0.4583333333333333,1992.8483350118563,42510.51951273776,25.0,5.0,20.0,0.2,717.1151670419005,13319.691475254216,79.0,39.0,40.0,0.4936708860759494,46.348734479182774,6773.380814289998,,,,,113092.0,113122.0,113196.0,113216.0,113225.0,113249.0,113260.0,113284.0,113425.0,113503.0,0.035072103097217595,-0.11306037298977413,0.04617928325335288,-0.14609021131839456,0.006869329423023999
