Unnamed: 0,cycle,p_center,p_height,p_width,q_center,q_height,q_width,r_center,r_height,r_width,s_center,s_height,s_width,t_center,t_height,t_width,r_squared,pr_interval,pr_segment,qrs_duration,st_segment,qt_interval,p_duration,pp_interval,rr_interval,fwhm_p,rise_time_p,decay_time_p,rise_decay_symmetry_p,sharpness_deriv_p,sharpness_diff_p,fwhm_q,rise_time_q,decay_time_q,rise_decay_symmetry_q,sharpness_deriv_q,sharpness_diff_q,fwhm_r,rise_time_r,decay_time_r,rise_decay_symmetry_r,sharpness_deriv_r,sharpness_diff_r,fwhm_s,rise_time_s,decay_time_s,rise_decay_symmetry_s,sharpness_deriv_s,sharpness_diff_s,fwhm_t,rise_time_t,decay_time_t,rise_decay_symmetry_t,sharpness_deriv_t,sharpness_diff_t,Average_Heart_Rate,SDNN,RMSSD,NN50,p_on,p_off,q_on,q_off,r_on,r_off,s_on,s_off,t_on,t_off,sharpness_deriv_p_norm,sharpness_deriv_q_norm,sharpness_deriv_r_norm,sharpness_deriv_s_norm,sharpness_deriv_t_norm
0,0,0.0,0.0,0.0,0.0,0.0,0.0,0.0,0.0,0.0,0.0,0.0,0.0,0.0,0.0,0.0,0.0,0.0,0.0,0.0,0.0,0.0,0.0,0.0,0.0,0.0,0.0,0.0,0.0,0.0,0.0,0.0,0.0,0.0,0.0,0.0,0.0,0.0,0.0,0.0,0.0,0.0,0.0,0.0,0.0,0.0,0.0,0.0,0.0,0.0,0.0,0.0,0.0,0.0,0.0,64.65345097971202,308.1773805590526,454.0829604592358,272.0,,,,,,,,,,,,,,,
1,1,1568.178051898704,3337.994915529792,11.88611920941456,1685.328730098416,-5019.916499846106,28.027619409504627,1719.6055322046377,35841.501151453056,8.470293346589877,1744.8299051387803,-15243.889747456293,24.19499548983389,1993.969815544922,5206.172977411148,29.416019701357808,0.8835439800356825,65.0,32.0,156.0,265.0,421.0,33.0,,,35.0,22.0,13.0,0.6285714285714286,328.6940947323559,2477.2633335444625,90.0,73.0,17.0,0.8111111111111111,309.73995124955877,4096.948173083612,19.0,10.0,9.0,0.5263157894736842,1933.0132598180332,15482.196121554598,38.0,13.0,25.0,0.3421052631578947,778.0113975782399,21796.207112118555,79.0,33.0,46.0,0.4177215189873418,282.4488811448585,4622.358208566498,0.0,0.0,0.0,0.0,1548.0,1581.0,1613.0,1701.0,1710.0,1729.0,1732.0,1769.0,1962.0,2034.0,0.09847051989298403,-0.06170221183142277,0.05393226281594142,-0.051037590173339094,0.05425268856228259
2,2,2458.7533909985605,4141.872749945886,10.336753504010431,2577.1780518987043,-5430.903197590955,22.93168860777651,2610.889699035268,36225.05756071858,8.92992058555816,2634.7244210320764,-16466.512940563727,24.423410326174725,2888.6574601968323,5063.276151094278,28.658550113076913,0.8750897499888689,121.0,90.0,96.0,261.0,357.0,31.0,891.0,891.0,32.0,18.0,14.0,0.5625,294.29366244108263,3003.4057636048706,87.0,73.0,14.0,0.8390804597701149,433.0411917982645,4898.918131125276,18.0,9.0,9.0,0.5,1866.824766518724,15691.26794033496,36.0,12.0,24.0,0.3333333333333333,1065.6457089089463,27786.334196218537,80.0,44.0,36.0,0.55,223.80817378170087,4689.6935481530745,0.0,0.0,0.0,0.0,2442.0,2473.0,2563.0,2590.0,2602.0,2620.0,2624.0,2659.0,2848.0,2920.0,0.07105328439772264,-0.07973649613021151,0.05153407315888037,-0.06471593061356827,0.04420224516755447
3,3,3363.563818232715,5864.932038369955,15.806134870440216,3485.0273736989925,-2753.4667572855446,17.8357578060484,3519.4728338144146,38876.064718932794,8.478641461665386,3538.0544041777616,-19654.674445496497,17.914771548848393,3792.8347825320825,7033.252513414447,34.865327495865564,0.9350303782552613,125.0,91.0,90.0,277.0,367.0,34.0,899.0,908.0,39.0,19.0,20.0,0.4871794871794871,331.3404730109876,5123.254174167027,24.0,14.0,10.0,0.5833333333333334,317.4659187054742,2573.3263681168532,19.0,10.0,9.0,0.5263157894736842,2092.6893609268586,16485.10112817136,31.0,7.0,24.0,0.2258064516129032,1619.267635209823,34338.91660060374,95.0,49.0,46.0,0.5157894736842106,255.44836853487232,6394.122727043776,0.0,0.0,0.0,0.0,3346.0,3380.0,3471.0,3495.0,3509.0,3528.0,3531.0,3561.0,3753.0,3838.0,0.056495193949950236,-0.1152968046065834,0.053829763276109346,-0.08238587923194261,0.036320090604973786
4,4,4318.474474237305,5289.192750695519,14.282184136065895,4442.301356399425,-2910.8857647192985,10.191861603456228,4473.712704023908,38638.727489060926,8.476628637466394,4491.26918666817,-20950.862582527967,17.733541548528034,4749.697660572817,7496.8529276787585,34.812945254961924,0.9367690540506584,128.0,101.0,81.0,277.0,358.0,27.0,959.0,956.0,34.0,14.0,20.0,0.4117647058823529,329.0619266160669,5203.453791300775,19.0,12.0,7.0,0.631578947368421,469.9692913494176,733.1335764148191,19.0,11.0,8.0,0.5789473684210527,1966.003310641489,13982.830865918391,31.0,6.0,25.0,0.1935483870967742,1606.9351913394091,35671.24902459437,84.0,43.0,41.0,0.5119047619047619,319.5747739501881,7651.3655309082515,0.0,0.0,0.0,0.0,4305.0,4332.0,4433.0,4448.0,4463.0,4482.0,4485.0,4514.0,4707.0,4791.0,0.062214016793544887,-0.16145233078039992,0.05088167852313685,-0.07670019241496612,0.04262785691984192
5,5,5310.602712798849,3001.294611726674,10.525384650477184,5427.178051898705,-4379.50348748047,22.93168860777651,5460.309696853998,36603.69413333429,8.27515368607937,5483.839032648189,-16599.64013622219,23.279894605811027,5738.430179188736,4939.431897127718,30.0002811197617,0.8918276277627046,121.0,98.0,88.0,258.0,346.0,23.0,993.0,986.0,25.0,13.0,12.0,0.52,327.5581431212904,2083.88177635834,85.0,71.0,14.0,0.8352941176470589,370.0300874059552,3755.2518673272416,17.0,8.0,9.0,0.4705882352941176,2024.6607091327423,17291.96885408793,36.0,12.0,24.0,0.3333333333333333,1214.709660610929,28195.443743832704,76.0,32.0,44.0,0.4210526315789473,281.9301641349758,5213.140310646654,0.0,0.0,0.0,0.0,5299.0,5322.0,5420.0,5440.0,5452.0,5469.0,5472.0,5508.0,5718.0,5766.0,0.10913895018551446,-0.08449133297044906,0.055313015723430004,-0.07317686712739649,0.0570774473677668
6,6,6265.547965400863,2903.98309070777,15.28779240518434,6387.452034599137,-3685.130324082332,15.28779240518434,6420.04803660191,35605.435201496606,8.57917627725544,6442.205425597935,-15607.234807489522,21.70324167830681,6691.044267184834,4929.785241007745,33.54134012543417,0.9184302425306392,123.0,98.0,86.0,270.0,356.0,25.0,949.0,959.0,39.0,15.0,24.0,0.3846153846153846,312.12708300261073,3026.5766709299014,20.0,8.0,12.0,0.4,444.6817690157887,3662.374713711984,19.0,10.0,9.0,0.5263157894736842,1939.7097705828191,17815.708544370704,37.0,10.0,27.0,0.2702702702702703,1350.7538587460372,30039.05598913467,86.0,41.0,45.0,0.4767441860465116,305.7347444621651,5539.888287552553,0.0,0.0,0.0,0.0,6257.0,6282.0,6380.0,6396.0,6410.0,6429.0,6433.0,6466.0,6651.0,6736.0,0.10748240373759818,-0.12066921110219431,0.05447791213913563,-0.0865466481030864,0.06201786274966958
7,7,7189.167590084457,4628.4373412551395,10.989437350679642,7299.75339099856,-5064.500131634862,25.47965400864057,7343.0701724789715,37470.07428076031,8.454051693509994,7365.112359636753,-17111.02035129932,22.21931385769615,7630.780764697552,5876.993098177224,28.736198658653706,0.8880573165293144,117.0,90.0,96.0,265.0,361.0,27.0,928.0,923.0,27.0,12.0,15.0,0.4444444444444444,351.49553543896695,4276.238499287549,89.0,66.0,23.0,0.7415730337078652,304.6221160161805,5911.864818502352,19.0,10.0,9.0,0.5263157894736842,1948.8862858616444,16720.229836933726,36.0,10.0,26.0,0.2777777777777778,1469.1969874125125,31776.44701950755,80.0,55.0,25.0,0.6875,297.1185412137463,6041.48833359193,0.0,0.0,0.0,0.0,7177.0,7204.0,7294.0,7323.0,7333.0,7352.0,7355.0,7390.0,7589.0,7655.0,0.07594259347662431,-0.06014850589367958,0.05201180737616887,-0.08586261702978744,0.05055621748235487
8,8,8108.388266140382,5144.577271701547,13.737171183062074,8232.027373698993,-3491.5379560688234,17.8357578060484,8263.432431281335,39368.48590205416,8.602332956717976,8282.665994403633,-20078.998887715512,19.32558371820166,8547.657460196833,6386.175308899574,29.911471961142276,0.9085748493644747,66.0,32.0,147.0,274.0,421.0,34.0,914.0,920.0,36.0,17.0,19.0,0.4722222222222222,283.58857307940065,4569.312047374402,92.0,81.0,11.0,0.8804347826086957,398.174710360877,1094.67965466759,19.0,10.0,9.0,0.5263157894736842,2011.518003289582,15093.781622447976,30.0,8.0,22.0,0.2666666666666666,1650.61828201529,35902.311157752745,72.0,40.0,32.0,0.5555555555555556,299.7048726434636,5910.129587351405,0.0,0.0,0.0,0.0,8092.0,8126.0,8158.0,8242.0,8253.0,8272.0,8275.0,8305.0,8509.0,8579.0,0.05512378531843977,-0.11403992033619134,0.051094624474359716,-0.08220620416614252,0.046930260781567375
9,9,9912.178051898703,4106.279139855839,12.410619149342203,10020.630086497842,-5010.530979394965,38.21948101296085,10061.940599799842,35113.783575270296,8.655491775485597,10087.775519944482,-14510.328691381108,24.570151926306348,10338.922721992432,5407.0521506439045,30.89185635258647,0.9025303876898436,77.0,50.0,139.0,267.0,406.0,27.0,1811.0,1798.0,31.0,18.0,13.0,0.5806451612903226,374.6303728830283,2786.168964827758,91.0,69.0,22.0,0.7582417582417582,355.59820984338086,4585.879759039646,18.0,9.0,9.0,0.5,1845.0847187619777,16314.8493223256,39.0,13.0,26.0,0.3333333333333333,666.2164294187219,20569.6282842518,89.0,41.0,48.0,0.4606741573033708,296.1056320165912,4820.787043449869,0.0,0.0,0.0,0.0,9898.0,9925.0,9975.0,10042.0,10053.0,10071.0,10075.0,10114.0,10299.0,10381.0,0.09123353774146505,-0.0709701648998327,0.05254588172780736,-0.045913255556674144,0.05476285853490966
10,10,10800.062739470295,5474.735619421359,16.135972109521994,10889.808138408842,-3611.479731182276,29.209665141895115,10954.008180179002,38199.23671952299,8.474273799278734,10974.054747397988,-17137.47193654338,20.839029306437467,11228.908298374608,6804.825798086307,33.166049586134186,0.929279281805105,94.0,64.0,124.0,272.0,396.0,30.0,886.0,894.0,31.0,18.0,13.0,0.5806451612903226,340.6893487304842,5764.340251869698,82.0,39.0,43.0,0.4756097560975609,315.16875679704356,4011.3991484671656,19.0,10.0,9.0,0.5263157894736842,1979.0696527269563,17154.898329733624,35.0,8.0,27.0,0.2285714285714285,1431.0371277242662,32012.504452307316,89.0,43.0,46.0,0.4831460674157303,313.0005402640728,6313.158601725937,0.0,0.0,0.0,0.0,10782.0,10812.0,10876.0,10930.0,10944.0,10963.0,10966.0,11000.0,11187.0,11272.0,0.06222937003969749,-0.08726859355621193,0.05180914129929426,-0.08350339729355119,0.045996848347256244
11,11,11731.246609001431,5123.7808678080955,16.253365269749498,11819.26017299593,-3465.8614165250196,37.972320205756,11887.27444772734,39312.36899920584,8.515437189844167,11905.479408298324,-20620.442004835146,18.388684460101725,12163.532074121416,7146.410892658653,30.321201179258388,0.926968110108978,57.0,26.0,156.0,273.0,429.0,31.0,925.0,933.0,34.0,15.0,19.0,0.4411764705882353,321.2890991705278,4952.618686304777,92.0,45.0,47.0,0.4891304347826087,294.3010330266165,3395.351912702736,19.0,10.0,9.0,0.5263157894736842,2000.28669886376,15019.775276345648,34.0,7.0,27.0,0.2058823529411764,1565.6616581625267,35862.988092874715,85.0,45.0,40.0,0.5294117647058824,291.1974743810835,5881.951471457032,0.0,0.0,0.0,0.0,11717.0,11748.0,11774.0,11862.0,11877.0,11896.0,11898.0,11930.0,12125.0,12203.0,0.06270547227910084,-0.0849142529540872,0.05088186618578413,-0.07592764780674466,0.04074737357744488
12,12,12763.75339099856,2937.474329741112,12.942806914524962,12842.35610379741,-3649.574156258477,31.616125694863655,12910.0537367628,36049.603102074325,8.553179401549391,12930.58447746917,-17253.494068965185,23.104604768882652,13198.657460196831,5804.027680186705,30.14471335112832,0.9087805210618438,86.0,54.0,127.0,271.0,398.0,32.0,1041.0,1021.0,36.0,19.0,17.0,0.5277777777777778,296.8260348550748,1516.9498016276234,75.0,29.0,46.0,0.3866666666666666,292.2017872375227,4615.52388253537,19.0,10.0,9.0,0.5263157894736842,1861.094060801974,13892.439073268632,37.0,9.0,28.0,0.2432432432432432,1447.9929556539323,31847.78614886927,84.0,48.0,36.0,0.5714285714285714,361.86192593708375,5245.754823914764,0.0,0.0,0.0,0.0,12746.0,12778.0,12832.0,12886.0,12900.0,12919.0,12922.0,12959.0,13151.0,13230.0,0.10104804384153884,-0.08006462527592159,0.05162592374546517,-0.08392462128923309,0.062346691965714976
13,13,13750.87009272763,2959.8483580948628,9.717263430152808,13864.75339099856,-4337.700716772658,25.47965400864057,13901.789694421965,35996.031646585754,8.599190092020455,13924.946357766456,-15624.144666397844,22.39814233336525,14180.191233371092,5124.128037251063,31.457300189416657,0.904089534508189,59.0,39.0,149.0,272.0,421.0,20.0,983.0,992.0,20.0,9.0,11.0,0.45,319.01964585347406,3599.0856650353912,84.0,66.0,18.0,0.7857142857142857,349.96478688573194,2752.9076812991966,19.0,10.0,9.0,0.5263157894736842,1911.1893704668123,15600.396434852184,36.0,11.0,25.0,0.3055555555555556,1216.685417878895,28175.33397674451,73.0,31.0,42.0,0.4246575342465753,322.28790473232743,5293.092641437898,0.0,0.0,0.0,0.0,13742.0,13762.0,13801.0,13879.0,13892.0,13911.0,13914.0,13950.0,14150.0,14222.0,0.10778242911701544,-0.0806797909160762,0.05309444633317211,-0.0778721295697912,0.06289614591777941
14,14,14735.84119741794,3831.3481993886494,9.349077286699462,14852.178051898703,-3572.6737563612314,22.93168860777651,14886.038695241898,39353.66439813995,8.834623110166621,14904.144993605496,-20063.67219522616,18.84873840781199,15163.214614046698,6342.828522462725,31.74773894598623,0.9184536642322806,82.0,63.0,119.0,271.0,390.0,19.0,987.0,986.0,20.0,8.0,12.0,0.4,342.450419574079,4131.375898370661,59.0,46.0,13.0,0.7796610169491526,315.4005873135723,3081.2263222645997,19.0,10.0,9.0,0.5263157894736842,1952.6206953789456,14082.593155770975,32.0,6.0,26.0,0.1875,1617.8952306094554,33749.579295451644,79.0,35.0,44.0,0.4430379746835443,327.38785342510647,6756.163614216714,0.0,0.0,0.0,0.0,14728.0,14747.0,14810.0,14865.0,14876.0,14895.0,14898.0,14929.0,15133.0,15200.0,0.08938117909218542,-0.08828138498568307,0.049617252300175545,-0.08063804147450178,0.05161543501699331
15,15,15724.974987913984,5325.531523226937,15.837425593277498,15811.24660900144,-2522.53064721052,25.32429823805296,15876.672483984468,40545.57125387006,8.514728340973749,15893.60467209855,-20504.869514580252,18.46818521610037,16159.23279929669,7081.434833325985,37.010816877270905,0.9455286332504456,82.0,58.0,120.0,275.0,395.0,24.0,987.0,991.0,24.0,10.0,14.0,0.4166666666666667,371.2628979089478,6431.362837470544,63.0,21.0,42.0,0.3333333333333333,327.99638527388464,3239.8741322590886,19.0,11.0,8.0,0.5789473684210527,2047.9087507666443,14524.857693056205,33.0,6.0,27.0,0.1818181818181818,1585.097775512072,34824.99084760601,99.0,52.0,47.0,0.5252525252525253,326.3977137817031,6477.719425472766,0.0,0.0,0.0,0.0,15715.0,15739.0,15797.0,15817.0,15866.0,15885.0,15888.0,15917.0,16115.0,16192.0,0.06971377341204543,-0.1300267196502019,0.050508814833165584,-0.07730348024819021,0.046092030988640995
16,16,16705.54995012113,3289.002443976985,10.618817506193125,16822.178051898707,-3673.5594268540226,22.93168860777651,16855.64361737579,35504.44630767897,8.69688800405365,16878.353100673066,-15439.418123993846,21.27394986885459,17135.95881659626,5575.154283607115,31.704181210189446,0.9246839856608088,123.0,98.0,87.0,269.0,356.0,25.0,983.0,978.0,27.0,13.0,14.0,0.4814814814814814,329.3565026185048,3267.159217090204,48.0,34.0,14.0,0.7083333333333334,398.1773466967507,2620.868967787318,19.0,10.0,9.0,0.5263157894736842,1841.539693658178,16249.216174490248,37.0,10.0,27.0,0.2702702702702703,1297.4951070850589,29423.002615631947,74.0,37.0,37.0,0.5,269.7601434699578,5880.140977517526,0.0,0.0,0.0,0.0,16694.0,16719.0,16817.0,16835.0,16846.0,16865.0,16868.0,16904.0,17106.0,17173.0,0.10013872237208027,-0.1083900654460743,0.05186786121657913,-0.08403782426674929,0.04838613063375593
17,17,17677.243397566217,3270.854139746637,12.80731845436522,17794.876695499283,-2415.1181504230776,4.829678503771602,17824.409706254697,38041.46791352207,8.736148327805253,17844.47940829813,-15070.961092629814,26.36723871441564,18100.808490152653,6026.848862319221,32.04437387207786,0.9240215811082052,118.0,90.0,88.0,272.0,360.0,28.0,973.0,968.0,36.0,16.0,20.0,0.4444444444444444,292.25313545171014,2802.317656076963,21.0,13.0,8.0,0.6190476190476191,541.0051956822638,817.2932370580975,20.0,10.0,10.0,0.5,1930.5614457500435,18281.525126845423,36.0,7.0,29.0,0.1944444444444444,1403.971936677265,31149.910747404097,80.0,37.0,43.0,0.4625,306.2282410220108,5569.795326233705,0.0,0.0,0.0,0.0,17665.0,17693.0,17783.0,17802.0,17815.0,17834.0,17837.0,17871.0,18069.0,18143.0,0.08935070870336893,-0.22400775530898606,0.05074886831756073,-0.09315742559801661,0.05081067204731091
18,18,18624.488617334548,4856.61868481318,13.93838491841088,18745.876695499283,-2964.788435537944,12.739827004320285,18776.59495501521,38003.79044439664,8.890692900346892,18795.091862967864,-19538.787883778867,18.939742403093373,19053.51019872482,6959.839883092308,31.61197774689633,0.9298379766516616,116.0,88.0,95.0,276.0,371.0,28.0,945.0,952.0,34.0,15.0,19.0,0.4411764705882353,314.62817230852505,5020.414384877056,60.0,53.0,7.0,0.8833333333333333,488.88614166608113,851.976185433155,21.0,12.0,9.0,0.5714285714285714,1888.4189749713732,13628.899012973665,33.0,7.0,26.0,0.2121212121212121,1529.5370280387326,33694.315827533275,85.0,43.0,42.0,0.5058823529411764,340.59986493851477,6769.0586974723265,0.0,0.0,0.0,0.0,18609.0,18637.0,18725.0,18753.0,18765.0,18786.0,18788.0,18820.0,19011.0,19096.0,0.06478337969838534,-0.1648974799705651,0.04969027965077114,-0.07828208367564893,0.04893788803474366
19,19,19590.295531799205,5059.049557968477,13.50337551406007,19702.32873009842,-3687.877758904564,28.027619409504627,19742.02801981847,37787.77639772041,8.544420423476744,19761.644089975816,-19422.67357765769,18.778033506197207,20031.08212109698,7005.8281937679585,32.42391168467135,0.9091205205357992,61.0,36.0,146.0,277.0,423.0,25.0,967.0,965.0,32.0,14.0,18.0,0.4375,309.43011268104243,5270.287748494877,94.0,76.0,18.0,0.8085106382978723,372.7832651005329,2972.3688838420812,20.0,11.0,9.0,0.55,1972.843802728084,13259.920307543412,30.0,8.0,22.0,0.2666666666666666,1580.4492448180245,35136.15825308551,87.0,56.0,31.0,0.6436781609195402,348.76818056482836,6975.697909404614,0.0,0.0,0.0,0.0,19577.0,19602.0,19638.0,19718.0,19732.0,19751.0,19754.0,19784.0,19982.0,20061.0,0.06116368482567265,-0.10108341150962208,0.05220851795997973,-0.0813713538714901,0.049782576865798026
20,20,21510.85995399005,3625.192312070089,8.013278953676531,21627.753390998565,-5182.788339048206,25.47965400864057,21661.597272972205,35096.462108146516,8.781545480687141,21687.273420752572,-15072.108116043986,25.608308134108185,21956.32873009842,4718.00806403898,25.76929176335855,0.8567681914675601,98.0,79.0,111.0,263.0,374.0,19.0,1917.0,1921.0,20.0,11.0,9.0,0.55,355.7395809990589,4005.454324915816,80.0,66.0,14.0,0.825,364.8298122004881,4607.162703177404,18.0,9.0,9.0,0.5,1792.8686580561375,16063.216397530592,36.0,13.0,23.0,0.3611111111111111,751.376237963864,23036.6616099528,78.0,56.0,22.0,0.717948717948718,292.3710485400276,2970.257854193542,0.0,0.0,0.0,0.0,21500.0,21519.0,21598.0,21642.0,21653.0,21671.0,21674.0,21709.0,21913.0,21972.0,0.09812985088118577,-0.07039257409988836,0.05108402814310963,-0.04985209979777398,0.061969171008524164
21,21,22422.396716528347,4720.135840072431,13.0181800375259,22543.602712798853,-4310.297584729628,20.383723206912453,22578.321964643983,38365.14293756339,9.067645565158312,22598.68031023536,-18350.21439885512,20.2890534091368,22855.684833895823,6569.632608998724,31.83808721516781,0.9167736575024792,69.0,38.0,148.0,273.0,421.0,31.0,911.0,916.0,31.0,15.0,16.0,0.4838709677419355,352.71523522296127,5338.022083307307,81.0,69.0,12.0,0.8518518518518519,342.48960308157876,3552.842915167699,21.0,11.0,10.0,0.5238095238095238,1928.4759233268005,16481.642132842106,34.0,8.0,26.0,0.2352941176470588,1516.2687598334928,33296.7196168058,80.0,38.0,42.0,0.475,332.47097736947933,6464.679098228227,0.0,0.0,0.0,0.0,22407.0,22438.0,22476.0,22555.0,22568.0,22588.0,22591.0,22624.0,22819.0,22897.0,0.07472565349253779,-0.07945845880686729,0.05026635575072042,-0.08262948469572615,0.05060724048922899
22,22,23340.82317199858,6750.744740217752,21.44782432500881,23451.43847060489,-4984.90204097199,86.63082362937793,23495.40231146518,39999.58639391932,9.10719844117906,23513.08418130284,-19519.49920148418,15.70710313719679,23777.232799296693,6684.3176713376315,29.63033431142302,0.9290023648120448,65.0,36.0,152.0,271.0,423.0,29.0,919.0,918.0,33.0,22.0,11.0,0.6666666666666666,338.9277484229816,4194.29393160889,92.0,70.0,22.0,0.7608695652173914,349.28281854419015,3885.857365982562,19.0,10.0,9.0,0.5263157894736842,2007.0224948263096,14539.973326610514,32.0,6.0,26.0,0.1875,1622.6054138669772,35721.72279295103,79.0,40.0,39.0,0.5063291139240507,287.54602399724064,6080.531386566495,0.0,0.0,0.0,0.0,23322.0,23351.0,23387.0,23471.0,23485.0,23504.0,23507.0,23539.0,23738.0,23810.0,0.05020597896463334,-0.07006814089291204,0.05017608119896495,-0.08312741003845023,0.043018006943362164
23,23,24291.31550722332,5313.928731282957,12.867245434931204,24412.178051898707,-4117.679605900871,22.93168860777651,24448.03733181583,36717.39076247981,8.57485386449614,24468.956388292696,-19431.359513604715,19.39061036469818,24724.947801258935,7025.9403345852415,33.51779991108815,0.9180164809778036,102.0,71.0,115.0,275.0,390.0,31.0,954.0,951.0,32.0,14.0,18.0,0.4375,375.776074841198,6082.770638036076,86.0,72.0,14.0,0.8372093023255814,403.91892033692216,2500.655509596877,19.0,10.0,9.0,0.5263157894736842,1947.4745860488872,12818.10854140456,34.0,9.0,25.0,0.2647058823529412,1500.1766133684068,35157.93136507827,79.0,35.0,44.0,0.4430379746835443,261.92450155881335,7336.1819176059,0.0,0.0,0.0,0.0,24277.0,24308.0,24379.0,24425.0,24438.0,24457.0,24460.0,24494.0,24690.0,24769.0,0.07071530196274825,-0.09809381957694892,0.053039569141687,-0.07720389365026517,0.03727963647363871
24,24,25228.821948101293,4326.591687206664,9.981223897699511,25350.753390998565,-5629.675450125961,25.47965400864057,25384.779208137024,34545.132059669224,8.701832795444282,25410.238736052743,-15616.668800893549,23.186761475217168,25663.577481693206,5211.473076512951,27.06118254431666,0.8877584031793743,82.0,55.0,138.0,252.0,390.0,27.0,931.0,938.0,27.0,13.0,14.0,0.4814814814814814,323.9054050951956,3972.28554351618,99.0,85.0,14.0,0.8585858585858586,376.2266612181135,3196.17078161134,18.0,9.0,9.0,0.5,1867.2434466151487,15494.17578126374,39.0,13.0,26.0,0.3333333333333333,787.4246647821425,22544.398123361323,65.0,35.0,30.0,0.5384615384615384,347.1861429308332,5024.211162545416,0.0,0.0,0.0,0.0,25216.0,25243.0,25298.0,25365.0,25376.0,25394.0,25397.0,25436.0,25630.0,25688.0,0.07486387172909205,-0.06682919194030904,0.05405228856528586,-0.05042206342604179,0.06661957911584165
25,25,26169.99227285874,4753.283610254041,15.25736639667948,26291.027373698995,-3048.7742427796657,17.8357578060484,26326.402640419077,38671.81702466945,8.89599018477975,26345.46059932225,-18819.79556301044,18.663567320335357,26601.80352314685,6917.947302152862,35.03247139687045,0.93181041014277,126.0,97.0,85.0,272.0,357.0,29.0,945.0,941.0,29.0,11.0,18.0,0.3793103448275862,370.6054908413182,6309.354768054516,19.0,7.0,12.0,0.3684210526315789,367.82657391492927,2278.013968868594,20.0,11.0,9.0,0.55,1956.564417401572,16305.417034429684,33.0,7.0,26.0,0.2121212121212121,1548.1280502049506,33647.126173904224,88.0,40.0,48.0,0.4545454545454545,312.50125247041495,7972.483366661596,0.0,0.0,0.0,0.0,26159.0,26188.0,26285.0,26301.0,26315.0,26335.0,26338.0,26370.0,26562.0,26642.0,0.07796831016811788,-0.12064736337432776,0.05059406482383396,-0.08226061994253193,0.04517254018011451
26,26,27134.939747787816,4301.142670215215,15.93577100300399,27219.54796540086,-3542.1127666088673,15.28779240518434,27290.208598933936,39620.997297582544,8.59274855180329,27307.753390998565,-18939.18588261416,21.027406310647567,27569.311842621715,7502.2703625022095,34.553550015872695,0.925784258564376,85.0,61.0,123.0,278.0,401.0,24.0,965.0,965.0,24.0,9.0,15.0,0.375,334.62460953493803,5572.456692949723,59.0,12.0,47.0,0.2033898305084746,284.48307024078457,3643.732490821419,19.0,10.0,9.0,0.5263157894736842,1944.773870803001,14347.984358938029,33.0,6.0,27.0,0.1818181818181818,1573.2475752784949,34064.509166989796,85.0,42.0,43.0,0.4941176470588235,302.92959815605906,8605.548640135068,0.0,0.0,0.0,0.0,27126.0,27150.0,27211.0,27223.0,27280.0,27299.0,27302.0,27334.0,27532.0,27612.0,0.07779900254231617,-0.08031451537132787,0.04908442501324065,-0.08306838451396734,0.040378389943151
27,27,28127.45203459914,2964.2438892213554,11.408712478091475,28235.753390998565,-3745.448397259387,25.47965400864057,28275.365190567052,35915.901335724775,8.487365238348985,28297.632315392453,-16299.471121180602,21.9285450459133,28564.657460196835,5827.012073586927,29.22385979306956,0.9092698728582396,113.0,94.0,92.0,274.0,366.0,19.0,995.0,984.0,20.0,10.0,10.0,0.5,346.9207584725845,3702.9782893148977,24.0,6.0,18.0,0.25,268.4403226060013,5173.035655411064,18.0,9.0,9.0,0.5,1951.5903805746957,16635.641780762508,36.0,11.0,25.0,0.3055555555555556,1309.6434390749907,29846.80228781249,80.0,49.0,31.0,0.6125,284.04948672859683,5453.185304239458,0.0,0.0,0.0,0.0,28117.0,28136.0,28230.0,28254.0,28266.0,28284.0,28287.0,28322.0,28525.0,28596.0,0.11703516020866735,-0.07167107756775504,0.05433778098263932,-0.08034883029874228,0.04874702216872958
28,28,29079.72601729957,2899.9169312493113,7.515644242744922,29192.178051898707,-4712.166747424124,22.93168860777651,29225.368893761504,36448.02933607292,8.56967538703468,29249.398370529016,-15649.514750629682,22.135278730858577,29502.21542017463,4847.672098697936,28.34399947969389,0.9034283413380906,73.0,57.0,132.0,264.0,396.0,16.0,951.0,950.0,16.0,12.0,4.0,0.75,341.4733506634142,3143.3823377605386,79.0,65.0,14.0,0.8227848101265823,372.18256109843514,3100.8448962105763,19.0,9.0,10.0,0.4736842105263157,1895.1365395489925,17785.712167296406,38.0,11.0,27.0,0.2894736842105263,1119.199782260165,27162.88042088212,67.0,31.0,36.0,0.4626865671641791,329.6403519401692,5967.343116378531,0.0,0.0,0.0,0.0,29068.0,29084.0,29141.0,29205.0,29216.0,29235.0,29238.0,29273.0,29471.0,29537.0,0.11775280422129343,-0.07898331723975735,0.05199558313769683,-0.07151658055181119,0.06799972135671246
29,29,30012.299412997974,5165.500666149831,11.585670577868722,30131.876695499283,-3487.598328241297,12.739826999611768,30164.962945579107,38679.763838854495,8.796276476269446,30184.47940829813,-18564.83626640831,19.56612342020582,30441.70768557069,6650.9363645873855,32.90828059175018,0.9204638373858884,124.0,99.0,89.0,271.0,360.0,25.0,931.0,941.0,25.0,14.0,11.0,0.56,334.5349761364735,6134.787576570952,19.0,11.0,8.0,0.5789473684210527,452.2676279275141,1926.4901617494895,20.0,11.0,9.0,0.55,1944.2650546248212,16133.673774629233,34.0,7.0,27.0,0.2058823529411764,1579.663073985808,33753.99867718411,89.0,45.0,44.0,0.5056179775280899,294.8343486821672,5533.145208525047,0.0,0.0,0.0,0.0,29998.0,30023.0,30122.0,30139.0,30154.0,30174.0,30177.0,30211.0,30409.0,30482.0,0.06476332068423162,-0.12967881773116363,0.050265690936607356,-0.08508898496692324,0.044329750356957194
30,30,30946.35883192576,4471.155696329807,15.048737631025055,31055.630086497844,-4281.52366973595,38.21948101296085,31100.06156076172,38527.65324590012,8.635120743858717,31120.21985522713,-19273.63104509411,19.454250302861137,31379.523557219996,6603.991526780113,32.378546984579515,0.9183001947131983,61.0,33.0,149.0,272.0,421.0,28.0,934.0,934.0,28.0,12.0,16.0,0.4285714285714285,341.6329810966525,5006.890110785029,83.0,61.0,22.0,0.7349397590361446,304.24077945311717,4112.319747765541,19.0,10.0,9.0,0.5263157894736842,2016.507084698774,13717.154886959244,32.0,8.0,24.0,0.25,1549.9637434307406,35222.50335717067,85.0,44.0,41.0,0.5176470588235295,342.83974670353916,7348.824424793241,0.0,0.0,0.0,0.0,30934.0,30962.0,30995.0,31077.0,31090.0,31109.0,31112.0,31144.0,31341.0,31416.0,0.07640820501444075,-0.0710589974320708,0.05233921391029334,-0.0804188759141608,0.051914019773234996
31,31,31881.821948101293,3889.4077130879728,10.593469954385055,32007.178051898707,-3874.524742395646,22.93168860777651,32038.336457587393,36413.37169436861,8.252487734357477,32062.788198910657,-16034.130929655816,26.508175810755432,32321.35610379741,5459.2319075713185,28.471525313558544,0.8754196625382379,62.0,43.0,154.0,262.0,416.0,19.0,932.0,939.0,30.0,13.0,17.0,0.4333333333333333,310.40960482649274,4618.9388814522845,89.0,76.0,13.0,0.8539325842696629,349.10211650952465,3266.541163310466,17.0,8.0,9.0,0.4705882352941176,1977.4943066858273,16753.891731508756,36.0,13.0,23.0,0.3611111111111111,932.6184095558956,25497.397027713487,72.0,46.0,26.0,0.6388888888888888,262.64406564839845,6064.054170505688,0.0,0.0,0.0,0.0,31869.0,31888.0,31931.0,32020.0,32030.0,32047.0,32051.0,32085.0,32301.0,32347.0,0.07980896520103953,-0.09010191951792063,0.054306816827721836,-0.05816457490882638,0.048110076672900036
32,32,32806.972626301,3934.967309707999,9.61241820424723,32928.05474739799,-4602.813884725576,35.6715156120968,32967.14610343965,35512.87884095282,8.531916461733026,32993.12637127149,-14175.577002101809,25.54602976876478,33255.47940829813,5141.984024272962,26.932436118262498,0.8854217279771079,120.0,91.0,99.0,258.0,357.0,29.0,926.0,927.0,30.0,11.0,19.0,0.3666666666666666,360.06686145778934,4920.662767834317,92.0,72.0,20.0,0.782608695652174,336.491955292877,4672.421014566661,19.0,9.0,10.0,0.4736842105263157,1851.7296182812092,16580.166737263622,36.0,13.0,23.0,0.3611111111111111,777.3427788635792,21448.98844227745,78.0,48.0,30.0,0.6153846153846154,311.7660951219548,4432.225542414551,0.0,0.0,0.0,0.0,32797.0,32826.0,32917.0,32948.0,32958.0,32977.0,32980.0,33016.0,33211.0,33274.0,0.09150440985099537,-0.07310570527509802,0.05214248122700285,-0.054836764580963634,0.0606314787541636
33,33,33711.71477972372,5153.616728220143,15.239346163713371,33830.178051898714,-4384.503602482095,22.93168860777651,33866.69604827866,38406.83967930606,8.72531073021587,33887.37394613739,-18808.35893982311,19.795104306403967,34143.0767936691,6557.790182232656,32.68735864668788,0.9189277600312942,80.0,47.0,135.0,272.0,407.0,33.0,904.0,902.0,33.0,15.0,18.0,0.4545454545454545,364.79576425112975,5968.964924814594,79.0,66.0,13.0,0.8354430379746836,332.1000435111615,4005.562805424908,19.0,10.0,9.0,0.5263157894736842,1970.5310532743429,15432.696747398482,34.0,9.0,25.0,0.2647058823529412,1552.0711825855374,34159.84280125864,80.0,38.0,42.0,0.475,376.0848087701429,5908.680319977771,0.0,0.0,0.0,0.0,33697.0,33730.0,33777.0,33843.0,33857.0,33876.0,33878.0,33912.0,34110.0,34184.0,0.07078441868864313,-0.07574404621840375,0.051306774255005475,-0.08252028725905071,0.05734932017024393
34,34,36418.67126990158,4927.41305871588,12.968548628019418,36528.78076469755,-4786.280166573292,43.31541181468896,36573.04688987926,36203.371356449534,8.588850140659769,36598.96599890706,-14570.595940551251,25.79961390320122,36850.94525260201,5447.883345839028,27.02730394339825,0.8992943857206287,63.0,30.0,156.0,253.0,409.0,33.0,2706.0,2706.0,33.0,16.0,17.0,0.4848484848484848,333.08648076157937,4888.804266585123,89.0,64.0,25.0,0.7191011235955056,282.9805655188913,4767.751897051716,18.0,9.0,9.0,0.5,1897.5431020015187,16144.429520926962,37.0,13.0,24.0,0.3513513513513513,718.7813036347242,21707.58068423903,54.0,23.0,31.0,0.4259259259259259,273.55689548228287,5671.813099963495,0.0,0.0,0.0,0.0,36403.0,36436.0,36466.0,36553.0,36564.0,36582.0,36586.0,36622.0,36831.0,36875.0,0.06759865202946558,-0.05912327646325173,0.05241343639847167,-0.04933094751699843,0.050213427512397
35,35,37306.51468738148,5062.694070726015,14.548095715202896,37431.60271279886,-4546.919103349366,20.383723206912453,37463.24551409897,38738.11408638987,8.70865755640664,37483.403695314584,-19521.465617891394,20.053135214534375,37740.61552178407,6406.020395279393,32.48512892695278,0.9072437810638232,75.0,39.0,143.0,273.0,416.0,36.0,898.0,891.0,36.0,17.0,19.0,0.4722222222222222,295.63255567291014,3523.2987251245017,90.0,79.0,11.0,0.8777777777777778,472.1741535353861,1121.0434794262103,19.0,10.0,9.0,0.5263157894736842,1984.8079580384024,15223.731260808448,33.0,8.0,25.0,0.2424242424242424,1565.1464480603793,35559.82566013135,97.0,52.0,45.0,0.5360824742268041,285.6302989532512,5718.767034158869,0.0,0.0,0.0,0.0,37290.0,37326.0,37365.0,37443.0,37454.0,37472.0,37475.0,37508.0,37707.0,37781.0,0.058394315663343056,-0.1038448546813977,0.0512365664888095,-0.08017566296999365,0.04458779106662424
36,36,39152.56858277584,3158.318560473601,10.275187874623237,39276.178051898714,-5295.890166695563,22.93168860777651,39307.83469720395,36470.13911611642,8.58360082472679,39331.35910322355,-16658.4374746323,24.308085618947885,39586.95881659626,4713.51139110054,28.281990375432414,0.8723946118090858,122.0,97.0,93.0,268.0,361.0,25.0,1839.0,1843.0,31.0,16.0,15.0,0.5161290322580645,281.30528597145565,2260.6536625567865,94.0,80.0,14.0,0.851063829787234,425.17293857995145,3780.858318932133,18.0,9.0,9.0,0.5,1925.867183023776,15251.50948969103,37.0,11.0,26.0,0.2972972972972973,1276.0535787783704,30311.044542217063,57.0,19.0,38.0,0.3333333333333333,293.91971656194926,5776.300172807045,0.0,0.0,0.0,0.0,39141.0,39166.0,39263.0,39289.0,39299.0,39317.0,39320.0,39356.0,39569.0,39624.0,0.08906805332812057,-0.08028356427286774,0.05280668595455731,-0.07660103660511752,0.062356848679074275
37,37,40052.85525409942,4608.024018658225,10.965991472736489,40177.027373699,-441.335638355917,17.8357578060484,40207.05792720027,36955.44762059864,8.694204549349962,40228.05474739799,-13955.15763789742,35.671515612056304,40492.65746019684,5454.102105452547,30.32925225715309,0.8783304431291404,123.0,95.0,91.0,270.0,361.0,28.0,899.0,899.0,34.0,16.0,18.0,0.4705882352941176,293.73325583287647,3785.912326915574,26.0,15.0,11.0,0.5769230769230769,449.3405297668141,2965.7230667304866,19.0,9.0,10.0,0.4736842105263157,1840.3394404598312,17761.177566714654,36.0,8.0,28.0,0.2222222222222222,1398.859466309866,30673.758790198433,90.0,53.0,37.0,0.5888888888888889,276.2221992936908,4884.618168401797,0.0,0.0,0.0,0.0,40040.0,40068.0,40163.0,40187.0,40198.0,40217.0,40220.0,40254.0,40447.0,40524.0,0.06374386388689146,-1.018137876743236,0.04979886752701764,-0.10023960335002191,0.05064485298460902
38,38,40951.04291045649,4949.872435404536,14.955157963735717,41075.60271279886,-4719.688603078867,20.383723206912453,41106.842757746694,37850.43643534959,8.7798002980074,41127.87098346395,-19020.968963986135,20.383723205092327,41384.96091463703,6237.831394614429,32.29851263119893,0.911034689412724,107.0,71.0,111.0,266.0,377.0,36.0,899.0,900.0,38.0,17.0,21.0,0.4473684210526316,361.015704387672,5291.869378969092,87.0,75.0,12.0,0.8620689655172413,441.0484919294894,1503.0686555651598,20.0,11.0,9.0,0.55,1929.4695033586772,14454.583566352314,34.0,9.0,25.0,0.2647058823529412,1457.4551230959764,34051.651095091955,92.0,46.0,46.0,0.5,311.58781315908817,6138.121348071656,0.0,0.0,0.0,0.0,40935.0,40971.0,41042.0,41087.0,41096.0,41116.0,41119.0,41153.0,41353.0,41419.0,0.07293434509654538,-0.09344864227732597,0.05097614942047778,-0.07662360029373311,0.049951304138823704
39,39,42752.36758968353,5415.897111008964,14.759906168468504,42874.178051898714,-4031.946024739569,22.93168860777651,42906.54530416891,35405.028473613434,8.654623762135536,42929.892552082594,-16455.073447383114,21.19690480650039,43184.03544704728,5501.02410928756,31.47114267878183,0.9144902914152788,65.0,30.0,154.0,272.0,426.0,35.0,1799.0,1799.0,40.0,18.0,22.0,0.45,339.4959913918745,5409.0521371133045,93.0,80.0,13.0,0.8602150537634409,366.7749189651811,1704.054900694664,19.0,10.0,9.0,0.5263157894736842,1867.8669228349293,15140.494339015624,36.0,11.0,25.0,0.3055555555555556,1114.700954608285,28537.422818615552,86.0,41.0,45.0,0.4767441860465116,271.4678512236223,5238.966020901502,0.0,0.0,0.0,0.0,42735.0,42770.0,42800.0,42887.0,42897.0,42916.0,42919.0,42954.0,43146.0,43226.0,0.06268508881045333,-0.09096721948029346,0.0527571083363768,-0.06774208320446957,0.04934860233847988
40,40,43631.008978615995,6310.102797763042,13.363922703514277,43755.726017299574,-3894.51251160315,7.64389620259217,43785.38035285146,37679.09210749676,8.70965120636246,43804.47940829813,-18193.374987961233,20.817082080613105,44059.13038295954,6940.969325265983,35.33229533597963,0.9139286171391432,127.0,94.0,90.0,274.0,364.0,33.0,887.0,879.0,36.0,19.0,17.0,0.5277777777777778,400.3440146842933,5411.314790934233,22.0,16.0,6.0,0.7272727272727273,538.328839167388,1046.153028699268,19.0,10.0,9.0,0.5263157894736842,1920.8524086738532,15336.784085816287,34.0,7.0,27.0,0.2058823529411764,1503.133028359892,32901.14752790984,90.0,42.0,48.0,0.4666666666666667,233.7828313717941,7776.533794369558,0.0,0.0,0.0,0.0,43614.0,43647.0,43741.0,43760.0,43775.0,43794.0,43797.0,43831.0,44017.0,44105.0,0.0634449275257793,-0.1382275284938778,0.050979264659396444,-0.08261980140323236,0.03368158255948428
41,41,46320.60271279886,5941.790398358134,12.050312034196349,46439.60271279886,-4500.601848890353,20.383723206912453,46470.81675079212,35602.097047451505,8.63714324314092,46494.56705858238,-15295.226945297103,24.09539726837865,46747.16949829712,5421.411840906547,32.727854281863024,0.9087273874103416,125.0,94.0,95.0,273.0,368.0,31.0,2689.0,2686.0,33.0,21.0,12.0,0.6363636363636364,355.2426057962199,4502.269901691843,26.0,14.0,12.0,0.5384615384615384,428.1355576896139,4476.703523629903,18.0,9.0,9.0,0.5,1868.570486308664,16366.370414432817,39.0,12.0,27.0,0.3076923076923077,966.3777927073075,24549.70165358317,99.0,47.0,52.0,0.4747474747474747,288.5986793126956,4936.13739160395,0.0,0.0,0.0,0.0,46301.0,46332.0,46426.0,46451.0,46462.0,46480.0,46483.0,46521.0,46703.0,46794.0,0.0597871318204665,-0.09512851215558492,0.05248484334555291,-0.06318165766114665,0.05323312225334227
42,42,47181.52059170187,6160.281619331573,16.263976338450203,47303.178051898714,-3594.973908619069,22.93168860777651,47336.3071230306,37626.29638950312,8.500502884135553,47357.80212458449,-17493.841183342996,20.27388195076842,47605.34253980316,7244.114719527646,35.38557357342342,0.933443657088078,101.0,59.0,119.0,270.0,389.0,42.0,852.0,866.0,45.0,20.0,25.0,0.4444444444444444,336.1152059497991,5659.943380836121,85.0,72.0,13.0,0.8470588235294118,376.0069108243351,2099.975825214719,18.0,9.0,9.0,0.5,1978.672129932864,17255.983644831616,36.0,10.0,26.0,0.2777777777777778,1429.0633350793837,32809.02240291552,86.0,38.0,48.0,0.4418604651162791,258.05708528413186,7073.086543237746,0.0,0.0,0.0,0.0,47163.0,47205.0,47264.0,47316.0,47327.0,47345.0,47348.0,47383.0,47574.0,47653.0,0.054561662391380994,-0.10459238936973814,0.05258748056013476,-0.08168951118866256,0.03562299815441886
43,43,48065.72402342494,6808.540174295662,26.520729844222828,48130.70535592135,-3263.610863583129,43.31541181259125,48215.41028520125,39066.652332556834,8.760623539067836,48232.753390998565,-20151.45773602057,18.070317011110347,48491.53415569612,7419.202540841135,36.48714089886584,0.9474275514629352,74.0,31.0,140.0,274.0,414.0,43.0,895.0,879.0,44.0,24.0,20.0,0.5454545454545454,303.90422968769116,4749.112420689285,76.0,16.0,60.0,0.2105263157894736,300.2634491439631,3607.9451208027863,20.0,11.0,9.0,0.55,1937.028259904513,14980.702883173131,29.0,6.0,23.0,0.2068965517241379,1501.6202805931966,34450.40725848642,80.0,39.0,41.0,0.4875,319.5664943600576,7678.353552730032,0.0,0.0,0.0,0.0,48042.0,48085.0,48116.0,48163.0,48204.0,48224.0,48227.0,48256.0,48458.0,48530.0,0.04463574010109,-0.09200344700847787,0.04958265283176718,-0.07451670743943563,0.043072889923264926
44,44,48984.44662270747,5345.455740769589,11.768084392774483,49107.753390998565,-4981.195955636591,25.47965400864057,49141.18859220236,35779.81866863636,8.472723897929166,49164.06194472691,-17564.204932601308,20.809925975833657,49419.25718600072,5712.650403805223,31.3548882520657,0.9009861217100564,69.0,45.0,147.0,267.0,414.0,24.0,912.0,927.0,27.0,11.0,16.0,0.4074074074074074,341.85872167377266,6241.178580630512,91.0,77.0,14.0,0.8461538461538461,304.59124784995237,2351.040290601193,18.0,9.0,9.0,0.5,1912.5192976155377,14446.39365150634,36.0,11.0,25.0,0.3055555555555556,1330.4738886025268,31073.49180316159,79.0,42.0,37.0,0.5316455696202531,315.28227394152043,6524.050779621116,0.0,0.0,0.0,0.0,48973.0,48997.0,49042.0,49122.0,49132.0,49150.0,49153.0,49189.0,49380.0,49456.0,0.06395314791710445,-0.06114821632449229,0.05345245920130951,-0.07574916676888716,0.055190192232227174
45,45,49875.19653398016,3629.151394961847,9.803032018557392,49994.753390998565,-6126.960863644028,25.47965400864057,50031.11385627127,34981.83827203028,8.554248398163413,50056.090991285666,-16917.902191743156,22.143671400189096,50308.68664298976,4548.063942435163,26.83953025770043,0.8708987432481169,62.0,32.0,157.0,265.0,422.0,30.0,890.0,888.0,31.0,15.0,16.0,0.4838709677419355,278.8108101777638,3595.5672095426416,98.0,81.0,17.0,0.826530612244898,344.4604608355233,4357.252558847536,18.0,9.0,9.0,0.5,1900.2378849367635,15410.183743369636,36.0,13.0,23.0,0.3611111111111111,865.1715548301196,25665.588013238208,67.0,32.0,35.0,0.4776119402985074,297.3844812177046,4579.3503449006,0.0,0.0,0.0,0.0,49860.0,49890.0,49922.0,50009.0,50022.0,50040.0,50043.0,50079.0,50277.0,50344.0,0.07682534560691562,-0.056220444116017156,0.05432069836238704,-0.05113941108208852,0.06538704929871247
46,46,50775.09988948298,6094.879977737455,16.606447001144048,50896.45203459914,-3200.864575908191,15.28779240518434,50932.70626320426,39332.07362273458,8.668207211713232,50951.34731576798,-19905.235010150187,17.8357578060093,51205.755254076365,7529.609914074465,36.14965712866998,0.9403889502197688,134.0,102.0,84.0,272.0,356.0,32.0,900.0,903.0,32.0,16.0,16.0,0.5,265.94298477404715,6667.126777873889,19.0,7.0,12.0,0.3684210526315789,341.2742993932036,3442.037938090547,21.0,12.0,9.0,0.5714285714285714,2033.899804912239,15482.768579190137,33.0,7.0,26.0,0.2121212121212121,1605.5430534648362,35603.22731762458,89.0,46.0,43.0,0.5168539325842697,284.66821663768445,7904.449007572,0.0,0.0,0.0,0.0,50759.0,50791.0,50893.0,50908.0,50921.0,50942.0,50944.0,50977.0,51164.0,51249.0,0.043633834586644424,-0.1066194121306656,0.05171097319762495,-0.08065933673458911,0.037806502579313984
47,47,51685.970290186575,6276.7120494794135,16.878426195486828,51773.821948101286,-3158.6518414680963,22.93168860777651,51844.97810731127,42289.56470489953,8.864804775583009,51860.60271279886,-21618.987457619172,18.390953700844683,52120.008097412494,7070.610115783447,36.36072107271495,0.9446757499061664,90.0,59.0,124.0,282.0,406.0,31.0,915.0,912.0,31.0,15.0,16.0,0.4838709677419355,364.1710931744625,8138.843420028546,59.0,13.0,46.0,0.2203389830508474,323.9403084140657,3694.2752314869217,20.0,11.0,9.0,0.55,1961.422316168337,15196.239350604625,34.0,5.0,29.0,0.1470588235294117,1724.7892144107425,34713.2662616159,89.0,42.0,47.0,0.4719101123595505,256.3179119775031,7699.016438218389,0.0,0.0,0.0,0.0,51671.0,51702.0,51761.0,51780.0,51834.0,51854.0,51856.0,51885.0,52078.0,52167.0,0.05801940415677769,-0.1025565097619315,0.04638076390370348,-0.07978122091943189,0.036251173205737175
48,48,52598.645422880094,5336.918418302127,12.527026885026205,52718.178051898714,-4732.118961469077,22.93168860777651,52751.914882664125,34660.52824677451,8.559678178737908,52776.99985060673,-15149.475022360415,23.007056736816494,53026.5397770092,5637.863762055368,33.142711518024726,0.9203427306871445,110.0,78.0,110.0,267.0,377.0,32.0,911.0,906.0,32.0,17.0,15.0,0.53125,353.4194299540976,5337.620641727265,41.0,27.0,14.0,0.6585365853658537,370.20043060109714,3276.9594233051766,18.0,9.0,9.0,0.5,1939.96869282428,16842.286096222313,38.0,13.0,25.0,0.3421052631578947,816.6215616097659,22933.05593578478,79.0,37.0,42.0,0.4683544303797468,323.10008081485074,6119.238075346491,0.0,0.0,0.0,0.0,52582.0,52614.0,52692.0,52731.0,52743.0,52761.0,52764.0,52802.0,52990.0,53069.0,0.06622162871032485,-0.07823142943265508,0.055970546063584946,-0.05390428119815662,0.05730895503176539
49,49,53496.94525260201,6699.849321839986,22.596357630790123,53583.71245330532,-5924.643618705214,94.2747198319701,53647.4463230945,36149.769426983854,8.942381387915695,53668.50672645245,-14599.595428658817,19.535073797210753,53937.205425597705,4792.957558669596,26.184191385742412,0.8781104811409722,54.0,24.0,166.0,263.0,429.0,30.0,892.0,895.0,32.0,21.0,11.0,0.65625,273.63103225332253,1693.2380704259915,99.0,54.0,45.0,0.5454545454545454,312.8655590266779,4392.052193723248,19.0,10.0,9.0,0.5263157894736842,1845.5558587135936,14558.478681285762,38.0,10.0,28.0,0.2631578947368421,1424.755577728244,31988.50629968002,79.0,49.0,30.0,0.620253164556962,319.0446120963757,3753.039683228897,0.0,0.0,0.0,0.0,53477.0,53507.0,53531.0,53628.0,53637.0,53656.0,53660.0,53697.0,53889.0,53960.0,0.04084137106805485,-0.05280749006385844,0.051053046477690274,-0.0975887026931902,0.06656529046857122
50,50,54399.61791661837,5803.407688161933,12.072390710935544,54524.45203459914,-3967.59227658425,15.28779240518434,54555.65307253114,38412.65716420909,8.571852850265676,54575.88533504141,-19105.70796956988,19.792813166555614,54833.642014770376,6374.8843229264385,31.718085137869064,0.910792548210796,105.0,75.0,110.0,267.0,377.0,30.0,907.0,911.0,32.0,16.0,16.0,0.5,362.3584291392125,5133.27761726188,43.0,34.0,9.0,0.7906976744186046,422.30729990292855,2197.5893379761555,20.0,11.0,9.0,0.55,2017.1382081824584,14620.5724505147,33.0,9.0,24.0,0.2727272727272727,1513.0180203951709,34866.11455236103,94.0,47.0,47.0,0.5,335.8012410362348,5815.669505608584,0.0,0.0,0.0,0.0,54385.0,54415.0,54490.0,54533.0,54545.0,54565.0,54567.0,54600.0,54800.0,54867.0,0.062438906347794323,-0.10643918791637991,0.052512332056578535,-0.0791919369229861,0.05267566029842605
51,51,56200.246609001435,5299.051482982583,13.389518295351635,56322.60271279886,-4074.8669521967945,20.383723206912453,56353.84696424294,34575.32346560404,8.34366112202087,56377.50244011196,-16076.404416259847,21.659908397504843,56631.10949479597,5534.057786336742,32.93867955026016,0.9153589874089872,67.0,38.0,149.0,269.0,418.0,29.0,1798.0,1795.0,37.0,18.0,19.0,0.4864864864864865,376.7712712713361,4662.011974755451,86.0,74.0,12.0,0.8604651162790697,403.7811433379167,1470.5433234331274,19.0,10.0,9.0,0.5263157894736842,1869.2254079357988,15159.819242879445,36.0,12.0,24.0,0.3333333333333333,910.5970075250966,25238.258988615144,91.0,45.0,46.0,0.4945054945054945,301.67816096840073,5048.852237417153,0.0,0.0,0.0,0.0,56186.0,56215.0,56253.0,56334.0,56345.0,56363.0,56366.0,56402.0,56600.0,56671.0,0.07110164384726256,-0.09909063242426479,0.05406241274345062,-0.056641832585656346,0.05451301244327916
52,52,57081.794574402295,6280.090993317851,19.866382407679072,57159.76720070293,-3823.1252530360625,58.60320421987331,57232.56114222979,38835.08276858972,8.547283196908657,57252.12937002962,-17538.481253533453,19.818571688972916,57506.22050762656,6341.690878730537,33.66198599337576,0.926664236247972,68.0,34.0,152.0,265.0,417.0,34.0,879.0,879.0,35.0,23.0,12.0,0.6571428571428571,296.25402267625867,3254.6073147622233,96.0,44.0,52.0,0.4583333333333333,339.9021020219315,2908.3080649554495,19.0,11.0,8.0,0.5789473684210527,1952.5351730138489,15194.347996435734,36.0,8.0,28.0,0.2222222222222222,1598.4695909914265,32675.51036762447,72.0,33.0,39.0,0.4583333333333333,244.08964088714168,6566.1613573677605,0.0,0.0,0.0,0.0,57059.0,57093.0,57127.0,57207.0,57222.0,57241.0,57244.0,57279.0,57473.0,57544.0,0.04717352391732527,-0.08890687056407705,0.050277610701864726,-0.09114070756094603,0.038489678155994085
53,53,57976.838954249135,5449.520977072015,17.607554136455587,58041.39728720114,-4049.2854641805375,20.38372320691244,58129.99774196243,41570.01638944919,8.636304395976826,58145.60271279886,-21865.575765118076,20.383723206848405,58391.94525260201,6021.408764080449,35.67151560909864,0.905494182171708,68.0,30.0,146.0,275.0,421.0,38.0,899.0,897.0,39.0,19.0,20.0,0.4871794871794871,286.3541743938378,5140.679560074193,83.0,14.0,69.0,0.1686746987951807,355.3483232039034,4778.971117358813,20.0,11.0,9.0,0.55,1934.7834854450891,12806.263023320213,36.0,5.0,31.0,0.1388888888888889,1611.066257943809,34597.00919470021,88.0,23.0,65.0,0.2613636363636363,389.8736451182232,5966.867434914638,0.0,0.0,0.0,0.0,57959.0,57997.0,58027.0,58046.0,58119.0,58139.0,58141.0,58173.0,58372.0,58448.0,0.05254666889046341,-0.08775580935137059,0.046542764557007794,-0.07368048640703649,0.06474791205738084
54,54,58889.71342041002,6471.603022208799,22.19671029705661,58999.13711420546,-5861.8353806291125,96.82268523283416,59040.69026290346,35641.267634380805,8.69578957014732,59061.66601512732,-15147.435735959472,17.179936718709254,59323.65746019684,5226.69006949054,28.456667477974857,0.9137108210742784,62.0,30.0,153.0,269.0,422.0,32.0,911.0,911.0,38.0,21.0,17.0,0.5526315789473685,308.14504100434414,2453.3008854133936,100.0,77.0,23.0,0.77,321.2506621755987,3803.854718169842,18.0,10.0,8.0,0.5555555555555556,1922.7091503549336,13090.15646624341,37.0,10.0,27.0,0.2702702702702703,1371.0869490878972,32845.945406317405,80.0,48.0,32.0,0.6,292.1702763247619,4419.880369431804,0.0,0.0,0.0,0.0,58871.0,58903.0,58933.0,59021.0,59031.0,59049.0,59053.0,59086.0,59283.0,59355.0,0.04761494794208997,-0.05480376730421265,0.05394614944896689,-0.09051610932621326,0.05589967502190934
55,55,59787.12330450071,4105.10680171722,9.05897611565024,59911.753390998565,-5065.802405305884,25.47965400864057,59945.39238363524,36566.03781635808,8.680621407241816,59970.3574897394,-15955.322462942411,25.618095894197765,60225.470453009315,5010.257353819812,28.578282662913107,0.8714646338282914,53.0,27.0,160.0,261.0,421.0,26.0,900.0,905.0,28.0,8.0,20.0,0.2857142857142857,311.02333653736025,5189.102126996016,103.0,87.0,16.0,0.8446601941747572,359.1831095219215,3994.502561794275,18.0,8.0,10.0,0.4444444444444444,1942.2168518234737,17540.206758891563,35.0,12.0,23.0,0.3428571428571428,1028.6399316842476,26647.041563265437,51.0,22.0,29.0,0.4313725490196078,258.1454353053434,6114.305334712253,0.0,0.0,0.0,0.0,59780.0,59806.0,59833.0,59926.0,59937.0,59955.0,59958.0,59993.0,60203.0,60254.0,0.0757649804402787,-0.07090349776487842,0.05311532142414973,-0.06447001833233712,0.05152338833623661
56,56,60707.10642221922,5071.429595515625,15.172543098180409,60789.21923530245,-3457.6244579969148,32.02298872328683,60860.1808340533,39920.46757819479,8.453355806193313,60878.22068779265,-19267.97763777248,19.972093562717873,61139.53415569612,6950.032022571912,34.61567497317073,0.9371938379648772,74.0,44.0,139.0,274.0,413.0,30.0,919.0,915.0,30.0,16.0,14.0,0.5333333333333333,290.24872775576324,4555.814345953109,72.0,25.0,47.0,0.3472222222222222,309.3919495476122,2848.696370930634,19.0,10.0,9.0,0.5263157894736842,2052.625911851635,15598.401204785683,33.0,6.0,27.0,0.1818181818181818,1602.4237035502078,34568.376897769085,86.0,45.0,41.0,0.5232558139534884,260.4835137789652,6899.12514266611,0.0,0.0,0.0,0.0,60691.0,60721.0,60765.0,60818.0,60850.0,60869.0,60872.0,60904.0,61101.0,61178.0,0.05723213194409986,-0.08948107387198737,0.051417882514302335,-0.08316512161654448,0.037479469581288526
57,57,62526.178051898714,4335.153157689852,10.769942967046296,62649.178051898714,-5283.705204866044,22.93168860777651,62680.973140657225,36021.93691555925,8.434683194989995,62705.21551313741,-16361.449323490628,24.28330014516699,62967.356103797414,4721.9018307830365,27.38811410104713,0.8695708192756608,69.0,39.0,151.0,264.0,415.0,30.0,1826.0,1822.0,31.0,17.0,14.0,0.5483870967741935,332.16603726382647,3628.8025684969743,99.0,86.0,13.0,0.8686868686868687,440.5232322271886,4292.880567438631,18.0,9.0,9.0,0.5,1884.2953948472043,15260.22992727586,36.0,12.0,24.0,0.3333333333333333,1065.1045673434558,28172.40815278597,79.0,46.0,33.0,0.5822784810126582,294.0274566801439,4484.484062813524,0.0,0.0,0.0,0.0,62509.0,62539.0,62578.0,62662.0,62672.0,62690.0,62693.0,62729.0,62925.0,62993.0,0.07662152297309686,-0.0833739232502009,0.05230966339384446,-0.06509842412397128,0.06226886267802504
58,58,63417.51120140085,5640.932790829801,14.648956377899786,63534.753390998565,-3821.541446464123,25.47965400864057,63572.34898269293,38138.14496059483,8.71106220864041,63593.05474739805,-18216.52911445583,18.740091349731316,63859.2327992967,6953.87215639207,35.47200955348529,0.9252275415640578,121.0,83.0,95.0,276.0,371.0,38.0,891.0,890.0,38.0,18.0,20.0,0.4736842105263157,307.05279464950615,5168.2651913279715,60.0,46.0,14.0,0.7666666666666667,352.64869264269856,3170.065307324144,19.0,10.0,9.0,0.5263157894736842,1937.1091006870745,16672.692859646348,32.0,9.0,23.0,0.28125,1571.352295826961,33569.10949019577,99.0,60.0,39.0,0.6060606060606061,264.7738710743455,5763.367512067496,0.0,0.0,0.0,0.0,63400.0,63438.0,63521.0,63549.0,63562.0,63581.0,63585.0,63616.0,63804.0,63892.0,0.0544329822806376,-0.09227917519224772,0.05079190670360444,-0.08625969776975821,0.03807574616265596
59,59,66153.17663337286,6193.683305993794,12.89959835630423,66273.17805189872,-3714.7179949573288,22.93168860777651,66307.79884545045,36429.47116679474,8.775096508074515,66329.39202093816,-16803.15887098414,20.094205107360946,66578.04118340374,6664.152689948319,36.79848846823342,0.934876900757717,126.0,94.0,91.0,270.0,361.0,32.0,2731.0,2736.0,32.0,16.0,16.0,0.5,349.45625795986496,6442.63685513917,79.0,66.0,13.0,0.8354430379746836,319.2949790109989,2484.7609010587803,20.0,11.0,9.0,0.55,1867.969307387432,15981.915821689789,35.0,9.0,26.0,0.2571428571428571,1410.4579763041231,31990.25991789779,87.0,41.0,46.0,0.4712643678160919,290.9750531474753,6572.669163600719,0.0,0.0,0.0,0.0,66137.0,66169.0,66263.0,66286.0,66298.0,66317.0,66320.0,66354.0,66541.0,66624.0,0.05642139591181337,-0.08595402920071908,0.051276322371928244,-0.08394004884044248,0.0436627230324958
60,60,67089.61541505861,5858.484543815078,24.06734224333825,67198.01380970473,-3880.209453362775,84.08285822851387,67240.60623994304,38861.937458456036,8.970017580141626,67258.81661095204,-18376.13919960413,16.40683498358247,67515.39965319236,6315.43904892929,33.4621424056469,0.939763535390586,81.0,49.0,134.0,270.0,404.0,32.0,934.0,932.0,35.0,21.0,14.0,0.6,364.6841882696871,3466.671119789904,90.0,70.0,20.0,0.7777777777777778,271.8431111224802,2003.7412988319536,19.0,11.0,8.0,0.5789473684210527,1944.7380650103175,12690.184848591483,34.0,7.0,27.0,0.2058823529411764,1551.7910533812503,34037.05511892549,84.0,39.0,45.0,0.4642857142857143,256.29205820257926,5070.482220177302,0.0,0.0,0.0,0.0,67070.0,67102.0,67151.0,67217.0,67230.0,67249.0,67252.0,67285.0,67476.0,67555.0,0.06224889483658222,-0.0700588755297444,0.050042231350129425,-0.0844459783704011,0.040581827520927566
61,61,68026.9448607589,5313.094152757978,12.976620345249486,68152.45203459915,-3029.989708805044,15.28779240518434,68182.11421905398,37220.176166903046,8.652260564133956,68202.05474744491,-19486.77827570724,20.86900986930162,68460.40094430695,6721.967246406448,31.217832554409004,0.9118735595404696,102.0,78.0,108.0,274.0,382.0,24.0,939.0,943.0,27.0,12.0,15.0,0.4444444444444444,339.37139362152067,6182.589587368802,66.0,55.0,11.0,0.8333333333333334,512.6513743848146,334.13174802751746,19.0,10.0,9.0,0.5263157894736842,1872.4063329970656,13811.863863744164,34.0,8.0,26.0,0.2352941176470588,1551.973790530851,33864.628504661836,81.0,38.0,43.0,0.4691358024691358,304.5782321336217,5647.967059987321,0.0,0.0,0.0,0.0,68016.0,68040.0,68118.0,68161.0,68172.0,68191.0,68194.0,68226.0,68423.0,68500.0,0.0638745303328299,-0.16919244738523953,0.05030621898727197,-0.0796424000197911,0.04531087715377499
62,62,68963.14945996893,6163.0825189587085,21.897015767386716,69070.5617751056,-5573.542049209429,99.37065063369822,69112.31597802506,34452.370022938776,8.51450911026991,69136.19705644091,-13149.515263113475,18.64780177702916,69391.69792447587,4693.641239954564,29.620086248391154,0.9169072922633996,57.0,32.0,156.0,261.0,417.0,25.0,939.0,928.0,25.0,15.0,10.0,0.6,373.76144366210826,3572.222547024042,88.0,66.0,22.0,0.75,259.30033788254764,5118.712067830791,18.0,9.0,9.0,0.5,1894.7110095255591,15318.384299031011,39.0,12.0,27.0,0.3076923076923077,988.596943842556,25830.353198433135,79.0,38.0,41.0,0.4810126582278481,298.83433512220523,5134.6736591079625,0.0,0.0,0.0,0.0,68948.0,68973.0,69005.0,69093.0,69103.0,69121.0,69124.0,69161.0,69379.0,69422.0,0.06064521163108775,-0.0465234379848857,0.05499508475800182,-0.07518124615709074,0.0636679115093803
63,63,69870.41023672977,5278.446952821604,14.121785023626275,69990.60271279886,-3801.215371059783,20.383723206912453,70024.99800059288,39261.02068542863,8.84462108157808,70044.78579642938,-19235.434180358883,19.293090657528772,70302.2601729957,6531.087518481246,34.91504858221035,0.9256872427203224,109.0,77.0,107.0,275.0,382.0,32.0,908.0,914.0,32.0,16.0,16.0,0.5,303.76174116713725,5199.31090078976,78.0,66.0,12.0,0.8461538461538461,349.1848928298811,2495.119048007506,20.0,11.0,9.0,0.55,1993.1307665557645,15845.813764419396,33.0,8.0,25.0,0.2424242424242424,1531.2226766586812,34510.74732162593,93.0,48.0,45.0,0.5161290322580645,329.3151896595617,6937.455128615756,0.0,0.0,0.0,0.0,69854.0,69886.0,69963.0,70002.0,70014.0,70034.0,70037.0,70070.0,70258.0,70345.0,0.05754755970499255,-0.09186138083318546,0.05076614748570449,-0.0796042689913492,0.05042271883934905
64,64,70791.0062592682,5345.5983551489635,14.172045715376802,70908.75339099858,-3772.3389798465582,25.47965400864057,70946.33071846819,39774.377238764086,8.703447440449061,70964.56902112311,-21147.365199793127,17.86320396083445,71222.1156486907,6996.91096426075,34.540940634571214,0.9243215905839391,110.0,77.0,104.0,276.0,380.0,33.0,919.0,920.0,33.0,17.0,16.0,0.5151515151515151,344.11692394489376,5600.87851833417,89.0,72.0,17.0,0.8089887640449438,288.82656477490053,2920.588233109973,19.0,10.0,9.0,0.5263157894736842,2008.799386669746,13840.167800202522,30.0,7.0,23.0,0.2333333333333333,1604.024199891356,36103.40705697238,83.0,41.0,42.0,0.4939759036144578,322.2523768838898,7602.004993278122,0.0,0.0,0.0,0.0,70774.0,70807.0,70884.0,70923.0,70936.0,70955.0,70958.0,70988.0,71181.0,71264.0,0.06437388316191675,-0.07656431893261319,0.05050486082059812,-0.07584983683485294,0.046056378097407584
65,65,71701.54796540085,4616.389516514053,12.270588471018923,71821.32873009844,-5342.176916732105,28.027619409504627,71856.25129026316,35421.63259198293,8.528679372989831,71882.23109468035,-15800.623991926475,24.577794349818333,72147.20542559771,4925.051701911023,27.041128531284105,0.8777966844999588,71.0,44.0,142.0,264.0,406.0,27.0,908.0,911.0,31.0,9.0,22.0,0.2903225806451613,321.59267331574335,5470.984897604099,84.0,67.0,17.0,0.7976190476190477,355.7126933275154,5001.881083039159,19.0,9.0,10.0,0.4736842105263157,1926.599257082178,15740.231513587692,39.0,14.0,25.0,0.358974358974359,767.0184691594633,21855.86641459626,71.0,47.0,24.0,0.6619718309859155,317.66799005355807,5010.113430551077,0.0,0.0,0.0,0.0,71693.0,71720.0,71764.0,71837.0,71848.0,71865.0,71869.0,71906.0,72100.0,72170.0,0.06966324487249632,-0.06658571943085527,0.05439047034546426,-0.04854355559320827,0.06450043761577087
66,66,72597.24660900142,4992.104096923514,12.438651134326484,72713.054747398,-4496.296386284944,35.6715156120968,72752.11968290433,37809.85943363541,8.547821642665657,72774.5811516221,-16029.48607631598,22.10716864731553,73028.62578374219,6280.762314850816,29.957054742012932,0.9078534392926668,91.0,59.0,125.0,268.0,393.0,32.0,894.0,898.0,35.0,16.0,19.0,0.4571428571428571,307.6720277663311,4225.362278484785,99.0,79.0,20.0,0.797979797979798,373.6977812872243,3100.8365442616864,19.0,10.0,9.0,0.5263157894736842,1934.4738997106208,16066.207307879264,36.0,11.0,25.0,0.3055555555555556,1362.2102478278064,30822.855550606724,75.0,37.0,38.0,0.4933333333333333,290.89469853155316,6343.4337603448475,0.0,0.0,0.0,0.0,72583.0,72615.0,72674.0,72733.0,72743.0,72761.0,72764.0,72799.0,72992.0,73067.0,0.06163173319160958,-0.08311235496554785,0.051163213211782674,-0.08498152974726436,0.04631518977302083
67,67,73502.054747398,6424.1816647226715,14.585218976217352,73624.87669549929,-3332.6828197637674,12.739827004320285,73656.8626283829,37915.15350121182,8.44320049559141,73675.43662372681,-20046.163761687312,18.465638108507207,73933.13647654814,7560.431813295677,36.41719382466939,0.92191201038499,68.0,31.0,145.0,277.0,422.0,37.0,915.0,904.0,38.0,18.0,20.0,0.4736842105263157,352.7908225013956,6618.72951851453,80.0,72.0,8.0,0.9,432.2634632753628,701.316262577644,19.0,11.0,8.0,0.5789473684210527,1925.573781792072,13517.313712883642,31.0,7.0,24.0,0.2258064516129032,1607.2500356595435,36262.6660749466,90.0,48.0,42.0,0.5333333333333333,276.7762142677566,8098.961503504232,0.0,0.0,0.0,0.0,73485.0,73522.0,73553.0,73632.0,73646.0,73665.0,73668.0,73698.0,73885.0,73975.0,0.054916071947138094,-0.12970435131477745,0.05078639024184692,-0.0801774371778483,0.036608519341583316
68,68,75354.39728720114,4064.4864719096513,12.29162146613846,75440.14960731816,-4967.842361931759,29.91256896679105,75513.44325767385,36873.9436810427,8.3793819533012,75534.78076469757,-16611.095641662276,25.81025424008552,75805.90406919828,5180.01692801151,28.32931384926021,0.887665662123843,57.0,26.0,162.0,261.0,423.0,31.0,1843.0,1855.0,34.0,12.0,22.0,0.3529411764705882,311.70489132567343,4041.783775260076,95.0,41.0,54.0,0.431578947368421,356.7225059660021,5272.146267448188,18.0,9.0,9.0,0.5,1897.0944906683103,15657.876145182368,38.0,10.0,28.0,0.2631578947368421,1380.66118521135,31894.91837385213,62.0,45.0,17.0,0.7258064516129032,328.9436689555118,4829.510007374129,0.0,0.0,0.0,0.0,75343.0,75374.0,75400.0,75494.0,75504.0,75522.0,75525.0,75562.0,75761.0,75823.0,0.07668985823422425,-0.07180632555886687,0.0514481040346012,-0.08311680427319404,0.06350243127135605
69,69,76277.53951985262,4934.722007837167,12.430482224827443,76390.054747398,-4410.244102347181,35.6715156120968,76432.79147543227,39075.72952114963,8.848021960188092,76453.06416815595,-19118.197124776827,19.949336724725892,76709.87131683216,6510.525745894326,33.41801564683666,0.9151939314979032,107.0,78.0,108.0,269.0,377.0,29.0,927.0,919.0,29.0,15.0,14.0,0.5172413793103449,341.184174644899,4978.7904431806755,87.0,66.0,21.0,0.7586206896551724,241.55438643132223,4042.8826922266817,19.0,10.0,9.0,0.5263157894736842,1967.99527964611,13433.125713107502,33.0,8.0,25.0,0.2424242424242424,1565.9744748663295,35673.25676407072,80.0,42.0,38.0,0.525,294.49114390370136,7023.963771152293,0.0,0.0,0.0,0.0,76263.0,76292.0,76370.0,76410.0,76423.0,76442.0,76445.0,76478.0,76668.0,76747.0,0.06913949237728917,-0.05477120558990472,0.050363622221843304,-0.0819101542183,0.045233081842801046
70,70,77215.00333367016,4993.5444899037275,14.969457207582357,77302.76796393137,-3678.10434449195,22.93168860777651,77371.64553750496,40689.01193755612,8.553721357313144,77388.17805189872,-21381.853637537955,18.666258925501364,77647.20651500941,7157.924353613891,35.46340813341866,0.9317840640701538,89.0,58.0,119.0,278.0,397.0,31.0,933.0,939.0,31.0,14.0,17.0,0.4516129032258064,309.354691690592,5854.20814680528,90.0,44.0,46.0,0.4888888888888889,304.88928975484674,3345.6183843806525,19.0,11.0,8.0,0.5789473684210527,2015.470674297076,12349.351819802689,31.0,5.0,26.0,0.1612903225806451,1672.3519219635662,35939.652981153005,100.0,52.0,48.0,0.52,307.8584968710907,6160.212087347221,0.0,0.0,0.0,0.0,77201.0,77232.0,77290.0,77309.0,77361.0,77380.0,77383.0,77409.0,77621.0,77687.0,0.06195092330028608,-0.08289305065839847,0.04953353690156306,-0.07821360815170801,0.04300946498766213
71,71,78134.027373699,3704.34058132091,11.38649061043217,78246.90406919828,-5287.181313483555,30.57558481036868,78282.35652192478,35419.50133036472,8.331663266210976,78307.90711468336,-15069.044452581424,24.661989955971315,78559.65746019685,4720.245915750955,29.20142898830215,0.8816272020532534,63.0,34.0,154.0,259.0,413.0,29.0,926.0,911.0,33.0,22.0,11.0,0.6666666666666666,362.02895902181,2532.685897254275,88.0,70.0,18.0,0.7954545454545454,311.12866260276047,4840.477515398918,18.0,8.0,10.0,0.4444444444444444,1958.5988592135277,17157.989301705777,39.0,14.0,25.0,0.358974358974359,709.5003514136207,21368.455281323528,84.0,46.0,38.0,0.5476190476190477,322.867737530793,4913.728808210035,0.0,0.0,0.0,0.0,78115.0,78144.0,78178.0,78264.0,78274.0,78292.0,78295.0,78332.0,78546.0,78591.0,0.09773101340825312,-0.05884584699399457,0.05529718899612073,-0.047083300712679146,0.06840061795369982
72,72,79015.9122340678,4732.740679218943,13.072646500283604,79135.17805189872,-5035.802773049889,22.93168860777651,79168.8726250168,35516.45608396922,8.979618629070236,79192.79202958861,-15939.494556571752,24.16183554888991,79444.8823503794,5613.28314288496,31.145266538946775,0.8946161821987653,124.0,93.0,95.0,267.0,362.0,31.0,879.0,887.0,31.0,16.0,15.0,0.5161290322580645,399.3780757454177,4842.844356221955,80.0,67.0,13.0,0.8375,368.67852743038424,4926.162580636357,18.0,9.0,9.0,0.5,1852.373587013234,15954.300258588632,38.0,11.0,27.0,0.2894736842105263,1107.707405088106,26646.706002029245,95.0,50.0,45.0,0.5263157894736842,269.08303787181586,5257.503792708601,0.0,0.0,0.0,0.0,79000.0,79031.0,79124.0,79148.0,79160.0,79178.0,79182.0,79219.0,79411.0,79486.0,0.08438621568662158,-0.07321147075168263,0.052155360958136956,-0.06949451258674984,0.04793683678915936
73,73,79911.17805189872,5951.089790438481,16.262099803914477,80001.17805189872,-3779.5289950033966,22.93168860777651,80058.01945696035,39214.591154162015,8.681169121982064,80076.04757771194,-19081.216839228106,19.71924551691164,80334.68483389584,7560.951446270112,35.38714251963707,0.9389007794325664,110.0,72.0,105.0,275.0,380.0,38.0,899.0,888.0,40.0,26.0,14.0,0.65,307.2216337885012,4108.9652697247275,66.0,33.0,33.0,0.5,375.3328897517649,3356.568827510818,20.0,11.0,9.0,0.55,1900.0162544479535,14658.673802575726,34.0,7.0,27.0,0.2058823529411764,1557.1406928547026,33567.99509687364,83.0,42.0,41.0,0.5060240963855421,348.7801290811092,7916.789143477159,0.0,0.0,0.0,0.0,79886.0,79924.0,79996.0,80034.0,80047.0,80067.0,80070.0,80101.0,80293.0,80376.0,0.051624432600917765,-0.09930678935072638,0.048451767531593824,-0.08160594295293873,0.04612913223416686
74,74,80809.75339099858,5210.389607914929,14.670462471874767,80917.63008649785,-4373.408613520778,38.21948101296085,80961.02390788608,39383.73134294937,8.873422671263139,80979.28149838839,-20714.14712145008,17.49820724569588,81238.74517928225,6612.019321248258,34.24954249662942,0.920861881625391,106.0,71.0,107.0,278.0,385.0,35.0,899.0,904.0,36.0,22.0,14.0,0.6111111111111112,282.0709811864382,3189.4255625678675,84.0,63.0,21.0,0.75,345.5389884343627,4693.304598471259,19.0,10.0,9.0,0.5263157894736842,1957.046684461113,13288.925454556216,30.0,7.0,23.0,0.2333333333333333,1561.5090906720156,35375.45416027999,73.0,31.0,42.0,0.4246575342465753,306.83749159523614,8035.401147018032,0.0,0.0,0.0,0.0,80789.0,80824.0,80895.0,80939.0,80951.0,80970.0,80972.0,81002.0,81209.0,81280.0,0.05413625513876229,-0.0790090794091589,0.04969175387215998,-0.07538370184959385,0.046406018598461905
75,75,82615.4031486798,4433.3868303574,11.69535468889744,82738.17805189872,-4934.696596831458,22.93168860777651,82770.73355913829,36058.5117361731,8.617739963449745,82795.87812821666,-14829.444479656644,26.059242164989808,83046.92113374507,5364.297693507196,29.77054113445502,0.8871770429770357,126.0,103.0,95.0,262.0,357.0,23.0,1798.0,1809.0,37.0,17.0,20.0,0.4594594594594595,355.19290171438007,3787.6508559526665,86.0,72.0,14.0,0.8372093023255814,454.388543746222,4524.0258650729775,18.0,9.0,9.0,0.5,1945.2228963419627,17523.618757941906,36.0,12.0,24.0,0.3333333333333333,798.4765738850524,23364.68473134475,81.0,38.0,43.0,0.4691358024691358,304.34536098693485,4589.215788814895,0.0,0.0,0.0,0.0,82599.0,82622.0,82725.0,82751.0,82762.0,82780.0,82784.0,82820.0,83011.0,83082.0,0.08011773285430769,-0.09208034067139659,0.05394628903639853,-0.05384399766157256,0.056735360037028976
76,76,83503.16414053044,5955.940329806883,15.182429637461222,83581.20267592013,-4167.895078388381,32.80046901456683,83652.2297833764,38601.6966032255,8.71060290299637,83672.054747398,-17359.382170469205,22.10074047172122,83933.2327992967,6389.890306966697,33.871244001761085,0.9335663093465244,56.0,28.0,155.0,268.0,423.0,28.0,892.0,882.0,29.0,17.0,12.0,0.5862068965517241,327.68256848564306,5914.936831976146,85.0,38.0,47.0,0.4470588235294118,261.0251410121272,4656.351161786855,19.0,10.0,9.0,0.5263157894736842,1969.694675755619,16923.4319849938,36.0,8.0,28.0,0.2222222222222222,1417.2713325791588,31946.899457434007,87.0,51.0,36.0,0.5862068965517241,297.59321464792725,6304.137255610264,0.0,0.0,0.0,0.0,83487.0,83515.0,83543.0,83628.0,83642.0,83661.0,83664.0,83698.0,83887.0,83966.0,0.05501777223081547,-0.062627570057032,0.05102611670159167,-0.08164295933239722,0.04657250756299693
77,77,84431.18490965979,5058.270857793193,12.37981562726713,84542.054747398,-4312.8206020990665,35.6715156120968,84585.81335311112,39090.661761008654,8.40169065467821,84606.97532994165,-18818.669378799314,19.93563586755771,84874.35610379743,6159.7381635424645,29.042114623125943,0.9090663700140904,87.0,58.0,127.0,270.0,397.0,29.0,926.0,933.0,29.0,15.0,14.0,0.5172413793103449,318.32422654742066,5217.652826875487,95.0,71.0,24.0,0.7473684210526316,291.8445698080289,3353.936150825975,19.0,10.0,9.0,0.5263157894736842,2045.7039474931637,15024.880851981869,32.0,9.0,23.0,0.28125,1556.7320138176967,34460.364534996705,77.0,46.0,31.0,0.5974025974025974,301.5329398929225,5851.057959852587,0.0,0.0,0.0,0.0,84416.0,84445.0,84503.0,84562.0,84576.0,84595.0,84598.0,84630.0,84833.0,84900.0,0.06293143160908117,-0.06766907245480765,0.05233229255621531,-0.08272274635801168,0.048952233339657245
78,78,85378.17805189872,4946.0271483303995,13.219623257311843,85496.45203459915,-3204.8889703005466,15.28779240518434,85530.32045071926,36122.09626142102,8.670902385659627,85550.18786506668,-18925.173973919096,18.735982871847924,85807.41085119541,6969.713083470768,34.864005554450905,0.9188738094432016,130.0,99.0,85.0,278.0,363.0,31.0,952.0,945.0,36.0,18.0,18.0,0.5,307.245781863605,4019.1073885281694,75.0,66.0,9.0,0.88,375.4288747398084,2094.411474569856,19.0,10.0,9.0,0.5263157894736842,1878.3503129437947,13797.200447891457,34.0,8.0,26.0,0.2352941176470588,1473.778364386783,33477.51478425723,104.0,55.0,49.0,0.5288461538461539,323.8062021277458,6639.884852815603,0.0,0.0,0.0,0.0,85360.0,85391.0,85490.0,85505.0,85520.0,85539.0,85542.0,85575.0,85772.0,85853.0,0.06211971197273353,-0.11714255258727468,0.05200003619252582,-0.07787396651770845,0.04645904332786354
79,79,86297.82194810128,4401.08568706182,12.253959523448748,86421.32873009844,-4766.503144233952,28.027619409504627,86456.39756973498,36551.718510616345,8.632204453921778,86480.1592021945,-15898.701975914226,23.295109963736937,86734.41815957378,5613.711482361389,30.593957065991276,0.9016454464714196,84.0,51.0,134.0,274.0,408.0,33.0,912.0,926.0,34.0,14.0,20.0,0.4117647058823529,312.40008771962346,4727.703169655653,70.0,53.0,17.0,0.7571428571428571,316.7303436115868,3229.4226799674457,19.0,9.0,10.0,0.4736842105263157,1920.3547127503712,17367.921657155468,36.0,11.0,25.0,0.3055555555555556,1188.109471850957,27877.26417228778,80.0,36.0,44.0,0.45,346.98811395608885,4934.704584453428,0.0,0.0,0.0,0.0,86285.0,86318.0,86369.0,86437.0,86447.0,86466.0,86469.0,86503.0,86699.0,86777.0,0.07098250521184077,-0.0664492048001135,0.052538014380708514,-0.07472996686464632,0.06181082071038846
80,80,87206.0311964489,4849.653014142758,13.945237342884068,87327.60271279886,-4441.171053302101,20.383723206912453,87362.78918581904,37048.907019515376,8.802931925138507,87383.72584562913,-18404.052268919975,19.9664212396303,87627.91787890301,5870.598155019467,35.3798790354182,0.9117785647117118,84.0,50.0,132.0,274.0,406.0,34.0,913.0,906.0,35.0,16.0,19.0,0.4571428571428571,385.0708521881951,5419.161808616367,88.0,73.0,15.0,0.8295454545454546,318.4162918054127,2833.8077567633923,19.0,10.0,9.0,0.5263157894736842,1884.663944659032,15016.859030293628,33.0,9.0,24.0,0.2727272727272727,1423.6844289918722,32204.96282682368,85.0,31.0,54.0,0.3647058823529411,292.66108580250057,5689.203996257193,0.0,0.0,0.0,0.0,87191.0,87225.0,87275.0,87339.0,87353.0,87372.0,87375.0,87407.0,87598.0,87681.0,0.07940173267349965,-0.07169647103969654,0.050869623324280314,-0.07735711723641066,0.04985200452738705
81,81,88130.24660900142,5766.67236806187,16.717687607265752,88247.46584430388,-4443.045881212202,68.79506582332952,88287.25635056614,39337.14544208638,8.776285321286222,88305.69152360577,-18357.75639371893,17.104558077489315,88562.86112126606,6649.109506817342,33.324778705661025,0.923383240973483,82.0,51.0,133.0,276.0,409.0,31.0,919.0,925.0,32.0,14.0,18.0,0.4375,298.90837329139697,5449.931724526183,88.0,69.0,19.0,0.7840909090909091,342.46793686525695,3183.4682232483397,19.0,10.0,9.0,0.5263157894736842,2015.375124385098,13841.632161802225,33.0,7.0,26.0,0.2121212121212121,1539.714122843193,35755.41289024812,88.0,43.0,45.0,0.4886363636363636,274.6681717207055,6302.147786669578,0.0,0.0,0.0,0.0,88116.0,88147.0,88198.0,88263.0,88277.0,88296.0,88299.0,88331.0,88521.0,88607.0,0.05183377071096855,-0.07707954093236169,0.051233385181754194,-0.08387267429749766,0.041309016107959694
82,82,89938.83013596456,5240.167383681832,11.90495497685814,90062.60271279886,-4263.892428448343,20.383723206912453,90094.18242593366,36643.17014894222,8.675461526943847,90118.09295697432,-15723.181462508344,27.03190666310006,90367.64389620256,5391.805432409474,30.318528486947,0.894152076801595,117.0,91.0,99.0,263.0,362.0,26.0,1810.0,1809.0,30.0,12.0,18.0,0.4,274.75611836976475,5353.271289685554,86.0,74.0,12.0,0.8604651162790697,467.1718318247733,2995.781407914919,18.0,8.0,10.0,0.4444444444444444,1901.4934576294768,16831.822450419786,37.0,12.0,25.0,0.3243243243243243,1157.7440558813566,28665.15848269649,82.0,29.0,53.0,0.3536585365853658,344.88661479118554,4455.397460093488,0.0,0.0,0.0,0.0,89927.0,89953.0,90044.0,90074.0,90086.0,90104.0,90107.0,90143.0,90342.0,90406.0,0.0524326988533554,-0.10956463833558297,0.0518921657132978,-0.07363293864171049,0.06396495925430003
83,83,90833.91545166084,7028.274673664437,20.31549022568124,90919.16448790445,-4643.2520122351625,78.98692742678575,90986.01101263885,39944.1889628749,8.665747932787475,91004.32833664076,-18889.462117723768,17.636145557587366,91262.21893523024,6435.110993954517,29.55372861578451,0.9161614349919224,58.0,31.0,154.0,268.0,422.0,27.0,899.0,889.0,27.0,17.0,10.0,0.6296296296296297,317.73204184682095,4596.501685332065,98.0,51.0,47.0,0.5204081632653061,256.9716563004021,3444.894662896945,19.0,10.0,9.0,0.5263157894736842,1974.0972282664009,13689.267798955489,33.0,7.0,26.0,0.2121212121212121,1638.5106798192598,36143.065442403175,65.0,30.0,35.0,0.4615384615384615,315.541960414054,6833.354424894318,0.0,0.0,0.0,0.0,90817.0,90844.0,90875.0,90965.0,90976.0,90995.0,90997.0,91029.0,91232.0,91297.0,0.04520768703553816,-0.05534303449893977,0.049421387178524886,-0.08674205065277449,0.049034423914442314
84,84,91744.75339099858,5784.644152945269,12.369967066399663,91859.90406919828,-4430.300654027098,30.57558481036868,91899.6078150832,39813.71839422513,8.672973147282617,91917.31836082904,-21197.98087797944,17.11470720424733,92161.917878903,6599.5373258153595,36.61495964392584,0.9103911010583396,114.0,82.0,99.0,282.0,381.0,32.0,914.0,914.0,33.0,19.0,14.0,0.5757575757575758,364.1600706128076,3874.2151640780385,66.0,47.0,19.0,0.7121212121212122,317.3791135975329,3665.6440464303982,19.0,11.0,8.0,0.5789473684210527,2019.4274826421545,12911.306349220127,30.0,6.0,24.0,0.2,1678.6131360036254,36200.617250454845,91.0,31.0,60.0,0.3406593406593406,319.96098377667136,7285.165974350659,0.0,0.0,0.0,0.0,91727.0,91759.0,91841.0,91877.0,91889.0,91908.0,91911.0,91940.0,92132.0,92222.0,0.0629528906159931,-0.0716382788398432,0.0507219009951873,-0.07918740684153444,0.04848233565178614
85,85,93514.4252710802,4536.168268879544,12.825143921789556,93629.75339099858,-5243.957396773355,25.47965400864057,93665.64101878232,36696.28790722094,8.349844660397396,93689.7179238232,-16405.109929511957,23.18609868201763,93945.1807091032,5842.946620411772,28.765916592255152,0.8821634475071348,68.0,36.0,149.0,267.0,416.0,32.0,1762.0,1766.0,38.0,19.0,19.0,0.5,282.40897192738026,3273.5748457545888,86.0,70.0,16.0,0.813953488372093,311.6222028300855,4312.374900059276,18.0,9.0,9.0,0.5,1972.5583237790177,14909.395334458955,37.0,12.0,25.0,0.3243243243243243,998.708615078593,25911.27685664113,83.0,41.0,42.0,0.4939759036144578,257.43844455259443,5181.802982488839,0.0,0.0,0.0,0.0,93497.0,93529.0,93565.0,93644.0,93657.0,93675.0,93678.0,93714.0,93917.0,93981.0,0.06225716401766919,-0.059425006584116966,0.0537536202235558,-0.06087789837250448,0.04405969475285946
86,86,94395.73681745128,6811.992717408457,17.49973697596552,94516.17805189872,-3393.0817438551994,22.93168860777651,94551.00712195034,40046.80581910202,8.93609649393662,94567.84509447528,-21284.192919104054,16.856923303212913,94824.68112163428,7445.955253919872,37.33680767841918,0.9405853049879846,128.0,89.0,85.0,282.0,367.0,39.0,887.0,886.0,44.0,20.0,24.0,0.4545454545454545,326.06616968041016,6986.3788736170245,39.0,26.0,13.0,0.6666666666666666,364.6105894805207,2319.1813583481917,20.0,11.0,9.0,0.55,1973.8686961769868,14225.250215135546,31.0,6.0,25.0,0.1935483870967742,1599.396269159147,34885.892463126285,101.0,52.0,49.0,0.5148514851485149,290.3583836446123,6616.614783584275,0.0,0.0,0.0,0.0,94377.0,94416.0,94505.0,94529.0,94540.0,94560.0,94562.0,94590.0,94787.0,94872.0,0.0478664882960207,-0.10745706027885207,0.049289042054771484,-0.07514479290983953,0.038995451052671194
87,87,95287.11774182809,5516.701607096705,17.166085297475036,95401.75339099858,-2775.0878212486023,25.47965400864057,95441.71297216076,39922.205446295025,8.672386248414325,95459.55076469528,-20388.42725265414,17.497565465484982,95716.9737862687,7325.391535010548,35.10215837316743,0.944582389246326,105.0,71.0,105.0,283.0,388.0,34.0,891.0,890.0,39.0,16.0,23.0,0.4102564102564102,344.0390423905354,5710.9053979088985,72.0,58.0,14.0,0.8055555555555556,282.3562460248358,2105.2953559328207,20.0,11.0,9.0,0.55,2006.3477985707475,14813.821429467109,30.0,7.0,23.0,0.2333333333333333,1633.469866267738,35336.38767480822,92.0,43.0,49.0,0.4673913043478261,322.82692457787397,6505.577349057,0.0,0.0,0.0,0.0,95272.0,95306.0,95377.0,95416.0,95431.0,95450.0,95453.0,95482.0,95675.0,95765.0,0.062363177654554014,-0.10174677855700962,0.050256436891237585,-0.0801175022489827,0.0440695794941436
88,88,96172.09593080172,4425.926944648395,13.53714283730654,96295.75339099858,-4904.474115585593,25.47965400864057,96328.41666814826,35533.76478295254,8.275455470490257,96353.53422042482,-14985.319226200216,23.53692787228024,96592.945252602,5187.773141448535,33.78180195775697,0.9012653134275354,112.0,76.0,112.0,265.0,377.0,36.0,878.0,887.0,37.0,17.0,20.0,0.4594594594594595,272.9858381134925,4502.970333599906,88.0,73.0,15.0,0.8295454545454546,357.7627173802745,4057.056870662428,17.0,8.0,9.0,0.4705882352941176,1960.9243697264571,18597.80818825675,38.0,13.0,25.0,0.3421052631578947,730.0205224942915,21100.681993471106,73.0,21.0,52.0,0.2876712328767123,298.63172037238445,5442.646881563015,0.0,0.0,0.0,0.0,96155.0,96191.0,96267.0,96310.0,96320.0,96337.0,96341.0,96379.0,96573.0,96644.0,0.06167879441470968,-0.07294619340397064,0.055184818768970356,-0.04871571379126374,0.057564529564027966
89,89,97065.5427616638,5415.981249826538,13.751328004787704,97147.64832007118,-4136.111184456882,28.784032775832888,97219.45536762888,37508.89936174049,8.583357000728839,97238.90406919828,-16324.941287143549,23.338647630488406,97496.21384167574,5755.933553075216,32.705812699992194,0.9309261686654516,70.0,37.0,146.0,270.0,416.0,33.0,899.0,891.0,33.0,17.0,16.0,0.5151515151515151,302.2779943015929,5309.524028408656,54.0,29.0,25.0,0.5370370370370371,288.80751351533587,5514.657719840801,18.0,9.0,9.0,0.5,1893.6711937684845,17757.38948065587,38.0,8.0,30.0,0.2105263157894736,1366.2886580537136,30131.336073247418,93.0,47.0,46.0,0.5053763440860215,308.3219913627929,5901.92195837791,0.0,0.0,0.0,0.0,97049.0,97082.0,97119.0,97173.0,97210.0,97228.0,97232.0,97265.0,97457.0,97535.0,0.055812230574334834,-0.06982585830880161,0.050485917368720525,-0.08369332753004832,0.053565940002567626
90,90,97936.67917461367,5560.785470776752,15.936341414051205,98059.45203459916,-3783.72627472653,15.28779240518434,98091.33013060136,36818.8974153143,8.781741873477914,98110.78566442152,-18858.581630241933,18.40760476036169,98366.8398305634,7370.120486030759,33.13988218981589,0.9277651035743306,74.0,36.0,144.0,274.0,418.0,38.0,875.0,874.0,42.0,20.0,22.0,0.4761904761904761,306.07332663165846,5032.652451332306,79.0,69.0,10.0,0.8734177215189873,407.9607782609264,1244.2257564121428,19.0,10.0,9.0,0.5263157894736842,1921.7721274131045,15462.420822003976,33.0,8.0,25.0,0.2424242424242424,1495.0690287357602,32900.736513574244,91.0,44.0,47.0,0.4835164835164835,269.30046068738426,6869.579004409261,0.0,0.0,0.0,0.0,97918.0,97956.0,97992.0,98068.0,98081.0,98100.0,98103.0,98136.0,98331.0,98410.0,0.05504138367504851,-0.10781984441789778,0.05219526553811931,-0.07927791485326992,0.03653949229158644
91,91,98807.39728720114,5431.881125502114,16.578852717701526,98930.17805189872,-4010.119050733776,22.93168860777651,98966.76168164556,38149.701923643785,8.635143644329814,98985.38783582888,-20207.6186312318,17.83401231884606,99255.35610379744,6981.57764766318,31.141203107551487,0.907193334122069,64.0,27.0,147.0,274.0,421.0,37.0,863.0,872.0,38.0,12.0,26.0,0.3157894736842105,285.2425601314232,6855.135742853652,86.0,70.0,16.0,0.813953488372093,257.17557256213576,3360.1985796843283,19.0,11.0,8.0,0.5789473684210527,1928.8835933779096,12686.46801602548,30.0,7.0,23.0,0.2333333333333333,1584.6990370138624,35006.5132728351,84.0,53.0,31.0,0.6309523809523809,355.8119667945349,6080.920704619805,0.0,0.0,0.0,0.0,98796.0,98833.0,98860.0,98943.0,98956.0,98975.0,98978.0,99007.0,99206.0,99281.0,0.05251266615394789,-0.06413165527219883,0.05056090863405825,-0.07842087016451496,0.05096440729462195
92,92,100588.83416712163,4653.806607715145,13.204287927798104,100709.60271279886,-4865.615678636395,20.383723206912453,100743.61575594732,34254.53631742713,8.700794742326426,100767.52017615922,-16103.25557586356,22.234563261918893,101020.19846552664,5987.813549646957,29.834591688706556,0.8994381541773981,68.0,35.0,150.0,260.0,410.0,33.0,1785.0,1778.0,33.0,16.0,17.0,0.4848484848484848,375.9956410692443,4957.060721952397,80.0,69.0,11.0,0.8625,383.8989645022793,2786.923049270633,19.0,10.0,9.0,0.5263157894736842,1843.4742539084075,14346.151148894744,36.0,12.0,24.0,0.3333333333333333,891.9636456949141,24450.79594275288,66.0,34.0,32.0,0.5151515151515151,266.80494827882194,6722.249547529068,0.0,0.0,0.0,0.0,100573.0,100606.0,100641.0,100721.0,100734.0,100753.0,100756.0,100791.0,100987.0,101051.0,0.08079313834096877,-0.07890038791758174,0.05381693790350718,-0.05539026822823566,0.04455799200603914
93,93,101480.7380284814,4884.445029978529,15.06108507232349,101589.78076469756,-4291.823830819109,43.31541181468896,101634.32121507172,36926.48121510617,8.85570354615908,101656.67723163273,-15688.956029094048,21.39531106715159,101910.2831073844,6004.661082029778,29.666206110759944,0.9226570626308572,59.0,24.0,158.0,269.0,427.0,35.0,891.0,891.0,35.0,19.0,16.0,0.5428571428571428,295.03552963792174,4296.77146469195,95.0,70.0,25.0,0.7368421052631579,311.44456592086436,3861.366170345039,19.0,10.0,9.0,0.5263157894736842,1886.741528949669,16557.998526981366,33.0,10.0,23.0,0.303030303030303,1323.5949104114195,30129.817308489633,72.0,33.0,39.0,0.4583333333333333,353.7555549082945,5883.3439672247805,0.0,0.0,0.0,0.0,101462.0,101497.0,101521.0,101614.0,101624.0,101643.0,101647.0,101679.0,101882.0,101948.0,0.060403081174447905,-0.07256695013537498,0.05109453884757983,-0.08436475364944024,0.058913492381274114
94,94,102366.97490066796,6133.318188893905,13.265918963116173,102473.45203459916,-4342.446912411436,15.28779240518433,102525.58177353843,38690.267445422134,8.612263855132893,102543.75339099858,-17725.07410768707,22.34640549577076,102808.2327992967,6817.876917848069,35.12253659682017,0.9224622886211165,117.0,89.0,101.0,270.0,371.0,28.0,886.0,893.0,28.0,14.0,14.0,0.5,375.4924502659675,6866.14765344849,39.0,6.0,33.0,0.1538461538461538,334.026870937537,4388.272875270803,19.0,10.0,9.0,0.5263157894736842,1914.5218704966323,15381.540046082304,34.0,6.0,28.0,0.1764705882352941,1484.8919870693694,32452.60884835175,93.0,52.0,41.0,0.5591397849462365,311.85305140501015,6667.815783072196,0.0,0.0,0.0,0.0,102353.0,102381.0,102470.0,102502.0,102516.0,102535.0,102538.0,102571.0,102760.0,102841.0,0.06122174632092331,-0.07692134818800724,0.04948329378175855,-0.08377352771830705,0.04574049299549992
95,95,103270.24660900142,6193.934013324417,17.148444994065475,103396.87669549928,-2136.2225940101066,12.739827004320285,103428.08327600067,36633.21438573517,8.671154862254088,103446.16066272062,-19533.260565955945,17.10600421113621,103703.41906248398,8123.286491730985,35.538556656691775,0.940253995242507,129.0,96.0,85.0,271.0,356.0,33.0,900.0,900.0,37.0,15.0,22.0,0.4054054054054054,321.49882025735036,7687.176176126197,47.0,40.0,7.0,0.851063829787234,472.9465570549513,1845.3644107913383,20.0,11.0,9.0,0.55,1860.9554661532593,13159.246770726164,33.0,7.0,26.0,0.2121212121212121,1535.5553802814422,33299.729530555895,84.0,41.0,43.0,0.4880952380952381,307.85816393461903,8194.082645015736,0.0,0.0,0.0,0.0,103256.0,103289.0,103385.0,103404.0,103417.0,103437.0,103439.0,103470.0,103663.0,103741.0,0.051905431921899836,-0.2213938558561626,0.050799677215273474,-0.07861234303901751,0.037898228044523606
96,96,105096.972626301,4320.571008632754,10.23807042180816,105214.47940829814,-4702.020469905492,33.12355021123273,105254.62087760048,35097.21362258523,8.660414589517076,105279.55235101358,-14799.898004430212,22.518690618474206,105527.54358534556,5437.899836861382,31.98172999082375,0.9112743062341068,76.0,51.0,139.0,264.0,403.0,25.0,1828.0,1828.0,30.0,11.0,19.0,0.3666666666666666,305.23819521544,4712.541233925362,91.0,71.0,20.0,0.7802197802197802,331.3313480417217,2911.4939198466886,19.0,10.0,9.0,0.5263157894736842,1827.4374368606889,16189.552545977129,35.0,13.0,22.0,0.3714285714285714,750.3156946805542,22263.691388000036,74.0,36.0,38.0,0.4864864864864865,307.24310999793073,6125.928283478591,0.0,0.0,0.0,0.0,105087.0,105112.0,105163.0,105233.0,105245.0,105264.0,105267.0,105302.0,105497.0,105566.0,0.07064765157326572,-0.07046573917794562,0.052067877994870906,-0.05069735578285433,0.05650032534899791
97,97,105990.12160341445,5761.065576427115,12.710502008121429,106106.75339099858,-3808.516976742695,25.47965400864057,106146.305723621,37516.00500504951,8.826014256506616,106167.41269919951,-16830.83029336402,20.65692734733987,106419.885117079,6821.772028270335,35.15221229669069,0.9280924627274824,57.0,30.0,158.0,272.0,430.0,27.0,895.0,892.0,28.0,14.0,14.0,0.5,320.0973300394476,5818.867580496824,93.0,74.0,19.0,0.7956989247311828,338.214582657296,2744.4627983274886,19.0,10.0,9.0,0.5263157894736842,1893.43462094155,17672.84265287017,34.0,9.0,25.0,0.2647058823529412,1458.4407172651186,31603.340591754473,85.0,41.0,44.0,0.4823529411764706,336.8896218263127,7422.44342795201,0.0,0.0,0.0,0.0,105977.0,106004.0,106034.0,106121.0,106136.0,106155.0,106159.0,106192.0,106390.0,106464.0,0.05556217435698152,-0.08880479848787763,0.05047004926795113,-0.08665292750531421,0.049384473774584825
98,98,106903.82194810128,5095.96391124418,13.195038208940826,107027.027373699,-4220.463598894635,17.8357578060484,107061.05318018778,38306.44702820118,8.677444603911372,107079.72802965668,-20385.79759387915,18.059966796693217,107349.65746019685,6379.594444974079,33.221898223464954,0.8982907038204995,89.0,59.0,122.0,279.0,401.0,30.0,911.0,914.0,30.0,13.0,17.0,0.4333333333333333,321.3831548189934,6370.437874279545,59.0,47.0,12.0,0.7966101694915254,330.5180373537442,3090.1615986350766,19.0,10.0,9.0,0.5263157894736842,1998.4904358262984,14296.871451291798,30.0,7.0,23.0,0.2333333333333333,1591.0877356885037,35033.51233468522,105.0,67.0,38.0,0.638095238095238,316.62491678854593,4857.216883631958,0.0,0.0,0.0,0.0,106891.0,106921.0,106980.0,107037.0,107051.0,107070.0,107073.0,107102.0,107286.0,107381.0,0.06306621483520822,-0.07831320650184233,0.05217112498987471,-0.0780488341631641,0.049630884771678055
99,99,107822.07945265832,5211.421146984179,14.925371364208734,107938.17805189872,-3388.298418966018,22.93168860777651,107977.74857661228,35926.21544010656,8.474308921037151,107997.65472633226,-19031.325631053503,18.234034685963415,108253.945905028,6544.19366627731,34.36204781039132,0.9242077142472064,94.0,58.0,122.0,280.0,402.0,36.0,919.0,918.0,37.0,17.0,20.0,0.4594594594594595,328.3003513841146,4725.283909374214,81.0,67.0,14.0,0.8271604938271605,316.239040820658,2515.3913263332165,19.0,10.0,9.0,0.5263157894736842,1944.091894931353,13467.51066551404,33.0,9.0,24.0,0.2727272727272727,1478.5381364209998,33748.7538298564,96.0,46.0,50.0,0.4791666666666667,304.92370850208687,7020.010092592751,0.0,0.0,0.0,0.0,107805.0,107841.0,107899.0,107951.0,107968.0,107987.0,107989.0,108021.0,108222.0,108301.0,0.06299631945387876,-0.09333270028711411,0.05411346202531113,-0.07768970827804356,0.04659454228461792
100,100,108732.54796540084,4415.050840393607,12.752688345274372,108864.027373699,-4572.699887968954,17.8357578060484,108893.06629891186,35227.29158638667,8.629709657741577,108916.85984656772,-15746.35617244086,23.213865344270452,109192.75339099858,5242.225731648635,25.47965400864057,0.8737248546726284,105.0,77.0,113.0,265.0,378.0,28.0,911.0,913.0,30.0,10.0,20.0,0.3333333333333333,356.8280143038209,5422.779446773743,45.0,35.0,10.0,0.7777777777777778,509.8353006129148,1637.3281321147138,18.0,9.0,9.0,0.5,1834.428084534263,16754.404036940305,38.0,12.0,26.0,0.3157894736842105,992.9342826623832,25730.98054987339,73.0,52.0,21.0,0.7123287671232876,301.8241618104686,4357.783121575918,0.0,0.0,0.0,0.0,108724.0,108752.0,108829.0,108874.0,108884.0,108902.0,108906.0,108942.0,109143.0,109207.0,0.08082081661193492,-0.11149546506524995,0.05207405968283875,-0.06305803525517913,0.05757557519667271
101,101,109630.87946279086,4700.516724330905,13.070978109752398,109759.45203459916,-3532.0219541135425,15.28779240518434,109791.27621290312,36183.83275820381,8.73016528653882,109812.58726998587,-16347.719977919132,23.061316275157186,110075.68483389584,6198.117595995621,34.58843048519794,0.9002821990104317,112.0,85.0,112.0,277.0,389.0,27.0,898.0,899.0,31.0,16.0,15.0,0.5161290322580645,304.0641317267775,4024.077784109333,43.0,31.0,12.0,0.7209302325581395,409.7682294406634,2598.9233396398936,20.0,10.0,10.0,0.5,1836.9440216201656,15245.24565695861,37.0,10.0,27.0,0.2702702702702703,1437.3423602110104,30490.711415867867,98.0,57.0,41.0,0.5816326530612245,306.77971615114956,5583.291618363289,0.0,0.0,0.0,0.0,109616.0,109643.0,109728.0,109768.0,109781.0,109801.0,109804.0,109840.0,110020.0,110117.0,0.06468738429391706,-0.11601519887593845,0.05076698297539204,-0.08792310867524211,0.04949562692217212
102,102,110538.82194810128,5040.630092936944,13.0145443968584,110661.17805189872,-4690.587760979181,22.93168860777651,110697.140614033,37665.8838299951,8.725700280342044,110717.43748497852,-19467.500367375673,19.501270399628723,110974.68483389584,6277.8947316023205,31.83442645099779,0.9070181132859,129.0,97.0,86.0,275.0,361.0,32.0,907.0,906.0,32.0,13.0,19.0,0.40625,337.78903358008773,6278.157424765253,80.0,66.0,14.0,0.825,392.1638778708184,3828.8987159277344,19.0,10.0,9.0,0.5263157894736842,1923.9978693641865,14057.094251712851,32.0,8.0,24.0,0.25,1515.880655484814,35191.39375023753,78.0,36.0,42.0,0.4615384615384615,301.32483908109367,7017.910055960683,0.0,0.0,0.0,0.0,110526.0,110558.0,110655.0,110674.0,110687.0,110706.0,110709.0,110741.0,110944.0,111016.0,0.06701325575415783,-0.0836065537741804,0.05108065107533776,-0.07786724678968958,0.04799775274412508
103,103,111461.88737308914,4110.529648747936,13.815683574363474,111552.32873009844,-4173.464260127853,28.027619409504627,111616.28313910772,38356.034746630285,8.504063603831835,111634.45916471592,-18662.96957801056,21.723439339167324,111891.29002425722,6189.985474016349,32.4362485162105,0.9116926167933036,97.0,66.0,114.0,271.0,385.0,31.0,931.0,919.0,33.0,14.0,19.0,0.4242424242424242,294.76370979782354,4252.756127158165,89.0,46.0,43.0,0.5168539325842697,314.10217787431037,3839.770716202835,19.0,10.0,9.0,0.5263157894736842,1974.245176002947,14579.201148700988,34.0,6.0,28.0,0.1764705882352941,1471.496359823034,33487.978107044175,83.0,42.0,41.0,0.5060240963855421,261.19505096619594,6811.105635758231,0.0,0.0,0.0,0.0,111449.0,111480.0,111546.0,111594.0,111606.0,111625.0,111628.0,111660.0,111858.0,111931.0,0.07170942311232527,-0.07526173900065648,0.051471566053276435,-0.07884577819581341,0.042196391584861104
104,104,112384.65584413672,4630.158873359606,12.724354548012409,112500.87669549928,-3439.6597341867077,12.739827004320285,112538.47870444444,34368.65850621172,8.195424729137516,112560.6927240472,-14994.283060027714,23.065909745842244,112814.54660615232,5242.079718647207,32.567559745525195,0.912655542249862,126.0,102.0,87.0,270.0,357.0,24.0,919.0,923.0,24.0,13.0,11.0,0.5416666666666666,344.24168976174843,5619.383681891992,24.0,8.0,16.0,0.3333333333333333,379.0496614434377,2426.9492268745885,18.0,9.0,9.0,0.5,1889.97779040454,17209.53248355538,35.0,11.0,24.0,0.3142857142857143,1210.09367781866,28563.51792175254,86.0,45.0,41.0,0.5232558139534884,273.62670551465385,4716.814840485174,0.0,0.0,0.0,0.0,112372.0,112396.0,112498.0,112513.0,112529.0,112547.0,112550.0,112585.0,112783.0,112855.0,0.07434770580819604,-0.11019975542233752,0.05499131687269519,-0.08070367039052172,0.05219811986859046
105,105,113284.60245225552,4287.429916521182,11.27125189736851,113406.60271279886,-4751.970580695329,20.383723206912453,113439.18033774033,38199.45515834755,8.788356004623218,113459.09295549351,-19639.506760061293,19.590278803872863,113715.89357644542,6616.565818429382,32.22603774394249,0.9002196278827052,58.0,29.0,155.0,271.0,426.0,29.0,899.0,901.0,31.0,15.0,16.0,0.4838709677419355,330.06524011826565,4262.7752807461575,93.0,81.0,12.0,0.8709677419354839,322.70898381083094,2862.9018567664784,19.0,10.0,9.0,0.5263157894736842,1941.5463345020037,14087.895040501982,32.0,8.0,24.0,0.25,1502.084653663308,35058.30223311832,80.0,41.0,39.0,0.5125,294.44263638084897,7538.167302205507,0.0,0.0,0.0,0.0,113270.0,113299.0,113328.0,113418.0,113429.0,113448.0,113451.0,113483.0,113681.0,113754.0,0.07698440477041787,-0.0679105601204313,0.050826545207352955,-0.07648280947248291,0.04450082481772134
106,106,114195.24660900142,4312.216143093201,16.48516098495588,114316.75339099858,-3880.0699575031863,25.47965400864057,114355.68820660312,38540.10306764518,8.58035820852231,114374.67758962158,-20313.038014224316,18.40714396997686,114630.05400005211,6754.518186511413,35.016156487965915,0.9137445078504464,91.0,52.0,126.0,276.0,402.0,39.0,907.0,917.0,40.0,15.0,25.0,0.375,354.8441281298526,5193.081885724883,64.0,46.0,18.0,0.71875,280.02362414463636,3333.924905846299,20.0,11.0,9.0,0.55,1978.9239246321108,13415.537215583545,31.0,8.0,23.0,0.2580645161290322,1600.3307932766086,35758.3282059348,89.0,45.0,44.0,0.5056179775280899,304.42801836352044,7523.233647433624,0.0,0.0,0.0,0.0,114181.0,114220.0,114272.0,114331.0,114345.0,114365.0,114367.0,114398.0,114601.0,114674.0,0.08228811273715954,-0.07216973590982126,0.05134713628447554,-0.07878342925149691,0.04507027887961792
107,107,115981.0658200358,5006.39015031115,12.421893031274612,116102.17805189872,-4824.049830168604,22.93168860777651,116134.2257240306,37349.19318303159,8.591393468866674,116158.14034297693,-16256.18592226526,24.472659456545134,116415.68483389584,5103.516565020547,30.94968275715101,0.8920424576917335,76.0,44.0,143.0,273.0,416.0,32.0,1790.0,1777.0,32.0,16.0,16.0,0.5,285.900355275956,5346.0250118996355,78.0,65.0,13.0,0.8333333333333334,415.82271432035947,3546.565398648424,19.0,9.0,10.0,0.4736842105263157,1998.326146382809,17901.09956601589,37.0,11.0,26.0,0.2972972972972973,1107.476469155043,29345.411378350393,85.0,43.0,42.0,0.5058823529411764,328.03523810367943,4707.7391080418165,0.0,0.0,0.0,0.0,115965.0,115997.0,116041.0,116115.0,116125.0,116144.0,116147.0,116184.0,116375.0,116457.0,0.05710708648190096,-0.08619784806531033,0.05350386383421756,-0.06812646425495107,0.06427631495350279
108,108,116842.54796540084,5956.328897035055,15.28779240518434,116975.7260172996,-2835.0145271797332,7.64389620259217,117005.39168135152,40514.4460425769,8.725559718318975,117022.71679415854,-20506.48136471845,18.98733023587932,117293.90406919828,7572.972698798657,30.57558481036868,0.9056061569088604,114.0,77.0,99.0,264.0,363.0,37.0,859.0,871.0,40.0,11.0,29.0,0.275,304.9990680427754,7154.468840511521,36.0,29.0,7.0,0.8055555555555556,511.41168093731335,1033.5008132887428,20.0,11.0,9.0,0.55,1983.4075229025343,15641.905841074466,31.0,6.0,25.0,0.1935483870967742,1630.6308812295445,35359.46682411932,79.0,56.0,23.0,0.7088607594936709,321.5564249656585,6438.214638124458,0.0,0.0,0.0,0.0,116834.0,116871.0,116948.0,116980.0,116995.0,117014.0,117017.0,117047.0,117245.0,117311.0,0.051205880889921646,-0.1803912029495188,0.048955563179073416,-0.07951782913060144,0.04246105693959108
109,109,117754.73066109822,5596.61806121547,19.430805868785388,117839.39728720114,-2888.3586336518993,20.383723206912453,117912.17141160116,39676.38891268329,8.655344645213253,117929.17805189872,-20391.00341958656,18.69006628148412,118188.27011956584,7065.856463195418,36.7262154987619,0.9452038757969968,90.0,52.0,126.0,279.0,405.0,38.0,919.0,908.0,38.0,17.0,21.0,0.4473684210526316,301.3769443433275,6350.034328369024,33.0,13.0,20.0,0.3939393939393939,255.51985127379393,2463.5909166042065,20.0,11.0,9.0,0.55,1941.9161876809576,14499.366484496984,32.0,6.0,26.0,0.1875,1586.1800814068797,34916.92352428092,94.0,47.0,47.0,0.5,338.6570391047592,7242.8117458587985,0.0,0.0,0.0,0.0,117738.0,117776.0,117828.0,117851.0,117901.0,117921.0,117924.0,117954.0,118144.0,118233.0,0.05384983235355436,-0.08846541710463673,0.048943874200713576,-0.07778823085691192,0.047928661000793536
110,110,118658.45597962328,4760.939757211472,10.741384192769356,118779.75339099858,-5355.87300196652,25.47965400864057,118814.290633655,34927.19519808869,8.416878544980243,118839.61966950686,-15647.024826940104,21.84208717972253,119092.12522523996,4785.834663196719,30.29538922611273,0.8992121710516595,67.0,37.0,153.0,263.0,416.0,30.0,899.0,901.0,30.0,14.0,16.0,0.4666666666666667,294.1430647538384,5605.317512255066,84.0,69.0,15.0,0.8214285714285714,307.5331250974388,4216.971192660199,18.0,9.0,9.0,0.5,1962.9282754777464,17356.65783716755,38.0,14.0,24.0,0.3684210526315789,683.8427645400793,21172.726792434012,51.0,16.0,35.0,0.3137254901960784,354.4731785477379,5818.282835884737,0.0,0.0,0.0,0.0,118644.0,118674.0,118711.0,118794.0,118805.0,118823.0,118827.0,118864.0,119076.0,119127.0,0.06178256389577187,-0.05741979411844188,0.056200569909637725,-0.04370433178853785,0.07406715933453623
111,111,119549.24660900142,5226.512821148226,13.451275515904856,119669.75339099858,-4680.820926355884,25.47965400864057,119707.66934162103,37286.207103795554,8.517819798874479,119729.9566241586,-17459.39697968141,20.638085973354436,119989.78076469756,6514.220755597393,32.74089615504576,0.9128325763812076,70.0,38.0,151.0,258.0,409.0,32.0,887.0,893.0,34.0,15.0,19.0,0.4411764705882353,296.0355250784811,5793.794600284778,84.0,66.0,18.0,0.7857142857142857,338.2846653703867,3330.145710673595,19.0,10.0,9.0,0.5263157894736842,1982.2308242062268,15268.42404408335,36.0,10.0,26.0,0.2777777777777778,1426.7732249263065,31479.08999676897,87.0,55.0,32.0,0.632183908045977,287.7432047972006,6813.874228679708,0.0,0.0,0.0,0.0,119535.0,119567.0,119605.0,119684.0,119698.0,119717.0,119720.0,119756.0,119942.0,120014.0,0.056641117167190703,-0.07227037109359112,0.05316257614211571,-0.08171950191560061,0.04417154646623774
112,112,120452.22256869746,4833.4559590525605,12.031958210655816,120572.47940829814,-4589.95964965264,33.12355021123273,120611.94146260955,38730.84585312397,8.614387732845453,120632.27491788394,-19585.837693516143,19.20899537855311,120890.60186996635,6563.73572830175,28.651675723964495,0.9146531385660596,64.0,44.0,150.0,265.0,415.0,20.0,906.0,905.0,22.0,13.0,9.0,0.5909090909090909,326.83201412489353,5576.509672038383,87.0,68.0,19.0,0.7816091954022989,285.9159274481323,3439.1220407086475,19.0,10.0,9.0,0.5263157894736842,2038.5809174885064,14406.61326130016,31.0,8.0,23.0,0.2580645161290322,1566.043604743879,36022.703483219935,67.0,37.0,30.0,0.5522388059701493,275.4744192093887,7214.926845727722,0.0,0.0,0.0,0.0,120441.0,120461.0,120505.0,120591.0,120602.0,120621.0,120624.0,120655.0,120858.0,120920.0,0.06761870117235085,-0.06229159933241895,0.05263455709744273,-0.07995795887057285,0.04196915150340198
113,113,122257.82194810128,4967.915958924705,11.916266244239846,122381.87669549928,-4270.1797381947745,12.739827004320285,122413.52864795334,34404.09214940779,8.597116861037009,122435.99674606483,-16486.515096493695,21.245139062493344,122688.05946141176,6107.3729164224405,33.707434009702254,0.9152531458394236,79.0,49.0,137.0,269.0,406.0,30.0,1803.0,1802.0,31.0,14.0,17.0,0.4516129032258064,267.0985241813699,5183.860552094038,68.0,60.0,8.0,0.8823529411764706,469.6708772900667,2169.6665483465063,19.0,10.0,9.0,0.5263157894736842,1841.3305773868865,15036.028198209871,36.0,11.0,25.0,0.3055555555555556,1255.7930397617542,30247.37038881827,91.0,48.0,43.0,0.5274725274725275,289.754721801752,6272.658180939044,0.0,0.0,0.0,0.0,122245.0,122275.0,122324.0,122389.0,122404.0,122423.0,122426.0,122461.0,122643.0,122730.0,0.053764702621737354,-0.10998854991725028,0.05352068496359326,-0.07617092104739787,0.04744343038602
114,114,123144.15546567712,6060.366698053684,13.589597233869029,123268.45203459916,-3413.5329404531913,15.28779240518434,123300.29970323291,38044.31867633034,8.655356646942918,123319.21556250736,-19344.75180611329,19.257975667014595,123576.3584862492,6925.058722579736,33.781260933359455,0.9180767797095304,123.0,92.0,89.0,275.0,364.0,31.0,894.0,887.0,35.0,17.0,18.0,0.4857142857142857,347.3683586429449,5503.279346419628,85.0,74.0,11.0,0.8705882352941177,386.6587609054196,1497.851088140368,19.0,10.0,9.0,0.5263157894736842,1970.777108008016,15142.48717331568,33.0,7.0,26.0,0.2121212121212121,1502.2782488469063,34089.53047716465,86.0,40.0,46.0,0.4651162790697674,276.59177634835675,7266.848484078695,0.0,0.0,0.0,0.0,123130.0,123161.0,123253.0,123277.0,123290.0,123309.0,123312.0,123342.0,123538.0,123617.0,0.057318042941940116,-0.1132723098474291,0.05180213962496732,-0.07765818160417852,0.03994071204717817
115,115,124050.82194810128,5347.553153930771,12.825570964776997,124173.60271279886,-3529.931058907207,20.383723206912453,124208.52070979404,37714.84181532785,8.508318731253176,124226.94816111698,-19472.328809096653,17.85016016483376,124489.2327992967,7376.255687771469,33.463480924470836,0.913867211333416,82.0,52.0,130.0,272.0,402.0,30.0,899.0,907.0,30.0,13.0,17.0,0.4333333333333333,348.479314361969,6203.3132324776125,65.0,54.0,11.0,0.8307692307692308,315.8822959487363,2923.6771163439607,19.0,11.0,8.0,0.5789473684210527,1994.5172945580491,13016.594292652188,31.0,7.0,24.0,0.2258064516129032,1573.2934030638316,34057.1292530187,87.0,47.0,40.0,0.5402298850574713,311.43322148240344,6624.869849299041,0.0,0.0,0.0,0.0,124038.0,124068.0,124120.0,124185.0,124198.0,124217.0,124220.0,124250.0,124450.0,124522.0,0.06516612445559627,-0.08948681735629332,0.05288414848255969,-0.08079636588351236,0.042221044750211795
116,116,125875.41506361424,4232.433597195239,10.726894985164982,125989.47940829814,-4913.187580729545,33.12355021123273,126028.48366292247,35372.23957299244,8.839761568856856,126053.89504648512,-15341.464261548355,23.934595248764783,126303.740215902,5452.148831412917,30.180220746435964,0.907757824409096,116.0,91.0,99.0,267.0,366.0,25.0,1830.0,1822.0,26.0,13.0,13.0,0.5,348.96777589790264,4772.823746980678,91.0,71.0,20.0,0.7802197802197802,354.96659222490547,4588.203891069201,19.0,9.0,10.0,0.4736842105263157,1826.9327240858076,16759.857419837586,37.0,13.0,24.0,0.3513513513513513,782.9125102680404,22264.662546517,86.0,44.0,42.0,0.5116279069767442,333.9863709941775,4716.283575261517,0.0,0.0,0.0,0.0,125862.0,125887.0,125978.0,126008.0,126019.0,126038.0,126041.0,126077.0,126267.0,126344.0,0.08245085667242544,-0.0722477182872382,0.05164877163957453,-0.051032450157337456,0.06125775016813423
117,117,126768.09824138836,5186.8245837013665,13.462466119645136,126886.75339099858,-4002.1331146021575,25.47965400864057,126922.53217055464,38428.97271133323,8.791194262540586,126942.35354271405,-18790.987226725018,18.671642006192197,127206.2327992967,6844.743422215642,30.844152380782557,0.9138323967863956,84.0,51.0,128.0,274.0,402.0,33.0,892.0,893.0,33.0,15.0,18.0,0.4545454545454545,297.430743753316,5788.934485350882,64.0,50.0,14.0,0.78125,356.49224445752594,3447.20877585231,19.0,11.0,8.0,0.5789473684210527,1954.2931687570608,14787.338769446686,34.0,8.0,26.0,0.2352941176470588,1526.4155377566883,33176.78928203527,81.0,47.0,34.0,0.5802469135802469,271.41653752972144,6081.693248890853,0.0,0.0,0.0,0.0,126753.0,126786.0,126837.0,126901.0,126912.0,126931.0,126934.0,126965.0,127171.0,127239.0,0.05734351315599469,-0.08907555902047101,0.05085468152992581,-0.08123125833355799,0.03965328147272816
118,118,127672.01433394046,5059.602369198484,15.809914961459263,127758.78076469756,-3163.938718817556,34.729497396821145,127826.45305575775,39436.93920414497,8.655215926366377,127843.70161166423,-20433.00091088376,17.903639255911667,128098.65590687108,7557.6037408612465,36.8969247024643,0.9302670265085664,93.0,61.0,120.0,277.0,397.0,32.0,899.0,905.0,36.0,18.0,18.0,0.5,285.27674981468107,4807.743313516833,87.0,43.0,44.0,0.4942528735632184,276.7701153342763,3502.01015612558,20.0,11.0,9.0,0.55,1971.268700655673,13823.166404989995,30.0,6.0,24.0,0.2,1581.778681029905,35060.695921297214,99.0,49.0,50.0,0.494949494949495,340.0832952894735,6898.4894260778165,0.0,0.0,0.0,0.0,127654.0,127686.0,127747.0,127783.0,127815.0,127835.0,127838.0,127867.0,128053.0,128144.0,0.05638323508411851,-0.08747644626875463,0.04998533710872991,-0.07741294036684358,0.04499882594409725
119,119,129478.027373699,4872.112848222088,11.956327883061409,129593.60271279886,-3920.932640301193,20.383723206912453,129629.2216494346,34331.82343573024,8.41752901332625,129652.89548986762,-15529.26016836124,21.00620314889501,129902.65026728374,6211.57586307072,34.70785081325064,0.9129708505946876,128.0,98.0,91.0,273.0,364.0,30.0,1813.0,1800.0,31.0,21.0,10.0,0.6774193548387096,321.5671073444078,3708.215671232104,79.0,68.0,11.0,0.8607594936708861,346.025065601665,3208.3566541475757,19.0,10.0,9.0,0.5263157894736842,1839.1973248784964,15672.01675106132,38.0,12.0,26.0,0.3157894736842105,1028.2291194412478,24080.09862883923,92.0,43.0,49.0,0.4673913043478261,329.70504155704634,5927.767956555586,0.0,0.0,0.0,0.0,129458.0,129488.0,129586.0,129605.0,129620.0,129638.0,129642.0,129677.0,129864.0,129950.0,0.06600157208217228,-0.08825070393840903,0.05357121005592683,-0.0662123699579794,0.05307912980942894
120,120,130348.67387640444,5716.527264994409,13.916625927272255,130472.45203459916,-3982.80879394205,15.28779240518434,130502.25999190964,38279.922393055946,8.834190097340873,130522.054747398,-18064.751163107743,22.509785556124537,130779.36390684173,6232.209034920077,32.32981551729016,0.9041982144172236,131.0,93.0,89.0,273.0,362.0,38.0,864.0,874.0,38.0,20.0,18.0,0.5263157894736842,306.2120665466162,5696.361099325614,82.0,71.0,11.0,0.8658536585365854,480.3358465275997,2448.4138292392427,19.0,10.0,9.0,0.5263157894736842,1936.333516404501,15535.425773514213,35.0,8.0,27.0,0.2285714285714285,1504.7099219065271,34016.32430921667,96.0,49.0,47.0,0.5104166666666666,293.68115852747843,5143.979789858003,0.0,0.0,0.0,0.0,130329.0,130367.0,130460.0,130481.0,130492.0,130511.0,130514.0,130549.0,130743.0,130822.0,0.053566099198324335,-0.12060228632069968,0.05058352774392656,-0.08329535836505077,0.04712312390068037
121,121,131252.57469736275,4732.905295500191,12.341050069408183,131369.9040691983,-4529.8777272307325,30.57558481036868,131408.88163939258,39035.492673892055,8.868542733190255,131428.4051748316,-19601.513720461095,19.337898706987065,131695.7807646976,6459.811835656694,28.880313933805496,0.8991813157031926,107.0,77.0,107.0,269.0,376.0,30.0,907.0,907.0,33.0,17.0,16.0,0.5151515151515151,324.87836334159744,4164.151606971242,95.0,77.0,18.0,0.8105263157894737,322.032739873038,3679.359912807446,20.0,11.0,9.0,0.55,1942.398355794318,13869.33679802972,31.0,8.0,23.0,0.2580645161290322,1612.5319183407216,34985.275629086136,79.0,54.0,25.0,0.6835443037974683,327.2888308689332,6343.056169936945,0.0,0.0,0.0,0.0,131237.0,131267.0,131344.0,131387.0,131399.0,131418.0,131421.0,131451.0,131654.0,131720.0,0.06864248132124585,-0.07109082391720703,0.04975980121530384,-0.08226568321901975,0.050665381468601486
122,122,132177.2099690996,5302.475020816956,15.468883778505054,132276.17805189872,-3432.341212161214,22.93168860777651,132334.10730827978,37860.64897771064,8.469098622882981,132352.46851792012,-20256.792955460747,18.977235225596676,132610.7247315566,6789.4440906487,34.43858355781712,0.9283704049897884,106.0,79.0,106.0,268.0,374.0,27.0,926.0,926.0,31.0,15.0,16.0,0.4838709677419355,360.16856069376723,6365.272172221538,67.0,33.0,34.0,0.4925373134328358,266.82442934920385,3015.55477870677,20.0,11.0,9.0,0.55,1898.084996429488,12231.24373015566,33.0,7.0,26.0,0.2121212121212121,1573.4683911002794,35937.546491348534,97.0,50.0,47.0,0.5154639175257731,324.0590393295044,7187.581269192589,0.0,0.0,0.0,0.0,132165.0,132192.0,132271.0,132310.0,132323.0,132343.0,132345.0,132377.0,132580.0,132645.0,0.06792461242717478,-0.07773831704255146,0.05013345116051578,-0.07767608597076123,0.047729833989772506
123,123,134006.04209484917,4038.918273297547,8.569630896472018,134128.60271279886,-5875.755448416047,20.383723206912453,134163.06818414864,36086.86956980086,8.972103567034178,134186.4809936783,-18030.936424888765,22.95654531208885,134455.32873009844,5480.389137893828,26.363319904064177,0.8545280471867479,66.0,43.0,152.0,258.0,410.0,23.0,1827.0,1827.0,24.0,12.0,12.0,0.5,317.2496086603029,4208.195602601487,80.0,68.0,12.0,0.85,376.6784121622406,3845.0674817526497,20.0,10.0,10.0,0.5,1839.5726518783329,13246.477398341896,37.0,10.0,27.0,0.2702702702702703,1401.9869208265022,32430.93630921515,75.0,53.0,22.0,0.7066666666666667,349.33526284813126,4146.0508237887,0.0,0.0,0.0,0.0,133995.0,134018.0,134061.0,134140.0,134154.0,134173.0,134176.0,134213.0,134418.0,134471.0,0.07854816245174644,-0.06410723105635437,0.05097623245818394,-0.0777545263201798,0.0637427843276079
124,124,134931.7290742896,5110.840996885864,12.814738614809702,135048.02737369903,-4121.816706097731,17.8357578060484,135087.93561197165,38445.29034668558,8.54161735713594,135107.01446981632,-19962.151908516928,20.36520889170913,135371.7807646976,7009.318929033831,29.154939237321873,0.9028981597613988,127.0,95.0,88.0,264.0,352.0,32.0,930.0,926.0,34.0,17.0,17.0,0.5,305.00515245187006,5426.69720600224,28.0,9.0,19.0,0.3214285714285714,359.3553835053065,4255.503796698842,19.0,10.0,9.0,0.5263157894736842,1997.7204217914843,13564.538221800394,33.0,8.0,25.0,0.2424242424242424,1488.041230041976,34939.00278104893,66.0,41.0,25.0,0.6212121212121212,274.2182145893613,7308.569608210627,0.0,0.0,0.0,0.0,134917.0,134949.0,135044.0,135066.0,135078.0,135097.0,135100.0,135132.0,135332.0,135396.0,0.059678075024778836,-0.08718373696086086,0.051962682653109694,-0.07454312725709183,0.03912194856100801
125,125,135888.35226313057,4728.2275724990095,17.562870730472696,135970.6203721673,-3125.090015926532,26.46584372727284,136039.2040190188,38360.16576301448,8.650449650355304,136056.86809734776,-20535.77140359693,17.937808708385315,136315.2816125763,7009.887132106238,34.492177859623474,0.9384566437625588,82.0,49.0,127.0,274.0,401.0,33.0,951.0,951.0,38.0,17.0,21.0,0.4473684210526316,310.23015104781615,5080.902733152134,75.0,33.0,42.0,0.44,312.02017147036975,2430.9657006868883,20.0,11.0,9.0,0.55,1951.239009797315,14696.472559479287,32.0,7.0,25.0,0.21875,1566.052237085764,34693.66541446008,92.0,51.0,41.0,0.5543478260869565,315.20234006235324,6498.943713158969,0.0,0.0,0.0,0.0,135872.0,135905.0,135954.0,136012.0,136029.0,136048.0,136051.0,136081.0,136276.0,136355.0,0.06561235606598569,-0.09984357886659513,0.05086628201379231,-0.07625972291508189,0.04496539446672167
126,126,136831.15134855112,4231.656393800367,11.791346871878224,136951.17805189872,-4152.6476067660005,22.93168860777651,136986.8599964373,34686.83063789059,8.461044969483163,137010.9869432423,-15192.29526264303,22.80519923965301,137264.63165909486,4676.947452833695,29.619925143903796,0.9098232823039084,125.0,103.0,92.0,270.0,362.0,22.0,945.0,947.0,22.0,11.0,11.0,0.5,338.26671607151366,4766.225081467627,68.0,54.0,14.0,0.7941176470588235,410.46415257810287,3076.015358019422,19.0,10.0,9.0,0.5263157894736842,1896.1046291470832,15732.772469483472,38.0,12.0,26.0,0.3157894736842105,919.1895969142034,24955.834710098497,82.0,36.0,46.0,0.4390243902439024,235.48051714582724,4047.1322648430846,0.0,0.0,0.0,0.0,136820.0,136842.0,136945.0,136964.0,136977.0,136996.0,136999.0,137037.0,137235.0,137307.0,0.07993718879611654,-0.0988439644889021,0.05466353063331908,-0.06050366853877815,0.050349190261514055
127,127,137738.97262630097,4994.633132768883,14.659323403427193,137861.47940829815,-4243.87690554959,33.12355021123273,137900.07017669923,37252.397611870685,8.913725811280589,137922.95795729192,-15449.957450938631,22.27357997195086,138187.35610379744,5446.448207214066,30.782282788271605,0.9148410753494952,88.0,58.0,132.0,264.0,396.0,30.0,905.0,914.0,32.0,10.0,22.0,0.3125,294.9718075244754,6287.7308377668505,64.0,45.0,19.0,0.703125,284.62704809670856,3478.0280973807976,19.0,10.0,9.0,0.5263157894736842,1841.3052240997624,17021.036310607917,37.0,11.0,26.0,0.2972972972972973,1396.3439359845077,29501.46775478962,93.0,53.0,40.0,0.5698924731182796,349.40706228526767,3276.821344878432,0.0,0.0,0.0,0.0,137729.0,137759.0,137817.0,137880.0,137890.0,137909.0,137913.0,137949.0,138142.0,138213.0,0.059057752528252544,-0.06706769645568897,0.04942783128442235,-0.09037849718477221,0.06415319654053853
128,128,138659.97787836668,4988.487429186559,12.22165668514983,138782.45203459918,-5187.574145578745,15.28779240518434,138813.4013869187,36482.89397535882,8.978271287658016,138834.35801021324,-19688.83632880018,20.383723206912453,139089.60954130263,5811.072342442151,31.203105946664085,0.8825703998855404,56.0,36.0,150.0,272.0,422.0,20.0,927.0,915.0,34.0,18.0,16.0,0.5294117647058824,276.6098796012902,4963.083396935777,84.0,74.0,10.0,0.8809523809523809,472.37940846102913,1965.5663739953416,20.0,10.0,10.0,0.5,1867.6815024593716,13499.739007151762,35.0,9.0,26.0,0.2571428571428571,1592.9868558090363,34781.87292369455,86.0,44.0,42.0,0.5116279069767442,340.9548922959932,5637.593341310405,0.0,0.0,0.0,0.0,138653.0,138673.0,138709.0,138791.0,138803.0,138823.0,138825.0,138859.0,139046.0,139131.0,0.05544964952360223,-0.09105978925884417,0.05119334841476216,-0.08090812627046261,0.05867331745395276
129,129,139586.24660900142,5057.010930720075,17.38961478174812,139679.75339099858,-3108.8521683625986,25.47965400864057,139743.80838739194,39074.21504015244,8.797901193238893,139760.58267390667,-19748.587104848404,18.27477633894205,140019.83551209557,7080.376424130731,36.362994980893134,0.93812373457446,102.0,66.0,112.0,278.0,390.0,36.0,919.0,928.0,38.0,14.0,24.0,0.3684210526315789,374.66258458882504,6344.582207029022,80.0,39.0,41.0,0.4875,322.64110401528694,2204.128105470947,21.0,12.0,9.0,0.5714285714285714,1911.451630658896,13646.982732265167,33.0,6.0,27.0,0.1818181818181818,1529.3310487239903,33011.32227022053,96.0,48.0,48.0,0.5,328.7135470608603,7346.9952217458385,0.0,0.0,0.0,0.0,139572.0,139608.0,139674.0,139720.0,139732.0,139753.0,139755.0,139786.0,139984.0,140064.0,0.07408775454940066,-0.10378142367098105,0.048918490843506364,-0.07744002346114826,0.046425998756304404
130,130,140496.82194810128,4724.9969140007925,13.524984676947122,140589.47940829815,-3649.275243097924,33.12355021123273,140654.37257275172,35238.83909837895,8.468257655489715,140677.14355166745,-14461.945142713876,26.51795938796345,140935.80813839656,5220.025398831502,30.912929196730616,0.9145904413316098,89.0,58.0,131.0,266.0,397.0,31.0,911.0,911.0,31.0,13.0,18.0,0.4193548387096774,346.5969961447482,5820.559493319633,63.0,17.0,46.0,0.2698412698412698,312.6173085305494,4628.272745607198,18.0,9.0,9.0,0.5,1881.9480486959176,17822.05049554007,38.0,10.0,28.0,0.2631578947368421,1259.2866913885848,27697.641465220193,83.0,41.0,42.0,0.4939759036144578,310.401882728525,5441.58811701531,0.0,0.0,0.0,0.0,140484.0,140515.0,140573.0,140608.0,140645.0,140663.0,140667.0,140704.0,140915.0,140970.0,0.0733539095269534,-0.08566558774151656,0.05340550644821017,-0.08707588633213911,0.05946367287753201
131,131,141396.5205916968,6122.913111155117,17.175937695722276,141520.7260172996,-3015.5356727060876,5.760673256026257,141550.25774247074,35310.7908019599,8.5652337229468,141570.63008649793,-14546.809941817632,21.428079621370923,141844.20542559773,6239.639070011028,34.71444558023283,0.8935611942991257,133.0,97.0,85.0,271.0,356.0,36.0,898.0,895.0,40.0,20.0,20.0,0.5,269.93221392124406,6102.138618248286,14.0,10.0,4.0,0.7142857142857143,592.50866354937,180.9699395368152,19.0,10.0,9.0,0.5263157894736842,1784.6315948098354,16676.374515112446,36.0,9.0,27.0,0.25,1308.5748341925091,28157.826602452307,99.0,75.0,24.0,0.7575757575757576,323.3644860333524,6586.31060961956,0.0,0.0,0.0,0.0,141378.0,141414.0,141511.0,141525.0,141540.0,141559.0,141562.0,141596.0,141773.0,141867.0,0.04408558622683444,-0.1964853770135186,0.05054068612676839,-0.08995613742300684,0.05182422931920979
132,132,142295.16673108822,6527.596925363263,20.259569294066075,142402.43847060486,-6713.344404599234,86.63082362937793,142442.89861175144,37746.60132052906,9.312257285311464,142462.47940829815,-16832.179180569794,15.764058743923371,142721.35610379744,5342.07351877042,28.473778517442454,0.9005852922396681,66.0,34.0,147.0,261.0,408.0,32.0,899.0,894.0,38.0,26.0,12.0,0.6842105263157895,330.0558245467602,2060.0681062455205,92.0,71.0,21.0,0.7717391304347826,363.9228571567676,4975.755202797391,20.0,11.0,9.0,0.55,1864.2719210770688,13395.96283767512,36.0,8.0,28.0,0.2222222222222222,1534.200361220063,35049.44053809968,74.0,33.0,41.0,0.4459459459459459,333.44525619601154,4738.996723396489,0.0,0.0,0.0,0.0,142273.0,142305.0,142339.0,142422.0,142432.0,142452.0,142455.0,142486.0,142688.0,142747.0,0.05056314418929789,-0.05420887641448103,0.04938913321616472,-0.09114686486887363,0.06241869473049864
133,133,143205.16683190645,5296.353821439731,14.789197272248344,143322.75339099858,-4573.57924313442,25.47965400864057,143359.14490427406,38150.43412965412,8.561588713830341,143379.82850010952,-19410.48428209875,19.71759816870443,143638.75640024117,6515.0638735181055,32.00790787383435,0.9173263556871528,70.0,33.0,146.0,275.0,421.0,37.0,919.0,916.0,39.0,18.0,21.0,0.4615384615384615,283.394120358637,4499.720364789742,79.0,65.0,14.0,0.8227848101265823,305.7265910466363,4344.416112675796,19.0,10.0,9.0,0.5263157894736842,2018.59924405446,14170.284870866622,33.0,9.0,24.0,0.2727272727272727,1525.954774457749,35192.618521024444,88.0,47.0,41.0,0.5340909090909091,297.4182405412595,5243.661066551542,0.0,0.0,0.0,0.0,143188.0,143225.0,143258.0,143337.0,143349.0,143368.0,143371.0,143404.0,143595.0,143679.0,0.05350739960224197,-0.06684624334553174,0.05291156680404364,-0.07861497695165984,0.04565085566546487
134,134,144151.29539817653,4997.946365854063,11.619902365367125,144258.7807646976,-4534.012486821517,43.31541181468896,144304.0060385677,36561.096533084,8.49130220082529,144327.7385503087,-15536.003348769176,23.36013282608034,144576.34253980312,5507.8184388751915,31.38880463806587,0.9121051714186732,84.0,58.0,129.0,269.0,398.0,26.0,939.0,945.0,27.0,13.0,14.0,0.4814814814814814,311.37596628703034,4307.978308614104,88.0,63.0,25.0,0.7159090909090909,362.85496679697513,5348.495941300029,18.0,9.0,9.0,0.5,1952.4208394851885,15833.65412998941,38.0,12.0,26.0,0.3157894736842105,1122.0242408711235,26279.866390231353,84.0,36.0,48.0,0.4285714285714285,311.29956721667673,4586.798355787982,0.0,0.0,0.0,0.0,144139.0,144165.0,144223.0,144283.0,144295.0,144313.0,144316.0,144352.0,144545.0,144621.0,0.062300781859995324,-0.0800295473053158,0.05340159417041691,-0.07222090621910265,0.05651957679277649
