Unnamed: 0,cycle,p_center,p_height,p_width,q_center,q_height,q_width,r_center,r_height,r_width,s_center,s_height,s_width,t_center,t_height,t_width,r_squared,pr_interval,pr_segment,qrs_duration,st_segment,qt_interval,p_duration,pp_interval,rr_interval,fwhm_p,rise_time_p,decay_time_p,rise_decay_symmetry_p,sharpness_deriv_p,sharpness_diff_p,fwhm_q,rise_time_q,decay_time_q,rise_decay_symmetry_q,sharpness_deriv_q,sharpness_diff_q,fwhm_r,rise_time_r,decay_time_r,rise_decay_symmetry_r,sharpness_deriv_r,sharpness_diff_r,fwhm_s,rise_time_s,decay_time_s,rise_decay_symmetry_s,sharpness_deriv_s,sharpness_diff_s,fwhm_t,rise_time_t,decay_time_t,rise_decay_symmetry_t,sharpness_deriv_t,sharpness_diff_t,Average_Heart_Rate,SDNN,RMSSD,NN50,p_on,p_off,q_on,q_off,r_on,r_off,s_on,s_off,t_on,t_off,sharpness_deriv_p_norm,sharpness_deriv_q_norm,sharpness_deriv_r_norm,sharpness_deriv_s_norm,sharpness_deriv_t_norm
0,0,0.0,0.0,0.0,0.0,0.0,0.0,0.0,0.0,0.0,0.0,0.0,0.0,0.0,0.0,0.0,0.0,0.0,0.0,0.0,0.0,0.0,0.0,0.0,0.0,0.0,0.0,0.0,0.0,0.0,0.0,0.0,0.0,0.0,0.0,0.0,0.0,0.0,0.0,0.0,0.0,0.0,0.0,0.0,0.0,0.0,0.0,0.0,0.0,0.0,0.0,0.0,0.0,0.0,0.0,71.79726546377456,384.0470971977124,551.4202992839819,924.0,,,,,,,,,,,,,,,
1,1,1321.7689859346506,2202.425330294582,4.698258230650259,1428.547965400864,-7408.564538653663,12.20674369034854,1450.0361622533485,43818.905953892485,8.452187639123268,1473.4096081642128,-5289.609819373185,10.191861603456228,1700.4987693376663,10790.064862653637,33.02719740533542,0.9748947637006364,101.0,89.0,66.0,258.0,324.0,12.0,,,12.0,6.0,6.0,0.5,171.37912440318263,1839.9890867428792,16.0,13.0,3.0,0.8125,1399.20078033626,9977.499054907848,19.0,9.0,10.0,0.4736842105263157,2575.1980758948484,44861.8957037946,14.0,4.0,10.0,0.2857142857142857,1124.5354208168974,17975.569323187705,84.0,41.0,43.0,0.4880952380952381,106.92715758485926,11544.10707332692,0.0,0.0,0.0,0.0,1316.0,1328.0,1417.0,1432.0,1441.0,1460.0,1469.0,1483.0,1660.0,1741.0,0.07781381826927139,-0.18886260260486748,0.0587691093566906,-0.21259326476185234,0.009909778944420758
2,2,2108.293273455049,1375.3781950693688,3.316109608165381,2215.9726263010075,-6287.809097694073,17.835757806048324,2237.9306412068827,45771.334732070514,8.205010821961647,2262.6986436005755,-5974.164319491673,10.191861603456228,2487.5711584053415,10887.659620581951,29.332324116265085,0.969131880717734,103.0,93.0,67.0,252.0,319.0,10.0,786.0,788.0,10.0,5.0,5.0,0.5,148.07266531508765,921.0036519508632,15.0,11.0,4.0,0.7333333333333333,1321.5829924514671,7835.652861311347,18.0,9.0,9.0,0.5,2629.1047318881956,45016.61930718059,16.0,6.0,10.0,0.375,934.3003233955222,16211.504594028558,72.0,35.0,37.0,0.4861111111111111,130.20729051506174,11733.8317812057,0.0,0.0,0.0,0.0,2103.0,2113.0,2206.0,2220.0,2229.0,2247.0,2257.0,2273.0,2453.0,2525.0,0.10765959926216472,-0.21018179335885548,0.05743998393925064,-0.15639012813009126,0.01195916248786092
3,3,2851.2232460536525,1610.4409157395517,8.233294317019231,2961.9726263010075,-5666.034881285974,17.8357578060484,2983.8379198272064,45142.03586371372,8.089993561452285,3006.386819221159,-4559.894348852446,10.191861603456228,3231.1920644021448,12235.916909576512,30.559867235560713,0.974384578066646,106.0,91.0,62.0,254.0,316.0,15.0,746.0,745.0,16.0,5.0,11.0,0.3125,141.9944491051872,1024.246342665097,15.0,11.0,4.0,0.7333333333333333,1297.574555046978,7994.795288504009,18.0,9.0,9.0,0.5,2617.6986298225297,43682.719654517496,12.0,4.0,8.0,0.3333333333333333,1169.4150068402937,19109.95720996716,76.0,39.0,37.0,0.5131578947368421,113.28375311676947,13162.718107402708,0.0,0.0,0.0,0.0,2846.0,2861.0,2952.0,2966.0,2975.0,2993.0,3002.0,3014.0,3192.0,3268.0,0.08817116338600976,-0.22900927760481385,0.057988049934777096,-0.2564566012663411,0.009258297024566037
4,4,3656.543818531959,1124.4550373397833,2.7375685920242687,3763.892061578189,-7039.471123332321,15.28779240518434,3787.240310693828,43529.71627405122,8.255760678372372,3808.576420133633,-5889.963384691631,10.191861603456228,4036.4890531883816,11219.541612422812,28.011769412227466,0.96071733908702,102.0,93.0,64.0,253.0,317.0,9.0,803.0,803.0,9.0,5.0,4.0,0.5555555555555556,143.48506854429294,485.8574134163292,15.0,10.0,5.0,0.6666666666666666,1164.5892169977533,4454.8456185180885,19.0,9.0,10.0,0.4736842105263157,2578.4677425090913,42813.80463120825,13.0,4.0,9.0,0.3076923076923077,1219.2103223605968,20221.55453801078,74.0,38.0,36.0,0.5135135135135135,115.8915947376676,11638.823256598873,0.0,0.0,0.0,0.0,3652.0,3661.0,3754.0,3768.0,3778.0,3797.0,3805.0,3818.0,3999.0,4071.0,0.12760409601058614,-0.1654370330659818,0.0592346553852031,-0.20699794595148038,0.010329441143063
5,5,4405.273982700431,1737.2548962241526,4.56396120505892,4513.972626301007,-6065.78604948653,10.522343006563007,4536.162137976054,43336.99242721957,8.200602744546725,4562.209140418488,-5233.550961119151,6.391327074359119,4781.469831024141,11482.531829984771,32.2339844957776,0.9756256570568534,103.0,93.0,66.0,248.0,314.0,10.0,747.0,750.0,10.0,4.0,6.0,0.4,148.0705951362593,1343.105116481781,14.0,10.0,4.0,0.7142857142857143,1225.8711021907834,8116.529062277177,19.0,9.0,10.0,0.4736842105263157,2559.2485705155273,46339.14448573082,14.0,6.0,8.0,0.4285714285714285,891.6060369074781,14497.330505000798,80.0,40.0,40.0,0.5,133.51731030320644,12112.245876397828,0.0,0.0,0.0,0.0,4401.0,4411.0,4504.0,4518.0,4527.0,4546.0,4556.0,4570.0,4743.0,4818.0,0.08523250989712808,-0.20209600078040235,0.05905459578934893,-0.17036349574721935,0.011627863286609632
6,6,5124.208708314343,1044.016678010406,2.6827978988804135,5232.547965400863,-5942.96354203924,15.28779240517473,5254.8079332095995,45362.85044331379,7.913205910550701,5280.783282162665,-6302.991359801197,6.965808451813451,5501.409990334156,10606.062661220436,29.3082989203378,0.972478316122192,104.0,96.0,65.0,249.0,314.0,8.0,719.0,719.0,8.0,4.0,4.0,0.5,143.21080198002812,932.9317025155162,14.0,10.0,4.0,0.7142857142857143,1331.8686302195724,8010.012644547085,18.0,9.0,9.0,0.5,2661.5099895288554,45980.3993725178,15.0,7.0,8.0,0.4666666666666667,885.010001939031,14590.744345147024,75.0,37.0,38.0,0.4933333333333333,132.9098128851984,11206.305614675875,0.0,0.0,0.0,0.0,5120.0,5128.0,5224.0,5237.0,5246.0,5264.0,5274.0,5289.0,5469.0,5538.0,0.13717290633033422,-0.22410849751949874,0.05867157737044599,-0.1404111082213105,0.012531494215206202
7,7,5821.876695499281,1712.2872870024746,11.303141356317116,5929.825750915638,-6093.648643826204,7.397967315886493,5952.942091247187,43205.610114727904,7.8554310326351295,5976.412409164429,-5033.55638556228,5.293204084472595,6196.324355135331,11739.244659150156,33.44675447296148,0.9806336712405344,107.0,93.0,62.0,254.0,316.0,14.0,701.0,697.0,15.0,8.0,7.0,0.5333333333333333,170.6331818832863,1647.429528064174,14.0,9.0,5.0,0.6428571428571429,1182.395055197127,7462.779349632346,18.0,9.0,9.0,0.5,2623.420988114175,45274.12957818865,12.0,4.0,8.0,0.3333333333333333,1097.707275456983,16955.26037477725,85.0,40.0,45.0,0.4705882352941176,136.11290168516152,12363.291334735455,0.0,0.0,0.0,0.0,5815.0,5829.0,5922.0,5934.0,5944.0,5962.0,5972.0,5984.0,6161.0,6238.0,0.09965219223346351,-0.1940372877249944,0.06071945243101439,-0.21807787404657475,0.011594689917214417
8,8,6622.310766644257,1537.141839405696,3.992375391365897,6729.972626301005,-6464.574988565968,17.835757806017895,6753.203865520968,44424.67373053485,8.090799169795382,6775.4849143394,-5224.683222182748,10.191861603456022,7003.0349649685095,11439.42245333179,29.251852894801605,0.9625313550671816,104.0,92.0,64.0,255.0,319.0,12.0,799.0,800.0,12.0,6.0,6.0,0.5,164.3720902090648,809.7749702914098,16.0,11.0,5.0,0.6875,1176.4320026258897,4856.261542452735,19.0,9.0,10.0,0.4736842105263157,2597.152718636203,42591.36593843186,13.0,4.0,9.0,0.3076923076923077,1190.694898851587,19799.6224249193,75.0,39.0,36.0,0.52,108.73423314903582,12130.674966909091,0.0,0.0,0.0,0.0,6616.0,6628.0,6720.0,6735.0,6744.0,6763.0,6771.0,6784.0,6964.0,7039.0,0.10693358673563648,-0.18198133747487966,0.05846194244193349,-0.22789800801629137,0.009505220529500282
9,9,7550.301356399425,2800.553776081392,4.88461352908063,7658.547965400863,-6797.092532296359,15.287792404657166,7680.527096605996,43734.06087573063,8.389053869049647,7702.505978736964,-4967.54076344182,10.191861603456198,7932.149876481832,11034.676342580557,31.534409880998684,0.9747411838797522,104.0,92.0,65.0,257.0,322.0,12.0,929.0,928.0,12.0,6.0,6.0,0.5,230.37963103893188,1633.1146021812715,16.0,12.0,4.0,0.75,1345.155824940252,8509.706631119157,19.0,10.0,9.0,0.5263157894736842,2528.805967081203,41919.169664899535,14.0,4.0,10.0,0.2857142857142857,1116.7889866738633,18301.51144682352,79.0,40.0,39.0,0.5063291139240507,111.73586359369672,11560.09411248918,0.0,0.0,0.0,0.0,7544.0,7556.0,7648.0,7662.0,7671.0,7690.0,7699.0,7713.0,7894.0,7970.0,0.082262170077407,-0.19790164964633764,0.0578223452486324,-0.22481727676857205,0.010125884994245903
10,10,8398.928946174707,2590.9699547647674,5.7927529890884495,8503.839824820401,-6745.789663399143,6.683067840082726,8527.82205675413,43889.509664837526,7.91340014586809,8552.8780308891,-4877.500040976452,5.1908405952322365,8774.98740217837,11207.227377624617,33.894963211285656,0.9750806371436848,104.0,91.0,64.0,254.0,318.0,13.0,847.0,847.0,13.0,7.0,6.0,0.5384615384615384,189.8552025052181,2511.409529090958,13.0,8.0,5.0,0.6153846153846154,1172.7587366306343,5588.491140221447,19.0,10.0,9.0,0.5263157894736842,2596.5757614675003,45942.02629994281,13.0,6.0,7.0,0.4615384615384615,903.145622077682,14022.028018931642,79.0,40.0,39.0,0.5063291139240507,101.50321087032349,12352.30104096373,0.0,0.0,0.0,0.0,8392.0,8405.0,8496.0,8509.0,8518.0,8537.0,8547.0,8560.0,8735.0,8814.0,0.07327572523798523,-0.17385047491084857,0.05916164890645316,-0.18516568210973847,0.009056942225779772
11,11,9139.549601452973,2145.371701865403,8.186377397757736,9248.196287318984,-6680.396070495177,7.253053261049601,9272.00873877218,43243.91890820775,7.936217575387127,9296.520755819563,-5647.105763721869,5.496070402052659,9517.72771238254,11854.611878430882,34.1023305711196,0.979256400906898,109.0,93.0,64.0,252.0,316.0,16.0,742.0,744.0,16.0,8.0,8.0,0.5,134.43476059631675,2174.9540249314414,13.0,8.0,5.0,0.6153846153846154,1120.5929396631957,5234.629201493193,18.0,9.0,9.0,0.5,2596.8972023058086,45868.32421977264,14.0,6.0,8.0,0.4285714285714285,959.733269384412,14615.457046518944,87.0,45.0,42.0,0.5172413793103449,83.0738296799249,12223.599233840674,0.0,0.0,0.0,0.0,9132.0,9148.0,9241.0,9253.0,9263.0,9281.0,9291.0,9305.0,9475.0,9557.0,0.06266268939756481,-0.16774348823604002,0.06005230950086057,-0.1699513537624759,0.007007722440164852
12,12,9879.555835951704,1794.8265702521298,6.0015521778664676,9989.547965400803,-6613.399750004413,15.2877924025011,10010.54011756185,45016.99701752379,8.11880371736019,10033.379001047257,-5409.97343748391,7.5750928770323025,10256.427015693243,11390.037893006793,30.838831733422012,0.9757569449161556,106.0,92.0,63.0,254.0,317.0,14.0,739.0,739.0,14.0,7.0,7.0,0.5,147.04816519559773,1335.62757147584,16.0,13.0,3.0,0.8125,1422.7225906702151,11038.145356204965,18.0,9.0,9.0,0.5,2653.6490838888594,43912.88940230931,13.0,4.0,9.0,0.3076923076923077,1187.605962230973,18891.37187383317,80.0,39.0,41.0,0.4875,99.63995842341475,11884.955151898905,0.0,0.0,0.0,0.0,9873.0,9887.0,9979.0,9993.0,10002.0,10020.0,10029.0,10042.0,10219.0,10296.0,0.08192889922224687,-0.2151272635030516,0.058947714412311246,-0.21952158840604385,0.008747991829297712
13,13,10729.502021745704,2361.4626407834876,6.497551922291779,10837.54796540086,-6757.877884403141,8.50924457228444,10860.688055211056,42553.7844901774,8.212525486144836,10880.301356399426,-4747.105837946562,10.191861603398872,11111.397363117345,11467.063621796577,30.70953934661227,0.9757589680747196,105.0,90.0,62.0,258.0,320.0,15.0,850.0,849.0,15.0,6.0,9.0,0.4,179.7858919345104,1951.833597391926,13.0,9.0,4.0,0.6923076923076923,1241.319014563602,7154.2850230250115,19.0,10.0,9.0,0.5263157894736842,2577.753107071126,41390.00579332588,14.0,2.0,12.0,0.1428571428571428,1363.0689806505247,20815.40595790656,78.0,40.0,38.0,0.5128205128205128,105.84226930598156,12338.472433277571,0.0,0.0,0.0,0.0,10724.0,10739.0,10829.0,10842.0,10851.0,10870.0,10878.0,10891.0,11072.0,11149.0,0.07613327809194598,-0.18368473591813592,0.06057635385323116,-0.28713684235869963,0.009230110933089857
14,14,11546.897649929031,2458.019410675207,5.171682108660475,11654.54796540086,-7308.211856411767,8.835424143432641,11677.618393166707,42576.96892226792,8.258520096115712,11702.283699256512,-5950.087501910466,5.952873727665297,11925.411223627578,11089.724089989651,32.98302298517191,0.9813315063126394,105.0,93.0,64.0,256.0,320.0,12.0,817.0,818.0,12.0,6.0,6.0,0.5,170.21476976275503,2269.096605799901,13.0,9.0,4.0,0.6923076923076923,1274.2001238612004,6784.582338094264,20.0,10.0,10.0,0.5,2549.3257860299605,44453.03925706924,14.0,5.0,9.0,0.3571428571428571,1057.8447868540627,16446.308542124112,85.0,43.0,42.0,0.5058823529411764,95.77320724418854,11724.818372172129,0.0,0.0,0.0,0.0,11541.0,11553.0,11646.0,11659.0,11668.0,11688.0,11697.0,11710.0,11883.0,11966.0,0.06924874922610876,-0.17435183173340782,0.05987569924679756,-0.17778642524406704,0.008636211908161
15,15,12293.58523259546,2253.1577535965425,4.284412770541179,12401.54796540086,-6723.4836963289135,10.863841844074384,12423.776142430888,44073.19789530916,8.224910601632676,12450.123304500716,-4070.9875214062304,12.739827004320285,12670.050054614108,11168.115650961783,31.82204151871108,0.9757364921182604,104.0,93.0,68.0,249.0,317.0,11.0,745.0,747.0,11.0,6.0,5.0,0.5454545454545454,205.4393583877002,1468.5718373970942,14.0,10.0,4.0,0.7142857142857143,1337.2043689565724,8323.27710800179,18.0,9.0,9.0,0.5,2599.428884482471,46017.33094510937,17.0,7.0,10.0,0.4117647058823529,768.8623227628832,13120.635302171537,79.0,38.0,41.0,0.4810126582278481,113.45211097788876,12015.260235560463,0.0,0.0,0.0,0.0,12288.0,12299.0,12392.0,12405.0,12415.0,12433.0,12443.0,12460.0,12633.0,12709.0,0.09117841751638257,-0.19888564163347325,0.058979811055624255,-0.18886383677670845,0.010158572361141194
16,16,12993.617038838476,2145.7663993984215,16.616253185846507,13109.432894657995,-6426.769162148387,5.7256563684545245,13132.590034564351,43941.0083380545,7.720836507642984,13156.188131875,-5008.783808459319,4.868774358212829,13377.33937127223,12145.556798745043,33.443549219612926,0.9771478930903826,125.0,90.0,62.0,253.0,315.0,35.0,706.0,708.0,42.0,22.0,20.0,0.5238095238095238,103.28305756920862,1935.900793176232,12.0,7.0,5.0,0.5833333333333334,1164.5401512902051,6014.764531779307,19.0,10.0,9.0,0.5263157894736842,2654.6450270572404,45059.72812869042,13.0,5.0,8.0,0.3846153846153846,1095.8458719604,15576.227781467656,77.0,37.0,40.0,0.4805194805194805,126.21985182877634,13393.186752966663,0.0,0.0,0.0,0.0,12977.0,13012.0,13102.0,13114.0,13123.0,13142.0,13151.0,13164.0,13341.0,13417.0,0.04813341172560286,-0.18120149050147527,0.06041383954218962,-0.2187848215987341,0.010392265576644306
17,17,13795.264189898757,894.6889197481081,2.515168746581897,13903.888192181508,-7312.408952303303,17.8357578060484,13927.348455706637,44731.16112156285,8.079208077879922,13951.123304500716,-5852.210559234129,12.739827004320285,14177.391769147369,10938.58745713815,26.346915928038253,0.9506895706320798,103.0,95.0,66.0,251.0,317.0,8.0,797.0,795.0,8.0,4.0,4.0,0.5,159.5371776691858,370.5887411192622,15.0,10.0,5.0,0.6666666666666666,1207.0083039669953,3312.6421472019774,19.0,9.0,10.0,0.4736842105263157,2614.83124863884,42066.382624671474,16.0,7.0,9.0,0.4375,1034.7266588413795,18146.07521738043,69.0,35.0,34.0,0.5072463768115942,86.94233824287986,10984.52334040247,0.0,0.0,0.0,0.0,13791.0,13799.0,13894.0,13909.0,13918.0,13937.0,13944.0,13960.0,14143.0,14211.0,0.17831580803985156,-0.16506301983928365,0.0584565922966473,-0.17680954032125476,0.007948223532842373
18,18,14680.72601729957,1293.6724973092012,2.959178925757294,14789.972626301009,-6558.903536750434,17.8357578060484,14812.205704451204,45130.201596340194,8.1929715679682,14837.582447977378,-4202.386315514013,15.28779240518434,15062.958816596258,11185.707428211548,30.265512272976466,0.9592295058441348,104.0,94.0,64.0,257.0,321.0,10.0,887.0,884.0,10.0,6.0,4.0,0.6,148.37227145744254,908.3762816195036,16.0,12.0,4.0,0.75,1287.6479861180865,6937.4176833111205,19.0,9.0,10.0,0.4736842105263157,2523.083810282093,42685.52902183437,13.0,8.0,5.0,0.6153846153846154,869.0134547046997,13980.30640081893,82.0,43.0,39.0,0.524390243902439,97.43861389226186,11831.02478490858,0.0,0.0,0.0,0.0,14675.0,14685.0,14779.0,14794.0,14803.0,14822.0,14830.0,14843.0,15021.0,15100.0,0.11469075192218454,-0.19632061653342187,0.05590677021231611,-0.20679047318818586,0.008710992533785683
19,19,15564.0908910278,1908.9877793238431,15.287792404605677,15670.606428332976,-6698.971525532182,6.898715308187893,15694.08580911576,43303.48933533826,8.051657618342409,15718.448811798366,-4199.502088911927,5.77442495115805,15943.515290398294,11682.500505619037,36.23206444555741,0.985042630361404,105.0,87.0,65.0,259.0,324.0,18.0,881.0,882.0,18.0,7.0,11.0,0.3888888888888889,147.22333826839315,2575.690980977458,13.0,9.0,4.0,0.6923076923076923,1239.452556808507,6921.173322803065,19.0,9.0,10.0,0.4736842105263157,2588.2573049987936,46380.764676045226,14.0,5.0,9.0,0.3571428571428571,964.9684486151988,15154.974530318515,85.0,43.0,42.0,0.5058823529411764,90.07643748554436,12489.014154869286,0.0,0.0,0.0,0.0,15557.0,15575.0,15662.0,15675.0,15685.0,15704.0,15713.0,15727.0,15903.0,15986.0,0.07712115282400558,-0.1850213203750022,0.05977017890996188,-0.22978163319957248,0.007710373086842109
20,20,16339.668811981355,1481.9393536584123,6.37936989040623,16448.972626301005,-6767.214077029717,10.147346858917135,16470.570349757218,43602.37453687756,8.104227792350024,16496.811813709734,-4965.975188160955,7.554137340115584,16717.720499789946,11486.96888125674,33.51790399309033,0.9759267609680152,106.0,91.0,66.0,251.0,317.0,15.0,777.0,777.0,15.0,7.0,8.0,0.4666666666666667,128.6873912096838,1200.049941382914,14.0,10.0,4.0,0.7142857142857143,1333.91180366899,8548.314349321214,18.0,9.0,9.0,0.5,2600.5299277602367,45884.07921563645,16.0,7.0,9.0,0.4375,817.0370273733956,13356.251157731796,81.0,42.0,39.0,0.5185185185185185,107.28873673259386,12378.257330224473,0.0,0.0,0.0,0.0,16333.0,16348.0,16439.0,16453.0,16462.0,16480.0,16490.0,16505.0,16677.0,16756.0,0.08683715085370916,-0.19711387706748504,0.059641933619023146,-0.16452700555597582,0.00934003894688499
21,21,17071.352940010038,2245.995147548022,5.683612454844041,17178.463575111655,-6309.241753734177,7.41843130024948,17201.713813428574,43388.61844879144,7.826482486469731,17226.28372317008,-4960.425668854375,5.739934799630362,17447.972471434492,12176.062740747722,33.82584638282644,0.9789820335401406,107.0,92.0,62.0,256.0,318.0,15.0,731.0,731.0,15.0,7.0,8.0,0.4666666666666667,168.39616328420627,1906.491350223182,12.0,7.0,5.0,0.5833333333333334,1119.1650407860557,5797.038576192846,19.0,10.0,9.0,0.5263157894736842,2626.6635208075913,45360.51972185035,13.0,5.0,8.0,0.3846153846153846,971.1670867384842,15219.177935254414,81.0,39.0,42.0,0.4814814814814814,106.13095818989376,12386.199373259557,0.0,0.0,0.0,0.0,17064.0,17079.0,17171.0,17183.0,17192.0,17211.0,17221.0,17233.0,17410.0,17489.0,0.0749761919423763,-0.17738503047908546,0.060538076913134696,-0.19578301371115558,0.008716360982168884
22,22,17920.653679315248,1523.1005125361517,5.953830363214026,18030.54796540086,-6964.510222292252,11.741918189435712,18051.71543850244,45337.03833288491,8.148359376301315,18072.537636395304,-5080.686934179613,12.739827004320285,18306.232799296693,11752.063434315263,29.149742372853748,0.9722016509442007,104.0,93.0,63.0,256.0,319.0,11.0,850.0,850.0,11.0,5.0,6.0,0.4545454545454545,139.3992698654972,1054.8949268335089,15.0,12.0,3.0,0.8,1453.6295214788963,10761.793916791146,18.0,9.0,9.0,0.5,2688.379998168111,43319.02276622278,14.0,4.0,10.0,0.2857142857142857,1268.2758002680298,20725.836506250016,71.0,37.0,34.0,0.5211267605633803,108.63211754475464,12319.343056157197,0.0,0.0,0.0,0.0,17916.0,17927.0,18020.0,18034.0,18043.0,18061.0,18069.0,18083.0,18270.0,18339.0,0.09152335562764671,-0.20871956176129475,0.05929765368502496,-0.24962683524857263,0.009243663306611832
23,23,18853.611078198373,1410.8561965394726,3.399053030498683,18959.54796540086,-5825.7790432517195,15.28779240518434,18982.963489545407,45570.8667052056,8.195230664691065,19004.45203459914,-4125.037443849014,15.28779240517714,19235.330885076215,11247.276853689878,30.501528755375304,0.9713503361208152,103.0,92.0,63.0,259.0,322.0,11.0,933.0,931.0,11.0,6.0,5.0,0.5454545454545454,148.5099917098019,552.5713663567442,14.0,10.0,4.0,0.7142857142857143,1203.2104390498052,6418.357593287539,19.0,9.0,10.0,0.4736842105263157,2584.5576922004975,43144.19545818211,13.0,3.0,10.0,0.2307692307692307,1270.221758419034,20327.686720772996,82.0,41.0,41.0,0.5,97.51405628369236,11568.290613765254,0.0,0.0,0.0,0.0,18848.0,18859.0,18951.0,18964.0,18974.0,18993.0,19001.0,19014.0,19197.0,19273.0,0.10526231665145253,-0.20653211014646047,0.05671513137811929,-0.3079297523257893,0.008670014755767397
24,24,19747.764328368023,2050.6586074623665,5.709509249811521,19854.54796540086,-6469.811237316506,9.857136057427782,19876.56637221428,42281.49157869398,8.308958891061678,19899.8469946756,-5399.524484694907,6.6301211763935495,20129.258856687244,11955.2254774589,30.017748590229743,0.9770620353861112,102.0,90.0,65.0,256.0,321.0,12.0,894.0,894.0,12.0,6.0,6.0,0.5,158.06332244250012,1728.0041997001044,14.0,11.0,3.0,0.7857142857142857,1306.673734257395,9416.115151678889,19.0,10.0,9.0,0.5263157894736842,2542.131756673284,43561.531110956596,14.0,5.0,9.0,0.3571428571428571,1079.650799783026,17127.795122443567,70.0,34.0,36.0,0.4857142857142857,122.84557967531806,12990.851779489229,0.0,0.0,0.0,0.0,19742.0,19754.0,19844.0,19858.0,19867.0,19886.0,19895.0,19909.0,20096.0,20165.0,0.07707929631353858,-0.201964738433291,0.06012398479230299,-0.1999529408271644,0.010275471584115122
25,25,20503.23235371019,2317.6367472736392,5.746258665333777,20612.54796540086,-6640.395181397408,10.195808465298558,20634.13310440387,43858.34723315779,8.132183184665964,20659.61912947529,-4766.483639475894,6.363240897501442,20881.548321706417,11333.552451665992,31.908130913436995,0.976389146004959,106.0,92.0,66.0,252.0,318.0,14.0,756.0,758.0,14.0,7.0,7.0,0.5,179.28322306626598,2191.730285354345,14.0,11.0,3.0,0.7857142857142857,1373.8826005010158,10075.25143401824,19.0,9.0,10.0,0.4736842105263157,2614.82076204257,46979.75736066877,14.0,6.0,8.0,0.4285714285714285,841.5469915411974,13618.335834708969,78.0,40.0,38.0,0.5128205128205128,106.7814938719856,12110.196456500158,0.0,0.0,0.0,0.0,20496.0,20510.0,20602.0,20616.0,20625.0,20643.0,20654.0,20668.0,20842.0,20920.0,0.07735604955227193,-0.20689771662232537,0.05961968307063138,-0.1765550991451071,0.00942171435896863
26,26,21204.919708320827,1901.9225316914903,12.721023227996428,21313.457130230396,-6476.55181696339,6.5906277996071045,21336.879149165117,43047.834027038785,7.852298223461882,21361.698643597894,-5361.485190010427,5.728780449665596,21581.452909529584,12447.28454478978,33.83722979316441,0.9822346495321926,108.0,93.0,65.0,251.0,316.0,15.0,700.0,702.0,16.0,8.0,8.0,0.5,151.01840046655315,1923.2761089659512,13.0,8.0,5.0,0.6153846153846154,1143.8220942689732,5508.205380743583,19.0,10.0,9.0,0.5263157894736842,2586.071768076013,45214.52494824589,14.0,6.0,8.0,0.4285714285714285,926.3707436728798,13895.16109053558,82.0,41.0,41.0,0.5,117.13656619364538,12799.840664535112,0.0,0.0,0.0,0.0,21197.0,21212.0,21305.0,21318.0,21327.0,21346.0,21356.0,21370.0,21542.0,21621.0,0.07940302401919794,-0.1766097340984864,0.06007437601742459,-0.17278248672567503,0.009410612071423782
27,27,21936.027373698995,1798.5547320145022,16.108413753466955,22047.120353950777,-6343.677146396483,7.979149576648933,22070.923205107752,42648.84762326272,7.972357687250392,22093.494167925124,-5031.526538965523,6.090375103982785,22317.955444401152,12306.83656440326,32.25503632899086,0.9797582281896884,107.0,91.0,63.0,255.0,318.0,16.0,735.0,734.0,17.0,4.0,13.0,0.2352941176470588,151.03365786042295,1539.7593435226413,13.0,8.0,5.0,0.6153846153846154,1099.0348842119283,5568.731662890531,18.0,9.0,9.0,0.5,2617.6252330055167,44205.50638265279,13.0,4.0,9.0,0.3076923076923077,1188.036476596863,18323.684744752663,80.0,41.0,39.0,0.5125,100.19656616603056,13250.855324339682,0.0,0.0,0.0,0.0,21932.0,21948.0,22039.0,22052.0,22062.0,22080.0,22089.0,22102.0,22278.0,22357.0,0.08397501347721295,-0.17324886794345035,0.06137622418613108,-0.23611849552941483,0.008141537075079289
28,28,22839.440220051532,1780.4491825318685,3.1573906000159004,22947.972626301005,-5801.920732836782,17.8357578060484,22970.71432165163,44549.24653952925,8.18542948075008,22992.274353397817,-4807.644814907553,6.158744587328803,23223.53415569611,11658.066169908316,31.043158873755967,0.9613393906163794,103.0,94.0,63.0,261.0,324.0,9.0,901.0,900.0,9.0,4.0,5.0,0.4444444444444444,175.8566335252276,773.6020651217245,15.0,11.0,4.0,0.7333333333333333,1197.754045391718,6641.39522615575,19.0,9.0,10.0,0.4736842105263157,2580.799678838131,43028.474773411144,12.0,3.0,9.0,0.25,1276.009810735553,19944.876613655797,81.0,42.0,39.0,0.5185185185185185,93.47220659400166,11772.564628102518,0.0,0.0,0.0,0.0,22835.0,22844.0,22938.0,22952.0,22962.0,22981.0,22989.0,23001.0,23183.0,23262.0,0.09877093671112398,-0.20644095301282925,0.057931387830502286,-0.265412662511777,0.00801781403808388
29,29,23896.13479933174,1055.331405301872,3.3384088754550723,24003.54796540086,-6270.972657418761,15.28779240518434,24026.1970893489,43628.41756217996,8.262180911452928,24053.1711260173,-3840.886487639812,15.28779240518434,24280.562765076746,11179.485796566729,31.540020745408885,0.963784535078258,103.0,92.0,64.0,262.0,326.0,11.0,1057.0,1055.0,11.0,5.0,6.0,0.4545454545454545,138.0240733851547,99.14365843000796,15.0,11.0,4.0,0.7333333333333333,1276.9260065679557,6950.982688252722,19.0,9.0,10.0,0.4736842105263157,2461.2554609103236,42848.62829430137,15.0,9.0,6.0,0.6,748.9441550822245,12144.385524133491,79.0,39.0,40.0,0.4936708860759494,107.31610367457417,11858.897323987185,0.0,0.0,0.0,0.0,23891.0,23902.0,23994.0,24007.0,24017.0,24036.0,24045.0,24058.0,24243.0,24320.0,0.1307874215547235,-0.20362487230068074,0.05641404383742547,-0.19499252516114932,0.009599377433578513
30,30,24886.150678199716,-499.3403564364713,5.095930801728113,25010.972626301005,-7660.162900884886,8.700063352491236,25033.399817602396,42579.8107628485,8.434411500786261,25061.375843610527,-4071.287975555771,17.8357578060484,25287.840086475455,11270.937874689056,31.967700705710055,0.9707505496636104,116.0,112.0,70.0,257.0,327.0,4.0,990.0,1008.0,4.0,1.0,3.0,0.25,132.42893144437815,799.12053249849,14.0,10.0,4.0,0.7142857142857143,1290.307646299268,6821.169140487655,19.0,9.0,10.0,0.4736842105263157,2482.0185616802187,44535.09235820784,19.0,8.0,11.0,0.4210526315789473,668.4061221466,12058.808607889694,91.0,50.0,41.0,0.5494505494505495,127.93564206999496,11703.802498094012,0.0,0.0,0.0,0.0,24885.0,24889.0,25001.0,25015.0,25024.0,25043.0,25053.0,25071.0,25254.0,25328.0,-0.26520774805676345,-0.16844389120631031,0.05829097211126677,-0.1641755941018532,0.011350931350380143
31,31,25795.7493207598,1658.7005493602971,5.935486926110234,25898.82415064316,-6219.629939961581,6.55346712465068,25922.93197560019,42800.62260619888,7.929205423349763,25948.55973022062,-5127.6273228339,5.755637683894736,26175.803851853005,11932.54481724287,32.527499749767145,0.9818212252892092,103.0,88.0,65.0,260.0,325.0,15.0,907.0,890.0,15.0,8.0,7.0,0.5333333333333333,115.00190456655864,1746.652329237373,13.0,8.0,5.0,0.6153846153846154,1113.3679406117512,5872.879415885021,19.0,10.0,9.0,0.5263157894736842,2519.013500184038,45260.960044200445,14.0,7.0,7.0,0.5,827.8175827317423,13480.032711605752,80.0,39.0,41.0,0.4875,128.3117646495015,12588.29845875959,0.0,0.0,0.0,0.0,25788.0,25803.0,25891.0,25904.0,25913.0,25932.0,25942.0,25956.0,26137.0,26216.0,0.069332529377235,-0.17900871134764468,0.05885459946134535,-0.16144261870307494,0.010753093042155376
32,32,26559.123304500717,1232.1717569196817,10.193338797177082,26680.972626301005,-7259.737617316168,8.891252789201321,26702.811672427106,43572.25607419906,8.26458376076778,26727.12566152456,-4772.646365359362,10.19186160187623,26953.66213888403,12034.712690412538,29.959723597959783,0.9773840077862151,120.0,109.0,66.0,255.0,321.0,11.0,763.0,779.0,13.0,9.0,4.0,0.6923076923076923,128.89951906981835,2065.975620123131,14.0,10.0,4.0,0.7142857142857143,1352.4446034215257,8599.288275499901,18.0,9.0,9.0,0.5,2638.0153536295684,45347.86493320682,15.0,5.0,10.0,0.3333333333333333,984.481675078954,16126.82535543002,77.0,39.0,38.0,0.5064935064935064,112.40942973114294,12833.22601149128,0.0,0.0,0.0,0.0,26551.0,26562.0,26671.0,26685.0,26694.0,26712.0,26722.0,26737.0,26917.0,26992.0,0.1046116487786212,-0.18629386827915512,0.0605434648400418,-0.20627584776120875,0.00934043318048581
33,33,27385.87198167215,1296.9850411596206,2.891638642055803,27493.972626301005,-6844.446620823751,17.835757806048395,27516.042164759587,44982.97878467286,8.134574050329764,27541.12330449643,-5001.801372301116,12.739827004320274,27767.874742439097,11136.87846759112,28.03062916256601,0.958096916110927,102.0,93.0,67.0,252.0,319.0,9.0,829.0,813.0,9.0,5.0,4.0,0.5555555555555556,161.79212566050856,919.3511385518548,15.0,11.0,4.0,0.7333333333333333,1288.9547141167393,6830.11625938595,19.0,9.0,10.0,0.4736842105263157,2572.5563475500608,42787.27323882886,16.0,7.0,9.0,0.4375,898.8404275475878,15202.27674462598,69.0,34.0,35.0,0.4927536231884058,146.91453940929676,12340.817878888416,0.0,0.0,0.0,0.0,27381.0,27390.0,27483.0,27498.0,27507.0,27526.0,27534.0,27550.0,27735.0,27802.0,0.12474478928134124,-0.188321245752021,0.05718955073794742,-0.17970334298462345,0.013191716138128428
34,34,28276.228082569716,2076.02832109099,5.387361852481478,28383.54796540086,-7391.828290129695,8.451174825378038,28406.619978062296,42063.50601149749,8.408580280469964,28427.30135639943,-4659.201089426634,8.07690797942583,28658.99145119191,11588.003465145715,30.574401356280173,0.9704623870238254,105.0,91.0,63.0,259.0,322.0,14.0,890.0,891.0,14.0,6.0,8.0,0.4285714285714285,165.8330025284683,1704.3308481543208,14.0,10.0,4.0,0.7142857142857143,1285.9362052663466,7057.032389591981,19.0,10.0,9.0,0.5263157894736842,2539.1857306558786,42426.31771208238,13.0,2.0,11.0,0.1538461538461538,1286.0916106373325,19724.10333129761,79.0,40.0,39.0,0.5063291139240507,100.24106021442124,12176.735242795854,0.0,0.0,0.0,0.0,28270.0,28284.0,28375.0,28388.0,28397.0,28416.0,28425.0,28438.0,28620.0,28697.0,0.07987993267901089,-0.17396727234363069,0.06036552754213656,-0.27603264721840975,0.008650416831158648
35,35,29177.9632703324,3054.5269103698247,5.771001936396675,29286.123304500717,-6866.612942528405,12.739827004240729,29308.30649441922,43864.925374001774,8.50856515432902,29330.803288467137,-4831.861987581171,10.191861603456228,29560.013264612317,12022.794903959852,32.73146187473764,0.9763024255057124,104.0,91.0,64.0,262.0,326.0,13.0,902.0,902.0,13.0,6.0,7.0,0.4615384615384615,220.26259175893767,2714.5208083496664,14.0,10.0,4.0,0.7142857142857143,1292.4740303788335,7078.227837775914,19.0,9.0,10.0,0.4736842105263157,2552.943650911249,45278.84022593724,13.0,4.0,9.0,0.3076923076923077,1127.1377695349815,18182.63594960937,85.0,42.0,43.0,0.4941176470588235,89.99181036789712,12337.112827407918,0.0,0.0,0.0,0.0,29172.0,29185.0,29276.0,29289.0,29299.0,29318.0,29327.0,29340.0,29520.0,29602.0,0.07211021484576462,-0.18822584601702078,0.058200113852794756,-0.233271929627118,0.007485099021214879
36,36,30010.30135639943,2058.62479008572,10.191861603456228,30118.2507359224,-6404.199452461399,8.944483718562315,30140.87809673128,43371.207489135515,8.318742145279305,30166.490198581418,-4774.032844123208,5.956839490484421,30390.192910845624,11682.664508717777,33.89664742949151,0.9776760238597756,117.0,93.0,66.0,256.0,322.0,24.0,834.0,833.0,25.0,18.0,7.0,0.72,144.35873272707275,1409.416720656948,14.0,10.0,4.0,0.7142857142857143,1202.6463565543231,7884.493191136075,20.0,10.0,10.0,0.5,2533.023933487498,46006.149729058976,14.0,5.0,9.0,0.3571428571428571,918.715820762852,14272.574915633391,84.0,42.0,42.0,0.5,158.25496046776922,12585.130474879345,0.0,0.0,0.0,0.0,29992.0,30016.0,30109.0,30122.0,30131.0,30151.0,30161.0,30175.0,30350.0,30431.0,0.07012386784726406,-0.1877902719116745,0.05840335282622741,-0.19244019694874598,0.0135461358450957
37,37,30758.457978591858,1565.8116570091436,3.19762078005977,30866.972626301005,-6143.560167255703,17.8357578060484,30889.43173511624,46548.23320596029,8.418809340312515,30913.02737372424,-4260.348089770178,17.835757806040988,31137.69909604458,11704.500901321908,31.155149343952463,0.9688829340732682,102.0,93.0,70.0,251.0,321.0,9.0,746.0,748.0,9.0,4.0,5.0,0.4444444444444444,171.92271582685845,832.2859090644939,16.0,12.0,4.0,0.75,1243.1670593168733,7852.104977364149,19.0,9.0,10.0,0.4736842105263157,2547.1253411080115,45363.906242443176,18.0,4.0,14.0,0.2222222222222222,995.8772800496048,16822.36396823208,82.0,42.0,40.0,0.5121951219512195,94.0574708600862,11876.83789290292,0.0,0.0,0.0,0.0,30754.0,30763.0,30856.0,30871.0,30880.0,30899.0,30909.0,30926.0,31097.0,31177.0,0.10979782597560168,-0.20235287446890743,0.05472012932988966,-0.2337549090040027,0.008036008681879236
38,38,31637.638372821093,1576.127438496207,2.6794402703763054,31744.80145686625,-5999.191184725044,17.8357578060484,31769.456087013703,46153.2288591816,7.999541470041253,31796.972626301005,-4353.319638405657,17.8357578060484,32022.928261944307,11558.53853510816,27.493856537886316,0.9631083197292868,103.0,94.0,66.0,254.0,320.0,9.0,880.0,880.0,9.0,5.0,4.0,0.5555555555555556,171.2737296296362,1178.3552142521055,15.0,9.0,6.0,0.6,1026.7959218007848,3441.531997395322,19.0,9.0,10.0,0.4736842105263157,2639.949905080469,44484.896518161855,99.0,10.0,89.0,0.101010101010101,635.0954963170531,10806.519446545186,72.0,37.0,35.0,0.5138888888888888,142.97081566614554,11944.573113948314,0.0,0.0,0.0,0.0,31633.0,31642.0,31736.0,31751.0,31760.0,31779.0,31787.0,31802.0,31987.0,32056.0,0.10866743731905937,-0.17115572586104288,0.05719967963964636,-0.14588763267326907,0.012369281395903368
39,39,32674.45203459914,1540.7580017613254,11.017990104383903,32780.889365481635,-6066.433745415732,7.013419103353105,32806.20307387636,41533.567738137834,8.033896848918797,32828.59594990601,-5034.720810500979,5.832868856799672,33062.05673539169,11775.849513227846,30.932618772344433,0.9708896364294648,115.0,90.0,64.0,265.0,329.0,25.0,1039.0,1036.0,28.0,18.0,10.0,0.6428571428571429,117.44722263065913,902.5696539123946,13.0,8.0,5.0,0.6153846153846154,967.8970821035576,3340.435903640684,19.0,9.0,10.0,0.4736842105263157,2489.5927840392033,43007.33173849588,13.0,5.0,8.0,0.3846153846153846,1088.129479932735,16815.120564844998,83.0,42.0,41.0,0.5060240963855421,119.69753319068126,12359.287763317194,0.0,0.0,0.0,0.0,32658.0,32683.0,32773.0,32786.0,32797.0,32816.0,32824.0,32837.0,33020.0,33102.0,0.07622691071303782,-0.15954960075760752,0.059941703051750034,-0.21612508833920047,0.0101646622654463
40,40,33596.26558029951,2141.37129178658,17.835757805321446,33704.470983128864,-5870.346201523125,6.057978843721397,33728.457224260965,44427.578088420414,7.923736836271801,33752.273982700426,-4007.344240307624,5.133700279979201,33981.44109288099,11860.645372026713,36.01969343314926,0.9784255539063972,106.0,91.0,65.0,264.0,329.0,15.0,921.0,923.0,16.0,5.0,11.0,0.3125,161.3538573253928,2770.764942721779,12.0,7.0,5.0,0.5833333333333334,1074.7714450362264,5817.016484415937,19.0,9.0,10.0,0.4736842105263157,2620.979108095727,47431.73521781413,14.0,4.0,10.0,0.2857142857142857,969.2733783230452,15690.32196491087,94.0,47.0,47.0,0.5,126.4791969599286,12231.048457086696,0.0,0.0,0.0,0.0,33591.0,33606.0,33697.0,33709.0,33719.0,33738.0,33748.0,33762.0,33938.0,34026.0,0.0753507147239154,-0.18308484851495901,0.05899441790140836,-0.24187424892867174,0.010663770224361425
41,41,34339.77356078983,1674.5325547283255,4.030524786464887,34450.972626301,-7102.330999127943,8.643051303068281,34473.46638731579,45515.6406266308,8.368198256123238,34498.78986791663,-4171.339945533983,20.383723206912453,34722.42498755624,11949.233983497685,31.125039260996473,0.9742065750604516,107.0,95.0,68.0,251.0,319.0,12.0,741.0,745.0,12.0,6.0,6.0,0.5,135.4706134875893,1174.3918853080208,15.0,11.0,4.0,0.7333333333333333,1311.9964860551725,7716.834673898915,19.0,9.0,10.0,0.4736842105263157,2601.5001270493017,46612.806343923585,18.0,6.0,12.0,0.3333333333333333,849.477362025703,14434.017900416846,87.0,45.0,42.0,0.5172413793103449,94.05159640646724,11404.985616009591,0.0,0.0,0.0,0.0,34334.0,34346.0,34441.0,34455.0,34464.0,34482.0,34493.0,34509.0,34679.0,34760.0,0.08090055526544715,-0.18472758960632296,0.05715617952935473,-0.2036461600151266,0.007870931018369531
42,42,35047.027373699,2085.616093413062,11.228781997728724,35158.58580591243,-6931.615310098909,6.480192179182557,35182.96356401912,43170.71186124155,7.754414423459899,35207.11850494731,-5488.799174127108,5.707342731127883,35429.779996289384,12354.119171330583,32.08367134343533,0.9773810179612032,109.0,94.0,64.0,252.0,316.0,15.0,711.0,709.0,17.0,6.0,11.0,0.3529411764705882,166.72458872043015,1635.2597016280597,13.0,8.0,5.0,0.6153846153846154,1127.919367930275,4912.223814079132,18.0,9.0,9.0,0.5,2621.7010498287996,45002.69849502837,13.0,5.0,8.0,0.3846153846153846,1002.9263123815178,15740.145001313724,82.0,42.0,40.0,0.5121951219512195,181.19675057043267,13326.06918753102,0.0,0.0,0.0,0.0,35042.0,35057.0,35151.0,35164.0,35174.0,35192.0,35202.0,35215.0,35393.0,35467.0,0.07994021011201023,-0.16272099899816578,0.06072869630353605,-0.18272235521187832,0.014666909721166072
43,43,35833.01227670382,2100.6107511759624,10.007917937636652,35952.26191880517,-7136.65015269608,6.885013745985826,35976.39822755563,42653.52330765966,7.832952612243672,35997.63858265691,-5256.171339842101,5.690994689119016,36225.98536122578,12087.91226264753,32.474126828545415,0.976696170769104,122.0,98.0,62.0,260.0,322.0,24.0,780.0,794.0,28.0,12.0,16.0,0.4285714285714285,146.62953515494755,1716.9777052252084,14.0,8.0,6.0,0.5714285714285714,1112.797263610923,3502.1184211959053,19.0,9.0,10.0,0.4736842105263157,2643.071965666011,44434.672551356154,12.0,4.0,8.0,0.3333333333333333,1271.0521410082297,19409.52504469204,81.0,40.0,41.0,0.4938271604938271,103.21883231395272,12585.704558489071,0.0,0.0,0.0,0.0,35822.0,35846.0,35944.0,35958.0,35967.0,35986.0,35994.0,36006.0,36187.0,36266.0,0.0698032870072961,-0.1559271142344747,0.06196608769225335,-0.24182091085455618,0.008539012367992274
44,44,36903.960994591434,1167.8115341537753,2.544904556823712,37024.7417032528,-6469.670660934055,6.660861901535264,37048.80742133415,42202.67463951476,7.9646334641296574,37069.30283890583,-4845.3515312963455,5.351163292222381,37305.15870244866,12076.26182103576,32.96064703717817,0.9787283603692776,117.0,109.0,61.0,266.0,327.0,8.0,1073.0,1072.0,8.0,4.0,4.0,0.5,161.67927096593172,1686.1007347720988,13.0,8.0,5.0,0.6153846153846154,1131.3876350278397,5366.142459278888,20.0,10.0,10.0,0.5,2578.075878331768,42336.907694512935,11.0,2.0,9.0,0.1818181818181818,1321.346325574176,20305.05504330909,84.0,43.0,41.0,0.5119047619047619,105.69742976566508,12099.116501561237,0.0,0.0,0.0,0.0,36900.0,36908.0,37017.0,37029.0,37039.0,37059.0,37067.0,37078.0,37264.0,37344.0,0.13844637275576188,-0.17487561489946016,0.06108797369723793,-0.2727039136457985,0.008752495708692708
45,45,37753.00599663819,1196.5801817239585,2.6608125696243765,38015.8266186198,-6797.253184012344,6.44669044177997,38040.646248136574,43137.577092025465,8.196533232868703,38063.027373699,-3489.8639869003414,17.835757806030777,38296.66739726,12042.538602978886,31.977523499113385,0.9750297433364656,259.0,251.0,65.0,265.0,330.0,8.0,850.0,991.0,8.0,4.0,4.0,0.5,162.2324167055598,627.356916573751,13.0,8.0,5.0,0.6153846153846154,1089.5269477665363,4162.851751488968,19.0,10.0,9.0,0.5263157894736842,2455.6409387550957,41564.34662199661,15.0,4.0,11.0,0.2666666666666666,1083.7674620325504,17122.0782877092,77.0,36.0,41.0,0.4675324675324675,133.51976923611315,12935.176198938476,0.0,0.0,0.0,0.0,37749.0,37757.0,38008.0,38021.0,38031.0,38050.0,38059.0,38073.0,38261.0,38338.0,0.1355800632364021,-0.1602892989669984,0.05692579658603618,-0.31054719212571397,0.011087344092306686
46,46,38788.273982700426,1200.9085711669748,5.567752456592562,38894.99279371515,-5747.361137266957,7.294941203851829,38919.31463425422,44018.00486157309,7.751436293064273,38944.588957926055,-4776.586513272181,5.921330334862399,39174.40887858773,12430.76662175887,32.5236770934193,0.9814474952753832,103.0,90.0,66.0,261.0,327.0,13.0,1034.0,880.0,13.0,4.0,9.0,0.3076923076923077,109.25136944348388,1271.7560000492072,13.0,8.0,5.0,0.6153846153846154,1038.8595935390797,5593.5762434425815,18.0,9.0,9.0,0.5,2647.039684639663,46734.773450774526,15.0,7.0,8.0,0.4666666666666667,840.4529909294944,13049.058537735613,80.0,40.0,40.0,0.5,128.83253130744706,13540.746372828256,0.0,0.0,0.0,0.0,38784.0,38797.0,38887.0,38900.0,38910.0,38928.0,38938.0,38953.0,39134.0,39214.0,0.09097392762991074,-0.18075418765717038,0.06013538534888208,-0.17595263659398172,0.010364005312587722
47,47,39630.69864360057,1171.4190698046818,3.361185061798122,39734.7016091986,-6736.030519882228,8.017479058331753,39758.8952263141,42576.11213513408,8.048967792087112,39781.62829683006,-4923.446137776145,5.69325887437046,40011.33742125984,12286.304878413746,32.11366667772421,0.9761447355749372,101.0,89.0,64.0,259.0,323.0,12.0,842.0,839.0,12.0,6.0,6.0,0.5,149.96936867734303,731.872471843963,14.0,9.0,5.0,0.6428571428571429,1117.8244868843028,5265.548878828878,19.0,10.0,9.0,0.5263157894736842,2589.0291495195993,44326.383296830994,12.0,4.0,8.0,0.3333333333333333,1094.684880295178,16337.641842666051,79.0,40.0,39.0,0.5063291139240507,124.45172690879689,13177.396966063963,0.0,0.0,0.0,0.0,39625.0,39637.0,39726.0,39740.0,39749.0,39768.0,39778.0,39790.0,39972.0,40049.0,0.12802367021594446,-0.1659470638657152,0.060809430915208344,-0.2223411914463702,0.010129304794271436
48,48,0.0,0.0,0.0,0.0,0.0,0.0,0.0,0.0,0.0,0.0,0.0,0.0,0.0,0.0,0.0,0.0,0.0,0.0,0.0,0.0,0.0,0.0,0.0,0.0,0.0,0.0,0.0,0.0,0.0,0.0,0.0,0.0,0.0,0.0,0.0,0.0,0.0,0.0,0.0,0.0,0.0,0.0,0.0,0.0,0.0,0.0,0.0,0.0,0.0,0.0,0.0,0.0,0.0,0.0,0.0,0.0,0.0,0.0,,40154.0,40611.0,40636.0,40645.0,40664.0,40671.0,40809.0,40880.0,40940.0,,,,,
49,49,0.0,0.0,0.0,0.0,0.0,0.0,0.0,0.0,0.0,0.0,0.0,0.0,0.0,0.0,0.0,0.0,0.0,0.0,0.0,0.0,0.0,0.0,0.0,0.0,0.0,0.0,0.0,0.0,0.0,0.0,0.0,0.0,0.0,0.0,0.0,0.0,0.0,0.0,0.0,0.0,0.0,0.0,0.0,0.0,0.0,0.0,0.0,0.0,0.0,0.0,0.0,0.0,0.0,0.0,0.0,0.0,0.0,0.0,,41137.0,41506.0,41520.0,41529.0,41548.0,41556.0,41570.0,41756.0,41829.0,,,,,
50,50,42239.9073395048,1213.413854439569,3.426224954997778,42343.00082262019,-6909.1408502727645,7.083256376044199,42366.95424228184,42831.82717340453,7.911454377154452,42392.09758341578,-4900.641833877288,5.969379779624071,42620.14794147609,12100.351961488916,31.41731986789073,0.9767501615522288,100.0,90.0,66.0,259.0,325.0,10.0,2611.0,2609.0,10.0,5.0,5.0,0.5,107.78936752526349,1306.2810526726712,13.0,8.0,5.0,0.6153846153846154,1166.4440620550106,5075.494828025636,19.0,10.0,9.0,0.5263157894736842,2565.3857541771363,45126.243851464445,15.0,6.0,9.0,0.4,888.6562513823114,14237.163599093428,82.0,42.0,40.0,0.5121951219512195,91.57788847164696,12075.383906087212,0.0,0.0,0.0,0.0,42235.0,42245.0,42335.0,42348.0,42357.0,42376.0,42386.0,42401.0,42580.0,42660.0,0.08883149564420247,-0.16882620970289827,0.05989438049866935,-0.18133466625518002,0.007568200393104809
51,51,43116.21550824521,311.7123047630821,1.1394848771549648,43223.54796540086,-6548.088127636891,15.287792404790608,43245.33333160015,43952.365708658624,8.34212048881124,43267.425126605674,-5056.786784188408,7.64389620259217,43501.625786597186,11659.820187685433,28.371575603131827,0.965398353658198,99.0,95.0,64.0,260.0,324.0,4.0,876.0,878.0,4.0,2.0,2.0,0.5,96.21870644697044,379.8124255532474,15.0,12.0,3.0,0.8,1372.5659679171072,8883.443216747584,19.0,9.0,10.0,0.4736842105263157,2549.076358925422,43787.81431258308,13.0,3.0,10.0,0.2307692307692307,1227.887542061046,19538.389035320095,71.0,35.0,36.0,0.4929577464788732,114.70927972196424,12698.343338036448,0.0,0.0,0.0,0.0,43114.0,43118.0,43213.0,43227.0,43236.0,43255.0,43264.0,43277.0,43467.0,43537.0,0.30867792184239173,-0.209613239950765,0.057996340306734694,-0.2428197182251014,0.009837997316898156
52,52,43806.726017299574,813.4743165685379,4.079311410959102,44123.972626301,-7300.462155197196,11.290635261505376,44146.49284848437,41471.38788948883,8.34236917604435,44169.45203459914,-4767.1075929741955,7.421201388383187,44401.98911727116,11951.15192130402,30.174603022519555,0.9683108789306948,313.0,303.0,64.0,263.0,327.0,10.0,692.0,901.0,10.0,6.0,4.0,0.6,90.50042215237528,700.1779208406967,15.0,11.0,4.0,0.7333333333333333,1246.7787195947344,5881.283127303379,20.0,9.0,11.0,0.45,2482.282102065214,43513.392821756046,13.0,4.0,9.0,0.3076923076923077,1119.0351237787204,17706.508127496207,79.0,40.0,39.0,0.5063291139240507,117.25119482177136,12679.986335547452,0.0,0.0,0.0,0.0,43801.0,43811.0,44114.0,44128.0,44137.0,44157.0,44165.0,44178.0,44362.0,44441.0,0.11125172646400364,-0.17078079347444505,0.05985529369501432,-0.234740899372182,0.009810869746602452
53,53,44905.273982700426,888.7585063977981,3.557253257803288,45027.54796540086,-5904.832195367869,11.756448775570284,45050.48348762634,41745.09002179037,8.426691735196652,45072.78373606815,-4383.133695494506,7.64389620259217,45305.90045519129,12347.631464361448,31.8768483448117,0.975763504610562,116.0,105.0,65.0,262.0,327.0,11.0,1096.0,904.0,11.0,4.0,7.0,0.3636363636363636,92.30460442016174,1189.2817076829251,16.0,12.0,4.0,0.75,1188.078112145115,7975.048378521184,20.0,9.0,11.0,0.45,2444.851540208256,43863.4313709446,13.0,4.0,9.0,0.3076923076923077,1079.7034062736952,17181.121834469912,79.0,40.0,39.0,0.5063291139240507,124.1023207712286,13191.830288439623,0.0,0.0,0.0,0.0,44901.0,44912.0,45017.0,45031.0,45041.0,45061.0,45069.0,45082.0,45267.0,45344.0,0.10385791388290494,-0.20120438190895926,0.05856620596415236,-0.24633138783412875,0.010050698478442683
54,54,45799.63272294344,423.9085429960673,1.234077636325668,45901.972626301,-7471.037740550962,10.849911857982717,45924.7989116572,43124.650389827315,8.654575477303982,45947.683357485505,-5402.816540883714,12.739827004320285,46179.93311905583,11326.0557109504,29.11566470460627,0.9680530822785772,95.0,90.0,66.0,258.0,324.0,5.0,896.0,874.0,5.0,3.0,2.0,0.6,131.80814076328724,110.25003791641576,15.0,11.0,4.0,0.7333333333333333,1258.8044981655742,6721.690162137632,20.0,10.0,10.0,0.5,2488.3729349735663,43226.27669333665,15.0,5.0,10.0,0.3333333333333333,1118.825439477766,18336.15863328121,71.0,35.0,36.0,0.4929577464788732,121.1459608336984,12138.846290790672,0.0,0.0,0.0,0.0,45797.0,45802.0,45892.0,45906.0,45915.0,45935.0,45943.0,45958.0,46145.0,46216.0,0.3109353254164308,-0.16849125140047036,0.05770186917412203,-0.20708188608876302,0.010696217988453873
55,55,46387.84932180029,437.99645558020046,1.6244021409697196,46711.54796540086,-7110.6532898623345,10.915450180862669,46733.69652227977,44206.12176917048,8.347904129665492,46759.45203459914,-3668.119502750603,15.28779240500313,46987.20427562646,11262.768348411488,32.122994782578225,0.9696848118073242,316.0,310.0,67.0,259.0,326.0,6.0,587.0,809.0,6.0,3.0,3.0,0.5,86.79019843511534,1579.70060267974,16.0,12.0,4.0,0.75,1350.3429526062032,8925.943687929012,19.0,10.0,9.0,0.5263157894736842,2564.525846579739,45261.246603224135,15.0,6.0,9.0,0.4,854.9697454659764,13882.726546039235,81.0,40.0,41.0,0.4938271604938271,102.66605305870834,12060.22116350232,0.0,0.0,0.0,0.0,46385.0,46391.0,46701.0,46715.0,46724.0,46743.0,46753.0,46768.0,46948.0,47027.0,0.19815274148770687,-0.189904203954282,0.05801291187611598,-0.23308121363681378,0.00911552558684992
56,56,47426.15067819971,1153.6819591352937,2.6286013283022567,47528.26668261359,-6755.246737896232,8.221101206315758,47551.08331137617,42656.152018213914,8.269129114025862,47573.78171029716,-4725.552796060608,7.643896202591931,47804.73272372401,12352.146009665932,30.505628080003262,0.9771887977532192,96.0,90.0,65.0,258.0,323.0,6.0,1040.0,817.0,11.0,8.0,3.0,0.7272727272727273,135.92009013936135,502.7983989262336,13.0,9.0,4.0,0.6923076923076923,1204.245200134305,6663.031732976719,19.0,9.0,10.0,0.4736842105263157,2584.073280249089,44795.84171483353,14.0,4.0,10.0,0.2857142857142857,1101.3250448135234,17357.321359308524,76.0,39.0,37.0,0.5131578947368421,121.53340541126649,13687.203515032852,0.0,0.0,0.0,0.0,47423.0,47429.0,47519.0,47532.0,47542.0,47561.0,47570.0,47584.0,47766.0,47842.0,0.11781417665682838,-0.17826812947906323,0.060579146453381576,-0.23305739928069957,0.009839051879419405
57,57,48203.027373699,1664.0721652781326,10.003459925462517,48318.972626301,-6725.136982525176,17.8357578048036,48341.37283028026,44962.67100803738,8.319418873167166,48362.575808760295,-5208.8173983565885,10.191861603456228,48593.10108165342,12163.28282856642,29.451205217554374,0.9636600713683308,119.0,95.0,64.0,258.0,322.0,24.0,779.0,790.0,29.0,19.0,10.0,0.6551724137931034,115.1468326011104,1318.9931694613852,16.0,12.0,4.0,0.75,1297.548749810119,6677.587033743872,19.0,9.0,10.0,0.4736842105263157,2563.399376860233,43488.70972942808,13.0,4.0,9.0,0.3076923076923077,1252.2818905300612,20031.54446067854,76.0,38.0,38.0,0.5,107.06289159935962,12928.61858859231,0.0,0.0,0.0,0.0,48189.0,48213.0,48308.0,48323.0,48332.0,48351.0,48359.0,48372.0,48556.0,48630.0,0.06919581674624357,-0.19294012199033472,0.05701172371192112,-0.24041577862283353,0.008802137803448429
58,58,49102.1169707589,2143.2228386718,6.812441104583576,49211.972626301,-6154.974617330395,17.8357578060484,49234.63846256506,45271.52623502992,8.441393369284905,49258.69864360057,-5460.489402998338,10.191861603456228,49494.2327992967,11507.971615602668,29.253352566479357,0.9558381540629464,106.0,91.0,66.0,259.0,325.0,15.0,897.0,894.0,15.0,6.0,9.0,0.4,159.7549611481824,1741.4177279231349,15.0,11.0,4.0,0.7333333333333333,1287.793946623853,7155.9970157588305,20.0,10.0,10.0,0.5,2550.73242445932,43003.3969450231,15.0,6.0,9.0,0.4,1030.845040686128,16942.98421755998,78.0,41.0,37.0,0.5256410256410257,135.13589034180876,11729.28538633899,0.0,0.0,0.0,0.0,49096.0,49111.0,49202.0,49216.0,49225.0,49245.0,49253.0,49268.0,49454.0,49527.0,0.07453959442088899,-0.20922814904838868,0.05634297397479014,-0.18878253662026961,0.011742807060680411
59,59,49943.47686547762,1456.0478964566178,3.933188610377019,50054.54796540086,-6498.898359324285,15.287792405080545,50076.2568153794,44954.59077511995,8.288269718028316,50101.462127744344,-4256.995677441358,12.739827004320285,50329.71420857877,11412.797721023408,30.5845036852518,0.9618630961666134,106.0,95.0,67.0,256.0,323.0,11.0,840.0,842.0,11.0,5.0,6.0,0.4545454545454545,150.85028751779913,808.4587011031232,14.0,11.0,3.0,0.7857142857142857,1375.7105808863805,9063.16452821924,19.0,9.0,10.0,0.4736842105263157,2575.448449177068,45589.32381900775,16.0,6.0,10.0,0.375,924.8599454810604,15050.127848456468,74.0,37.0,37.0,0.5,112.19295401779247,12184.086489471025,0.0,0.0,0.0,0.0,49938.0,49949.0,50044.0,50058.0,50067.0,50086.0,50095.0,50111.0,50294.0,50367.0,0.10360255860051211,-0.2116836584946096,0.05728999874696771,-0.21725649156330412,0.009830451459866224
60,60,50794.15067819971,723.5096056283072,2.2978855494565287,50899.4675437964,-7440.502599701164,15.28779240518432,50923.81362558965,43034.61491733656,8.215926244690221,50947.69864360057,-6027.51275900211,10.191861603456228,51178.38347764075,11107.966270250903,27.46182042052385,0.953011115919163,102.0,93.0,111.0,213.0,324.0,9.0,852.0,847.0,11.0,7.0,4.0,0.6363636363636364,123.25449763725366,63.4789354635347,16.0,9.0,7.0,0.5625,994.1535239381273,1775.8906352642855,18.0,9.0,9.0,0.5,2554.403088428281,41783.32839959013,59.0,6.0,53.0,0.1016949152542373,971.4907505995376,17179.280927268795,73.0,36.0,37.0,0.4931506849315068,105.90352619181849,11846.980005513364,0.0,0.0,0.0,0.0,50788.0,50797.0,50890.0,50906.0,50915.0,50933.0,50942.0,51001.0,51143.0,51214.0,0.17035640809525604,-0.13361375936862865,0.059356940763497706,-0.16117605875634405,0.0095340158238909
61,61,51699.726017299574,1585.7329569073183,3.431851899809676,51807.972626301,-6406.7061361335755,17.8357578060484,51830.33506994233,43675.99105181913,8.231418244006905,51853.67444593848,-4866.362720242157,10.191861603456228,52090.2327992967,11693.930088984627,28.443006740076324,0.9573985836684928,103.0,93.0,64.0,262.0,326.0,10.0,906.0,906.0,10.0,6.0,4.0,0.6,165.41307898328674,599.6042041179687,16.0,12.0,4.0,0.75,1225.6606558164883,6770.688854976194,19.0,9.0,10.0,0.4736842105263157,2506.2734191003888,43148.00375551899,14.0,6.0,8.0,0.4285714285714285,1008.0210282484044,16563.497669072516,76.0,42.0,34.0,0.5526315789473685,119.05832425696552,11474.533994295813,0.0,0.0,0.0,0.0,51694.0,51704.0,51797.0,51812.0,51821.0,51840.0,51848.0,51861.0,52051.0,52123.0,0.10431332606335851,-0.19130901742219913,0.057383321104879675,-0.20714054545408894,0.01018120711779484
62,62,52563.2996800828,2057.5047416227685,3.428402110214384,52669.972626301,-6623.1634418916365,17.835757805131525,52692.21865718961,45009.152304462805,8.347575773478209,52717.50367922789,-4699.333604879103,12.739827004320285,52946.73114459614,11296.725541673157,31.04346799468066,0.9680188224590436,101.0,92.0,66.0,259.0,325.0,9.0,863.0,863.0,9.0,4.0,5.0,0.4444444444444444,209.6137146638562,1284.1592839425732,15.0,11.0,4.0,0.7333333333333333,1313.8982825563494,6497.274392218725,19.0,9.0,10.0,0.4736842105263157,2519.3221279071754,44305.24844801697,15.0,7.0,8.0,0.4666666666666667,875.3003569391633,14857.001803788467,78.0,39.0,39.0,0.5,120.91065389743224,12012.619572597898,0.0,0.0,0.0,0.0,52559.0,52568.0,52660.0,52674.0,52683.0,52702.0,52711.0,52726.0,52908.0,52985.0,0.10187763382675483,-0.1983792630340235,0.05597355202038267,-0.1862605276693655,0.010703159375820701
63,63,53334.37237300425,1044.954900498156,3.6572730177836505,53443.972626301,-6084.693691145024,17.8357578060484,53466.23849413146,45843.13626083972,8.236201523649788,53493.54796540086,-4682.104915527919,15.28779240518434,53719.104574259705,11503.769297097902,30.067643197480795,0.9720696392544222,105.0,92.0,69.0,252.0,321.0,13.0,771.0,774.0,13.0,6.0,7.0,0.4615384615384615,137.16977191668684,421.0849845101891,16.0,12.0,4.0,0.75,1253.155148060943,7674.094837277409,18.0,9.0,9.0,0.5,2575.7553335255216,45001.58751896772,20.0,9.0,11.0,0.45,685.3389161820143,12369.07800571586,75.0,38.0,37.0,0.5066666666666667,130.05543753222216,12304.168969750664,0.0,0.0,0.0,0.0,53328.0,53341.0,53433.0,53448.0,53457.0,53475.0,53485.0,53502.0,53685.0,53754.0,0.13126860484724712,-0.20595205143763334,0.056186280948796956,-0.14637410492642508,0.011305462946395466
64,64,54095.027373699,2010.5102205390751,10.7911787137948,54204.54437337811,-6482.46663908915,7.75286536611547,54228.16828520539,41168.71729051464,8.1936550928894,54251.32075627292,-5783.134791169273,6.139412455872141,54480.05563779123,11948.37893815694,32.45183490163964,0.9793022325894908,108.0,91.0,64.0,259.0,323.0,17.0,763.0,762.0,30.0,19.0,11.0,0.6333333333333333,135.34100513184669,1391.483042849822,13.0,9.0,4.0,0.6923076923076923,1158.2450473049582,6500.704925105571,19.0,9.0,10.0,0.4736842105263157,2494.052215797791,43254.22753933003,13.0,4.0,9.0,0.3076923076923077,1143.2366235045488,17974.802878738305,81.0,41.0,40.0,0.5061728395061729,119.91081080209068,12544.45846012172,0.0,0.0,0.0,0.0,54088.0,54105.0,54196.0,54209.0,54219.0,54238.0,54247.0,54260.0,54442.0,54519.0,0.0673167456445747,-0.17867350682852154,0.06058124663438144,-0.19768458885832083,0.010035738858194193
65,65,54978.87669549929,1311.4335871830503,5.594431782215525,55089.49460287279,-7839.186806707223,8.508673657024179,55113.81423941775,41066.57748547231,8.022731842760587,55136.90839826736,-4237.713142025699,10.191861603456228,55370.984719153144,11516.944656775331,28.133612657579125,0.9574904162957651,105.0,95.0,64.0,261.0,325.0,10.0,883.0,885.0,19.0,12.0,7.0,0.631578947368421,132.88436412799987,680.3604634732178,14.0,8.0,6.0,0.5714285714285714,1086.2613205638509,1460.225437667622,18.0,9.0,9.0,0.5,2541.786229991677,41374.58905874578,13.0,5.0,8.0,0.3846153846153846,1004.6639445872638,16438.935452135007,71.0,35.0,36.0,0.4929577464788732,123.72551763371072,12276.282061129976,0.0,0.0,0.0,0.0,54976.0,54986.0,55081.0,55095.0,55105.0,55123.0,55132.0,55145.0,55337.0,55406.0,0.10132755896044611,-0.13856811265607852,0.06189427962169133,-0.23707691174844772,0.0107429115378204
66,66,55894.60271279886,2000.0606880945725,15.070386121284065,56004.30898479552,-6184.246605910906,7.532256824011341,56028.7701129751,41227.090668621066,8.131459046306999,56051.54734692266,-4349.425372755128,5.597795455408895,56290.65746019684,12748.805599852449,31.824416745958914,0.9721609606384028,106.0,89.0,64.0,262.0,326.0,17.0,917.0,915.0,31.0,18.0,13.0,0.5806451612903226,152.4600597127909,1864.868002188397,13.0,8.0,5.0,0.6153846153846154,1008.7294619331172,4133.462054952569,20.0,10.0,10.0,0.5,2446.3069910346867,42465.38261343599,12.0,4.0,8.0,0.3333333333333333,1031.8644932272457,15685.115286808144,74.0,42.0,32.0,0.5675675675675675,109.68004573163624,12738.395602166818,0.0,0.0,0.0,0.0,55890.0,55907.0,55996.0,56009.0,56019.0,56039.0,56048.0,56060.0,56249.0,56322.0,0.07622771679895238,-0.1631127486036817,0.05933736655583679,-0.23724156751621994,0.008603162458835018
67,67,56783.02599864344,1567.2457870847004,4.328207439123646,56885.54796540086,-6807.855145209209,12.140318580889154,56908.461687261755,43019.99537009298,8.532297898724623,56932.16939670312,-4690.055342975118,12.739827004320285,57171.50678199713,11241.789474005238,29.29258502716075,0.9585899177521708,99.0,88.0,67.0,257.0,324.0,11.0,886.0,880.0,12.0,6.0,6.0,0.5,144.8376399949637,1171.4382282416248,15.0,11.0,4.0,0.7333333333333333,1260.6275956867587,7229.948907467129,19.0,9.0,10.0,0.4736842105263157,2470.985495548397,44476.60401752021,16.0,5.0,11.0,0.3125,1033.777269199382,17079.120456821143,71.0,43.0,28.0,0.6056338028169014,106.38281323431572,10780.56934988559,0.0,0.0,0.0,0.0,56777.0,56788.0,56876.0,56889.0,56899.0,56918.0,56927.0,56943.0,57129.0,57200.0,0.09241539596950027,-0.18517250570084198,0.057438069769440256,-0.22041899158989658,0.009463156509051182
68,68,57536.14019301261,933.7794501279212,2.404026386028838,57644.972626301,-6208.413127648698,17.8357578060484,57667.55061604406,45182.295402603166,8.211218209951639,57695.62679890269,-5080.7533111805515,17.8357578060484,57918.5909122009,11197.96704482263,30.320191336544895,0.9613326966094072,102.0,94.0,70.0,251.0,321.0,8.0,752.0,759.0,8.0,4.0,4.0,0.5,162.184732855838,516.0506695893943,17.0,12.0,5.0,0.7058823529411765,1204.620362151136,6580.515484623319,18.0,10.0,8.0,0.5555555555555556,2514.398658824044,42676.51586147303,18.0,10.0,8.0,0.5555555555555556,666.0723228812362,12168.145768083605,76.0,40.0,36.0,0.5263157894736842,122.63623788722046,11880.65190694152,0.0,0.0,0.0,0.0,57532.0,57540.0,57634.0,57649.0,57658.0,57676.0,57687.0,57704.0,57879.0,57955.0,0.17368633763959984,-0.1940303161828021,0.055650086752325065,-0.13109715864682855,0.010951651973642949
69,69,58243.25399619781,2200.4330067506985,6.81232025159524,58347.75711901693,-6855.682957452856,8.296774169766014,58370.95549373498,42479.81689816971,8.226938670409192,58396.027373699,-4189.556767138259,10.242138430346085,58619.76472098468,12350.957204321703,32.95044923700856,0.9775520186134996,104.0,88.0,67.0,251.0,318.0,16.0,707.0,703.0,16.0,8.0,8.0,0.5,148.5747813908533,2558.02037576726,13.0,9.0,4.0,0.6923076923076923,1234.8938547974687,6650.925160156479,19.0,10.0,9.0,0.5263157894736842,2540.2596431198317,44528.05647066563,19.0,6.0,13.0,0.3157894736842105,868.8413019304091,13557.809799280078,79.0,39.0,40.0,0.4936708860759494,163.0875913712842,13275.220528040987,0.0,0.0,0.0,0.0,58235.0,58251.0,58339.0,58352.0,58361.0,58380.0,58390.0,58406.0,58586.0,58657.0,0.06752070203230065,-0.18012703657117166,0.0597992135702751,-0.20738263024512843,0.013204449555878833
70,70,59016.027373699,1750.933402651345,7.934552753148578,59128.972626301,-5690.962392713438,17.83575780598366,59151.526572770075,45438.52128257738,7.961579394813831,59179.972626301,-2956.133047190855,17.8357578060484,59404.37950221041,12235.639893105035,29.04598235275528,0.9674227282708444,107.0,93.0,65.0,256.0,321.0,14.0,776.0,781.0,14.0,4.0,10.0,0.2857142857142857,190.3490877727675,840.6465382197657,15.0,11.0,4.0,0.7333333333333333,1221.5515405073986,6691.731050303736,18.0,9.0,9.0,0.5,2588.17949088906,42512.805198628885,15.0,10.0,5.0,0.6666666666666666,505.60301546948665,7658.696381059181,76.0,39.0,37.0,0.5131578947368421,100.55700394047965,12641.378580259256,0.0,0.0,0.0,0.0,59012.0,59026.0,59119.0,59133.0,59143.0,59161.0,59170.0,59184.0,59367.0,59440.0,0.10871292276709783,-0.21464762130065063,0.05696002902016649,-0.17103527053694337,0.00821836902842695
71,71,59983.42557331766,1409.369078600747,5.001077609032733,60090.20855848482,-7124.593922324962,7.60217981749008,60113.75465416363,40934.872246698826,8.064105944467062,60135.45203459914,-4190.178485927006,6.7831747902013655,60370.09694645841,11811.544547739268,31.089420957916307,0.9689160566564502,103.0,93.0,62.0,263.0,325.0,10.0,965.0,962.0,10.0,4.0,6.0,0.4,143.67555238362817,653.4547773957822,13.0,8.0,5.0,0.6153846153846154,1140.703295108793,4268.684975715805,19.0,10.0,9.0,0.5263157894736842,2505.3385876234947,41642.73326708145,13.0,3.0,10.0,0.2307692307692307,1177.837938387917,18206.437728449724,80.0,41.0,39.0,0.5125,121.65941080497667,12106.903416479368,0.0,0.0,0.0,0.0,59979.0,59989.0,60082.0,60095.0,60104.0,60123.0,60132.0,60144.0,60333.0,60407.0,0.10194317057549784,-0.16010783316848304,0.06120303912333662,-0.28109493243396777,0.010300042497681839
72,72,60896.273982700426,1613.579221491412,3.999546112917529,61003.54796540086,-6989.044755315987,10.919199867159335,61024.590005866325,42177.79423858765,8.360874262787663,61049.97739669941,-4807.199293257825,7.811864829064954,61284.65746019684,11752.44764746838,33.69904043021953,0.97498912549847,102.0,89.0,64.0,258.0,322.0,13.0,911.0,912.0,14.0,5.0,9.0,0.3571428571428571,161.18598246728885,1595.8520105287348,14.0,11.0,3.0,0.7857142857142857,1410.4944905180985,10633.163748312223,19.0,10.0,9.0,0.5263157894736842,2480.3877954594714,43739.55124394357,14.0,6.0,8.0,0.4285714285714285,885.4083527967061,14484.531797222126,84.0,50.0,34.0,0.5952380952380952,138.63737286908218,11664.329710601409,0.0,0.0,0.0,0.0,60892.0,60905.0,60994.0,61007.0,61015.0,61034.0,61044.0,61058.0,61239.0,61316.0,0.09989344205753131,-0.20181506055534304,0.058807906867500724,-0.1841838248808419,0.01179646802331822
73,73,61685.00602205883,1143.3075357545022,2.9271861177421146,61790.90331742318,-7353.418856293094,7.657153087090751,61814.6363527432,43199.83508021597,7.867417522648344,61840.418791668635,-5500.850708975851,6.236594573080237,62065.61554252831,11882.028061683552,32.59512625598267,0.9774165738462948,103.0,94.0,65.0,257.0,322.0,9.0,789.0,789.0,9.0,5.0,4.0,0.5555555555555556,135.17759510688404,1224.6982171549416,14.0,8.0,6.0,0.5714285714285714,1170.6415872944538,5327.860050096603,19.0,10.0,9.0,0.5263157894736842,2614.803221958175,45178.99647364883,15.0,6.0,9.0,0.4,896.1975401081678,14247.1103091569,75.0,36.0,39.0,0.48,124.41528566438063,12665.720722103477,0.0,0.0,0.0,0.0,61680.0,61689.0,61783.0,61796.0,61805.0,61824.0,61834.0,61848.0,62030.0,62105.0,0.11823380051254222,-0.15919691373117045,0.0605280834314033,-0.16291980777551804,0.01047087963590892
74,74,62423.297371307875,2820.2005272496126,6.201075287409836,62528.86204786469,-6669.333834959259,5.816045711479568,62553.15507557167,42712.263641166064,7.919613514791673,62577.31692811994,-5137.327825460954,5.086764928632636,62803.504488067425,12684.528564815188,32.43273163763454,0.9778512101220638,105.0,91.0,63.0,257.0,320.0,14.0,740.0,738.0,15.0,8.0,7.0,0.5333333333333333,202.2678610099206,2827.896958021094,13.0,8.0,5.0,0.6153846153846154,1145.0838274704438,4762.842455231001,19.0,9.0,10.0,0.4736842105263157,2538.1881348009997,45115.021298315914,12.0,5.0,7.0,0.4166666666666667,1020.083935205591,15703.58998912768,73.0,36.0,37.0,0.4931506849315068,93.94334193420048,13652.474042360736,0.0,0.0,0.0,0.0,62416.0,62430.0,62521.0,62534.0,62544.0,62563.0,62572.0,62584.0,62768.0,62841.0,0.07172109183568638,-0.1716938836481918,0.059425277857544756,-0.1985631382428009,0.0074061358649768014
75,75,63306.49884685215,895.4043197383743,3.383777051126424,63413.972626301,-6746.07567377709,17.8357578058141,63436.244614588504,44338.34771543919,8.154356773400195,63458.273982700426,-5875.1789469500545,7.6438962025921695,63695.65746019684,11813.876207274778,28.567109378695424,0.9555214571578456,101.0,89.0,66.0,259.0,325.0,12.0,882.0,884.0,12.0,5.0,7.0,0.4166666666666667,184.09588244277697,28.989453696377268,17.0,13.0,4.0,0.7647058823529411,1232.810356189703,6669.95063519396,19.0,9.0,10.0,0.4736842105263157,2585.3497063326267,43077.433946514066,14.0,4.0,10.0,0.2857142857142857,1233.5568064757529,20307.15080347061,75.0,42.0,33.0,0.56,144.04042169359886,11390.721645411792,0.0,0.0,0.0,0.0,63301.0,63313.0,63402.0,63418.0,63427.0,63446.0,63454.0,63468.0,63656.0,63727.0,0.20560084241783358,-0.18274481577219834,0.05830956360677316,-0.20996072079066147,0.012192477656478344
76,76,64194.69864360057,1751.8967928106665,4.161304742801522,64302.512136777026,-6232.9251664746225,15.287792405171592,64324.32477412647,43759.02506057209,8.344002044148924,64352.972626301,-3928.7188195137633,17.8357578060484,64579.561423174506,11759.21686577982,30.75080820952118,0.965131919508141,103.0,91.0,86.0,241.0,327.0,12.0,887.0,888.0,12.0,6.0,6.0,0.5,150.55269071073047,1367.2251160487497,15.0,12.0,3.0,0.8,1314.123151554724,9272.041793439752,19.0,9.0,10.0,0.4736842105263157,2453.2203424822856,42588.07911288728,53.0,10.0,43.0,0.1886792452830188,467.5139771249084,8958.81928562243,77.0,37.0,40.0,0.4805194805194805,127.59474458485124,12243.030487940832,0.0,0.0,0.0,0.0,64189.0,64201.0,64292.0,64306.0,64315.0,64334.0,64343.0,64378.0,64546.0,64619.0,0.08593696348355677,-0.21083570177018496,0.056062042951973694,-0.11899909324199744,0.010850615822569042
77,77,65008.69637203841,2082.9476429376377,5.233752158617259,65115.972626301,-7859.810078032208,8.898507181534333,65138.12498134498,41368.944958381755,8.461550336045315,65163.87669549929,-5703.361538665708,6.283540027915738,65392.95881659626,12296.572861223958,32.14885137652676,0.9725667706530564,104.0,91.0,65.0,259.0,324.0,13.0,815.0,814.0,15.0,7.0,8.0,0.4666666666666667,164.89439436757175,1628.60793461166,14.0,10.0,4.0,0.7142857142857143,1330.294315228064,7199.084613447192,19.0,9.0,10.0,0.4736842105263157,2457.237403762107,44896.84164385399,14.0,6.0,8.0,0.4285714285714285,980.4578460671196,14454.127878111682,78.0,40.0,38.0,0.5128205128205128,137.88077820478853,12923.078189604215,0.0,0.0,0.0,0.0,65002.0,65015.0,65106.0,65120.0,65129.0,65148.0,65158.0,65171.0,65356.0,65430.0,0.07916396503131336,-0.16925273028494325,0.05939811629796584,-0.1719087663337043,0.011212943619403264
78,78,65759.87669549929,1907.337615756178,6.970940895487805,65866.94559342046,-6728.937161659037,6.525846254929024,65890.1800136447,42598.81614213654,7.79430691609737,65915.49042497661,-5497.999002760036,5.100710482983672,66140.38901636163,11386.940909211206,33.18482561740065,0.9764413018423084,107.0,92.0,63.0,259.0,322.0,15.0,754.0,752.0,17.0,9.0,8.0,0.5294117647058824,161.0737383544079,1139.72927006067,13.0,8.0,5.0,0.6153846153846154,1196.170004387899,6062.789973024096,18.0,9.0,9.0,0.5,2573.683811915655,45858.976908032,12.0,5.0,7.0,0.4166666666666667,941.9154998557544,14876.849805214546,89.0,46.0,43.0,0.5168539325842697,129.9900573043029,10785.006792792108,0.0,0.0,0.0,0.0,65752.0,65767.0,65859.0,65872.0,65881.0,65899.0,65910.0,65922.0,66105.0,66181.0,0.08444951592408513,-0.17776507279687245,0.06041679194389397,-0.17131969274328823,0.011415713697007984
79,79,66490.96770910831,1546.8141530961589,5.431386158747952,66597.972626301,-6545.849101479203,11.228432036781443,66620.2768496809,44443.86751975868,8.262128462248759,66642.47283881842,-4064.9740768964502,12.739827004320285,66870.42004310232,12057.697160013957,32.37669392607743,0.98042694437296,103.0,90.0,65.0,257.0,322.0,13.0,731.0,730.0,13.0,6.0,7.0,0.4615384615384615,128.02198799188483,958.2541407520042,14.0,10.0,4.0,0.7142857142857143,1267.7929751230226,7637.428296932816,19.0,9.0,10.0,0.4736842105263157,2627.222039161183,45707.36418107761,16.0,3.0,13.0,0.1875,1176.646713660083,18432.24408920045,83.0,42.0,41.0,0.5060240963855421,142.5317411825763,13342.85639452339,0.0,0.0,0.0,0.0,66485.0,66498.0,66588.0,66602.0,66611.0,66630.0,66639.0,66653.0,66829.0,66910.0,0.08276494479678209,-0.193678918573991,0.05911326321889478,-0.28945983206821235,0.011820809503761937
80,80,67434.73317501448,1051.9337171621924,1.9413587343029517,67537.58015617284,-7276.658507040032,17.8357578060484,67564.14282872248,43057.289217755715,8.030300119286032,67586.69864360057,-6263.605553902708,10.191861603456228,67822.14289508808,11681.215066098455,29.185857428857716,0.9432665870814364,98.0,91.0,67.0,265.0,332.0,7.0,942.0,943.0,7.0,4.0,3.0,0.5714285714285714,191.3248807611213,155.83196598365237,17.0,9.0,8.0,0.5294117647058824,902.0220588292996,1233.8926166250812,18.0,9.0,9.0,0.5,2577.3217030713554,41273.18241462412,16.0,6.0,10.0,0.375,1087.9951984389843,18767.269863639307,79.0,38.0,41.0,0.4810126582278481,154.26650047063836,12114.008997210369,0.0,0.0,0.0,0.0,67431.0,67438.0,67529.0,67546.0,67555.0,67573.0,67581.0,67596.0,67786.0,67861.0,0.18187921695034126,-0.12396102661085578,0.05985796481606033,-0.17370110379333825,0.013206374473692797
81,81,68349.45203459915,2076.5553683688504,12.102022383390066,68459.46253894897,-6731.521872357319,8.24205178016615,68483.34031677808,41264.208587877285,8.2233059481244,68503.85831987986,-4482.230993547409,7.64389620259217,68744.2327992967,12451.475756856084,29.49179423914176,0.961783886082314,105.0,90.0,63.0,263.0,326.0,15.0,917.0,919.0,17.0,4.0,13.0,0.2352941176470588,155.56263418594534,1624.6965563737974,13.0,8.0,5.0,0.6153846153846154,1073.7340173836997,4220.393341981538,19.0,9.0,10.0,0.4736842105263157,2513.2265566671563,43010.81147910288,12.0,2.0,10.0,0.1666666666666666,1243.776911265778,19347.294962240114,75.0,42.0,33.0,0.56,73.8409043905079,12302.468956087994,0.0,0.0,0.0,0.0,68346.0,68361.0,68451.0,68464.0,68474.0,68493.0,68502.0,68514.0,68703.0,68777.0,0.07491379067255063,-0.15950836047832487,0.06090572538947225,-0.2774905874008527,0.005930293391114649
82,82,69234.71118328109,2342.2496224029896,4.0697846886523,69341.54796540085,-5955.079755545722,12.291002054904832,69363.96789310759,42293.15628746973,8.34623157397098,69387.49736266844,-5704.721693783865,6.571210396171316,69618.44301955585,12213.074468283025,31.99319267904414,0.96810228490148,101.0,91.0,65.0,261.0,326.0,10.0,883.0,882.0,10.0,5.0,5.0,0.5,190.93330218304405,1626.3291325298012,15.0,12.0,3.0,0.8,1236.2060956635505,8431.842798278092,19.0,9.0,10.0,0.4736842105263157,2468.075222831772,43426.55770912089,14.0,5.0,9.0,0.3571428571428571,1140.2202744335857,17778.062901617308,78.0,39.0,39.0,0.5,111.60387159221912,13100.386936657353,0.0,0.0,0.0,0.0,69230.0,69240.0,69331.0,69345.0,69355.0,69374.0,69383.0,69396.0,69579.0,69657.0,0.08151705964932952,-0.20758850366568515,0.058356373453333235,-0.19987307631080825,0.009138065266207205
83,83,69990.30135639943,2245.3333407122323,5.224446972955823,70094.54796540075,-7788.4901232124,6.405598775284176,70117.58833044278,41969.57916264181,8.048273997391949,70143.57695349345,-4916.582303552369,5.518440493565237,70367.96872266062,11874.24071230681,33.31668209864183,0.9765452386459896,106.0,90.0,66.0,257.0,323.0,16.0,757.0,753.0,16.0,10.0,6.0,0.625,174.61209558794354,1963.5570968099591,13.0,9.0,4.0,0.6923076923076923,1340.038956370579,6531.400243981774,19.0,10.0,9.0,0.5263157894736842,2494.840155499335,44316.543746538664,15.0,7.0,8.0,0.4666666666666667,819.425227437634,12531.77852404898,79.0,37.0,42.0,0.4683544303797468,140.75047274370027,12690.095235561736,0.0,0.0,0.0,0.0,69980.0,69996.0,70086.0,70099.0,70108.0,70127.0,70137.0,70152.0,70332.0,70409.0,0.0777666693946457,-0.17205375306014684,0.05944401171694512,-0.1666656178714991,0.011853429297405297
84,84,70698.98423266043,1126.9332657345783,2.7967031610061,70810.18699847006,-7863.1627698775965,12.739827004320285,70831.21464609873,43749.52383569788,8.2167579339534,70857.12330450071,-4991.208604676541,12.739827004320285,71081.97811534443,10570.813499543763,28.636827026769687,0.9591061506602906,103.0,95.0,68.0,253.0,321.0,8.0,706.0,714.0,9.0,4.0,5.0,0.4444444444444444,184.58769407265515,85.59237357531663,17.0,13.0,4.0,0.7647058823529411,1316.388991519766,8377.24966591776,18.0,9.0,9.0,0.5,2603.7812863151153,44842.982321657975,16.0,7.0,9.0,0.4375,840.7240025269505,14227.451759878417,70.0,32.0,38.0,0.4571428571428571,137.65050755059903,11367.053940353931,0.0,0.0,0.0,0.0,70695.0,70703.0,70798.0,70814.0,70822.0,70840.0,70850.0,70866.0,71051.0,71119.0,0.16379647285709845,-0.1674121508157789,0.05951564858382602,-0.16844096673082937,0.013021751595233427
85,85,71464.45203459915,1998.208639704785,14.78262630662488,71576.47787557321,-6517.787210229395,6.08242378990009,71599.90204905164,42377.86370255151,7.687353546071657,71622.42727549304,-4695.214629141066,4.744759482063934,71850.92174103134,12100.648456294788,33.425240979547034,0.9773735381803644,108.0,94.0,61.0,263.0,324.0,14.0,769.0,768.0,16.0,4.0,12.0,0.25,193.72662975550267,1724.4515969863378,12.0,7.0,5.0,0.5833333333333334,1096.6148875136537,5008.611218518022,18.0,9.0,9.0,0.5,2587.5096222846237,43844.74310545137,12.0,4.0,8.0,0.3333333333333333,1158.9258215080838,17452.220929147952,82.0,40.0,42.0,0.4878048780487805,115.39579247874352,12207.232426139177,0.0,0.0,0.0,0.0,71461.0,71475.0,71569.0,71581.0,71591.0,71609.0,71618.0,71630.0,71813.0,71893.0,0.09695015120349185,-0.168249568778889,0.061058047674282204,-0.24683127674614855,0.009536331287990961
86,86,72490.77108974902,2111.7291344160512,2.8075193198295207,72597.972626301,-6206.548305477653,17.835757806048342,72620.94711918072,43305.45363114467,8.176386517794816,72643.27398270034,-4768.674614309954,7.64389620259217,72880.97561229709,11361.911663924731,28.012906238065177,0.9583603019466548,102.0,93.0,64.0,263.0,327.0,9.0,1024.0,1021.0,9.0,5.0,4.0,0.5555555555555556,209.32174371214052,1468.0925314966073,16.0,12.0,4.0,0.75,1174.6267415724442,5403.8349894704725,19.0,9.0,10.0,0.4736842105263157,2498.9228946087164,41950.36752321127,13.0,4.0,9.0,0.3076923076923077,1136.2433316943604,18709.04501883711,72.0,36.0,36.0,0.5,139.32315149828295,11701.081129628668,0.0,0.0,0.0,0.0,72486.0,72495.0,72588.0,72602.0,72612.0,72631.0,72639.0,72652.0,72849.0,72915.0,0.09912338675481858,-0.1892560379391175,0.05770457725471155,-0.23827235523361018,0.01226229842471392
87,87,73442.62617744268,1374.5383513244458,4.05623899457677,73561.0246586689,-6039.015694432354,7.976812823728859,73584.68032921887,41378.91757224249,8.058312021181555,73607.45203459915,-4562.935477205753,5.419443672573759,73843.38347749642,12738.836908518078,32.424535201313056,0.9684414189387628,116.0,106.0,63.0,263.0,326.0,10.0,951.0,964.0,11.0,6.0,5.0,0.5454545454545454,137.8451365281739,2124.1848293054586,14.0,9.0,5.0,0.6428571428571429,1085.8411610089108,5845.725828748995,20.0,10.0,10.0,0.5,2490.9337862753187,42121.64261279309,13.0,4.0,9.0,0.3076923076923077,1155.3840449083073,16615.475657135932,82.0,45.0,37.0,0.5487804878048781,114.76993487716864,12952.587995553677,0.0,0.0,0.0,0.0,73437.0,73447.0,73553.0,73566.0,73575.0,73595.0,73603.0,73616.0,73800.0,73879.0,0.10028467841246647,-0.17980432837920882,0.060198137902627714,-0.2532106909422792,0.00900945162430217
88,88,74326.45203459915,1972.1408759878784,7.342963860946155,74436.54245698963,-7357.6399963048125,8.161248323942017,74460.51749918291,42507.857403612405,8.590284916582595,74480.87669549929,-5495.060862176944,12.739826989048778,74713.76509774002,11798.131998142717,32.81942962124968,0.969118440463844,105.0,92.0,66.0,263.0,329.0,13.0,887.0,875.0,15.0,5.0,10.0,0.3333333333333333,157.20948233909806,1196.9996338599997,15.0,11.0,4.0,0.7333333333333333,1228.7252218269389,5984.649537655296,19.0,10.0,9.0,0.5263157894736842,2472.1920021599844,40893.764395383274,16.0,3.0,13.0,0.1875,1293.4210167417837,20443.71128620197,89.0,45.0,44.0,0.5056179775280899,114.4165185423508,11798.985061549683,0.0,0.0,0.0,0.0,74322.0,74335.0,74427.0,74441.0,74451.0,74470.0,74478.0,74493.0,74673.0,74756.0,0.07971513812893777,-0.16699991062950006,0.05815847123712927,-0.23537883368035656,0.009697850351255814
89,89,75076.30135639943,1529.597327927365,3.723609060769996,75205.54796540085,-6799.614368951599,15.28779240518434,75227.20799398003,45642.12663673277,8.381240311099777,75256.972626301,-4609.429098591694,17.8357578060484,75480.54744927592,11684.84251263986,30.70536241835837,0.9650720118160064,125.0,113.0,68.0,253.0,321.0,12.0,749.0,768.0,12.0,6.0,6.0,0.5,203.71014936470695,2171.488532800753,16.0,12.0,4.0,0.75,1354.1407688168183,9734.09547788983,18.0,9.0,9.0,0.5,2549.7720363284175,45653.56669232249,17.0,10.0,7.0,0.5882352941176471,601.5762138512648,10794.09983105366,72.0,36.0,36.0,0.5,132.91617652597432,12613.483424297605,0.0,0.0,0.0,0.0,75070.0,75082.0,75195.0,75209.0,75218.0,75236.0,75247.0,75263.0,75447.0,75516.0,0.13317893908767367,-0.19914964222090245,0.05586444419257979,-0.1305099180362841,0.011375093535252592
90,90,75819.96755390163,3450.3607400764586,4.42291289810728,75931.972626301,-8040.86239161523,9.569197087224358,75954.04256787137,43418.263879860315,8.252751747629992,75980.1233043344,-4967.0162027210345,12.739827004320272,76206.34604432978,11499.392009272771,30.824697445013683,0.9727937201629192,107.0,96.0,67.0,255.0,322.0,11.0,743.0,727.0,11.0,5.0,6.0,0.4545454545454545,258.9633076655318,2381.0122818773825,15.0,11.0,4.0,0.7333333333333333,1363.614412842804,6917.129324665628,18.0,9.0,9.0,0.5,2601.35762084269,45397.447583652654,16.0,7.0,9.0,0.4375,837.9136055667752,13923.795948750325,74.0,35.0,39.0,0.4729729729729729,85.71303739575518,11733.69271534395,0.0,0.0,0.0,0.0,75815.0,75826.0,75922.0,75936.0,75945.0,75963.0,75973.0,75989.0,76172.0,76244.0,0.0750539804889483,-0.16958559249375293,0.0599139023163323,-0.168695565178094,0.007453701667587183
91,91,76553.0453822295,2295.4896473266153,5.597937700701803,76663.36377590295,-7402.314249735325,8.322636692422549,76686.1236181844,42635.280017641104,8.19016494776428,76708.4463223134,-4887.093074904629,10.191861603454706,76936.95544694796,12285.343020686274,31.11031213250267,0.9754237425511348,107.0,94.0,64.0,257.0,321.0,13.0,732.0,732.0,13.0,6.0,7.0,0.4615384615384615,180.4066362965815,1699.3470559102525,14.0,9.0,5.0,0.6428571428571429,1233.8638441653834,5631.563461257903,18.0,9.0,9.0,0.5,2614.348229391301,44466.69042519395,13.0,3.0,10.0,0.2307692307692307,1182.693177370301,19009.30699241414,75.0,36.0,39.0,0.48,114.931220271608,12655.868912382824,0.0,0.0,0.0,0.0,76547.0,76560.0,76654.0,76668.0,76677.0,76695.0,76705.0,76718.0,76902.0,76975.0,0.07859178825166456,-0.16668622846017395,0.06131889431263424,-0.24200340759693453,0.009355149471861291
92,92,77404.72824354006,1651.1103827241295,3.376010554598439,77513.972626301,-6140.7606197048135,17.8357578060484,77536.18860002865,45507.24659349725,8.142839779190506,77556.30135639943,-4913.966357562649,10.191861603456228,77790.83730495229,12012.043304917712,29.339179990851378,0.9677429922001496,103.0,93.0,64.0,260.0,324.0,10.0,851.0,849.0,11.0,6.0,5.0,0.5454545454545454,175.7580721289135,871.2284956551559,16.0,12.0,4.0,0.75,1260.8839183993402,7790.080915481325,19.0,9.0,10.0,0.4736842105263157,2626.2304552745177,43217.84692965823,14.0,3.0,11.0,0.2142857142857142,1383.9088804544683,21404.897665157925,76.0,39.0,37.0,0.5131578947368421,121.54887716379356,12544.727801427178,0.0,0.0,0.0,0.0,77400.0,77410.0,77503.0,77518.0,77527.0,77546.0,77554.0,77567.0,77753.0,77827.0,0.10644840827597138,-0.20533025084113293,0.057710159411178096,-0.2816276668896231,0.010118917662745325
93,93,78405.28287183629,1623.7245455594375,5.633295841829283,78513.54796540085,-6368.991912522224,15.28779240518434,78536.2506544364,43158.20075988648,8.335325845532724,78558.1049386679,-5591.705954936117,7.329248474285137,78793.36268584938,12044.753185254416,30.319898763827332,0.9637590899314376,105.0,91.0,63.0,265.0,328.0,14.0,1003.0,1000.0,14.0,6.0,8.0,0.4285714285714285,120.9657758080446,1235.0646560216865,15.0,11.0,4.0,0.7333333333333333,1285.5184942270944,6754.69730562255,19.0,9.0,10.0,0.4736842105263157,2505.587272689151,43059.540199597766,13.0,4.0,9.0,0.3076923076923077,1228.2235851827345,19478.920273674667,79.0,39.0,40.0,0.4936708860759494,101.43745807078012,11749.713529900951,0.0,0.0,0.0,0.0,78399.0,78413.0,78504.0,78517.0,78527.0,78546.0,78554.0,78567.0,78756.0,78832.0,0.07449895127770399,-0.2018401831692715,0.05805587880340871,-0.21965096074097237,0.008421713297949784
94,94,79347.21951677068,2682.7314461420087,4.5685334803317295,79454.54796540085,-6456.797975413609,13.841780780443798,79476.16676881826,43170.68938433548,8.229759242799007,79500.20052520739,-5787.759975401596,6.4904906939385985,79734.48158390408,12277.461544519372,30.336411501065545,0.9661104134390516,103.0,90.0,65.0,261.0,326.0,13.0,940.0,941.0,13.0,6.0,7.0,0.4615384615384615,245.0019686180289,1735.876611400208,15.0,12.0,3.0,0.8,1364.670658192909,8971.047864494045,19.0,9.0,10.0,0.4736842105263157,2521.946804372589,44468.13328929794,14.0,5.0,9.0,0.3571428571428571,1069.1838179452827,17337.58626158354,74.0,38.0,36.0,0.5135135135135135,174.87116931763038,13876.951072324757,0.0,0.0,0.0,0.0,79341.0,79354.0,79444.0,79458.0,79467.0,79486.0,79495.0,79509.0,79697.0,79770.0,0.09132556632545615,-0.21135408965703179,0.05841803409532023,-0.18473188634107016,0.014243267525907457
95,95,80184.87669549929,1442.5045469517345,8.572239396633764,80298.972626301,-6938.581499439482,10.875304495637964,80321.75253915704,43771.896832537066,8.507229967659928,80344.47513665276,-5233.680704780409,12.739827004320285,80577.05795102021,11885.617096513866,31.671746862946797,0.9685421352772527,107.0,95.0,67.0,260.0,327.0,12.0,840.0,845.0,12.0,3.0,9.0,0.25,137.8966701674054,1382.1249447618825,14.0,10.0,4.0,0.7142857142857143,1241.3815189092572,7322.194204819083,19.0,10.0,9.0,0.5263157894736842,2539.539711241921,43896.27241607063,15.0,3.0,12.0,0.2,1171.5181047798826,19042.861803309985,81.0,41.0,40.0,0.5061728395061729,114.5197736226697,12692.855214032876,0.0,0.0,0.0,0.0,80182.0,80194.0,80289.0,80303.0,80312.0,80331.0,80341.0,80356.0,80538.0,80616.0,0.09559531057202232,-0.17890998599779212,0.05801758422664925,-0.22384210479439945,0.009635155894115009
96,96,80915.50394765809,2234.084193440502,13.7217887668924,81028.55978440834,-6005.797719504954,6.8138858744925015,81051.38842191064,42772.821135804064,7.894496381686616,81076.49699216547,-5026.873796231047,5.447485475958984,81301.2523168963,12047.499221839447,33.213170358228176,0.9797910341039192,110.0,90.0,64.0,256.0,320.0,20.0,729.0,730.0,20.0,6.0,14.0,0.3,131.22536913682106,2212.19788522455,13.0,9.0,4.0,0.6923076923076923,1238.6436074251903,8540.77426586916,19.0,9.0,10.0,0.4736842105263157,2560.5493065695614,45909.49544257197,14.0,5.0,9.0,0.3571428571428571,927.4495127049148,14667.554748231094,84.0,44.0,40.0,0.5238095238095238,124.00234891900546,12977.91266877167,0.0,0.0,0.0,0.0,80910.0,80930.0,81020.0,81033.0,81042.0,81061.0,81071.0,81084.0,81264.0,81340.0,0.05873787994298158,-0.2062413130236576,0.05986393318410763,-0.1844982687650285,0.01029278746034004
97,97,0.0,0.0,0.0,0.0,0.0,0.0,0.0,0.0,0.0,0.0,0.0,0.0,0.0,0.0,0.0,0.0,0.0,0.0,0.0,0.0,0.0,0.0,0.0,0.0,0.0,0.0,0.0,0.0,0.0,0.0,0.0,0.0,0.0,0.0,0.0,0.0,0.0,0.0,0.0,0.0,0.0,0.0,0.0,0.0,0.0,0.0,0.0,0.0,0.0,0.0,0.0,0.0,0.0,0.0,0.0,0.0,0.0,0.0,,81378.0,81731.0,81746.0,81755.0,81773.0,81782.0,81800.0,81983.0,82051.0,,,,,
98,98,82498.97547883599,2390.890664006234,4.745405754558598,82608.54796540085,-6387.551027413398,14.85819348491425,82631.0560512205,45871.39145362869,8.138360992729472,82650.30135639943,-5662.80654498242,10.191861603456228,82892.2327992967,11770.51291859071,29.546066430089667,0.9597248651408768,103.0,92.0,66.0,262.0,328.0,11.0,1583.0,1579.0,11.0,5.0,6.0,0.4545454545454545,216.4437648239488,1848.1037504235403,17.0,13.0,4.0,0.7647058823529411,1293.9793261995296,8567.836958914984,18.0,9.0,9.0,0.5,2723.5600255036816,43586.84139365128,16.0,2.0,14.0,0.125,1467.6507207823463,22494.69596646067,79.0,46.0,33.0,0.5822784810126582,97.55586614623104,10900.49497632542,0.0,0.0,0.0,0.0,82494.0,82505.0,82597.0,82612.0,82622.0,82640.0,82648.0,82663.0,82848.0,82925.0,0.09052850809215608,-0.20257831532713708,0.05937382623888625,-0.25917373463565896,0.008288157603747948
99,99,83510.87669549929,1250.576886599892,8.09748065183586,83617.972626301,-6275.199899207664,11.80448920245285,83640.96008625944,42053.45970265425,8.312021403578651,83662.45203459915,-4958.196376496364,7.674607649600911,83898.96821591805,11571.789100461485,31.237026218003617,0.9642021909795288,102.0,90.0,64.0,266.0,330.0,12.0,1014.0,1010.0,13.0,6.0,7.0,0.4615384615384615,118.79285636405513,1004.7088247598776,15.0,11.0,4.0,0.7333333333333333,1183.7535553703356,6502.625308509573,19.0,9.0,10.0,0.4736842105263157,2511.499098934298,42485.27535775921,13.0,3.0,10.0,0.2307692307692307,1257.123565448773,19452.48226365619,79.0,40.0,39.0,0.5063291139240507,119.17270126670998,12546.771731308483,0.0,0.0,0.0,0.0,83506.0,83518.0,83608.0,83622.0,83632.0,83651.0,83659.0,83672.0,83860.0,83938.0,0.09499044611885711,-0.1886399755201108,0.05972158097555485,-0.2535445290969094,0.010298554547797397
100,100,84431.87669549929,1564.2576936931118,6.78424053631279,84539.68479968984,-7174.443525550348,7.948477133382317,84564.07390522552,40928.15644496812,8.068619685354093,84587.87669549929,-5467.742912122081,5.804884287229929,84824.38347749642,11967.086889969289,29.533452673193914,0.9647438615285951,104.0,92.0,64.0,265.0,329.0,12.0,921.0,923.0,12.0,5.0,7.0,0.4166666666666667,151.80574549635568,956.6028899422292,14.0,9.0,5.0,0.6428571428571429,1127.875553211877,3744.2354265330423,19.0,9.0,10.0,0.4736842105263157,2492.5099668879543,43430.99933488254,13.0,6.0,7.0,0.4615384615384615,1034.4705877339877,16003.240450512953,80.0,43.0,37.0,0.5375,122.10200655451256,12227.93420073072,0.0,0.0,0.0,0.0,84427.0,84439.0,84531.0,84545.0,84555.0,84574.0,84582.0,84595.0,84783.0,84860.0,0.09704650717616231,-0.1572073916527705,0.0608996393531523,-0.18919517694230803,0.010203152001583395
101,101,85239.930098941,1981.738582824337,3.7886916028538273,85347.39728720114,-6107.126856232232,20.383723206912453,85370.09441514999,44801.01157428771,8.12826234243022,85396.69902244622,-6132.795050269044,7.45551429346378,85623.85581217578,11529.647042054396,30.7848190260031,0.9585104586600472,101.0,90.0,69.0,256.0,325.0,11.0,806.0,807.0,11.0,6.0,5.0,0.5454545454545454,225.09682885242415,1549.8448186252103,17.0,12.0,5.0,0.7058823529411765,1129.4820147693351,5861.825017520251,18.0,9.0,9.0,0.5,2538.077230844258,44835.11757119883,16.0,8.0,8.0,0.5,860.6985853035992,14849.824254068586,80.0,41.0,39.0,0.5125,149.49532159396884,12230.9429881039,0.0,0.0,0.0,0.0,85234.0,85245.0,85335.0,85352.0,85361.0,85379.0,85389.0,85404.0,85585.0,85660.0,0.11358553080781236,-0.1849449080326071,0.05665223042197816,-0.14034360813440858,0.012966166357797819
102,102,85968.54825702116,2173.6603137706497,5.0422041758486955,86078.12330450071,-7290.251190716883,8.434559271368197,86098.8458689372,42613.413273483435,7.995810426244503,86124.42686696757,-5108.932528783266,5.478540404914787,86349.80355480737,11941.325757520048,31.511880749160152,0.9755582997209086,107.0,94.0,63.0,256.0,319.0,13.0,729.0,729.0,13.0,7.0,6.0,0.5384615384615384,182.8063250527917,2071.934674026857,14.0,10.0,4.0,0.7142857142857143,1436.8944053166465,9290.940264547524,18.0,9.0,9.0,0.5,2575.1650075257567,45829.5912714059,13.0,5.0,8.0,0.3846153846153846,891.4376001218986,13933.96390438325,80.0,41.0,39.0,0.5125,137.2033074083937,12249.674576669346,0.0,0.0,0.0,0.0,85962.0,85975.0,86069.0,86081.0,86090.0,86108.0,86119.0,86132.0,86314.0,86388.0,0.08410068670558624,-0.19709806531033264,0.060430855209811965,-0.17448607807983751,0.011489788503758884
103,103,86663.99953705158,1813.7391520695276,2.8094937819129595,86773.54796539541,-7708.134772870336,15.287792404893878,86796.00622099906,44408.780805621485,8.085153162194334,86822.12330450071,-5832.478358169569,12.739827004277108,87047.38347749642,10796.150513052598,27.526701628402357,0.9555515497157931,105.0,96.0,66.0,252.0,318.0,9.0,694.0,697.0,9.0,4.0,5.0,0.4444444444444444,208.52899366905183,711.6159258282107,14.0,9.0,5.0,0.6428571428571429,1320.7430081226623,5639.388158671436,18.0,9.0,9.0,0.5,2602.4003212310663,43795.33812751103,17.0,7.0,10.0,0.4117647058823529,815.1803547177918,14686.838180469584,80.0,41.0,39.0,0.5125,129.35389732599256,11240.608448591322,0.0,0.0,0.0,0.0,86660.0,86669.0,86765.0,86779.0,86787.0,86805.0,86815.0,86831.0,87010.0,87083.0,0.11497187643058505,-0.1713440471709406,0.058601030562443215,-0.13976568872749717,0.011981483323116241
104,104,87433.87669549929,1443.3919450966332,9.86624029077751,87546.54796540085,-6873.511359985841,12.430003790695164,87568.25746199765,43596.27470632101,8.192924159394861,87590.26832786843,-6129.707290983413,6.875433967121827,87820.427438641,12111.09972408192,31.126387191050465,0.9714702504587142,106.0,95.0,63.0,258.0,321.0,11.0,773.0,772.0,12.0,5.0,7.0,0.4166666666666667,135.00057265797156,1310.1875777504513,16.0,13.0,3.0,0.8125,1357.778204272708,8965.291906054255,19.0,9.0,10.0,0.4736842105263157,2618.0050913214336,44425.11668181474,13.0,4.0,9.0,0.3076923076923077,1294.9579148447635,20299.657159723945,80.0,41.0,39.0,0.5125,132.34137921262044,12798.135971977432,0.0,0.0,0.0,0.0,87430.0,87441.0,87536.0,87550.0,87559.0,87578.0,87586.0,87599.0,87780.0,87857.0,0.09353008593167218,-0.19753778427966473,0.06005111925175226,-0.21125933969956473,0.010927280117219294
105,105,88387.94075633197,1408.9376572365463,3.313454396307705,88511.972626301,-5536.470095173283,17.835757805867047,88535.00488935396,44061.15317700291,8.208246989857916,88556.24000287069,-4788.215541983286,7.64389620259217,88791.74283109469,11878.073903141762,31.574726352132675,0.966122502260006,120.0,109.0,63.0,267.0,330.0,11.0,953.0,966.0,11.0,6.0,5.0,0.5454545454545454,192.1506661068811,2089.0966654260915,15.0,11.0,4.0,0.7333333333333333,1174.824996719083,6087.785646293081,19.0,9.0,10.0,0.4736842105263157,2553.516859761902,42699.991860229726,12.0,3.0,9.0,0.25,1269.5905492068364,20273.16695677522,86.0,45.0,41.0,0.5232558139534884,101.2309555906258,12395.159952326092,0.0,0.0,0.0,0.0,88382.0,88393.0,88502.0,88516.0,88526.0,88545.0,88553.0,88565.0,88751.0,88832.0,0.13637982143493874,-0.2121974789935739,0.057953927113616126,-0.265148997173375,0.008522505956445523
106,106,89349.27270875593,1864.1319215726485,5.489430101521589,89456.31802798253,-7114.908551117811,7.683148223359671,89481.36428585144,40709.64072333356,7.996945630398577,89502.59276959077,-4994.534425420064,5.385985025505227,89739.53415569612,11839.99285760018,31.71102291192847,0.9656985740851168,104.0,93.0,61.0,268.0,329.0,11.0,962.0,946.0,12.0,5.0,7.0,0.4166666666666667,173.70944725670185,1245.1000142917414,14.0,8.0,6.0,0.5714285714285714,992.1080382888956,1529.59932177478,19.0,9.0,10.0,0.4736842105263157,2480.0712883812516,42628.57273919966,11.0,4.0,7.0,0.3636363636363636,1179.1723092831053,18520.82094402249,82.0,43.0,39.0,0.524390243902439,100.2615272109652,12148.579504470288,0.0,0.0,0.0,0.0,89345.0,89356.0,89449.0,89462.0,89472.0,89491.0,89499.0,89510.0,89697.0,89778.0,0.09318516852077419,-0.139440729443111,0.060920981966803456,-0.23609253813160602,0.00846803950110549
107,107,90222.09757221684,1952.3587344917337,8.67422598706063,90332.12330450072,-6074.947079917274,12.3445580514716,90353.30577582264,42678.99965060631,8.139871003687842,90378.42404597843,-5813.111263022625,6.477378009247386,90612.38347749642,11858.329344946853,31.517404965939004,0.9655551066651288,106.0,92.0,64.0,262.0,326.0,14.0,872.0,873.0,15.0,7.0,8.0,0.4666666666666667,143.0083889964699,2139.786176319241,14.0,11.0,3.0,0.7857142857142857,1303.603775608267,8797.50975370285,19.0,9.0,10.0,0.4736842105263157,2526.2427284581877,45060.555998630254,14.0,6.0,8.0,0.4285714285714285,963.9128590175832,15879.684934663164,82.0,46.0,36.0,0.5609756097560976,98.82732355963284,12070.213471530931,0.0,0.0,0.0,0.0,90216.0,90230.0,90322.0,90335.0,90345.0,90363.0,90372.0,90386.0,90569.0,90648.0,0.0732490328083583,-0.2145868529320619,0.05919170433092143,-0.16581703246402005,0.008334000573339261
108,108,90993.92429200967,1613.7244302617642,3.835643059114937,91102.972626301,-6705.646993392932,9.830398959420288,91124.57644177208,42239.932959821475,8.109255432167615,91150.69814644766,-5188.187013239771,5.955619308264373,91377.379592039,11176.27618411968,32.196592854931204,0.9673878582019134,104.0,94.0,66.0,258.0,324.0,10.0,770.0,771.0,10.0,5.0,5.0,0.5,138.77872291531557,1463.3124715462243,15.0,11.0,4.0,0.7333333333333333,1302.4252637687764,8304.294908491058,18.0,9.0,9.0,0.5,2504.16126565869,44864.04943203501,15.0,7.0,8.0,0.4666666666666667,818.0783142862633,13218.31755206322,88.0,46.0,42.0,0.5227272727272727,136.1344875553302,11681.203702557825,0.0,0.0,0.0,0.0,90989.0,90999.0,91093.0,91107.0,91116.0,91134.0,91144.0,91159.0,91336.0,91417.0,0.08599902208384123,-0.19422812818092794,0.059284214964087235,-0.15768096103679446,0.012180666020831076
109,109,91698.45203459916,1480.6644205170269,11.57757943547336,91809.21662408391,-6410.934525321723,8.21663736693205,91832.76871009074,42067.0957625346,8.151385090880693,91858.08066177146,-5284.185596915706,6.065493990200733,92081.77444150716,11850.4799710142,32.421811921836444,0.976588317578728,106.0,93.0,66.0,256.0,322.0,13.0,708.0,709.0,28.0,17.0,11.0,0.6071428571428571,155.8330316291823,1146.8838364451735,13.0,8.0,5.0,0.6153846153846154,1104.739165382135,5470.470990206641,19.0,10.0,9.0,0.5263157894736842,2474.329095381575,44121.68237242594,15.0,6.0,9.0,0.4,906.8935834890972,14354.631897942458,81.0,40.0,41.0,0.4938271604938271,124.70838494020596,12406.94658157636,0.0,0.0,0.0,0.0,91695.0,91708.0,91801.0,91814.0,91823.0,91842.0,91852.0,91867.0,92043.0,92123.0,0.1052453408549978,-0.1723210806503589,0.05881863367390431,-0.17162409738568538,0.010523488098814367
110,110,92410.972626301,2270.5346810227693,14.882290796419026,92534.37964480642,-7152.325966298128,8.220963447711688,92557.53476729356,42290.55682466075,7.981900064691079,92580.8568730657,-5153.487248665321,6.907896376533549,92810.80813839656,12313.477402824024,31.022881429056856,0.9787145830181566,124.0,108.0,64.0,256.0,320.0,16.0,707.0,724.0,16.0,10.0,6.0,0.625,162.12940445169926,3475.811888674304,14.0,9.0,5.0,0.6428571428571429,1164.3211338594372,4975.24048700558,19.0,10.0,9.0,0.5263157894736842,2631.7611843917357,43695.87673729281,13.0,5.0,8.0,0.3846153846153846,1043.6328158236138,16586.132402598232,74.0,39.0,35.0,0.527027027027027,118.7380571076245,12880.85514763007,0.0,0.0,0.0,0.0,92401.0,92417.0,92525.0,92539.0,92548.0,92567.0,92576.0,92589.0,92774.0,92845.0,0.07140582604035256,-0.16278915968675597,0.06223046897450841,-0.2025100219456058,0.009642934584863299
111,111,93202.08357454524,901.214674667048,3.151382527493032,93338.99603666176,-8129.545138666152,15.28779240518434,93360.85110812935,43606.74136841012,8.239807110825351,93384.69864360055,-5594.740415690206,10.191861603456228,93614.89849418556,11433.997822136394,28.99311244095417,0.9548240537569616,131.0,121.0,125.0,198.0,323.0,10.0,793.0,803.0,11.0,5.0,6.0,0.4545454545454545,137.62735903154802,1222.7499372613934,16.0,12.0,4.0,0.75,1307.7920907573452,6250.9146223930275,18.0,9.0,9.0,0.5,2572.8863332705632,42719.29304105729,86.0,6.0,80.0,0.0697674418604651,948.753446449652,16705.55905942879,74.0,38.0,36.0,0.5135135135135135,156.37440103508362,12282.656934642047,0.0,0.0,0.0,0.0,93197.0,93207.0,93328.0,93343.0,93352.0,93370.0,93379.0,93453.0,93577.0,93651.0,0.15271318022245275,-0.1608690361453507,0.05900203162473475,-0.169579529335966,0.01367626647018774
112,112,94252.30779633514,1978.597839744423,5.29117062155013,94361.12330450072,-6349.616197305454,12.73982700430736,94383.3752144264,41946.37005140017,8.25867710135948,94404.75645063967,-6273.544072865569,5.681814014946204,94641.97975577448,11283.217024003912,30.740150372491804,0.9615853787888106,105.0,91.0,62.0,269.0,331.0,14.0,1051.0,1023.0,14.0,6.0,8.0,0.4285714285714285,155.85957136727808,1325.7040446034034,15.0,11.0,4.0,0.7333333333333333,1217.348360878094,6461.112044636118,19.0,9.0,10.0,0.4736842105263157,2509.47862176008,43034.04305291783,12.0,4.0,8.0,0.3333333333333333,1293.6503992437931,19908.177050450176,79.0,37.0,42.0,0.4683544303797468,124.05735797618806,11483.17063944419,0.0,0.0,0.0,0.0,94246.0,94260.0,94351.0,94364.0,94374.0,94393.0,94401.0,94413.0,94607.0,94682.0,0.07877273907638077,-0.1917199911066581,0.05982588287580116,-0.20620727043890708,0.010994857026348823
113,113,95237.44283379732,1723.0843125905978,4.402235730740152,95345.972626301,-6133.170371982502,17.835757806047944,95368.32244188794,42599.73113847289,8.343184984639004,95391.2739827004,-4893.812127877664,7.64389620259217,95626.31263654256,11409.584406307513,30.323822065282833,0.9551388338908624,104.0,93.0,64.0,264.0,328.0,11.0,985.0,985.0,11.0,5.0,6.0,0.4545454545454545,159.71173806682265,1168.0040378377248,15.0,11.0,4.0,0.7333333333333333,1227.5508432576596,6325.016154469851,19.0,9.0,10.0,0.4736842105263157,2420.483385470797,42402.93181171935,14.0,4.0,10.0,0.2857142857142857,1096.5436150659325,17602.2844132457,81.0,43.0,38.0,0.5308641975308642,103.13000946990608,11906.77046245584,0.0,0.0,0.0,0.0,95232.0,95243.0,95336.0,95350.0,95359.0,95378.0,95387.0,95400.0,95589.0,95664.0,0.09268945048121387,-0.2001494771554606,0.05681921741719158,-0.2240673704696299,0.009038892723637958
114,114,96168.45203459916,1878.5092766606456,9.032051618071726,96281.54796540084,-6278.30875109554,12.03250908391976,96303.81526332966,42530.47057007762,8.568310116903804,96327.027373699,-4245.152530646592,17.8357578060484,96563.95881659626,12182.975922222608,30.913196245909496,0.9663050003268588,107.0,94.0,69.0,261.0,330.0,13.0,934.0,935.0,28.0,18.0,10.0,0.6428571428571429,158.3863152126072,998.1334130170276,15.0,12.0,3.0,0.8,1243.7003214786787,8946.103764902447,19.0,9.0,10.0,0.4736842105263157,2392.8165460643454,41537.78417659464,18.0,4.0,14.0,0.2222222222222222,1032.8407011151444,16952.172651258297,81.0,43.0,38.0,0.5308641975308642,102.01700214772384,12740.531225092684,0.0,0.0,0.0,0.0,96164.0,96177.0,96271.0,96285.0,96295.0,96314.0,96323.0,96340.0,96521.0,96601.0,0.08431489648758324,-0.1980948008110716,0.05626122904334417,-0.24329884348297595,0.008373734200823432
115,115,97717.972626301,2301.371666307523,12.26321261654074,97838.18613469329,-6763.481806439941,6.914195723360129,97861.97754702729,43068.66013049115,8.004925849844378,97886.93338662272,-4867.974927366625,5.066490939926582,98110.96534445311,11976.390753200349,34.53399791652269,0.97510699388036,122.0,97.0,65.0,257.0,322.0,25.0,1544.0,1559.0,32.0,15.0,17.0,0.46875,166.8825548841474,2009.1046337160485,13.0,8.0,5.0,0.6153846153846154,1136.6757413153036,5375.229377349447,19.0,10.0,9.0,0.5263157894736842,2547.807581573787,46264.6019405666,14.0,6.0,8.0,0.4285714285714285,895.9699501381443,14028.950552553804,86.0,43.0,43.0,0.5,135.26148401803894,12742.640441518664,0.0,0.0,0.0,0.0,97708.0,97733.0,97830.0,97843.0,97852.0,97871.0,97882.0,97895.0,98071.0,98152.0,0.07251438667093052,-0.16806073762673576,0.05915688052180722,-0.1840539369053052,0.011294010591788195
116,116,0.0,0.0,0.0,0.0,0.0,0.0,0.0,0.0,0.0,0.0,0.0,0.0,0.0,0.0,0.0,0.0,0.0,0.0,0.0,0.0,0.0,0.0,0.0,0.0,0.0,0.0,0.0,0.0,0.0,0.0,0.0,0.0,0.0,0.0,0.0,0.0,0.0,0.0,0.0,0.0,0.0,0.0,0.0,0.0,0.0,0.0,0.0,0.0,0.0,0.0,0.0,0.0,0.0,0.0,0.0,0.0,0.0,0.0,,98162.0,98505.0,98527.0,98535.0,98552.0,98562.0,98650.0,98760.0,98825.0,,,,,
117,117,99117.6820729467,1887.0852637519229,5.40615009244926,99230.39728720114,-6292.7685944907,20.38372320676769,99252.29927166345,44190.78191285861,7.970350102249033,99275.93540505492,-5779.595232956013,6.411088408939413,99507.65746019685,11486.714870659633,28.519370040608724,0.958654404379189,107.0,95.0,65.0,255.0,320.0,12.0,1404.0,1390.0,12.0,6.0,6.0,0.5,171.1194521938393,1131.3721545169117,16.0,11.0,5.0,0.6875,1217.1565019361374,6082.538028517893,19.0,9.0,10.0,0.4736842105263157,2591.5380013070458,43123.94171770844,15.0,6.0,9.0,0.4,1075.8530876225968,17164.203112539173,70.0,38.0,32.0,0.5428571428571428,85.66129669989186,11338.68607936918,0.0,0.0,0.0,0.0,99112.0,99124.0,99219.0,99235.0,99243.0,99262.0,99270.0,99284.0,99471.0,99539.0,0.09067923717109516,-0.19342146205753605,0.0586443119838294,-0.18614678783869515,0.007457423437809483
118,118,99958.87669549928,1960.531574288815,11.395348689108948,100075.54796540084,-6841.366338981002,15.287792405182168,100097.60598724676,44971.76016188454,8.252788900970097,100119.6530898604,-4415.656205036287,15.28779240518434,100354.38347749642,11957.415218268086,29.033194746380406,0.9641383503671802,129.0,99.0,65.0,260.0,325.0,30.0,842.0,845.0,32.0,24.0,8.0,0.75,168.7497203622633,1359.0869523681597,16.0,12.0,4.0,0.75,1344.2072420114962,8157.159940524063,18.0,9.0,9.0,0.5,2543.20902342866,41477.30292608867,14.0,4.0,10.0,0.2857142857142857,1118.641887375716,18455.11581071928,74.0,37.0,37.0,0.5,92.05354256906382,12023.773135042264,0.0,0.0,0.0,0.0,99936.0,99966.0,100065.0,100079.0,100089.0,100107.0,100116.0,100130.0,100318.0,100390.0,0.08607345200419812,-0.19648227786786102,0.056551244920676626,-0.2533353674816998,0.007698448275713292
119,119,101056.69864360055,2179.5854636947574,5.00475344579466,101163.57113749384,-7534.501268605826,5.735982666595526,101188.08717130603,41522.878244705746,7.924289016389875,101211.187836056,-5016.876279080568,5.596209402197729,101452.2327992967,12215.851565911636,32.245974429829964,0.9647732426603792,106.0,94.0,62.0,266.0,328.0,12.0,1094.0,1090.0,12.0,6.0,6.0,0.5,173.4569080315144,1559.6934114230676,13.0,8.0,5.0,0.6153846153846154,1171.8621763938922,3977.722297211103,19.0,9.0,10.0,0.4736842105263157,2499.9734811261774,43058.39221005322,12.0,4.0,8.0,0.3333333333333333,1081.7812003877727,16852.21338805341,78.0,44.0,34.0,0.5641025641025641,146.60621970145402,12750.948819181018,0.0,0.0,0.0,0.0,101051.0,101063.0,101157.0,101169.0,101179.0,101198.0,101207.0,101219.0,101412.0,101485.0,0.07958252196152761,-0.15553281293835816,0.060207133676840656,-0.21562843893491998,0.012001309848145097
120,120,102011.28558709157,1117.5642660280985,4.0828862960544905,102132.83786303356,-6256.093869808726,6.799703546332338,102155.9296526412,42872.2972820787,8.118244116852082,102181.6579020556,-5039.640532669606,5.43934554810828,102415.38347749642,12109.605765472334,33.70045593630749,0.9747011455668534,120.0,109.0,65.0,261.0,326.0,11.0,957.0,969.0,12.0,6.0,6.0,0.5,128.9802455201157,1388.2450978743873,12.0,8.0,4.0,0.6666666666666666,1203.6141365201086,7544.198781713338,19.0,10.0,9.0,0.5263157894736842,2503.143695488638,45875.82905061571,14.0,6.0,8.0,0.4285714285714285,852.0907975246903,13458.40822181078,81.0,43.0,38.0,0.5308641975308642,130.8026104722394,12465.46375550868,0.0,0.0,0.0,0.0,102005.0,102016.0,102125.0,102137.0,102146.0,102165.0,102176.0,102190.0,102375.0,102451.0,0.11541192702816143,-0.1923906772448905,0.05838604073439731,-0.16907769353805865,0.010801558118860648
121,121,102875.4528715871,1210.7350510456238,4.280865097536995,102984.54796540084,-7264.080443501107,15.287792405021689,103006.283378301,45215.457670257594,8.269006200723092,103030.52294358236,-5211.950657828685,12.73982700420096,103262.88810295936,11279.510477312531,27.732789424788955,0.9537857235732736,101.0,89.0,70.0,255.0,325.0,12.0,864.0,850.0,12.0,5.0,7.0,0.4166666666666667,140.54024369628092,552.9499933164046,21.0,17.0,4.0,0.8095238095238095,1344.2270496724702,9432.107713907017,18.0,9.0,9.0,0.5,2605.1738039497886,44773.70564032442,16.0,6.0,10.0,0.375,943.6200177498314,15556.126658258048,70.0,36.0,34.0,0.5142857142857142,120.92506369869638,11936.936350418657,0.0,0.0,0.0,0.0,102870.0,102882.0,102971.0,102988.0,102997.0,103015.0,103025.0,103041.0,103229.0,103296.0,0.11607844637429679,-0.18505123396246229,0.05761688453865753,-0.181049299907023,0.010720772319146612
122,122,103666.45203459916,1417.020208281543,8.875994884581242,103779.972626301,-7180.274062095607,17.8357578060484,103801.51353719216,45263.96577011535,8.131733949905348,103825.69864360055,-5109.143749177191,10.191861603456228,104058.80813839656,12248.4515746096,29.016691220033294,0.9572367550574972,106.0,90.0,65.0,259.0,324.0,16.0,793.0,795.0,18.0,4.0,14.0,0.2222222222222222,154.02116441034542,728.5394146209661,16.0,12.0,4.0,0.75,1360.0414947309982,7058.808989344208,18.0,9.0,9.0,0.5,2617.66508148807,43123.85467337735,14.0,6.0,8.0,0.4285714285714285,972.5737035555236,15886.410696595138,74.0,39.0,35.0,0.527027027027027,143.94321818811616,13054.884921708535,0.0,0.0,0.0,0.0,103663.0,103679.0,103769.0,103784.0,103793.0,103811.0,103820.0,103834.0,104021.0,104093.0,0.10869369646967199,-0.18941359103695016,0.05783110332803257,-0.1903594322849407,0.011751952261990644
123,123,104530.54796540084,1305.9898866454005,8.17152301829281,104648.972626301,-7396.804634131619,10.04760454109595,104671.94567147877,43126.9959161341,8.36567800771116,104691.49395981403,-5957.348016647807,10.191861603456228,104927.92963451993,12248.055477167198,30.74244557422238,0.9668069441241834,117.0,95.0,64.0,263.0,327.0,22.0,859.0,870.0,29.0,14.0,15.0,0.4827586206896552,121.39433428254694,791.3811121663886,14.0,10.0,4.0,0.7142857142857143,1257.8722538858144,6117.701217124086,18.0,9.0,9.0,0.5,2605.6188751323207,42312.24579607499,16.0,2.0,14.0,0.125,1429.4910421131133,22138.731714876492,79.0,40.0,39.0,0.5063291139240507,80.89903567311619,12380.146049132358,0.0,0.0,0.0,0.0,104522.0,104544.0,104639.0,104653.0,104663.0,104681.0,104689.0,104703.0,104889.0,104966.0,0.09295197116293417,-0.17005616831915799,0.0604173515864466,-0.239954261211264,0.0066050513752103765
124,124,105460.82706185112,1848.4270982137984,5.4127296825616,105570.972626301,-5891.697461996229,17.835757805953023,105594.11568206994,45396.33801258345,8.281430010410858,105616.027373699,-4733.286462148606,17.8357578060484,105852.5155969916,12002.582306114658,30.040086422543,0.9575950121781792,104.0,92.0,66.0,263.0,329.0,12.0,933.0,922.0,12.0,5.0,7.0,0.4166666666666667,155.6482833185006,1567.6914958836403,16.0,11.0,5.0,0.6875,1154.308834898216,5817.0384924283735,19.0,9.0,10.0,0.4736842105263157,2515.6370881417383,41918.12201083709,14.0,4.0,10.0,0.2857142857142857,1208.8912382482029,19844.427313953973,78.0,40.0,38.0,0.5128205128205128,121.58132091183909,12666.982312658842,0.0,0.0,0.0,0.0,105456.0,105468.0,105560.0,105575.0,105585.0,105604.0,105612.0,105626.0,105815.0,105889.0,0.08420580041750586,-0.19592126757084236,0.05541497835011332,-0.25540208646054446,0.010129596932645073
125,125,106293.62897307875,1380.3745309965066,3.263521011977419,106417.54796540084,-6978.272087631213,15.28779240518434,106439.53214272694,42772.98212476627,8.492332186491414,106463.69864360032,-5841.301393521677,10.191861603456228,106695.80813839656,11293.382349256985,29.126511036750685,0.9490062822076388,118.0,109.0,66.0,257.0,323.0,9.0,832.0,846.0,9.0,5.0,4.0,0.5555555555555556,141.1977133893678,2211.7469703266506,15.0,12.0,3.0,0.8,1341.4088793546075,7944.456378102959,19.0,10.0,9.0,0.5263157894736842,2468.202446955435,41437.25682537204,15.0,6.0,9.0,0.4,967.2707837394544,16616.35425744993,76.0,38.0,38.0,0.5,121.87495849837524,11541.959564055707,0.0,0.0,0.0,0.0,106289.0,106298.0,106407.0,106421.0,106430.0,106449.0,106458.0,106473.0,106661.0,106730.0,0.10228942234064238,-0.19222650858401125,0.057704708073798405,-0.16559165818976754,0.010791714539479276
126,126,107057.27923081916,1663.6370913090495,11.991787033270866,107173.972626301,-6192.690473619334,12.005028294636526,107196.71840902256,42699.00839091932,8.095772264038716,107221.51480661862,-5431.456450456987,5.170602354741631,107455.65746019685,11471.414044295134,32.62938067115886,0.9698348565631274,121.0,94.0,66.0,257.0,323.0,27.0,768.0,758.0,34.0,18.0,16.0,0.5294117647058824,131.4360452558932,1017.5497694680182,16.0,11.0,5.0,0.6875,1153.3846416427182,6794.972199204062,18.0,9.0,9.0,0.5,2502.586763448584,44644.35709774893,14.0,6.0,8.0,0.4285714285714285,929.9389087637848,14544.705667986822,81.0,48.0,33.0,0.5925925925925926,104.2706272806001,11007.860721398054,0.0,0.0,0.0,0.0,107043.0,107070.0,107164.0,107178.0,107188.0,107206.0,107216.0,107230.0,107410.0,107487.0,0.07900523854783222,-0.18624936068678072,0.05860995038893695,-0.17121354414717666,0.009089605420741925
127,127,107769.17169554788,1747.8920960904477,3.9057979565177914,107879.54796540084,-6229.226635391177,15.28779240518434,107902.72101081198,45086.581687252605,8.255387716359959,107930.39088139668,-4154.557234392894,20.383723206912453,108153.93224678554,10536.365077198448,30.973139243725807,0.9599585661812452,107.0,96.0,67.0,256.0,323.0,11.0,708.0,706.0,11.0,5.0,6.0,0.4545454545454545,144.90305869962248,1347.9805050912478,15.0,10.0,5.0,0.6666666666666666,1206.8116844172368,6565.686820876597,18.0,9.0,9.0,0.5,2529.0929498589253,44057.820947354805,16.0,8.0,8.0,0.5,739.6060250244794,12784.447325738362,80.0,40.0,40.0,0.5,129.57294863179283,11137.327017711848,0.0,0.0,0.0,0.0,107764.0,107775.0,107871.0,107885.0,107894.0,107912.0,107922.0,107938.0,108114.0,108194.0,0.08290160418010394,-0.19373378993160562,0.0560941383270575,-0.17802282729474977,0.012297689732885133
128,128,0.0,0.0,0.0,0.0,0.0,0.0,0.0,0.0,0.0,0.0,0.0,0.0,0.0,0.0,0.0,0.0,0.0,0.0,0.0,0.0,0.0,0.0,0.0,0.0,0.0,0.0,0.0,0.0,0.0,0.0,0.0,0.0,0.0,0.0,0.0,0.0,0.0,0.0,0.0,0.0,0.0,0.0,0.0,0.0,0.0,0.0,0.0,0.0,0.0,0.0,0.0,0.0,0.0,0.0,0.0,0.0,0.0,0.0,,108204.0,108540.0,108566.0,108575.0,108592.0,108602.0,108671.0,108805.0,108865.0,,,,,
129,129,109181.87669549928,2009.6172460460016,10.07289731653204,109294.972626301,-6649.5349904081895,10.811544752539756,109317.24612746164,43206.07717586032,8.262337130344035,109337.98752091582,-5421.203492235999,10.191861603456228,109568.76985880084,11864.117769361605,30.270354434697893,0.9702587642068182,108.0,96.0,63.0,258.0,321.0,12.0,1415.0,1413.0,12.0,5.0,7.0,0.4166666666666667,209.5865564769555,1539.6091970913803,15.0,11.0,4.0,0.7333333333333333,1253.8600492964224,7712.836974690275,18.0,9.0,9.0,0.5,2612.596012823543,44188.71688518037,14.0,3.0,11.0,0.2142857142857142,1313.0031896052722,20550.293371441498,75.0,37.0,38.0,0.4933333333333333,105.71758974394852,11960.989991486616,0.0,0.0,0.0,0.0,109177.0,109189.0,109285.0,109299.0,109308.0,109326.0,109335.0,109348.0,109533.0,109606.0,0.10429177839179328,-0.18856356889693615,0.06046825316238677,-0.24219773182941676,0.008910699623781387
130,130,110220.6219083802,595.3898352092881,1.474190520960316,110324.24525189976,-5918.646565264399,15.28779240518434,110350.20043468564,42675.53436922407,8.065269207242245,110370.30135639945,-5719.523632634902,6.746897128042037,110610.95881659626,11434.557623247754,29.77688641406431,0.965165208114404,99.0,93.0,63.0,268.0,331.0,6.0,1036.0,1033.0,6.0,3.0,3.0,0.5,137.68015451191707,313.46591148884835,14.0,7.0,7.0,0.5,835.2890083156651,715.6516895550117,19.0,9.0,10.0,0.4736842105263157,2587.6848426035917,42201.88245626344,14.0,3.0,11.0,0.2142857142857142,1395.1595818510662,20834.775912660734,77.0,40.0,37.0,0.5194805194805194,83.11963631478648,11217.108090193571,0.0,0.0,0.0,0.0,110218.0,110224.0,110317.0,110331.0,110341.0,110360.0,110368.0,110380.0,110573.0,110648.0,0.2312437102046267,-0.14112838114339252,0.0606362610533526,-0.24392933248679247,0.007269160649100654
131,131,111159.88049620375,977.4777377002296,3.408713244782036,111282.11682663104,-6848.351736293486,7.303641467485413,111306.64040481026,41093.659780815135,7.906165893333239,111328.72109022902,-4907.593288414857,5.241028806998706,111563.79286279697,11984.537729165866,32.84119431487818,0.9685324765151472,118.0,109.0,64.0,268.0,332.0,9.0,940.0,957.0,9.0,5.0,4.0,0.5555555555555556,125.44539359186496,1344.1562478620283,15.0,9.0,6.0,0.6,1040.3760064704104,3143.2276742492973,19.0,10.0,9.0,0.5263157894736842,2513.0769728617797,42181.37918789136,12.0,4.0,8.0,0.3333333333333333,1120.2867230599584,17394.633522504428,82.0,40.0,42.0,0.4878048780487805,109.69680542364208,12697.623792835033,0.0,0.0,0.0,0.0,111155.0,111164.0,111273.0,111288.0,111297.0,111316.0,111325.0,111337.0,111525.0,111605.0,0.12833580628343297,-0.15191626343560008,0.06115485907719097,-0.22827619511677358,0.009153194549730627
132,132,112067.0643183942,1499.2398811474968,6.886203646840899,112168.54796540084,-6569.499079916175,8.313513853887732,112190.69423281106,43069.46904929834,8.1905988741074,112216.03694739848,-3957.839470174218,6.510540937950469,112445.20477015436,12274.251246347643,37.10155460502964,0.9844658668287068,99.0,85.0,67.0,263.0,330.0,14.0,907.0,884.0,14.0,7.0,7.0,0.5,123.7979420271918,1763.8149277956752,14.0,10.0,4.0,0.7142857142857143,1315.5000717014227,9441.210283833969,19.0,10.0,9.0,0.5263157894736842,2547.784108102511,45385.199988108965,16.0,6.0,10.0,0.375,848.4649215322788,12968.184663023352,90.0,45.0,45.0,0.5,111.92608646057651,12249.515743908927,0.0,0.0,0.0,0.0,112060.0,112074.0,112159.0,112172.0,112181.0,112200.0,112210.0,112226.0,112404.0,112489.0,0.08257380528887653,-0.2002435886965994,0.059155224439527136,-0.21437577949439438,0.009118771012112167
133,133,112860.1682668199,1980.636832904023,4.093426632489851,112963.6489198272,-6966.9168272089755,6.837216811227245,112987.502368666,43567.422547320886,7.773645270127983,113012.94613356562,-5055.727078277675,5.79359448960057,113243.38347749642,11909.195028778167,31.52975230451279,0.9712393498931052,101.0,90.0,65.0,258.0,323.0,11.0,794.0,797.0,11.0,5.0,6.0,0.4545454545454545,188.24706404873533,1475.1084471312083,13.0,8.0,5.0,0.6153846153846154,1196.2603529860182,5580.120573817501,19.0,10.0,9.0,0.5263157894736842,2639.734561229476,45092.56220319646,14.0,6.0,8.0,0.4285714285714285,861.043406686909,13556.582565179922,77.0,40.0,37.0,0.5194805194805194,134.07554591618256,12502.005383163298,0.0,0.0,0.0,0.0,112855.0,112866.0,112956.0,112969.0,112978.0,112997.0,113007.0,113021.0,113204.0,113279.0,0.09504370560085273,-0.17170584674042297,0.06058964260193085,-0.17031050002411108,0.011258153518537024
134,134,113566.45203459916,1287.8075392181015,7.9972199475388575,113680.972626301,-6856.3887138518,17.8357578060484,113702.72963755084,45931.68637277708,8.27188001182342,113726.740806238,-5409.125887175109,12.73982700431698,113954.36913450324,10739.299477472749,29.57542147638041,0.9601171234945056,107.0,94.0,67.0,257.0,324.0,13.0,708.0,715.0,14.0,5.0,9.0,0.3571428571428571,123.6601313656228,1071.7474617720648,17.0,13.0,4.0,0.7647058823529411,1344.7689001806018,7763.437418438952,18.0,9.0,9.0,0.5,2585.862823725498,43331.82076730528,15.0,6.0,9.0,0.4,1016.468856930677,16580.902683558015,77.0,38.0,39.0,0.4935064935064935,107.06031740720188,11700.937477357164,0.0,0.0,0.0,0.0,113562.0,113575.0,113669.0,113685.0,113694.0,113712.0,113721.0,113736.0,113916.0,113993.0,0.09602376721656998,-0.19613370190984022,0.056298016204736914,-0.18791739703095045,0.009969022433146273
135,135,114301.39728720114,1543.4297277605974,15.26593319895833,114432.71649890755,-6804.95265381156,7.6770756838567396,114455.7038341929,42145.044604264105,8.070799466438698,114477.01853214669,-5047.803618645011,10.191861603456228,114707.22044851574,11784.88122963792,32.358990306475995,0.971399537881541,134.0,115.0,62.0,264.0,326.0,19.0,729.0,753.0,22.0,12.0,10.0,0.5454545454545454,155.75869011868767,2241.2240029296245,13.0,9.0,4.0,0.6923076923076923,1253.7766440748185,6692.455977190247,19.0,10.0,9.0,0.5263157894736842,2605.292264121912,42689.545927395026,12.0,3.0,9.0,0.25,1239.283278549422,19767.564279500693,87.0,42.0,45.0,0.4827586206896552,101.64095855869527,11740.91904685491,0.0,0.0,0.0,0.0,114290.0,114309.0,114424.0,114437.0,114446.0,114465.0,114474.0,114486.0,114668.0,114750.0,0.10091725416270297,-0.18424472701842512,0.06181728572327378,-0.24550940808630042,0.008624690955991764
136,136,115274.29699373612,1968.2974511865132,4.096890044537786,115382.3459058828,-6134.502600651654,17.8357578060484,115405.55442705838,43542.92118748037,8.194565753566772,115428.69864360055,-5218.628501083616,10.191861603456228,115664.22899660264,11561.982484749287,30.09835548399769,0.9646879440239722,104.0,92.0,66.0,265.0,331.0,12.0,977.0,950.0,12.0,6.0,6.0,0.5,167.60269956825752,1240.027042328404,15.0,10.0,5.0,0.6666666666666666,1109.2980595107665,4508.399080413531,19.0,10.0,9.0,0.5263157894736842,2532.8831031774807,40615.49916557922,16.0,6.0,10.0,0.375,1006.1786553444252,17071.436727621505,81.0,41.0,40.0,0.5061728395061729,105.4231592717943,12273.656285052828,0.0,0.0,0.0,0.0,115268.0,115280.0,115372.0,115387.0,115396.0,115415.0,115423.0,115438.0,115629.0,115703.0,0.08515110328838998,-0.1808293404901203,0.058169801981630596,-0.19280518916713432,0.009118086747739985
137,137,116256.14658354055,1957.3010646086973,8.67766602754694,116366.54796540084,-7222.62935242385,9.164001425992376,116390.6131645599,41220.23071704551,8.272023641608076,116410.88073752592,-4868.071568257893,10.191861603456228,116648.12077940478,12167.452295993837,32.10701765084117,0.9655003517763888,106.0,93.0,64.0,265.0,329.0,13.0,982.0,985.0,14.0,5.0,9.0,0.3571428571428571,141.33807321509357,1905.9416746980933,15.0,10.0,5.0,0.6666666666666666,1179.4877844356674,4688.57803854638,19.0,10.0,9.0,0.5263157894736842,2492.5762274486183,40412.81188531489,14.0,3.0,11.0,0.2142857142857142,1238.908121263385,19749.039527011693,75.0,35.0,40.0,0.4666666666666667,118.3541798890828,12897.122198137771,0.0,0.0,0.0,0.0,116252.0,116265.0,116358.0,116371.0,116381.0,116400.0,116408.0,116422.0,116614.0,116687.0,0.07221069654062126,-0.16330448744955214,0.06046973013224501,-0.2544966942026174,0.009727112711019316
138,138,117160.29648207336,2074.409150934023,8.947969146447878,117272.95454198786,-7469.2427121041055,9.471968392683786,117296.7599893476,41904.770511558,8.470590950054563,117319.45203459916,-4418.964411705009,15.28779240518424,117553.02065149126,11851.078875351175,31.397688912248405,0.9664909598967673,106.0,92.0,67.0,263.0,330.0,14.0,905.0,906.0,26.0,14.0,12.0,0.5384615384615384,157.67266994479007,1738.3950368857354,15.0,10.0,5.0,0.6666666666666666,1136.5574235625338,4690.967528149718,19.0,10.0,9.0,0.5263157894736842,2444.4692228431645,41543.941155067805,16.0,4.0,12.0,0.25,1131.976299929686,17950.988192552195,87.0,46.0,41.0,0.5287356321839081,96.19557239172154,11945.339811848648,0.0,0.0,0.0,0.0,117157.0,117171.0,117263.0,117278.0,117287.0,117306.0,117316.0,117330.0,117511.0,117593.0,0.07600847203831337,-0.15216501422837853,0.05833391265485969,-0.25616325330235584,0.008117030812426438
139,139,117990.69864360055,1330.0939720818596,8.005479408012214,118110.972626301,-5880.659526887148,17.8357578060484,118134.25499950562,44391.296977854545,8.4066585422521,118160.5564319122,-4046.0853858445694,17.8357578060484,118391.80813839656,11725.287201427234,29.442293082487335,0.960034504679569,120.0,108.0,68.0,257.0,325.0,12.0,827.0,837.0,26.0,11.0,15.0,0.4230769230769231,132.30767655390792,1293.711089791707,15.0,10.0,5.0,0.6666666666666666,1133.6956319118574,5756.136534395425,19.0,9.0,10.0,0.4736842105263157,2449.122475971156,43253.05477615053,16.0,8.0,8.0,0.5,757.9939012533513,13094.350825333937,72.0,38.0,34.0,0.5277777777777778,94.53891183436512,12151.099702372823,0.0,0.0,0.0,0.0,117981.0,117993.0,118101.0,118115.0,118125.0,118144.0,118153.0,118169.0,118358.0,118426.0,0.09947242776149139,-0.1927837560954604,0.055171230459721596,-0.18734006551251503,0.008062822701934123
