Unnamed: 0,cycle,p_center,p_height,p_width,q_center,q_height,q_width,r_center,r_height,r_width,s_center,s_height,s_width,t_center,t_height,t_width,r_squared,pr_interval,pr_segment,qrs_duration,st_segment,qt_interval,p_duration,pp_interval,rr_interval,fwhm_p,rise_time_p,decay_time_p,rise_decay_symmetry_p,sharpness_deriv_p,sharpness_diff_p,fwhm_q,rise_time_q,decay_time_q,rise_decay_symmetry_q,sharpness_deriv_q,sharpness_diff_q,fwhm_r,rise_time_r,decay_time_r,rise_decay_symmetry_r,sharpness_deriv_r,sharpness_diff_r,fwhm_s,rise_time_s,decay_time_s,rise_decay_symmetry_s,sharpness_deriv_s,sharpness_diff_s,fwhm_t,rise_time_t,decay_time_t,rise_decay_symmetry_t,sharpness_deriv_t,sharpness_diff_t,Average_Heart_Rate,SDNN,RMSSD,NN50,p_on,p_off,q_on,q_off,r_on,r_off,s_on,s_off,t_on,t_off,sharpness_deriv_p_norm,sharpness_deriv_q_norm,sharpness_deriv_r_norm,sharpness_deriv_s_norm,sharpness_deriv_t_norm
0,0,,,,,,,,,,,,,,,,,,,,,,,,,,,,,,,,,,,,,,,,,,,,,,,,,,,,,,,69.29405962716974,300.8427280500103,441.2483555009346,279.0,,,,,,,,,,,,,,,
1,1,1486.0725924744736,2747.5957896179725,16.7315160255,1569.1780518987628,-2499.115632036674,22.931688607776486,1629.3315555587396,38109.30384443354,11.563276708876892,1646.6027127988482,-29221.010382181703,10.011444857248472,1865.7319564154968,10704.872479878071,34.92350357269238,0.9467147133283,94.0,59.0,99.0,247.0,346.0,35.0,,,38.0,16.0,22.0,0.4210526315789473,228.79300759767924,3156.5588333459064,73.0,46.0,27.0,0.6301369863013698,198.41055682214383,1639.6513640881133,25.0,16.0,9.0,0.64,2165.072025693165,15267.8059075029,21.0,5.0,16.0,0.238095238095238,1800.2686883141043,35558.15537225385,88.0,44.0,44.0,0.5,275.98772158152946,11282.277047678985,,,,,1470.0,1505.0,1564.0,1594.0,1614.0,1638.0,1642.0,1663.0,1824.0,1910.0,0.08327025702331957,-0.07939230753418464,0.056812164151075345,-0.061608707733524046,0.025781504833458133
2,2,2344.7767278058145,3183.1787215464506,21.455826551615015,2432.90406920577,-2314.029877378516,30.575584805258963,2489.5103894867248,38337.153015193704,11.538572716557214,2506.602712798848,-29577.206322056783,10.153564264529953,2726.431964952265,11435.861086864865,36.765450373329585,0.9516302029746032,101.0,60.0,96.0,251.0,347.0,41.0,856.0,859.0,41.0,20.0,21.0,0.4878048780487805,210.724048510061,3678.656332412039,52.0,28.0,24.0,0.5384615384615384,198.71968546727416,1985.0749142740208,25.0,17.0,8.0,0.68,2120.2037222451386,11924.777314091723,22.0,5.0,17.0,0.2272727272727272,1829.0484442002796,35249.23038988504,94.0,45.0,49.0,0.4787234042553192,250.00814393973553,12269.589944558178,,,,,2325.0,2366.0,2426.0,2456.0,2474.0,2498.0,2502.0,2522.0,2683.0,2773.0,0.06619925142239175,-0.08587602407813194,0.05530415159949054,-0.06183979731839287,0.0218617681730056
3,3,3247.4240205507945,2928.250938089995,16.89748421308485,3329.2054268530183,-2475.7952501196464,40.76744641382126,3385.2466090014395,41189.904049960984,11.291413751806708,3402.03100270532,-28184.210365203133,10.50251872590883,3624.162149700957,11079.811400093557,33.96895545711852,0.9543278855760668,89.0,55.0,102.0,247.0,349.0,34.0,899.0,896.0,36.0,18.0,18.0,0.5,202.19567709200243,2089.59857984504,46.0,22.0,24.0,0.4782608695652174,237.27366819055615,2826.2052761162313,24.0,15.0,9.0,0.625,2233.901818112356,15427.322058266443,22.0,4.0,18.0,0.1818181818181818,1829.407669618724,36729.78753054502,82.0,39.0,43.0,0.4756097560975609,210.48937132784465,11616.50051833436,,,,,3229.0,3263.0,3318.0,3352.0,3371.0,3394.0,3398.0,3420.0,3586.0,3667.0,0.06904998286242785,-0.09583735495860958,0.05423420786323663,-0.06490895596909652,0.018997559049251263
4,4,4173.205425597696,3829.132519405712,26.801049706257743,4259.301356399425,-1016.7766572863736,10.191861603456228,4308.5715491523915,37102.47840361145,11.49888696945849,4327.05669370309,-25137.58944210194,8.800822266159148,4538.351316744256,15084.239840423696,44.19309109971303,0.8774473492678938,110.0,57.0,88.0,262.0,350.0,53.0,936.0,924.0,57.0,31.0,26.0,0.543859649122807,255.56235344685055,3968.9796424052256,12.0,6.0,6.0,0.5,241.33284819655623,881.3675286930572,25.0,16.0,9.0,0.64,2173.1627101085733,17855.811339675933,20.0,5.0,15.0,0.25,1827.5632824536888,32324.69273649369,122.0,55.0,67.0,0.4508196721311475,285.365772708674,15805.272694283312,,,,,4143.0,4196.0,4253.0,4265.0,4294.0,4318.0,4323.0,4341.0,4489.0,4603.0,0.06674157975773433,-0.23735089359804726,0.058571901490468724,-0.07270240794818521,0.018918140769940084
5,5,5871.950038148702,3544.0849246496323,21.41843722147983,5965.726017299572,-2016.4459911132033,7.6438962025921375,6015.833786812237,37399.107801237435,10.782569110124244,6035.027823974961,-23032.278068696905,9.847739050297704,6254.411728913605,11199.020716497242,36.59132778743652,0.9615662115086974,104.0,58.0,90.0,251.0,341.0,46.0,1697.0,1709.0,57.0,23.0,34.0,0.4035087719298245,206.8477687239769,3726.3658948089064,14.0,9.0,5.0,0.6428571428571429,293.17213468654273,2819.351810481059,25.0,15.0,10.0,0.6,2168.8557715800016,19459.757575701937,21.0,5.0,16.0,0.238095238095238,1751.5366139101025,33841.36237995385,85.0,38.0,47.0,0.4470588235294118,233.58067207907976,12228.64361499292,,,,,5856.0,5902.0,5960.0,5970.0,6002.0,6025.0,6030.0,6050.0,6216.0,6301.0,0.05836422465085987,-0.14539052172912081,0.05799217946873696,-0.07604704183780285,0.020857240824190354
6,6,6780.486633271252,2608.4094836957806,16.926325710766367,6884.150678199713,-3291.395020256658,5.095930801728113,6925.010132768708,40589.69057252412,10.666392659892072,6942.027373698993,-25440.25354817116,10.5325177924391,7161.434288747681,11010.428085826286,35.67018311094973,0.9445344006397648,96.0,57.0,97.0,246.0,343.0,39.0,905.0,908.0,40.0,14.0,26.0,0.35,198.559118712374,2679.9041546870126,52.0,42.0,10.0,0.8076923076923077,401.13946044857954,504.6884761549461,25.0,16.0,9.0,0.64,2215.20773424438,15997.55845710183,22.0,4.0,18.0,0.1818181818181818,1827.8552355900383,35634.37590350583,91.0,44.0,47.0,0.4835164835164835,193.9941902810113,11918.089849877806,,,,,6766.0,6805.0,6862.0,6887.0,6910.0,6934.0,6938.0,6959.0,7120.0,7205.0,0.0761226793390742,-0.12187521035299473,0.05457562506632886,-0.07184893940341402,0.017619132405100563
7,7,7683.654426507209,3319.2777996524446,20.273960965925017,7776.9040692,-2065.1833716101746,30.57558480816996,7826.586657364813,40221.67312040214,11.920440969912208,7843.02737369901,-30580.22066556115,9.984268527479886,8060.623495156905,11287.424175467995,37.43026370151961,0.9574588707147168,101.0,59.0,92.0,249.0,341.0,42.0,901.0,901.0,44.0,19.0,25.0,0.4318181818181818,251.8446150778388,3500.240280953684,26.0,9.0,17.0,0.3461538461538461,217.28191455412235,2227.8872923096196,25.0,17.0,8.0,0.68,2103.3644644656224,12814.4797290417,21.0,4.0,17.0,0.1904761904761904,1804.0693906988788,35782.298873220454,90.0,42.0,48.0,0.4666666666666667,254.6260983917981,11273.451196017257,,,,,7667.0,7709.0,7768.0,7794.0,7811.0,7834.0,7839.0,7860.0,8019.0,8109.0,0.07587331651005799,-0.1052119233289743,0.05229430556429803,-0.058994649202469183,0.022558388382816392
8,8,8296.785414011008,942.9969522586211,5.095930801728113,8588.219235302446,-4446.263113697267,32.637941559905265,8676.957322272849,38712.357504874766,10.594932916830532,8694.60271279885,-28428.029853735152,11.565158874926478,8915.098508537698,10708.000286920837,34.360771448028075,0.9320814697291496,269.0,263.0,147.0,248.0,395.0,6.0,614.0,850.0,6.0,2.0,4.0,0.3333333333333333,195.9336592444376,459.044156957272,80.0,24.0,56.0,0.3,257.8276049786534,4671.850707591555,24.0,15.0,9.0,0.625,2174.3416863785305,12588.23672723489,23.0,6.0,17.0,0.2608695652173913,1822.932730092572,37177.97276752352,87.0,43.0,44.0,0.4942528735632184,239.25430555222695,12225.018064823087,,,,,8295.0,8301.0,8564.0,8644.0,8663.0,8685.0,8690.0,8711.0,8872.0,8959.0,0.20777761664568128,-0.05798748260857155,0.05616660483941675,-0.06412448345776087,0.022343509445406102
9,9,9431.207950988097,2567.309449129402,15.693164277635558,9533.45203459914,-3143.794164927193,15.28779240518434,9573.397940792947,40295.36039626243,11.421981146640398,9590.027373698991,-28561.31606245396,10.467902437860396,9810.242399884224,10902.864200811056,35.425259397717696,0.9444667609590672,99.0,53.0,95.0,246.0,341.0,46.0,1135.0,896.0,48.0,20.0,28.0,0.4166666666666667,220.4734867958624,2197.759422261808,30.0,21.0,9.0,0.7,306.72424861244775,265.9327983041842,25.0,16.0,9.0,0.64,2143.9897886857084,15535.82435732212,22.0,4.0,18.0,0.1818181818181818,1853.614760295652,35611.66075203571,88.0,42.0,46.0,0.4772727272727273,191.02203408939027,11247.938542946362,,,,,9413.0,9459.0,9512.0,9542.0,9558.0,9582.0,9586.0,9607.0,9770.0,9853.0,0.08587725444263332,-0.09756499074727151,0.0532068647010928,-0.06489948699291105,0.017520353420083897
10,10,10356.541649120049,2749.3119560708574,15.51963656473226,10438.780764698206,-2829.3292531777765,43.31541181467913,10494.671269901582,36582.42553652742,11.99443485394191,10512.016453813032,-29991.117814844176,10.134782295627716,10732.711635331269,10807.376889430358,33.70570458893683,0.9360816609366794,75.0,45.0,117.0,249.0,366.0,30.0,921.0,921.0,39.0,22.0,17.0,0.5641025641025641,203.04265190051143,2032.123434757176,53.0,29.0,24.0,0.5471698113207547,257.4076357353987,2946.1861778025195,24.0,16.0,8.0,0.6666666666666666,1995.0587595519844,10926.119188170414,22.0,5.0,17.0,0.2272727272727272,1757.6456023221626,35402.3367574893,85.0,41.0,44.0,0.4823529411764706,193.72050657167136,11192.71809288088,,,,,10336.0,10366.0,10411.0,10463.0,10479.0,10503.0,10507.0,10528.0,10692.0,10777.0,0.07385216924989739,-0.09097832479068667,0.054535989079234924,-0.058605538252135825,0.01792484046347366
11,11,11246.27167018954,2531.6348255878625,22.093630091736845,11332.205425597702,-2271.473805363283,40.76744641381931,11387.24660900144,40425.587407797655,11.45243721141137,11404.192925184709,-27492.4875518839,10.317381125558343,11626.69590140983,10768.16191319176,34.712675333283244,0.9578783164941216,78.0,39.0,115.0,250.0,365.0,39.0,889.0,893.0,57.0,27.0,30.0,0.4736842105263157,228.2968700104952,1597.8377683135927,72.0,49.0,23.0,0.6805555555555556,223.32074366689545,1992.1806731396996,24.0,15.0,9.0,0.625,2164.3502517636616,16426.038112146034,22.0,4.0,18.0,0.1818181818181818,1836.2072894576324,35134.99991865895,92.0,46.0,46.0,0.5,238.9869597340666,11257.579842279509,,,,,11228.0,11267.0,11306.0,11355.0,11373.0,11396.0,11400.0,11421.0,11582.0,11671.0,0.0901776463584092,-0.09831535065013843,0.0535391169441902,-0.06678941969119152,0.022193849020907708
12,12,12136.223870145295,3900.296903233791,24.855866306529915,12242.301356399426,-1556.199289261509,10.19186160340658,12282.135816962042,39210.996285163594,11.275517685512442,12300.027373699,-26113.57715408931,9.814120456623897,12519.795955033993,12000.731568136212,39.08829161333513,0.9603498341546124,112.0,59.0,88.0,252.0,340.0,53.0,897.0,896.0,55.0,21.0,34.0,0.3818181818181818,213.1331970154471,4238.539109173033,29.0,20.0,9.0,0.6896551724137931,304.1583623148053,1313.2452415412272,24.0,15.0,9.0,0.625,2210.7872943173743,19215.316151763152,22.0,5.0,17.0,0.2272727272727272,1836.330525241512,34828.30371881407,94.0,45.0,49.0,0.4787234042553192,247.57288046692665,12867.87399590102,,,,,12116.0,12169.0,12228.0,12248.0,12267.0,12291.0,12296.0,12316.0,12475.0,12568.0,0.05464537759644282,-0.19544949314245155,0.05638181897341583,-0.07032091062843714,0.020629815695925632
13,13,13049.602712806602,3869.384145418066,18.942204484695356,13123.082121107946,-2588.4722875636385,53.507273418143086,13185.246609001391,38048.267356391705,11.814569613605547,13202.720402116374,-28803.37580959723,10.064188142148533,13422.69094198765,11341.03104887797,35.39063188214129,0.9425149963832182,67.0,40.0,118.0,249.0,367.0,27.0,914.0,902.0,45.0,24.0,21.0,0.5333333333333333,253.7254722308436,2160.9808325055983,52.0,22.0,30.0,0.4230769230769231,216.86691230537235,2710.678931387306,24.0,15.0,9.0,0.625,2139.4700793700667,15081.911637147716,21.0,5.0,16.0,0.238095238095238,1740.70591609824,35235.29405998285,86.0,41.0,45.0,0.4767441860465116,230.4695727713023,12027.352272638062,,,,,13034.0,13061.0,13101.0,13153.0,13171.0,13194.0,13198.0,13219.0,13382.0,13468.0,0.06557257245479045,-0.08378181730873199,0.05623042067408776,-0.0604340938230664,0.020321747800355762
14,14,13904.017151586337,2449.5902004767504,17.926078485180714,13990.32873009875,-2539.5247849416646,28.027619408913953,14046.752915931462,38674.263554485304,11.595220788486746,14063.60271279885,-29223.441339542303,10.209515079499663,14283.042967188594,11046.053177350668,35.922235000432174,0.9435351242820538,79.0,42.0,114.0,248.0,362.0,37.0,853.0,862.0,45.0,19.0,26.0,0.4222222222222222,204.27889972815535,2056.8287228921,55.0,30.0,25.0,0.5454545454545454,205.79376098572695,2426.712330120483,24.0,16.0,8.0,0.6666666666666666,2117.9088459043182,13041.471403677828,22.0,5.0,17.0,0.2272727272727272,1798.502821948665,34993.82018933392,85.0,39.0,46.0,0.4588235294117647,251.4101446323313,11473.18986407526,,,,,13887.0,13924.0,13966.0,14006.0,14032.0,14055.0,14059.0,14080.0,14245.0,14328.0,0.08339309150093663,-0.0810363270348843,0.05476274533115681,-0.061543156435690104,0.022760178734956133
15,15,14837.60271279885,3242.181705507134,20.383723206912453,14904.35610379741,-2088.3180879490787,40.49197379355464,14962.957426528532,39825.70442666554,11.558326995142831,14980.514487151177,-26371.28704484117,9.890764366832787,15200.928739525256,11299.882949727367,37.2770765315848,0.949699220369897,84.0,38.0,110.0,251.0,361.0,46.0,935.0,916.0,52.0,41.0,11.0,0.7884615384615384,222.23469855524036,1859.7862880541045,50.0,23.0,27.0,0.46,170.05567370359702,1465.3132097241516,25.0,16.0,9.0,0.64,2131.026980128063,17518.466708278895,21.0,5.0,16.0,0.238095238095238,1802.1186446034849,34072.545206539624,88.0,41.0,47.0,0.4659090909090909,229.5187439877241,12510.056254697409,,,,,14803.0,14849.0,14887.0,14930.0,14948.0,14972.0,14977.0,14997.0,15160.0,15248.0,0.06854480061304243,-0.08143188276006717,0.053508833322762794,-0.06833639334853854,0.020311603669599224
16,16,15744.89931520868,2894.7600381955053,18.838364607665326,15822.904069198346,-2408.674346720783,30.57558481034015,15883.104938867114,41745.886165518896,11.618533404574949,15899.027373698991,-30558.23013735364,10.34616248888501,16122.260172995682,11931.995263736511,36.05402754560465,0.9522089640226676,81.0,33.0,113.0,249.0,362.0,48.0,902.0,920.0,49.0,23.0,26.0,0.4693877551020408,222.13662410925448,2068.708103426272,53.0,25.0,28.0,0.4716981132075472,189.95101799797845,2073.058644162706,24.0,16.0,8.0,0.6666666666666666,2152.489696600028,14091.582190430108,22.0,4.0,18.0,0.1818181818181818,1825.94736350888,35683.06525268031,93.0,49.0,44.0,0.5268817204301075,257.46529552407895,12616.155069409258,,,,,15722.0,15770.0,15803.0,15840.0,15867.0,15891.0,15895.0,15916.0,16074.0,16165.0,0.07673749159800025,-0.07886122848303738,0.051561720071424254,-0.05975304706135079,0.02157772357709213
17,17,16610.90327340663,2830.9439269955824,16.659912987716368,16697.876695499283,-2476.3363382444127,12.739827004320285,16752.532050469934,37652.721072965185,11.179024802492098,16769.10191218721,-28722.24081109793,10.461773109835567,16990.016078254906,11509.761760895382,35.965781583625514,0.9491528613563962,103.0,63.0,90.0,251.0,341.0,40.0,870.0,869.0,46.0,19.0,27.0,0.4130434782608695,265.5286929893499,2561.9864655051633,31.0,10.0,21.0,0.3225806451612903,251.91412279196885,2365.5244423165373,25.0,17.0,8.0,0.68,2019.932788081297,11248.440250884489,23.0,5.0,18.0,0.217391304347826,1780.7844402898315,34652.19571359198,91.0,44.0,47.0,0.4835164835164835,223.09699786747584,11782.383767359495,,,,,16592.0,16632.0,16695.0,16719.0,16737.0,16760.0,16765.0,16785.0,16946.0,17036.0,0.09379510857042993,-0.10172855718402218,0.05364639607764278,-0.06200019183746129,0.019383285466902694
18,18,17517.409458996153,3388.7596717174197,16.490236889103517,17608.342539776557,-2645.541784628676,56.055238819009254,17655.4230903151,41261.904167221954,11.85667622189769,17672.027373698995,-28973.60439102421,9.965725832692597,17894.57579979085,10877.075079737871,34.49660939669173,0.9499118962696936,75.0,43.0,115.0,248.0,363.0,32.0,908.0,904.0,38.0,20.0,18.0,0.5263157894736842,216.6307012966329,1912.254022032084,77.0,61.0,16.0,0.7922077922077922,234.24531629355909,2001.4851166595784,24.0,15.0,9.0,0.625,2191.3337719600413,15922.950865082625,23.0,4.0,19.0,0.1739130434782608,1841.8788183948957,35320.617058114716,87.0,44.0,43.0,0.5057471264367817,236.4028186989174,11084.729855301464,,,,,17499.0,17531.0,17574.0,17621.0,17640.0,17663.0,17668.0,17689.0,17856.0,17937.0,0.06392625098340028,-0.08854341959540714,0.053107916762135644,-0.06357092454004427,0.02173404311047695
19,19,18450.551776434462,3817.624876849183,22.334974600269955,18529.86263869448,-2148.1557488440903,50.95930801728114,18591.633252161293,42824.233022904424,11.864301410749192,18607.45203459914,-30740.421477421845,10.073897120431608,18830.925794305353,11383.59220270057,35.88135668278103,0.9555747841309656,82.0,38.0,112.0,250.0,362.0,44.0,925.0,936.0,50.0,26.0,24.0,0.52,224.76625992906023,2523.6911445912574,76.0,47.0,29.0,0.618421052631579,242.6903804696496,1549.517685750061,25.0,17.0,8.0,0.68,2150.8730988729058,13709.09107142733,24.0,4.0,20.0,0.1666666666666666,1882.6710371515433,34563.13183068932,86.0,42.0,44.0,0.4883720930232558,274.0638105028936,12802.803984127178,,,,,18430.0,18474.0,18512.0,18558.0,18576.0,18599.0,18604.0,18624.0,18795.0,18874.0,0.05887594176475704,-0.1129761566870744,0.05022560702307306,-0.061244151728183795,0.024075336293044338
20,20,19351.99865134287,2928.9713298196425,16.627314785740857,19436.9887347483,-2588.1257287838603,20.383723206912453,19493.678602012573,35096.79820871929,11.05773260852042,19512.178051898707,-26308.896371143972,10.100604577813089,19732.01818402484,11499.690535711208,36.21809205762859,0.9419129551387156,97.0,58.0,96.0,248.0,344.0,39.0,904.0,902.0,46.0,18.0,28.0,0.391304347826087,289.4164898825114,2905.7257097323095,50.0,24.0,26.0,0.48,197.21157438081147,2513.1793805808493,25.0,16.0,9.0,0.64,2050.528626713819,13643.377659517184,22.0,5.0,17.0,0.2272727272727272,1744.2363368300832,33883.2358505316,90.0,46.0,44.0,0.5111111111111111,218.17393165219667,12151.25748001998,,,,,19335.0,19374.0,19432.0,19462.0,19479.0,19502.0,19507.0,19528.0,19688.0,19776.0,0.09881164999328718,-0.07619860665481643,0.058424948467361765,-0.06629834684906016,0.018972156770191165
21,21,20158.27398270043,2581.1034984938246,7.64389620259217,20280.581044225637,-2574.069293056013,25.59615908023885,20339.246609001435,39694.80099501947,11.204101864090465,20356.656793528015,-27215.47646188127,10.524371153953414,20578.020521089373,12015.37898346968,40.077095828960246,0.9663575895394628,89.0,67.0,131.0,252.0,383.0,22.0,807.0,845.0,25.0,7.0,18.0,0.28,303.3370743483528,2519.796387386618,68.0,41.0,27.0,0.6029411764705882,211.03020051944188,2398.816620045589,24.0,15.0,9.0,0.625,2174.7795457229163,16328.776814994324,22.0,5.0,17.0,0.2272727272727272,1787.7423387606707,35779.86376009951,91.0,43.0,48.0,0.4725274725274725,207.4922838899027,13098.975664813492,,,,,20154.0,20176.0,20243.0,20308.0,20325.0,20348.0,20352.0,20374.0,20535.0,20626.0,0.11752224369358374,-0.08198310787076771,0.05478751602749658,-0.06568844536911309,0.01726889215690683
22,22,21084.054747398062,2777.4870240654727,17.28029654202719,21170.60271279925,-1952.3241071074733,20.383723206892537,21223.23706543419,39072.822165167454,11.363948093847442,21240.84156072144,-26755.377573404185,9.71854850574719,21459.486137768337,12418.757417551078,39.443402113166606,0.9667888423039334,93.0,55.0,97.0,253.0,350.0,38.0,933.0,884.0,40.0,18.0,22.0,0.45,236.0148433602876,2748.3874451622696,34.0,23.0,11.0,0.6764705882352942,216.4570221718928,2159.39097331462,24.0,15.0,9.0,0.625,2185.2046735198373,18123.646420003344,21.0,5.0,16.0,0.238095238095238,1808.947908584076,34683.622362199036,96.0,46.0,50.0,0.4791666666666667,208.24674279119617,13318.90067037147,,,,,21066.0,21104.0,21159.0,21182.0,21208.0,21232.0,21237.0,21256.0,21414.0,21509.0,0.08497423797675467,-0.11087145898771462,0.05592646121855765,-0.06761062906405163,0.016768726192919022
23,23,21958.821948101293,1790.196783861793,17.784435819811424,22046.349834820492,-3066.844335637961,28.29674810056391,22107.961171184605,35859.998084884224,11.424883972334891,22126.178051898707,-28138.95105583221,10.188036272547851,22346.216167736515,10737.896595013664,33.84982668243666,0.9290291721900896,83.0,56.0,113.0,247.0,360.0,27.0,865.0,886.0,40.0,14.0,26.0,0.35,223.67768019720097,2042.8919844971324,56.0,25.0,31.0,0.4464285714285714,260.09430196587834,2277.8880206758067,24.0,15.0,9.0,0.625,2081.797301133304,14005.923026773904,22.0,5.0,17.0,0.2272727272727272,1783.898349357631,35221.199681913364,79.0,35.0,44.0,0.4430379746835443,258.08458450783996,11147.444536659275,,,,,21946.0,21973.0,22029.0,22075.0,22093.0,22117.0,22121.0,22142.0,22311.0,22389.0,0.12494586193741558,-0.08480844591408773,0.058053469389638006,-0.06339605004529449,0.024034929208359687
24,24,22810.2054255977,3629.5332633496255,23.633857528672824,22909.876695499283,-1373.31606779088,12.739827004320285,22950.636076682506,39330.62978313539,11.874862237019023,22967.027373698995,-30075.528350451255,9.800671389245585,23186.35168138872,11979.814681918258,39.97379870706762,0.953226790920544,103.0,54.0,96.0,252.0,348.0,49.0,862.0,842.0,54.0,26.0,28.0,0.4814814814814814,262.6001081709467,3543.662874884173,31.0,24.0,7.0,0.7741935483870968,252.6811877920321,1216.927946645718,25.0,17.0,8.0,0.68,2118.05886712799,13046.024248747635,22.0,4.0,18.0,0.1818181818181818,1824.6788452023632,34386.23037271278,91.0,42.0,49.0,0.4615384615384615,233.17913940044187,12981.962283155062,,,,,22784.0,22833.0,22887.0,22917.0,22935.0,22958.0,22963.0,22983.0,23145.0,23235.0,0.07235093030352839,-0.18399346932457852,0.05385265577507214,-0.0606698849623031,0.019464336101324753
25,25,23683.364546424873,2921.2096146670274,17.33028572423411,23763.38695637975,-2286.2202681229373,40.76744641382466,23819.671269901464,42322.88336461804,11.975611527795769,23835.45203460405,-31333.631968988968,10.232048863533414,24056.38324153536,11416.061204945458,35.99046398633779,0.9529540364967012,80.0,40.0,112.0,249.0,361.0,40.0,862.0,868.0,48.0,25.0,23.0,0.5208333333333334,235.4528702999963,2241.867024721776,45.0,23.0,22.0,0.5111111111111111,226.3741727373464,2861.824627426602,25.0,17.0,8.0,0.68,2124.5664999487603,12235.49360954324,24.0,4.0,20.0,0.1666666666666666,1826.2148296923335,34413.12569128056,91.0,45.0,46.0,0.4945054945054945,239.754174593465,12112.048929424593,,,,,23661.0,23701.0,23741.0,23784.0,23804.0,23827.0,23832.0,23853.0,24014.0,24102.0,0.0806011554658101,-0.0990167814946401,0.05019900184128048,-0.058282896521531444,0.02100147943229343
26,26,24515.65203845219,2530.9800676085974,17.12307781155792,24589.150678199716,-2851.6887756026185,5.095930801728113,24659.579160240264,39559.87753165896,10.980786260551003,24676.027373698995,-28257.00704038622,10.406872465142165,24894.940666590093,11406.2394778188,37.07996558780244,0.956805363284464,77.0,56.0,114.0,249.0,363.0,21.0,833.0,840.0,52.0,23.0,29.0,0.4423076923076923,230.8426398921123,2469.316803943629,47.0,11.0,36.0,0.2340425531914893,291.334529059926,2856.725833822008,24.0,16.0,8.0,0.6666666666666666,2124.419028844184,12515.785193318125,22.0,4.0,18.0,0.1818181818181818,1825.535918098528,35180.889126780196,93.0,47.0,46.0,0.5053763440860215,224.1831990969516,11584.333941099365,,,,,24501.0,24522.0,24578.0,24592.0,24644.0,24668.0,24672.0,24692.0,24850.0,24941.0,0.09120681859427858,-0.10216210532945035,0.0537013550444906,-0.06460471611481669,0.01965443558614656
27,27,26161.50240607507,3802.086782412146,25.796749472309465,26255.673708385828,-1492.9311703074752,8.54401141383413,26306.51765730769,39105.11455455302,11.235787823216649,26324.48417430888,-25189.67006824187,9.494667600202115,26542.76377605739,12011.95864511837,43.35832927761942,0.969694816386784,105.0,58.0,91.0,253.0,344.0,47.0,1658.0,1648.0,54.0,22.0,32.0,0.4074074074074074,202.04671686517497,4419.0036197784875,14.0,9.0,5.0,0.6428571428571429,236.26661913779415,1736.8988930260775,25.0,16.0,9.0,0.64,2185.819203555498,17657.120812458,21.0,4.0,17.0,0.1904761904761904,1821.4956948056044,34131.20786685232,95.0,44.0,51.0,0.4631578947368421,233.97934469806103,13413.298699765684,,,,,26145.0,26192.0,26250.0,26261.0,26292.0,26316.0,26320.0,26341.0,26499.0,26594.0,0.05314100609165767,-0.15825687334877875,0.0558959928504033,-0.07231121685480404,0.019478866986704924
28,28,27057.649064062105,3450.9048674895967,18.253454663540484,27146.178051898707,-2141.9681712576476,22.93168860777651,27200.075158402353,40301.84498895003,11.645784649993317,27216.45203459914,-29408.184586760013,9.914389013340372,27436.809288763827,11364.295117182372,36.989318922594926,0.9589649040461972,101.0,57.0,92.0,250.0,342.0,44.0,890.0,893.0,46.0,19.0,27.0,0.4130434782608695,201.74079458797968,2750.685290628907,51.0,30.0,21.0,0.5882352941176471,252.60802005688947,1695.3630248759853,24.0,16.0,8.0,0.6666666666666666,2164.4081874747867,15059.015210523952,22.0,4.0,18.0,0.1818181818181818,1857.2190245482357,34766.8066484476,91.0,44.0,47.0,0.4835164835164835,222.29614120137236,11375.707832592285,,,,,27040.0,27084.0,27141.0,27166.0,27185.0,27208.0,27213.0,27233.0,27393.0,27483.0,0.05846025965205425,-0.11793266746282777,0.05370494050751832,-0.06315313408990171,0.019560926472709184
29,29,27920.52882616179,3544.1185705785224,26.04086805269892,28010.42346507026,-1343.69308453904,10.191861603456228,28066.85809588106,33673.567836960894,11.575202004386767,28085.816217466807,-25620.61340953124,9.342614771662069,28301.935387073783,12067.33241380971,39.23808930761561,0.9448105350914104,109.0,53.0,92.0,251.0,343.0,56.0,868.0,867.0,57.0,23.0,34.0,0.4035087719298245,233.40971944051313,4467.010213815604,18.0,7.0,11.0,0.3888888888888889,191.9911960421713,1330.7082364080115,24.0,15.0,9.0,0.625,1984.3829089606625,16487.00673917913,20.0,5.0,15.0,0.25,1752.0635447053432,32164.491119035607,97.0,47.0,50.0,0.4845360824742268,192.85416969886847,12478.967818833811,,,,,27899.0,27955.0,28008.0,28019.0,28052.0,28076.0,28081.0,28100.0,28257.0,28351.0,0.06585832691325917,-0.14288322106534823,0.05892998682434112,-0.06838491790573406,0.0159815080156546
30,30,28782.24085378251,2433.638164398362,18.544207273804705,28867.32873009842,-2559.796292606489,28.027619409504627,28924.23010872734,39681.59553470798,10.99094427613434,28941.602712798853,-26365.53879721364,10.59605522471446,29161.09654728,10777.049039812404,35.55519132573236,0.9519154264629274,95.0,56.0,98.0,247.0,345.0,39.0,852.0,858.0,40.0,16.0,24.0,0.4,201.91837631264377,2159.18597858962,67.0,40.0,27.0,0.5970149253731343,200.00165568359188,2135.975429476575,24.0,15.0,9.0,0.625,2187.6515351849916,17084.983848546664,22.0,5.0,17.0,0.2272727272727272,1775.961416678217,36245.16470420899,91.0,44.0,47.0,0.4835164835164835,250.73061438721476,10686.045108586186,,,,,28766.0,28805.0,28861.0,28893.0,28910.0,28933.0,28937.0,28959.0,29119.0,29206.0,0.08296976077483628,-0.07813186395388598,0.055130130371686695,-0.06735919301091256,0.02326523832831879
31,31,29675.081918641416,3148.04123945274,22.72668557849583,29759.45632731596,-2184.0665629919,40.76744641377927,29815.763908076,41887.29446658649,11.321349845253144,29832.452034599148,-27981.11574969272,10.275176568718036,30054.17296847686,10677.689476051792,35.7423523552879,0.9599722887388816,90.0,45.0,103.0,251.0,354.0,45.0,897.0,891.0,45.0,19.0,26.0,0.4222222222222222,208.7574386318827,2755.971861158675,51.0,25.0,26.0,0.4901960784313725,219.8020031960298,2213.9976360494015,24.0,16.0,8.0,0.6666666666666666,2207.1531689614485,15353.6268423272,23.0,4.0,19.0,0.1739130434782608,1875.0512896812695,35049.85949194259,87.0,41.0,46.0,0.4712643678160919,236.79014073757293,11322.16416573401,,,,,29656.0,29701.0,29746.0,29784.0,29801.0,29824.0,29829.0,29849.0,30013.0,30100.0,0.06631343834243207,-0.1006388756279151,0.05269266485382806,-0.06701131243138012,0.02217615910901438
32,32,31341.52059170187,3665.370249539106,20.15367613343732,31415.69864360057,-1710.6245581879682,10.191861603456228,31485.801896269077,35910.41357305457,10.8745963857405,31505.040922180477,-24326.135546804187,9.95767433861937,31721.081688583832,11141.93422270652,40.9593081459329,0.9595965651628106,87.0,38.0,111.0,247.0,358.0,49.0,1659.0,1671.0,49.0,19.0,30.0,0.3877551020408163,226.4626160419357,4219.019805727975,14.0,6.0,8.0,0.4285714285714285,212.0811711141154,2337.315848257319,24.0,15.0,9.0,0.625,2124.6227043413933,17650.975935414397,21.0,5.0,16.0,0.238095238095238,1742.3717884680384,35032.350008351015,97.0,47.0,50.0,0.4845360824742268,210.11731955848185,12227.692224161834,,,,,31323.0,31372.0,31410.0,31423.0,31472.0,31495.0,31500.0,31521.0,31679.0,31768.0,0.06178437664528207,-0.12397879482027833,0.05916452897483773,-0.07162550685930631,0.018858244480592673
33,33,32213.504842921822,3307.599376330807,17.72921913010774,32289.506782175173,-2257.425774102314,50.95930801670997,32349.517169942337,40363.36185669866,11.432223748594184,32367.027373701603,-27183.474576724988,10.177251109067353,32585.898777210172,10814.159521431451,35.858298001231965,0.952733787128877,51.0,12.0,140.0,249.0,389.0,39.0,881.0,863.0,41.0,23.0,18.0,0.5609756097560976,202.7762010397465,2491.354726531864,76.0,47.0,29.0,0.618421052631579,211.1904266820876,2160.121870485969,25.0,16.0,9.0,0.64,2182.532684202672,14156.255000719022,23.0,5.0,18.0,0.217391304347826,1809.6971862739636,36246.910050988736,93.0,45.0,48.0,0.4838709677419355,219.34806768251212,10948.430030700054,,,,,32192.0,32231.0,32243.0,32318.0,32335.0,32358.0,32363.0,32383.0,32544.0,32632.0,0.061306155301277934,-0.09355365261835438,0.05407212342597427,-0.06657343163274135,0.02028341335707219
34,34,33081.28801437057,3083.981209202567,23.91934302087683,33153.69864360057,-1291.1849699448603,10.191861603455484,33227.59604749042,38610.03313077593,11.314097265897328,33245.027373699,-27458.18343557076,10.128073260736471,33461.6672555981,11524.249625843013,38.319901961354425,0.9552511972796928,81.0,37.0,113.0,248.0,361.0,44.0,871.0,878.0,45.0,15.0,30.0,0.3333333333333333,242.53499743922032,3682.638011180567,16.0,6.0,10.0,0.375,241.71128734694227,1400.274462537137,24.0,16.0,8.0,0.6666666666666666,2134.2560377033656,14424.065734254402,22.0,5.0,17.0,0.2272727272727272,1773.5332629913964,34866.373905516964,90.0,42.0,48.0,0.4666666666666667,230.8842367830713,12099.208080395128,,,,,33067.0,33111.0,33148.0,33162.0,33213.0,33236.0,33241.0,33261.0,33420.0,33509.0,0.07864347445292419,-0.18720113149804127,0.055277239221070675,-0.06459033486876153,0.020034643840525262
35,35,33926.28682760956,3525.673993144057,19.520835393310072,34018.574275691084,-1569.467351335155,12.628404027720933,34067.960456876615,34944.523216588364,11.441857549166894,34086.42855205228,-26523.63342907635,9.70451440531404,34301.28109557908,11709.468974249256,40.60393061374012,0.9498750985052768,101.0,56.0,91.0,251.0,342.0,45.0,836.0,840.0,45.0,16.0,29.0,0.3555555555555555,180.3432184675895,3920.358463448714,15.0,8.0,7.0,0.5333333333333333,203.61738229654415,2087.106246927199,24.0,15.0,9.0,0.625,2027.6051444271995,15602.387936468464,22.0,5.0,17.0,0.2272727272727272,1728.4497291695816,33436.42685426195,98.0,45.0,53.0,0.4591836734693877,195.0240737271665,12484.753040246776,,,,,33910.0,33955.0,34011.0,34026.0,34053.0,34077.0,34081.0,34102.0,34256.0,34353.0,0.05115141638684708,-0.12973661549781565,0.058023545831773826,-0.06516640089267635,0.016655244926653073
36,36,34767.9508200303,3128.1300842246724,19.732175599733285,34857.150678199716,-1628.3800415955757,5.095930801728113,34908.261392746645,39052.46395067063,11.216911079053377,34926.07967173712,-25611.62491778017,9.455039153445322,35143.37871170878,12943.671803754582,46.25924664974373,0.9638077474668074,103.0,58.0,89.0,253.0,342.0,45.0,847.0,841.0,48.0,19.0,29.0,0.3958333333333333,206.61276813376116,2975.892612899169,8.0,5.0,3.0,0.625,236.2584508672103,1531.079190334345,25.0,15.0,10.0,0.6,2211.2386104787097,19734.695726359092,20.0,4.0,16.0,0.2,1864.6982342366975,34219.96770746037,107.0,54.0,53.0,0.5046728971962616,237.45951377023763,13891.04216982293,,,,,34750.0,34795.0,34853.0,34860.0,34894.0,34917.0,34922.0,34942.0,35098.0,35195.0,0.06604992841433303,-0.14508802910388865,0.05662225598036144,-0.07280671336640503,0.018345606823973824
37,37,35617.462376302276,3427.433711720867,23.7953953877758,35722.47940829813,-3000.7534510399887,33.1235502112297,35775.28333805457,39868.65712952141,11.42468762700073,35793.027373699,-27278.981054704436,10.140973449724427,36011.11247469718,11129.564738693289,38.20274173322559,0.9601476383578568,64.0,25.0,142.0,250.0,392.0,39.0,848.0,867.0,63.0,34.0,29.0,0.5396825396825397,228.32545219351863,3276.613970921786,77.0,55.0,22.0,0.7142857142857143,215.6485369438106,2910.288276487722,24.0,15.0,9.0,0.625,2202.3043686835354,18272.686513034067,22.0,5.0,17.0,0.2272727272727272,1830.1857611993028,35965.13610853491,91.0,43.0,48.0,0.4725274725274725,196.69876627573785,12259.755729693925,,,,,35603.0,35642.0,35667.0,35741.0,35761.0,35784.0,35789.0,35809.0,35968.0,36059.0,0.06661702935718619,-0.07186479677931289,0.055238990406145445,-0.0670914268215922,0.017673536287712188
38,38,36485.5599848981,3297.255980077313,20.20591743314206,36579.027373699,-2036.1229683437073,17.8357578060484,36629.9074807766,34916.395603859746,11.589617751932144,36648.178051898714,-27332.384247070026,9.606015326945018,36863.12001770675,11386.087265453243,41.41470109508159,0.9420457927907198,102.0,56.0,94.0,248.0,342.0,46.0,872.0,854.0,48.0,19.0,29.0,0.3958333333333333,219.6562221908503,3191.1895935715147,27.0,9.0,18.0,0.3333333333333333,245.48158230390897,2379.9466480501737,24.0,15.0,9.0,0.625,2039.5994604435136,15541.597424278889,21.0,5.0,16.0,0.238095238095238,1724.025334779483,33674.727466455995,100.0,48.0,52.0,0.48,207.95649753410103,11732.566392900784,,,,,36468.0,36514.0,36570.0,36589.0,36615.0,36638.0,36643.0,36664.0,36818.0,36912.0,0.06661788575653743,-0.12056324009919547,0.058413803176695915,-0.06307628779089387,0.01826408780170393
39,39,37346.815583730066,3128.5651561582167,23.327993783044533,37423.54796539123,-1604.3524812664696,15.287792405184108,37491.15247191882,39005.13039809457,10.941676837276589,37509.02737369915,-25385.634735168485,9.815899797673168,37727.649084060584,11307.625946547072,38.529216748172054,0.9602610291238992,81.0,34.0,112.0,249.0,361.0,47.0,858.0,862.0,49.0,16.0,33.0,0.3265306122448979,242.3984953279755,3796.13910383054,18.0,14.0,4.0,0.7777777777777778,235.8573249571873,1741.1279049140128,24.0,15.0,9.0,0.625,2220.771494655365,18661.19667808344,22.0,5.0,17.0,0.2272727272727272,1858.0629655728344,34878.242542859036,91.0,45.0,46.0,0.4945054945054945,240.26756290263123,11996.208080883847,,,,,37332.0,37379.0,37413.0,37427.0,37477.0,37500.0,37505.0,37525.0,37684.0,37774.0,0.07747912644582206,-0.14701091419200005,0.056935369065292285,-0.0731934806813686,0.021248276520501635
40,40,38237.972626301,3234.46253130463,17.8357578060484,38327.47940829813,-2045.5268922994785,27.587238912564555,38387.246609001435,39277.8664845201,11.017557977577502,38405.850886515946,-25595.587265882343,10.050185169189836,38623.873666994514,10998.733145334472,37.002651933818285,0.9535404708750828,81.0,39.0,113.0,248.0,361.0,42.0,886.0,895.0,45.0,13.0,32.0,0.2888888888888888,192.9761675013294,3852.0707979956674,74.0,46.0,28.0,0.6216216216216216,216.81724342965884,1646.185191497203,24.0,14.0,10.0,0.5833333333333334,2252.6123415245893,20212.3826633814,21.0,5.0,16.0,0.238095238095238,1809.1776773255733,35513.16200859469,92.0,46.0,46.0,0.5,248.1223642471257,11763.45611705692,,,,,38228.0,38270.0,38309.0,38346.0,38373.0,38396.0,38401.0,38422.0,38582.0,38670.0,0.05966251444671764,-0.1059957922068303,0.057350679737464154,-0.07068318685295875,0.02255917667684993
41,41,39114.327562890016,2905.369883230024,21.431256881864055,39197.63008649833,-1935.5810874422848,37.463067864464534,39253.72654662263,35091.65304777253,12.098509644027326,39271.60271279934,-28789.584808836906,9.61462760450475,39488.57024017719,11156.643252887903,37.22338288510369,0.9434811361650602,83.0,36.0,111.0,248.0,359.0,47.0,881.0,867.0,49.0,22.0,27.0,0.4489795918367347,196.54728555348257,2321.9112726440635,45.0,24.0,21.0,0.5333333333333333,222.37370027823363,2064.7647991744843,24.0,16.0,8.0,0.6666666666666666,2015.596813034688,13394.721818437143,21.0,5.0,16.0,0.238095238095238,1767.1033971737888,33835.37601926547,94.0,46.0,48.0,0.4893617021276595,243.40722491502737,11435.637947355004,,,,,39093.0,39140.0,39176.0,39219.0,39239.0,39262.0,39267.0,39287.0,39445.0,39535.0,0.06764966026803187,-0.11488730785858352,0.05743806968257454,-0.06137995420591755,0.02181724550993609
42,42,39931.7624066229,3833.717004960973,26.24039507946405,40024.17805189872,-1353.575553138432,22.931688607729676,40078.11259060974,38636.56115362589,11.54132021989438,40095.60271279886,-27589.774480439643,9.945295959951792,40316.605688404044,11632.605621442488,36.59221858961379,0.9668882639593664,105.0,57.0,93.0,249.0,342.0,48.0,817.0,825.0,55.0,24.0,31.0,0.4363636363636363,198.6351159067546,5144.009949416042,29.0,8.0,21.0,0.2758620689655172,244.26497465554735,1052.0395615902098,24.0,15.0,9.0,0.625,2167.2070664401467,17043.69887314886,21.0,5.0,16.0,0.238095238095238,1810.8977326558952,35144.87453149402,88.0,43.0,45.0,0.4886363636363636,258.3564938319157,12641.610827544306,,,,,39914.0,39962.0,40019.0,40038.0,40063.0,40087.0,40091.0,40112.0,40274.0,40361.0,0.051812670483948955,-0.1804590619926526,0.05609213143537654,-0.0656365543669003,0.02220968390398148
43,43,40797.63008649785,3386.18499944155,16.769829556047743,40879.866792826535,-2734.112376671644,12.739827004320285,40935.769659504585,40600.86310863463,10.956350157051451,40953.027373699,-26776.687567131445,10.34283006457005,41171.944024187615,11439.617935981843,36.86415217431925,0.9574384930108556,93.0,55.0,96.0,248.0,344.0,38.0,871.0,857.0,40.0,17.0,23.0,0.425,224.5862384839359,3298.8393992532433,28.0,6.0,22.0,0.2142857142857142,299.1350982002608,2887.9824885952494,25.0,16.0,9.0,0.64,2232.0905257773893,15901.788413869936,22.0,4.0,18.0,0.1818181818181818,1848.7344241013643,36395.67755625761,93.0,47.0,46.0,0.5053763440860215,247.4572247602097,11456.379355851745,,,,,40781.0,40819.0,40874.0,40902.0,40921.0,40944.0,40949.0,40970.0,41127.0,41218.0,0.06632426713867513,-0.10940848691976998,0.05497643042230519,-0.06904268571183157,0.021631598725151902
44,44,42448.977389297856,2913.149118494392,19.53520750123215,42536.027373699064,-1995.85865460658,17.8357578060484,42593.06091736144,37885.271124688545,11.156939907070624,42610.31599868682,-27092.53697974631,10.055681687577668,42829.964412409805,11467.113370059924,38.48549501653672,0.9566348062618436,93.0,61.0,95.0,249.0,344.0,32.0,1646.0,1658.0,46.0,18.0,28.0,0.391304347826087,241.99692871771407,3266.080155546497,38.0,14.0,24.0,0.3684210526315789,225.51442719430463,2035.97497538102,25.0,16.0,9.0,0.64,2140.5795073070144,15063.380990371894,23.0,5.0,18.0,0.217391304347826,1795.0654197597803,34678.72359007762,92.0,45.0,47.0,0.4891304347826087,168.37428135705855,11606.027932472944,,,,,42439.0,42471.0,42532.0,42558.0,42578.0,42601.0,42606.0,42627.0,42788.0,42876.0,0.08307056002776328,-0.11299118135134555,0.05650162830462289,-0.06625682272212918,0.014683231596600031
45,45,43341.99183849122,2793.6619642902187,19.61296004393108,43411.24660899813,-2354.2529110811092,25.479654002906067,43480.8726599721,40404.32217438998,10.82938009875866,43498.02774280503,-26380.27741063994,10.34577745090196,43716.950740444496,10914.118862403657,35.32667035947792,0.946871900700828,79.0,33.0,118.0,248.0,366.0,46.0,885.0,887.0,48.0,24.0,24.0,0.5,220.6382198546037,2947.8806770295623,68.0,29.0,39.0,0.4264705882352941,186.83161974018307,2044.0366092649444,24.0,15.0,9.0,0.625,2213.7019762965397,16182.587352658486,22.0,4.0,18.0,0.1818181818181818,1818.5754168567737,35947.26245909151,90.0,44.0,46.0,0.4888888888888889,181.87527339626817,11315.561632032528,,,,,43318.0,43364.0,43397.0,43448.0,43466.0,43489.0,43494.0,43515.0,43677.0,43763.0,0.07897813789746065,-0.07935919665249011,0.05478874182672666,-0.06893693301812243,0.016664219593831058
46,46,44243.63008649785,2958.4461543216635,16.66837681107396,44329.47940829813,-2184.776674496467,33.12355021119362,44381.38394458765,35937.67631083572,11.739213865702585,44399.178051898714,-28170.93096753462,9.866639596465385,44615.19508201621,11028.332848397393,36.95741323097919,0.9504538740735528,75.0,33.0,117.0,247.0,364.0,42.0,915.0,901.0,43.0,21.0,22.0,0.4883720930232558,181.51291940721583,2949.712458520046,52.0,33.0,19.0,0.6346153846153846,203.0376066174786,2488.146832619728,24.0,15.0,9.0,0.625,2081.0391455916188,15298.792507709812,22.0,5.0,17.0,0.2272727272727272,1742.8056081672237,34037.85461680132,95.0,47.0,48.0,0.4947368421052631,247.66177322956173,11385.43518113633,,,,,44223.0,44265.0,44298.0,44348.0,44366.0,44390.0,44394.0,44415.0,44571.0,44662.0,0.06135413995690403,-0.09293288828446201,0.0579068921315916,-0.06186538919057049,0.022456864209131233
47,47,45111.63008649785,3614.756714533324,17.307515686348346,45194.13716169178,-1795.6647747597797,20.38372320691216,45244.246609001435,38299.01505285269,10.830167338651776,45262.51856176755,-25207.76672566857,10.014825330885996,45484.835512095546,11878.297194856234,38.94546044336649,0.9660813142094904,95.0,50.0,95.0,251.0,346.0,45.0,868.0,862.0,45.0,24.0,21.0,0.5333333333333333,148.3003334153198,3196.111434754337,30.0,11.0,19.0,0.3666666666666666,215.930743057265,2402.5829773639107,24.0,14.0,10.0,0.5833333333333334,2201.926665067446,19137.119224142847,21.0,5.0,16.0,0.238095238095238,1827.2960095231665,34894.82497178143,93.0,48.0,45.0,0.5161290322580645,209.9570609509238,12796.983407911264,,,,,45088.0,45133.0,45183.0,45212.0,45230.0,45253.0,45258.0,45278.0,45441.0,45529.0,0.04102636639945099,-0.12025114380614375,0.05749303636213058,-0.07248940492861937,0.017675686801458663
48,48,45998.205425597705,3278.8795417246915,16.986328683286715,46081.84932180029,-1519.9647330397736,5.095930801728113,46135.37419801511,38422.30976764253,10.89602842403028,46154.21094712011,-24294.12554873795,9.27337222015971,46371.29334683092,11178.16838635052,38.11592680710063,0.9517032760845864,102.0,58.0,90.0,250.0,340.0,44.0,887.0,893.0,46.0,23.0,23.0,0.5,219.55160525810155,3297.0129204766117,25.0,3.0,22.0,0.12,240.19659425669985,1625.3277920599323,24.0,14.0,10.0,0.5833333333333334,2226.7713470081258,21997.72616164839,21.0,5.0,16.0,0.238095238095238,1866.643927893817,35450.017994915615,90.0,42.0,48.0,0.4666666666666667,233.52738593206303,11871.495803708354,,,,,45977.0,46021.0,46079.0,46104.0,46121.0,46145.0,46150.0,46169.0,46334.0,46419.0,0.0669593385375229,-0.15802774172025116,0.057955166164513315,-0.07683519722284414,0.02089138201006343
49,49,46874.59721967619,2992.2629196483595,20.490192380498872,46952.63008671195,-1893.7431661097796,35.75956872070077,47012.353640217574,36658.22340306953,11.707406104465033,47030.178051898714,-28713.59461600996,9.953130337122058,47249.01889194083,11473.157901971404,36.60858454457592,0.9511240782933714,84.0,50.0,102.0,249.0,351.0,34.0,867.0,875.0,40.0,21.0,19.0,0.525,229.21134305539016,3436.3979738429707,47.0,22.0,25.0,0.4680851063829787,237.05098983419697,2486.399528367332,24.0,15.0,9.0,0.625,2084.8801671422616,15804.443181935934,22.0,5.0,17.0,0.2272727272727272,1783.0038371736305,35126.498144662575,91.0,44.0,47.0,0.4835164835164835,209.95299919348835,12099.482526380403,,,,,46860.0,46894.0,46944.0,46976.0,46997.0,47021.0,47025.0,47046.0,47207.0,47295.0,0.07660133792064178,-0.12517589189306952,0.056873464494400096,-0.06209615553252513,0.018299495307862245
50,50,47703.16041665246,3304.1276166818025,19.16838234500773,47805.30135639943,-1799.5734809185356,10.191861603447006,47845.16909310996,38924.1155508679,11.222710479953449,47862.027373699,-28246.62286501815,10.161936164029258,48078.93570259842,11297.946844727288,38.03283759839716,0.9534277275560492,116.0,72.0,75.0,249.0,324.0,44.0,831.0,834.0,44.0,16.0,28.0,0.3636363636363636,206.6615255661307,3909.8692927894817,47.0,39.0,8.0,0.8297872340425532,308.2070452911618,942.078121218792,24.0,15.0,9.0,0.625,2194.838506975997,15440.909469654123,23.0,5.0,18.0,0.217391304347826,1845.421958983086,34985.09747825073,92.0,41.0,51.0,0.4456521739130434,228.33597292654667,12016.59965411482,,,,,47687.0,47731.0,47803.0,47812.0,47830.0,47853.0,47858.0,47878.0,48038.0,48127.0,0.0625464720317529,-0.1712667187859688,0.05638762694832916,-0.0653324812598584,0.02021039539879852
51,51,48579.479408298466,3833.120249371844,22.443877415992382,48648.08212109746,-2158.243585207306,53.50727341814507,48713.09069202114,42743.160570920074,11.7729625280143,48729.027373699,-30840.03030627167,10.193629657802818,48948.76115693255,11130.31796578292,35.78691147698068,0.9508021423688426,82.0,38.0,111.0,248.0,359.0,44.0,882.0,867.0,44.0,25.0,19.0,0.5681818181818182,193.50185867258548,3314.2022244605737,67.0,34.0,33.0,0.5074626865671642,208.23340678586035,2211.3625263838467,24.0,16.0,8.0,0.6666666666666666,2188.902982320186,14626.830646273947,23.0,4.0,19.0,0.1739130434782608,1894.676241559238,35767.97164186939,89.0,42.0,47.0,0.4719101123595505,238.46574885684373,11784.992759020452,,,,,48554.0,48598.0,48636.0,48679.0,48698.0,48721.0,48725.0,48747.0,48911.0,48995.0,0.05048155186477538,-0.0964828104728776,0.05121060195556494,-0.06143561542395547,0.021424881983600166
52,52,49439.706442597315,2880.623041501715,16.60164876266444,49520.53902464855,-2220.108111155123,28.0276194095046,49577.6833614506,36854.04897205753,11.28236023636665,49595.60271279886,-27644.46077213,10.118896849146038,49815.18464300091,11124.654158759884,35.87970289667219,0.9484875539204964,95.0,52.0,97.0,250.0,347.0,43.0,849.0,865.0,49.0,23.0,26.0,0.4693877551020408,212.1138467476719,2063.2353785062005,45.0,20.0,25.0,0.4444444444444444,231.788845881055,2392.266943988287,24.0,16.0,8.0,0.6666666666666666,2141.5504029674926,14414.636761212314,22.0,6.0,16.0,0.2727272727272727,1824.480029695889,35553.17909997402,91.0,44.0,47.0,0.4835164835164835,196.4341061559585,11534.439398358669,,,,,49419.0,49462.0,49514.0,49544.0,49563.0,49586.0,49591.0,49611.0,49773.0,49861.0,0.07363471155083642,-0.10440430568061625,0.058108958518810254,-0.0659980328332269,0.017657547223729236
53,53,50265.64231522035,3170.9469156103983,19.923132881728055,50358.60271279886,-1840.3597296015728,20.383723206912453,50412.59527981036,38339.17143546478,11.11911966518425,50430.60271279886,-26602.261777043543,10.232922777820384,50648.13232542438,11672.108227417786,37.8121952336034,0.9547777051617528,104.0,59.0,93.0,248.0,341.0,45.0,832.0,835.0,45.0,16.0,29.0,0.3555555555555555,197.55760032396608,3822.789675614898,46.0,25.0,21.0,0.5434782608695652,228.4642584015337,1577.1585490195123,24.0,15.0,9.0,0.625,2182.0371292955,16214.427595294535,22.0,5.0,17.0,0.2272727272727272,1755.1370084348905,34856.52210590226,89.0,39.0,50.0,0.4382022471910112,198.29432123308777,12294.53519067628,,,,,50250.0,50295.0,50354.0,50379.0,50398.0,50421.0,50426.0,50447.0,50609.0,50695.0,0.062302399119771076,-0.12414108759649663,0.05691403980830573,-0.06597698433106497,0.01698873222982069
54,54,51151.97368311556,2938.9943944889924,16.84808222878333,51244.37866431404,-2615.2478977366404,48.41134261641708,51290.246609001435,40824.12280472506,11.301757948101006,51307.59229689651,-26591.01443403653,10.105084572140152,51528.99050956099,11190.00459197596,34.17637276001725,0.947731180845678,81.0,43.0,113.0,249.0,362.0,38.0,885.0,877.0,38.0,22.0,16.0,0.5789473684210527,165.1002329563984,2005.0259069391584,54.0,39.0,15.0,0.7222222222222222,200.94361137355256,2041.2889900673283,24.0,15.0,9.0,0.625,2200.7447300729664,18468.407810689383,22.0,5.0,17.0,0.2272727272727272,1798.8739463042534,35921.37255305317,84.0,40.0,44.0,0.4761904761904761,224.5230528416619,12109.052606640742,,,,,51130.0,51168.0,51211.0,51259.0,51276.0,51299.0,51303.0,51324.0,51491.0,51573.0,0.056175756328757695,-0.07683539734319592,0.05390794899867996,-0.06764969237133325,0.0200646077484777
55,55,52003.0821210974,3164.7235362334327,23.496711219118804,52100.45203459914,-1947.6429532681611,15.28779240518434,52151.259971835985,36299.675854956666,11.238631931809856,52169.60271279886,-26908.226697932103,9.646640547394862,52384.81871373968,11673.12587870805,39.92780368625184,0.9506967367208492,101.0,57.0,94.0,251.0,345.0,44.0,861.0,862.0,46.0,15.0,31.0,0.3260869565217391,268.97889200515556,3996.935352290302,20.0,10.0,10.0,0.5,244.74536993099815,1923.203265086171,24.0,15.0,9.0,0.625,2110.4762761689717,17483.09367432446,21.0,6.0,15.0,0.2857142857142857,1818.1630242463752,34856.420987525096,94.0,43.0,51.0,0.4574468085106383,240.96687471110872,12006.378050099624,,,,,51989.0,52033.0,52090.0,52109.0,52136.0,52160.0,52165.0,52184.0,52342.0,52435.0,0.0849928560664376,-0.1256623394551416,0.058140361489778684,-0.0675690391885282,0.02064287468625998
56,56,52831.74244465739,3505.055128602768,28.014114312626457,52928.69864360057,-1074.3959143539948,10.191861603456225,52980.352992310705,36559.27793548424,10.863765031126391,52999.72002215706,-23955.73564038705,9.512745893509145,53218.24535737327,11951.24699028874,37.53492707073629,0.9628065182231582,116.0,56.0,92.0,249.0,341.0,60.0,828.0,829.0,75.0,38.0,37.0,0.5066666666666667,182.5400331864568,3513.831082619364,27.0,8.0,19.0,0.2962962962962963,193.2868168862217,1056.641242475731,24.0,14.0,10.0,0.5833333333333334,2156.8028968011076,21258.478093716534,21.0,6.0,15.0,0.2857142857142857,1810.7362993877837,34156.088336151355,89.0,43.0,46.0,0.4831460674157303,196.31207590591717,12810.33360369619,,,,,52807.0,52867.0,52923.0,52937.0,52967.0,52990.0,52995.0,53015.0,53175.0,53264.0,0.05207907621676221,-0.1799027847219987,0.058994679834957195,-0.07558675411057124,0.016426074707136005
57,57,53698.23074511542,3360.593413635502,17.772312914101114,53785.95119194129,-2631.343227065453,48.41134261641491,53837.246609001435,40900.93042547029,11.437535325958804,53854.42217540595,-27780.609904603665,10.077293968504572,54073.869757546025,11213.583730863023,35.014895671262366,0.9516811623584152,83.0,44.0,112.0,247.0,359.0,39.0,856.0,856.0,44.0,22.0,22.0,0.5,196.4539439256453,2368.651056527652,46.0,27.0,19.0,0.5869565217391305,198.48356010306003,3522.7427747212996,24.0,15.0,9.0,0.625,2244.050350383048,17130.87706973334,23.0,4.0,19.0,0.1739130434782608,1877.8662492126268,36238.00135688302,87.0,42.0,45.0,0.4827586206896552,209.7397620737032,11783.063761897747,,,,,53676.0,53715.0,53759.0,53805.0,53823.0,53846.0,53850.0,53871.0,54034.0,54118.0,0.058458111334902814,-0.07543050943012646,0.05486550860920288,-0.06759629308575534,0.01870407954385169
58,58,54551.18104375979,3220.74965687964,23.59609950946672,54640.75339099889,-1750.2661505669305,25.479654007979732,54697.00899040721,36704.03836450654,11.427575423954623,54715.60271279886,-26282.385230508415,9.678351572502208,54931.41702014836,11310.967498060614,39.52245766870776,0.9582578674668194,98.0,53.0,96.0,248.0,344.0,45.0,852.0,862.0,46.0,15.0,31.0,0.3260869565217391,209.5150661210527,4030.977455726739,37.0,13.0,24.0,0.3513513513513513,231.8774947951179,1737.2967341734018,24.0,15.0,9.0,0.625,2131.926568183614,17678.1129629952,22.0,6.0,16.0,0.2727272727272727,1808.5341059880495,33911.2302320468,97.0,47.0,50.0,0.4845360824742268,185.576990286846,11642.45129360227,,,,,54537.0,54582.0,54635.0,54655.0,54683.0,54706.0,54711.0,54731.0,54890.0,54979.0,0.06505164587179907,-0.13248127704464274,0.05808425075768298,-0.06881164285989977,0.01640681845462514
59,59,55381.13169896248,3254.9529482345197,20.797705805332892,55472.178051898714,-1883.564637658027,22.93168860777651,55526.246100219,39197.239265673925,11.417673959430916,55543.027373699,-28791.665087887483,10.49195843413254,55761.966996323885,11573.290102608418,39.027557184552734,0.959521233633892,103.0,63.0,93.0,250.0,343.0,40.0,839.0,828.0,49.0,17.0,32.0,0.3469387755102041,213.78848618384964,3196.2433688231804,47.0,25.0,22.0,0.5319148936170213,194.56842956517528,1811.1039507483497,25.0,16.0,9.0,0.64,2135.165961070152,14865.295478944045,23.0,5.0,18.0,0.217391304347826,1747.4180993951657,35357.54138468463,94.0,46.0,48.0,0.4893617021276595,200.83241886449716,12508.9199572173,,,,,55364.0,55404.0,55467.0,55494.0,55511.0,55534.0,55539.0,55560.0,55716.0,55810.0,0.06568097591082173,-0.10329798387333092,0.05447235573399105,-0.060691804175309616,0.017353096404213786
60,60,56249.821948101286,2746.838664677338,18.00630855827665,56338.7533909987,-3035.7889543536016,25.479654008639923,56395.12847307056,41699.764679137625,10.913818739474316,56412.027373699,-27513.376987172986,10.793088550202777,56632.65230674728,11040.718070758718,34.99316873499019,0.9553675891599284,96.0,59.0,97.0,247.0,344.0,37.0,859.0,869.0,38.0,13.0,25.0,0.3421052631578947,202.1138858118227,3710.554114362098,77.0,52.0,25.0,0.6753246753246753,235.6088293869855,2724.202226555975,24.0,15.0,9.0,0.625,2223.3649708058215,16668.716748087045,23.0,4.0,19.0,0.1739130434782608,1869.9157022070249,36648.730953831095,85.0,41.0,44.0,0.4823529411764706,220.7098584756758,12206.359708932843,,,,,56237.0,56274.0,56333.0,56364.0,56380.0,56403.0,56408.0,56430.0,56592.0,56677.0,0.07358054494094736,-0.07761041130645814,0.05331840570117582,-0.06796387455741251,0.019990534769674505
61,61,57105.63008650206,3016.4473511906554,17.801018763152946,57187.205425597705,-2205.6401563130084,40.430698502579595,57245.30769966608,37499.26090264225,11.953116671483528,57262.60271279886,-29388.206540634663,9.58165752912764,57478.342953643114,11328.63337459001,39.55357016371649,0.958158785940314,93.0,51.0,100.0,249.0,349.0,42.0,866.0,849.0,43.0,22.0,21.0,0.5116279069767442,201.1689333038717,2342.4459234240544,39.0,14.0,25.0,0.358974358974359,211.93176394492755,2756.967890463814,24.0,15.0,9.0,0.625,2098.612880746727,15998.79388785343,21.0,5.0,16.0,0.238095238095238,1771.8469377691918,34250.1220660244,93.0,44.0,49.0,0.4731182795698925,253.88729910017767,12022.182477915398,,,,,57085.0,57127.0,57178.0,57212.0,57230.0,57254.0,57258.0,57278.0,57439.0,57527.0,0.06669068274122739,-0.09608628285912099,0.05596411316466389,-0.06029108769598729,0.02241111444824791
62,62,57885.42167657079,4324.611341851659,43.46486792308425,57981.42041429114,80.83070894402334,-0.2058341844627754,58034.22106230091,36441.06899326948,12.219211901435465,58052.60271279886,-26888.610469646213,8.831990131940529,58264.998845674905,12303.744328359477,46.465707922006175,0.9497063673281548,119.0,55.0,88.0,250.0,338.0,64.0,779.0,790.0,81.0,40.0,41.0,0.4938271604938271,189.2400044126801,5634.067486375263,2.0,1.0,1.0,0.5,215.9585926463398,45.34914836153507,25.0,15.0,10.0,0.6,2094.342582673223,20174.015782415572,20.0,5.0,15.0,0.25,1776.9042841844089,32313.413002159545,103.0,49.0,54.0,0.4757281553398058,212.51275583479455,13432.187126843732,,,,,57861.0,57925.0,57980.0,58354.0,58019.0,58043.0,58048.0,58068.0,58221.0,58318.0,0.04375884662311727,2.671739435019614,0.05747204021539653,-0.06608390144185046,0.0172722018731293
63,63,58688.60977746407,3222.4020485160413,18.826153063337735,58781.32873009842,-1927.5236514474475,28.0276194095046,58830.20083991566,40722.87348679911,11.417021937558347,58847.027373699,-28188.521408770222,10.26047661590435,59064.63665679793,11396.26498900987,38.50813183565539,0.9660098880341282,98.0,58.0,94.0,247.0,341.0,40.0,800.0,796.0,43.0,17.0,26.0,0.3953488372093023,196.94978390517923,3271.3536070065593,31.0,13.0,18.0,0.4193548387096774,265.0374790017385,2252.82498522528,24.0,15.0,9.0,0.625,2193.6555708088144,16710.986361096777,22.0,4.0,18.0,0.1818181818181818,1808.4030007470744,34795.74249150403,93.0,45.0,48.0,0.4838709677419355,288.1503978211586,11196.16448141503,,,,,58672.0,58712.0,58770.0,58797.0,58815.0,58839.0,58843.0,58864.0,59029.0,59111.0,0.06111893579383653,-0.13750154443122514,0.053867897399723495,-0.0641538793228236,0.025284634755250078
64,64,59453.08212109698,3843.654453080993,34.4180968751474,59491.609703317976,-2716.3080707940185,5.095930801728113,59591.753565146166,39197.320565585454,11.408145066432912,59609.60271279886,-27419.56657927381,9.425046123248624,59826.97320280972,12443.11224421105,41.20087817725365,0.9664646122124284,55.0,6.0,136.0,249.0,385.0,49.0,771.0,762.0,56.0,25.0,31.0,0.4464285714285714,220.56929301312647,4169.62227697734,5.0,4.0,1.0,0.8,230.45467784526812,1825.969977156167,24.0,15.0,9.0,0.625,2277.3235873597982,17916.08273992959,21.0,5.0,16.0,0.238095238095238,1875.5339889448985,35300.824578214495,89.0,42.0,47.0,0.4719101123595505,223.98530394758103,13607.392884523895,,,,,59434.0,59483.0,59489.0,59493.0,59577.0,59601.0,59605.0,59625.0,59785.0,59874.0,0.05738530757787624,-0.08484114166693275,0.05809896070700423,-0.06840129961655181,0.018000746079565942
65,65,60174.50678199713,4014.2969433849657,44.254641725129666,60243.575339099865,-1842.0782013789265,2.5479654008640567,60316.029318611225,39296.49522655257,11.52151102475708,60334.027373699,-27324.037644039232,8.910324949337,60546.26150865144,13230.62460015824,45.932019158468506,0.9653197459728918,94.0,39.0,107.0,249.0,356.0,55.0,721.0,723.0,60.0,31.0,29.0,0.5166666666666667,177.69973826947373,5424.189213523494,3.0,2.0,1.0,0.6666666666666666,210.01426715377943,1178.6687973629546,24.0,15.0,9.0,0.625,2260.1809309090154,20224.127307653736,21.0,5.0,16.0,0.238095238095238,1933.0338471053265,35216.977257636296,97.0,45.0,52.0,0.4639175257731959,228.06935422708105,15447.079506197932,,,,,60148.0,60203.0,60242.0,60245.0,60301.0,60325.0,60330.0,60349.0,60504.0,60598.0,0.04426671488821961,-0.11400941990224346,0.05751609444757341,-0.07074480983695394,0.01723798846385176
66,66,60901.1270889794,3629.4388583624486,16.27983742288474,60980.205425597705,-1839.0459140652133,40.767446413824906,61039.215362566654,41735.4590944497,11.788710870200566,61055.027373699,-31935.08479042733,10.023041070003252,61267.131280975715,11484.22201647791,37.482740789713496,0.9397894584852612,82.0,54.0,100.0,244.0,344.0,28.0,718.0,723.0,28.0,12.0,16.0,0.4285714285714285,241.95082755195384,4322.6271594525915,51.0,26.0,25.0,0.5098039215686274,262.67512795659206,1654.1598146315469,24.0,16.0,8.0,0.6666666666666666,2189.822460134184,14938.555604353423,22.0,4.0,18.0,0.1818181818181818,1898.7546512429055,35241.55123667001,92.0,43.0,49.0,0.4673913043478261,248.58664076193224,11843.947203650856,,,,,60889.0,60917.0,60971.0,61004.0,61024.0,61047.0,61051.0,61071.0,61224.0,61315.0,0.06666342566826394,-0.1428322838204449,0.05246911158155687,-0.05945669672410154,0.021645927813416756
67,67,61657.65746019684,3338.17552638553,56.05523881898848,61747.726017299574,-876.3910309518411,7.64389620259217,61801.08252096155,35703.88580651082,11.81783727821509,61819.60271279886,-26640.0173015071,8.82754054918441,62029.48425750963,12212.415422378312,49.707021226899144,0.9571346709129092,106.0,54.0,91.0,250.0,341.0,52.0,766.0,763.0,58.0,27.0,31.0,0.4655172413793103,235.25304753435327,5049.002542547044,6.0,5.0,1.0,0.8333333333333334,208.90117963842584,77.06060797768009,24.0,15.0,9.0,0.625,2125.952885156947,18521.915242074985,20.0,5.0,15.0,0.25,1814.051821037048,32751.337001101816,104.0,48.0,56.0,0.4615384615384615,198.44316712213865,13617.413975220206,,,,,61637.0,61689.0,61743.0,61752.0,61786.0,61810.0,61815.0,61834.0,61985.0,62084.0,0.07047354031412416,-0.23836526420351425,0.05954401984921391,-0.06809499410251592,0.016249297150382456
68,68,62469.88281146277,3849.009899785978,29.423693661788175,62601.06880281324,1369.0879459284308,194.62881324158215,62615.99506119773,38908.44618226807,11.190801111462871,62634.46337400462,-23564.154575388544,8.441333302777668,62855.266388923934,11820.151534842818,42.72688311339845,0.9809595376282026,-72.0,-152.0,291.0,254.0,545.0,80.0,814.0,815.0,84.0,46.0,38.0,0.5476190476190477,190.43868260200503,5547.9649446302465,32.0,5.0,27.0,0.15625,1303.2703506549074,33105.7929336955,25.0,15.0,10.0,0.6,2232.6220358510495,23999.992937778818,19.0,4.0,15.0,0.2105263157894736,1905.5311058991597,32093.06581382985,97.0,50.0,47.0,0.5154639175257731,202.6406341441738,13094.446431407128,,,,,62428.0,62508.0,62356.0,62654.0,62602.0,62626.0,62631.0,62647.0,62808.0,62901.0,0.04947731691014727,0.9519259551811406,0.05738142369891227,-0.08086566822513469,0.017143657891934838
69,69,63279.84932180029,1771.2939977938508,5.095930801728009,63378.06855710199,-4413.679389028531,48.41134261641708,63421.47185732434,40044.8327628626,12.176997674094167,63438.027373699,-31256.774544420543,10.08485269545672,63656.7898687097,9402.5865733304,28.90774694691093,0.8782168164908283,33.0,28.0,146.0,239.0,385.0,5.0,798.0,805.0,6.0,5.0,1.0,0.8333333333333334,288.41926627520553,1238.917966492858,85.0,72.0,13.0,0.8470588235294118,357.0379332041365,1088.8520320572306,23.0,15.0,8.0,0.6521739130434783,2164.7444858922004,13258.411960454265,23.0,5.0,18.0,0.217391304347826,1810.1637022714071,35908.10498736728,73.0,36.0,37.0,0.4931506849315068,215.5219078424527,9727.357515498765,,,,,63276.0,63281.0,63309.0,63389.0,63407.0,63429.0,63434.0,63455.0,63623.0,63694.0,0.16282969774324993,-0.08089349083480257,0.054058022884285205,-0.05791268384710951,0.022921555272222796
70,70,64097.684109158334,3146.8919939006832,22.578558702005477,64190.76002475209,-1410.9803338742524,12.739827004320285,64242.24660884051,36584.33946559004,11.378560856245551,64260.237926538255,-25849.54575575024,9.709006039240888,64474.98294638903,11661.677852248638,39.53484649497168,0.9579840557858104,105.0,57.0,91.0,247.0,338.0,48.0,817.0,820.0,54.0,24.0,30.0,0.4444444444444444,277.0428775002654,3577.9948764428227,21.0,7.0,14.0,0.3333333333333333,197.5609199213316,1909.3037931546592,24.0,15.0,9.0,0.625,2103.499561667455,17299.398107115212,22.0,5.0,17.0,0.2272727272727272,1778.2854676123852,33710.01241101958,96.0,46.0,50.0,0.4791666666666667,226.4558209658054,12319.321043049866,,,,,64080.0,64128.0,64185.0,64197.0,64228.0,64251.0,64256.0,64276.0,64434.0,64523.0,0.08803698316854561,-0.14001677782345218,0.05749726774883919,-0.06879368343317233,0.019418802665873636
71,71,64952.794574402295,3314.990539547948,20.26382876444733,65034.690528643136,-2515.0227585160137,48.41134261632368,65092.383153061135,40519.60404717779,11.69576891098746,65109.16242322287,-28475.204799475243,9.722672757135088,65326.45734480138,11174.290753592586,37.24300500757012,0.9514601812697856,83.0,41.0,112.0,248.0,360.0,42.0,850.0,851.0,44.0,24.0,20.0,0.5454545454545454,202.53736598445235,2450.197515189622,77.0,51.0,26.0,0.6623376623376623,231.57443761333425,1722.2570029830968,24.0,15.0,9.0,0.625,2200.1023358589932,16901.164701591028,21.0,4.0,17.0,0.1904761904761904,1848.747450533553,34834.245346128075,91.0,44.0,47.0,0.4835164835164835,226.0522540174239,11645.448890294649,,,,,64930.0,64972.0,65013.0,65061.0,65078.0,65101.0,65105.0,65125.0,65282.0,65373.0,0.06109741900261095,-0.09207647796792681,0.05429723186083876,-0.06492481664495782,0.0202296735427926
72,72,65815.16874229368,3397.8907411973223,18.56500301477204,65901.45203459931,-1684.8603576313412,15.287792405125272,65955.0162424934,37481.09383165762,11.359683810552164,65973.027373699,-26788.150748817585,9.324501564240965,66187.15827564297,11185.588797926092,38.3323001271723,0.9445607803813852,103.0,56.0,91.0,249.0,340.0,47.0,870.0,864.0,49.0,22.0,27.0,0.4489795918367347,237.9265614669572,3371.8292929855957,15.0,5.0,10.0,0.3333333333333333,206.0792423155922,1714.1008058034076,24.0,15.0,9.0,0.625,2169.2322189252827,17948.3455763773,21.0,5.0,16.0,0.238095238095238,1835.4382838131964,34251.59776461185,94.0,43.0,51.0,0.4574468085106383,253.94165375041004,11648.510449404726,,,,,65794.0,65841.0,65897.0,65910.0,65940.0,65964.0,65969.0,65988.0,66147.0,66237.0,0.07002183989680566,-0.12231235744979391,0.05787537121163434,-0.06851679688618341,0.022702573672071076
73,73,66634.35610379743,3304.67465614555,20.630794590707765,66717.45203459915,-1664.0136922675815,15.28779240518434,66774.13731363733,36334.26291712694,11.575209621047046,66792.17805189872,-27293.329754406273,9.552796300754524,67004.09533933077,11501.15841953637,41.45825705171215,0.9524298928726056,96.0,54.0,93.0,248.0,341.0,42.0,826.0,817.0,42.0,16.0,26.0,0.3809523809523809,240.43873918466457,3763.3346532787336,32.0,15.0,17.0,0.46875,226.93620742695887,1995.028306907995,24.0,15.0,9.0,0.625,2119.617117167078,17012.79598971581,21.0,5.0,16.0,0.238095238095238,1779.441688445663,33515.084180271224,94.0,43.0,51.0,0.4574468085106383,207.57020641577293,12347.645997445805,,,,,66618.0,66660.0,66714.0,66733.0,66759.0,66783.0,66787.0,66807.0,66961.0,67055.0,0.07275715893470233,-0.1363788101513208,0.05833659325913974,-0.06519694388547032,0.018047765176696037
74,74,67479.20542559771,3140.119750643964,16.252598722407882,67556.84932180027,-2235.252455395003,5.095930801721407,67614.29564886338,39890.699561009314,10.77269939039601,67632.02737378674,-25276.00417280476,10.213898334399802,67850.05539760798,12306.467361206236,37.297931635682595,0.96981717008195,98.0,52.0,95.0,246.0,341.0,46.0,844.0,842.0,52.0,28.0,24.0,0.5384615384615384,172.2834358017504,2363.55778324157,27.0,3.0,24.0,0.1111111111111111,216.22996646631228,2066.5851315119107,24.0,15.0,9.0,0.625,2249.8847937420483,19868.06169687685,22.0,5.0,17.0,0.2272727272727272,1811.653268890553,35684.93226119898,92.0,45.0,47.0,0.4891304347826087,243.3683163710151,11865.519341022067,,,,,67456.0,67502.0,67554.0,67581.0,67600.0,67623.0,67628.0,67649.0,67808.0,67895.0,0.054865243838684546,-0.09673626168910802,0.056401236842212994,-0.07167482868355303,0.019775643913718634
75,75,68319.24479306342,3207.1263199296545,15.42091844109352,68385.43826733655,-2145.4731092328834,17.8357578060484,68454.1390203871,36873.02260458642,11.01497174563672,68472.21230375984,-25440.165082377964,9.658529824115432,68686.29488765122,10998.59049695272,38.766736591304635,0.9591614746880488,73.0,35.0,114.0,246.0,360.0,38.0,836.0,839.0,44.0,20.0,24.0,0.4545454545454545,206.2304245227524,2937.502755127972,17.0,11.0,6.0,0.6470588235294118,225.3782224349611,2245.2507599300952,24.0,15.0,9.0,0.625,2177.881924397807,17795.946907683403,22.0,5.0,17.0,0.2272727272727272,1785.8060250761962,33340.45811357905,95.0,45.0,50.0,0.4736842105263157,199.92098270232708,11340.511244477617,,,,,68301.0,68339.0,68374.0,68391.0,68440.0,68463.0,68468.0,68488.0,68649.0,68734.0,0.06430380469930348,-0.10504826253242827,0.059064372013996835,-0.0701963222052045,0.01817696392621558
76,76,69103.50678199713,3703.521995770351,43.7641228280087,69188.21241434694,-1243.1302375193263,5.095930801728113,69243.24660900142,34269.153886575594,11.675404383827797,69262.52041137962,-25463.754153843347,8.916539268892882,69473.86288579454,12334.520900832022,46.804053337388865,0.947643699295136,108.0,54.0,91.0,251.0,342.0,54.0,790.0,788.0,64.0,35.0,29.0,0.546875,225.2792465728,5144.103261024781,4.0,2.0,2.0,0.5,243.8140325544451,1171.4446123921757,24.0,14.0,10.0,0.5833333333333334,2043.207770292756,19621.605285299836,21.0,6.0,15.0,0.2857142857142857,1744.0384238691072,32635.395045028767,114.0,56.0,58.0,0.4912280701754385,221.0527366067634,13065.691091246274,,,,,69078.0,69132.0,69186.0,69190.0,69229.0,69253.0,69257.0,69277.0,69428.0,69528.0,0.06082838088448852,-0.19612911438867212,0.059622358260008015,-0.06849101720556285,0.017921469215059042
77,77,69913.31304035014,2929.6815644941635,17.78624830992073,70011.027373699,-2595.9196782262297,17.8357578060484,70053.20435188532,38658.68407299288,11.26616532559603,70071.027373699,-26751.414577721196,9.67468236361153,70287.71128481037,11369.601021148446,37.8266828269736,0.9591172204062888,79.0,48.0,106.0,246.0,352.0,31.0,806.0,810.0,55.0,25.0,30.0,0.4545454545454545,222.7001438984183,2793.9203512610693,49.0,39.0,10.0,0.7959183673469388,295.2518471882671,8.280932623367676,24.0,15.0,9.0,0.625,2236.5652827924696,18311.03319898113,22.0,5.0,17.0,0.2272727272727272,1879.4242200395008,35776.90943501417,89.0,41.0,48.0,0.4606741573033708,250.48797460691677,11856.706514242722,,,,,69902.0,69933.0,69981.0,70021.0,70039.0,70062.0,70067.0,70087.0,70248.0,70333.0,0.07601513645626178,-0.11373689627793501,0.057854149369635254,-0.07025513415670741,0.022031377718618916
78,78,70738.67565895051,3181.1111129708083,17.46742865199784,70822.17805189872,-1661.7006602658212,22.93168860767616,70877.41492106655,39578.569229605375,11.383489369861712,70894.60271279886,-27882.085291170337,9.930748111488697,71109.99999792702,11287.187743828146,37.961075554385374,0.9562968709390024,96.0,53.0,93.0,245.0,338.0,43.0,816.0,825.0,46.0,20.0,26.0,0.4347826086956521,207.05070092123344,3047.291625463124,44.0,23.0,21.0,0.5227272727272727,184.0864638648563,1377.0535809340188,24.0,15.0,9.0,0.625,2206.23974797481,18145.39676486163,22.0,5.0,17.0,0.2272727272727272,1872.3349785213072,34839.03954503539,91.0,43.0,48.0,0.4725274725274725,218.61915274960617,12004.955641870163,,,,,70721.0,70764.0,70817.0,70837.0,70862.0,70886.0,70890.0,70910.0,71067.0,71155.0,0.06508754129241051,-0.11078196468635218,0.055743292163389,-0.06715189911259026,0.019368788551350845
79,79,72354.9870736527,3509.9031564365537,21.684263642354672,72445.3717887645,-2083.4478387868567,15.28779240518434,72497.83412780127,38584.217641173746,10.67380769281403,72516.23284350602,-23875.708788370695,10.114628254036203,72733.25889355055,11916.812938820289,37.458725116884715,0.9639798834790096,99.0,55.0,93.0,247.0,340.0,44.0,1624.0,1621.0,44.0,15.0,29.0,0.3409090909090909,202.8126752562981,4525.8239296021075,27.0,6.0,21.0,0.2222222222222222,215.2992489967315,2138.166226920339,24.0,15.0,9.0,0.625,2198.124897945354,18635.083164260686,22.0,5.0,17.0,0.2272727272727272,1792.8587786215996,35065.90477764008,91.0,43.0,48.0,0.4725274725274725,220.22917838705652,12268.18446440808,,,,,72340.0,72384.0,72439.0,72466.0,72484.0,72507.0,72512.0,72532.0,72693.0,72779.0,0.05778298323826252,-0.103337959793654,0.056969533978569124,-0.0750913321364876,0.018480543373273612
80,80,73182.0376820458,3210.5324195334065,22.498069532094355,73267.027373699,-1866.0438429833432,17.8357578060484,73324.03695070007,38681.82269138184,11.33781748922612,73341.47815457355,-26477.87229391873,9.597446781524877,73554.87923428668,11679.778796004271,41.12065059621911,0.9508694735960254,85.0,48.0,100.0,246.0,346.0,37.0,828.0,825.0,58.0,26.0,32.0,0.4482758620689655,253.1354447241133,3152.5484663865127,38.0,20.0,18.0,0.5263157894736842,229.5620961852282,1242.8155907336527,24.0,15.0,9.0,0.625,2176.423616239197,17809.08007769921,22.0,4.0,18.0,0.1818181818181818,1806.1730806862151,33335.97762357276,95.0,43.0,52.0,0.4526315789473684,206.21803590958444,12013.17926328816,,,,,73172.0,73209.0,73257.0,73277.0,73309.0,73333.0,73337.0,73357.0,73515.0,73603.0,0.07884531649143167,-0.12302074093726281,0.05626476377815815,-0.06821443432601818,0.017655988140814188
81,81,73985.80017128987,3705.5062169582343,27.93924953877761,74081.15067819973,-992.678673535083,5.095930801728113,74128.83643710059,34533.40536163064,11.65342282335479,74147.6864548636,-26146.501082123545,9.326465600098668,74358.84372301752,11721.188930779825,43.589054508182016,0.95775423773207,104.0,55.0,90.0,248.0,338.0,49.0,804.0,806.0,49.0,17.0,32.0,0.3469387755102041,215.7306915346229,4687.441697395158,11.0,8.0,3.0,0.7272727272727273,224.90855553841405,1216.9792929570433,24.0,15.0,9.0,0.625,2055.322006005463,16520.21345880633,21.0,6.0,15.0,0.2857142857142857,1758.6523304340346,32997.00000408967,98.0,45.0,53.0,0.4591836734693877,233.25763077226492,12808.54010239731,,,,,73969.0,74018.0,74073.0,74084.0,74114.0,74138.0,74143.0,74163.0,74315.0,74411.0,0.05821895279714611,-0.22656732891971954,0.05951692236784413,-0.0672614788843174,0.019900509423556062
82,82,74819.48602560723,2589.6234438299375,13.776102429505928,74897.17805189872,-2109.0148250939624,22.93168860777541,74954.64880366743,38990.85889016955,11.223055756256567,74972.02737369902,-27031.51684222223,9.756635851772034,75188.95687727281,11186.209471864811,38.710771678568015,0.9628897981990956,87.0,53.0,96.0,248.0,344.0,34.0,833.0,826.0,36.0,15.0,21.0,0.4166666666666667,251.7724713466133,2472.515978508618,51.0,25.0,26.0,0.4901960784313725,187.40208799726716,1503.7180851848946,25.0,16.0,9.0,0.64,2199.315536266028,15406.283328833895,22.0,5.0,17.0,0.2272727272727272,1835.273095869409,35268.168757580264,95.0,47.0,48.0,0.4947368421052631,194.5717017935237,11630.093160487995,,,,,74805.0,74839.0,74892.0,74910.0,74940.0,74963.0,74968.0,74988.0,75148.0,75236.0,0.09722358358567107,-0.08885764375265494,0.05640592689843321,-0.06789382581012916,0.01739389042221175
83,83,75658.50182796395,3024.4942501712217,21.157421369518755,75742.17805194223,-1888.9653380421532,22.931688607776504,75800.39245161641,40526.11687870481,11.51230918196937,75817.027373699,-28551.80209776811,9.891651993591172,76033.1441548494,11823.66497744399,38.62535452499217,0.956352861654884,97.0,51.0,96.0,247.0,343.0,46.0,834.0,845.0,47.0,19.0,28.0,0.4042553191489361,212.7002169000961,3161.7749950899342,31.0,5.0,26.0,0.1612903225806451,226.60007257819044,1597.6365460009324,25.0,16.0,9.0,0.64,2239.921314767409,15876.845275415912,22.0,4.0,18.0,0.1818181818181818,1881.49723736613,34694.74119020281,90.0,43.0,47.0,0.4777777777777778,173.83617821573378,13220.619821671917,,,,,75640.0,75686.0,75737.0,75768.0,75785.0,75809.0,75813.0,75833.0,75991.0,76080.0,0.07032587907484195,-0.11995988915977332,0.05527105696979364,-0.06589767016888949,0.014702393762624458
84,84,76508.1053191679,3390.0064878618264,17.75704692602374,76574.84932180027,-1646.4354766282763,5.095930801728113,76644.20687028552,34122.05581105563,11.024786616926558,76663.3543325305,-24707.419518562667,9.286200633927216,76874.29830779096,11426.914119665476,43.279431291031194,0.960242809437148,74.0,36.0,110.0,248.0,358.0,38.0,850.0,845.0,44.0,19.0,25.0,0.4318181818181818,208.26768848244757,4119.261903762835,13.0,11.0,2.0,0.8461538461538461,283.41582917513296,1847.724295942517,24.0,14.0,10.0,0.5833333333333334,2067.925018593048,17760.238266645974,21.0,5.0,16.0,0.238095238095238,1769.0124307962528,32659.622211146117,102.0,49.0,53.0,0.4803921568627451,205.88805875393567,12218.260521828248,,,,,76494.0,76532.0,76568.0,76576.0,76630.0,76654.0,76658.0,76678.0,76831.0,76926.0,0.061435778730266656,-0.17213904413402112,0.060603764030039343,-0.07159842934901377,0.01801781798636315
85,85,78109.47282408053,3299.850520174302,23.27587444001936,78192.84932180027,-1390.6524390029017,5.095930801728113,78249.53299394349,37631.41975099314,10.877841009787476,78269.05726314575,-22913.486920461113,9.2203629390729,78483.52077041249,11396.538361792287,42.12255011830867,0.9606580651077512,100.0,50.0,94.0,248.0,342.0,50.0,1607.0,1606.0,56.0,25.0,31.0,0.4464285714285714,200.41373117670344,3560.779917306818,18.0,3.0,15.0,0.1666666666666666,219.5088192281628,771.4977429840718,25.0,15.0,10.0,0.6,2203.5338848569454,20539.176353078255,20.0,5.0,15.0,0.25,1790.7008506731702,34324.9670619217,94.0,46.0,48.0,0.4893617021276595,192.46745539245265,12160.178438369729,,,,,78090.0,78140.0,78190.0,78208.0,78236.0,78259.0,78264.0,78284.0,78439.0,78532.0,0.06073418476122893,-0.157845924022217,0.05855569360491086,-0.07815051706836132,0.01688823827748552
86,86,78976.86315989151,2641.164066506039,15.626510606889427,79055.20542559776,-2901.2175908980116,40.767446413070466,79111.2466090014,39974.93161937795,11.435231647463114,79128.77941466453,-27055.253646507972,10.006002528060234,79346.59562860196,10342.42138116042,34.40777365205492,0.9457816740382742,64.0,36.0,118.0,243.0,361.0,28.0,859.0,859.0,36.0,17.0,19.0,0.4722222222222222,233.95615923226816,1746.7666258752447,74.0,50.0,24.0,0.6756756756756757,240.21625035358295,2561.9023908355243,24.0,15.0,9.0,0.625,2234.652471797583,17139.05165553691,22.0,5.0,17.0,0.2272727272727272,1822.887545394066,35042.91659356411,85.0,42.0,43.0,0.4941176470588235,230.21826756161676,10908.651366167658,,,,,78963.0,78991.0,79027.0,79078.0,79097.0,79120.0,79124.0,79145.0,79308.0,79388.0,0.0885806990179772,-0.0827984261184729,0.055901345700222024,-0.06737647220799005,0.02225961011228748
87,87,79815.28171139749,3148.808553502962,21.30013082035725,79900.60271279886,-1322.9332930956557,20.383723206893514,79956.67126990156,35690.069287102066,11.998228754078747,79973.94664524661,-29732.559620981938,9.679627736421674,80188.87891899995,10968.53993387491,39.42722441675776,0.9513449037791102,99.0,52.0,95.0,246.0,341.0,47.0,847.0,845.0,53.0,24.0,29.0,0.4528301886792453,217.81287211214183,2593.7316723230615,20.0,9.0,11.0,0.45,225.13943421256263,1726.0489603251638,25.0,17.0,8.0,0.68,2021.5800990341056,12072.948737106282,21.0,5.0,16.0,0.238095238095238,1771.9135967822265,34002.818525930896,99.0,48.0,51.0,0.4848484848484848,233.6546919772364,11061.607444104591,,,,,79795.0,79842.0,79894.0,79912.0,79941.0,79965.0,79969.0,79989.0,80145.0,80235.0,0.06917310735510772,-0.17018200039832526,0.056642649885935606,-0.05959505738388587,0.021302260226598094
88,88,80648.84088184754,3385.472764929592,14.158659540104049,80731.87669549929,-2257.9926333684048,12.739827004320285,80783.7889799212,38667.63262774677,11.007363245728875,80801.20837264576,-26350.182824519357,10.27344761969678,81017.67078021227,10959.857719968124,36.815833602655815,0.9627084532663722,92.0,55.0,93.0,245.0,338.0,37.0,832.0,829.0,39.0,16.0,23.0,0.4102564102564102,207.2580867289916,2978.1669537762127,35.0,16.0,19.0,0.4571428571428571,248.6941258225622,2389.2649076683056,25.0,16.0,9.0,0.64,2136.946991328256,15395.532148239388,21.0,4.0,17.0,0.1904761904761904,1768.847862571804,35104.40634223287,88.0,43.0,45.0,0.4886363636363636,216.9202299849257,11819.52704267285,,,,,80633.0,80670.0,80725.0,80739.0,80769.0,80792.0,80797.0,80818.0,80976.0,81063.0,0.06121983578659862,-0.11013947616452932,0.055264489861601845,-0.06712848538287396,0.019792248725064344
89,89,81509.49684444853,3158.012491960995,20.127177513446487,81586.90406919828,-1695.7446641140975,30.575584809927644,81646.31394782737,40627.8012175503,11.188611233924284,81663.60271279886,-27030.62185297279,10.234470456462004,81879.58747526529,11084.417992096438,39.14899665616086,0.9574376816760142,78.0,34.0,114.0,247.0,361.0,44.0,864.0,862.0,48.0,23.0,25.0,0.4791666666666667,218.08635031754235,3088.3430609538145,47.0,20.0,27.0,0.425531914893617,190.6462151812669,1759.390596050444,24.0,15.0,9.0,0.625,2234.5583616311965,18492.54601066249,22.0,5.0,17.0,0.2272727272727272,1800.1353467937995,35293.97942458596,94.0,46.0,48.0,0.4893617021276595,231.39188868551184,11598.104801313028,,,,,81489.0,81533.0,81567.0,81604.0,81632.0,81655.0,81659.0,81681.0,81836.0,81928.0,0.06905810248461676,-0.112426250965599,0.05500072104975046,-0.06659614997336154,0.020875420689701708
90,90,82373.24660900142,3160.826694153733,17.874870712832823,82459.02737369902,-2569.208181299532,17.8357578060484,82513.69530441971,37124.87399913288,10.838138557856109,82531.60271279886,-26142.432801199895,10.062696508773357,82747.21482134395,11126.1314637412,37.121876606440395,0.9540353281994964,96.0,55.0,92.0,245.0,337.0,41.0,853.0,868.0,48.0,20.0,28.0,0.4166666666666667,215.6358666344136,3479.2575579328513,28.0,4.0,24.0,0.1428571428571428,245.37784529802735,2882.864610584402,24.0,15.0,9.0,0.625,2139.6053358980685,15877.50879641838,21.0,5.0,16.0,0.238095238095238,1769.0547067913444,34633.653774569175,93.0,45.0,48.0,0.4838709677419355,204.21383644800545,11711.502070695997,,,,,82359.0,82400.0,82455.0,82483.0,82499.0,82522.0,82527.0,82547.0,82707.0,82792.0,0.06822135077296512,-0.09550718664375135,0.0576326625633273,-0.06766985766948773,0.01835443317504518
91,91,84026.57220660722,3367.034312124073,20.99491505624947,84119.01546361753,-1224.8669226613456,20.38372320563974,84167.98041132171,39387.52472232186,11.4749239754526,84185.51203516602,-27189.232482830164,9.90973734198904,84401.00685865316,11456.235091687851,38.568574971821306,0.961527270541039,102.0,52.0,94.0,247.0,341.0,50.0,1655.0,1654.0,51.0,22.0,29.0,0.4313725490196078,173.80065292189636,3494.9302211176628,28.0,12.0,16.0,0.4285714285714285,182.63514124883915,1043.9722400721569,25.0,16.0,9.0,0.64,2175.4566121513585,16846.961650704034,21.0,5.0,16.0,0.238095238095238,1802.936062318862,34950.25711008638,90.0,42.0,48.0,0.4666666666666667,233.9601311969024,12845.382437529011,,,,,84006.0,84056.0,84108.0,84124.0,84153.0,84177.0,84181.0,84202.0,84359.0,84449.0,0.05161831950927025,-0.1491061093004424,0.055232123051349676,-0.06631066410048188,0.020422078398744957
92,92,84891.52059170122,3703.9740616795234,17.357024125773858,84981.75198088054,-2177.1098069345594,48.41134261641708,85029.78392889668,40797.06715442849,11.529647104213812,85047.027373699,-27544.804075894903,10.167127375587098,85264.1842112532,11001.594334066736,38.97105824098791,0.968775905679328,81.0,46.0,110.0,245.0,355.0,35.0,862.0,861.0,36.0,19.0,17.0,0.5277777777777778,187.7321088108615,3136.9780930287,53.0,36.0,17.0,0.6792452830188679,183.66556960857096,2075.8454075649597,25.0,16.0,9.0,0.64,2217.068419293096,15494.695246253992,22.0,4.0,18.0,0.1818181818181818,1828.8387444006648,35958.58348608918,95.0,45.0,50.0,0.4736842105263157,252.3458635650512,11584.73392580462,,,,,84873.0,84908.0,84954.0,84998.0,85015.0,85038.0,85043.0,85064.0,85224.0,85309.0,0.05068396961876579,-0.0843621065981867,0.05434381865982822,-0.0663950536501047,0.022937208544733863
93,93,85776.027373699,3609.7307980928726,16.99237090664326,85845.2327992967,-2513.2754609234967,58.60320421987331,85909.61509236765,36911.55028037604,11.699511029284364,85927.60271279886,-27479.405921730875,9.927511267011036,86142.21755590911,10011.33999115064,34.901566567303945,0.9518803363232148,41.0,24.0,133.0,244.0,377.0,17.0,893.0,880.0,39.0,21.0,18.0,0.5384615384615384,220.71176789670093,1812.5016794093,78.0,44.0,34.0,0.5641025641025641,189.3201426277629,2157.3800735056648,24.0,16.0,8.0,0.6666666666666666,2059.3179849864223,14100.902402028722,22.0,6.0,16.0,0.2727272727272727,1762.8785317126162,34646.77146520714,88.0,42.0,46.0,0.4772727272727273,183.5175369909288,10003.468219982216,,,,,85769.0,85786.0,85810.0,85878.0,85895.0,85918.0,85923.0,85943.0,86103.0,86187.0,0.06114355342323851,-0.0753280512109873,0.055790612134794436,-0.06415271628265157,0.01833096639941767
94,94,87405.36912262428,2633.3151620667572,20.334940128621017,87470.82194810128,-1968.453718848985,22.93168860777651,87544.58537313211,39907.87951642248,11.030619206598804,87561.60271279886,-27231.103621845406,10.60118945160729,87778.59791075178,11023.786177944554,38.014591476966935,0.95811240215209,70.0,31.0,121.0,247.0,368.0,39.0,1624.0,1636.0,40.0,18.0,22.0,0.45,171.13066911364186,2901.3719562140677,56.0,14.0,42.0,0.25,244.65253677310477,1819.3679493123177,24.0,16.0,8.0,0.6666666666666666,2137.250998366213,13964.489996913631,23.0,5.0,18.0,0.217391304347826,1806.14740682068,35093.83168607588,90.0,43.0,47.0,0.4777777777777778,223.61313095067356,11549.088811600708,,,,,87388.0,87427.0,87458.0,87483.0,87530.0,87553.0,87557.0,87579.0,87738.0,87826.0,0.0649867784831839,-0.12428665933591802,0.053554611877754954,-0.06632663265883017,0.020284603433079966
95,95,88242.05045819576,2889.3344979356434,18.787448397340626,88332.027373699,-2540.074695855017,17.8357578060484,88384.3345200731,40503.61306252504,11.362270437327355,88401.027373699,-27842.779418642436,10.005514493017223,88616.95596873824,11844.077642037251,39.87459806590344,0.968950325883262,79.0,35.0,113.0,247.0,360.0,44.0,844.0,839.0,44.0,16.0,28.0,0.3636363636363636,176.43039576129547,3118.0638034640688,37.0,27.0,10.0,0.7297297297297297,227.6121345121774,2554.7026105478744,25.0,16.0,9.0,0.64,2184.6635678575817,17434.240740348458,22.0,4.0,18.0,0.1818181818181818,1831.0144197982704,34682.6622289343,95.0,46.0,49.0,0.4842105263157895,195.56857161246867,12035.631141278433,,,,,88226.0,88270.0,88305.0,88342.0,88369.0,88393.0,88397.0,88418.0,88574.0,88665.0,0.06106264120244663,-0.08960844139095707,0.05393749847662078,-0.06576263067229182,0.016511929212482748
96,96,89095.06922857372,3432.960205290648,18.09042013841582,89180.69864360057,-1529.6770219971943,10.191861603456228,89236.39677043048,36885.638941123616,11.048353031683405,89254.69051055743,-25365.931324200785,9.673388542685217,89467.90689547698,11310.585697675217,40.030075013330574,0.9530864856435912,103.0,55.0,96.0,246.0,342.0,48.0,851.0,853.0,50.0,23.0,27.0,0.46,219.79526587301464,3938.2332212355545,47.0,23.0,24.0,0.4893617021276595,174.63965690850762,1250.5393749190837,25.0,15.0,10.0,0.6,2118.5234206478513,18674.184374344964,21.0,5.0,16.0,0.238095238095238,1731.2459685829288,33788.11329547172,95.0,44.0,51.0,0.4631578947368421,191.97451798559868,12120.055340954315,,,,,89072.0,89120.0,89175.0,89192.0,89222.0,89245.0,89250.0,89271.0,89425.0,89517.0,0.06402499671690948,-0.11416766702848985,0.057434911837352505,-0.06825083402048025,0.016972995308727222
97,97,89902.17248907413,3719.08052266808,24.391155574932775,90001.72601729959,-1441.4878835151849,7.643896202590509,90044.35401981435,35677.42636469639,11.530093597315563,90062.60271279886,-26794.316901389386,9.483770615836534,90273.7939697834,11301.80704699006,42.79555433913241,0.9609201366658496,116.0,67.0,78.0,247.0,325.0,49.0,808.0,807.0,64.0,32.0,32.0,0.5,174.3026352498847,3711.000433451629,23.0,14.0,9.0,0.6086956521739131,310.6244586884749,691.9994712605278,24.0,15.0,9.0,0.625,2116.3660316071505,17176.903361059383,22.0,6.0,16.0,0.2727272727272727,1727.8647987625652,33757.053788878315,94.0,42.0,52.0,0.4468085106382978,199.24174874064568,12088.290779103265,,,,,89884.0,89933.0,90000.0,90011.0,90030.0,90053.0,90058.0,90078.0,90233.0,90325.0,0.04686713132116845,-0.2154887753416227,0.05931947024355271,-0.06448624180723073,0.01762919397864862
98,98,90746.63008649784,3441.8700450062006,17.83960082681215,90828.45203459918,-1915.5656247829857,15.28779240518434,90882.8308320717,37750.54372494696,10.794924219909332,90901.7069847076,-23685.138936406467,9.324888881504032,91113.97014436098,11719.299807901927,43.06136282649492,0.9627401083899688,94.0,57.0,92.0,248.0,340.0,37.0,847.0,840.0,45.0,24.0,21.0,0.5333333333333333,207.69875170840825,3418.174564864696,27.0,4.0,23.0,0.1481481481481481,189.43802677284265,2159.523990241012,25.0,15.0,10.0,0.6,2194.6119267866284,20032.79383622334,20.0,5.0,15.0,0.25,1828.8321647431771,34620.78221788787,99.0,46.0,53.0,0.4646464646464646,162.9115750319083,12387.610732008006,,,,,90731.0,90768.0,90825.0,90850.0,90869.0,90892.0,90897.0,90917.0,91074.0,91165.0,0.06034473963064287,-0.0988940416981559,0.0581345779487766,-0.07721433130088488,0.013901135537300834
99,99,91646.91998079231,2920.8941606387825,19.088602040115507,91727.21325875875,-2192.532197650185,36.75138950432303,91783.9396047432,39302.08823689663,11.186723822676724,91802.027373699,-25644.22640847074,9.640498637581857,92016.44886743778,11470.252033008685,37.89315459084792,0.9459846688910384,83.0,38.0,113.0,248.0,361.0,45.0,899.0,900.0,45.0,25.0,20.0,0.5555555555555556,190.6291510290773,2425.637271983388,48.0,23.0,25.0,0.4791666666666667,214.2447062339591,2909.134123761029,24.0,15.0,9.0,0.625,2187.8167674141064,19182.00667110007,21.0,5.0,16.0,0.238095238095238,1821.943594154284,35477.56669930462,96.0,45.0,51.0,0.46875,240.6318536684743,12050.708015078002,,,,,91622.0,91667.0,91705.0,91752.0,91770.0,91793.0,91798.0,91818.0,91973.0,92066.0,0.06526397073812076,-0.09771564881171314,0.055666679954175916,-0.07104693138851964,0.02097877648860657
100,100,92545.90406919828,3221.5293717546074,15.850324529441362,92608.12330450072,-1997.253358479728,12.739827004320285,92675.3585451358,33720.93288222494,10.946004013097864,92695.1564577264,-23604.193239299875,9.572709787058969,92905.63246109636,11753.73072450945,45.221629162509366,0.9557618586392248,76.0,34.0,113.0,250.0,363.0,42.0,899.0,891.0,46.0,27.0,19.0,0.5869565217391305,195.5995969013051,2492.3741991478073,47.0,13.0,34.0,0.2765957446808511,247.69241068915863,1746.8336913536357,24.0,14.0,10.0,0.5833333333333334,2046.5595187168576,19060.559667257137,22.0,6.0,16.0,0.2727272727272727,1683.5831692005693,32464.535105481133,107.0,51.0,56.0,0.4766355140186916,156.44892206376213,11959.124549777502,,,,,92521.0,92563.0,92597.0,92611.0,92661.0,92685.0,92690.0,92710.0,92861.0,92960.0,0.0607163785673547,-0.12401651980582848,0.06069107061375651,-0.0713255967756391,0.013310575657270013
101,101,93412.17805189872,2479.9652245397533,12.803835867120512,93508.87669549928,-3269.214656857456,12.739827004320285,93546.9575094941,39656.16275444438,10.950970368895144,93564.60271279886,-26491.662614546072,10.81277236499005,93782.7513575224,10685.708234002152,33.41087234903129,0.9465532588367136,55.0,20.0,136.0,244.0,380.0,35.0,865.0,872.0,37.0,23.0,14.0,0.6216216216216216,236.3067392521584,1438.746808086175,72.0,65.0,7.0,0.9027777777777778,305.71392598470845,171.25017912907992,24.0,15.0,9.0,0.625,2196.5803762833193,16427.925322632935,22.0,5.0,17.0,0.2272727272727272,1794.1767652147998,36513.07128834109,80.0,38.0,42.0,0.475,214.97652956621252,11280.0480403541,,,,,93390.0,93425.0,93445.0,93516.0,93532.0,93556.0,93560.0,93581.0,93745.0,93825.0,0.09528631164415365,-0.09351295588481702,0.05539064356490574,-0.06772609146206064,0.020118135818284148
102,102,94327.9853357583,3157.146967121717,14.666402375201148,94412.054747398,-1989.216315707896,35.6715156120967,94463.11198997156,40851.265287126385,11.151372128237004,94480.60271279886,-26741.061880410565,10.343435758933936,94699.667409235,11055.826293851002,35.63145851788418,0.9566728213490268,73.0,36.0,116.0,248.0,364.0,37.0,907.0,916.0,45.0,22.0,23.0,0.4888888888888889,195.90336765898303,2551.4524782918875,76.0,56.0,20.0,0.7368421052631579,224.28774031488996,2225.4113781654587,24.0,15.0,9.0,0.625,2282.8989460476173,18005.992051980647,22.0,5.0,17.0,0.2272727272727272,1832.233591838486,35743.71702165005,91.0,44.0,47.0,0.4835164835164835,239.17949126678775,11644.287260112964,,,,,94308.0,94345.0,94381.0,94432.0,94449.0,94472.0,94476.0,94497.0,94658.0,94745.0,0.06205075965709087,-0.11275181011928982,0.05588318819507987,-0.0685176078658532,0.02163379605555253
103,103,95240.67562397238,3311.9197151128233,19.186509249578183,95322.17805218244,-1644.1261403322465,22.93168860777651,95377.44458169304,34723.454881643076,11.074923404815172,95396.76683908656,-24548.09635938132,9.650852877252088,95610.98485109104,11214.023045426737,40.9115349458074,0.953689136682637,97.0,50.0,95.0,250.0,345.0,47.0,917.0,914.0,48.0,22.0,26.0,0.4583333333333333,256.14042762472207,3410.346755762973,29.0,5.0,24.0,0.1724137931034483,217.28285871519384,1803.1686341571665,24.0,14.0,10.0,0.5833333333333334,2067.2694554515847,19107.271845556796,21.0,6.0,15.0,0.2857142857142857,1702.739702341638,33384.07739608614,99.0,47.0,52.0,0.4747474747474747,191.52836603486975,11622.443485174625,,,,,95220.0,95267.0,95317.0,95335.0,95363.0,95387.0,95391.0,95412.0,95569.0,95662.0,0.07733896037875315,-0.13215704889363605,0.059535246780540514,-0.06936341121583212,0.01707936262115835
104,104,96093.88730977812,2782.7661836705283,19.868886593557928,96182.63008649791,-1970.4503959769836,38.21948101295783,96237.83295304404,38479.74408100885,11.79056509881872,96254.60271279888,-30070.627008837942,10.211866663105392,96470.572439438,11065.150867396373,37.38224377055976,0.945535133156173,94.0,56.0,100.0,248.0,348.0,38.0,853.0,860.0,38.0,17.0,21.0,0.4473684210526316,188.65120070917,2508.821557688333,35.0,13.0,22.0,0.3714285714285714,173.7245592100894,2345.4973434813655,24.0,16.0,8.0,0.6666666666666666,2075.684125277871,12809.606623585689,22.0,5.0,17.0,0.2272727272727272,1783.650339010764,34945.98289107484,93.0,45.0,48.0,0.4838709677419355,247.84396240695125,11479.425876384485,,,,,96077.0,96115.0,96171.0,96204.0,96223.0,96246.0,96250.0,96271.0,96426.0,96519.0,0.0677926883746787,-0.08816489852511804,0.05394225390137915,-0.059315369063855504,0.022398606704697274
105,105,96985.2082782482,2748.0970757557575,16.08291178717227,97075.90406919828,-2545.8399659780566,30.57558481036868,97125.0144414599,40644.16876736191,11.548065903231562,97142.027373699,-27986.5841043755,10.181042283997138,97359.83945435632,11002.912352556008,37.07783444561229,0.9531821795156378,91.0,54.0,100.0,248.0,348.0,37.0,893.0,887.0,43.0,20.0,23.0,0.4651162790697674,160.41933807797886,2718.21795706985,34.0,17.0,17.0,0.5,227.61463310117773,3128.113011769507,25.0,16.0,9.0,0.64,2169.8285276737824,16235.330827170304,22.0,4.0,18.0,0.1818181818181818,1814.3655422837944,35165.37220205444,92.0,44.0,48.0,0.4782608695652174,246.48183769868243,11289.070779653866,,,,,96968.0,97005.0,97059.0,97093.0,97110.0,97133.0,97138.0,97159.0,97322.0,97407.0,0.058374698438868555,-0.08940649692948516,0.053385973768916115,-0.06482983187648583,0.022401508782483755
106,106,97900.22931212328,3021.59645016706,20.296988773526177,97983.027373699,-1982.7944438368413,17.8357578060484,98040.83372551028,38514.174431841755,11.41175534922404,98058.11184773767,-27369.8294847413,9.994454685069712,98273.48036993873,11232.91315227695,38.20935849317591,0.9535862673869082,93.0,52.0,95.0,247.0,342.0,41.0,922.0,916.0,48.0,19.0,29.0,0.3958333333333333,198.72193519943224,2895.0656373087877,30.0,5.0,25.0,0.1666666666666666,230.33800316691455,1333.4000941197603,25.0,16.0,9.0,0.64,2140.445418689902,15957.781135931888,23.0,5.0,18.0,0.217391304347826,1766.153966470262,33725.872021512434,91.0,41.0,50.0,0.4505494505494505,226.47216291293023,11698.613574699417,,,,,97886.0,97927.0,97979.0,98007.0,98026.0,98049.0,98054.0,98074.0,98234.0,98321.0,0.0657671990541441,-0.11616837231054317,0.05557552382377642,-0.06452922797545721,0.020161480805807135
107,107,98775.93144289729,4086.206283018146,22.719529086960726,98841.92485081416,-1009.812628368646,2.790564959160435,98915.06025378883,39150.01979235493,12.125636259206413,98931.57115444331,-30304.265008202845,9.829846932453265,99147.39001135514,11930.901205540897,41.80237390572907,0.9584410301273956,89.0,35.0,110.0,251.0,361.0,54.0,876.0,874.0,54.0,27.0,27.0,0.5,229.25328840267625,4378.691102015935,8.0,4.0,4.0,0.5,224.4102482767107,1067.9729721503545,25.0,17.0,8.0,0.68,2077.8902528017456,14672.726133316364,22.0,5.0,17.0,0.2272727272727272,1794.0692565882357,33960.37160074759,97.0,45.0,52.0,0.4639175257731959,197.4194187742158,12818.721197622792,,,,,98749.0,98803.0,98838.0,98846.0,98899.0,98923.0,98928.0,98948.0,99105.0,99199.0,0.056104188708100564,-0.22222959187908536,0.053075075410498475,-0.05920187327105977,0.01654689912967607
108,108,99671.53805333616,2745.8712133302897,21.1644324330551,99758.00433377064,-2248.060729993891,43.315411814688275,99809.10698960938,40309.71375223047,11.567893781361212,99826.60271279886,-27542.104166819037,10.183328827881816,100045.90981837784,10961.584589757853,35.91972625130636,0.9497948762490256,78.0,40.0,112.0,249.0,361.0,38.0,885.0,895.0,39.0,19.0,20.0,0.4871794871794871,182.6013638628674,2320.9803989090324,45.0,27.0,18.0,0.6,217.1324022128248,3375.960892328296,24.0,15.0,9.0,0.625,2237.4093566634265,16955.228093090453,21.0,5.0,16.0,0.238095238095238,1781.0973918529826,35497.843643554115,88.0,42.0,46.0,0.4772727272727273,201.34213742246592,11392.44736336121,,,,,99653.0,99691.0,99731.0,99776.0,99794.0,99818.0,99822.0,99843.0,100004.0,100092.0,0.0665003380261968,-0.09658653759474498,0.05550546378016945,-0.06466816700224141,0.018367977346139666
109,109,100587.63008649784,2657.143651541642,15.532267456520424,100674.87669549928,-2740.8353492529577,12.739827004320285,100727.52200624328,37871.175406343995,10.88108131583251,100745.60271279886,-25262.432931108735,10.5810264462422,100963.40618512649,10951.87630531526,36.92621355138535,0.9560263395148664,96.0,58.0,95.0,247.0,342.0,38.0,925.0,918.0,46.0,18.0,28.0,0.391304347826087,240.8529514210706,2112.0272065977247,33.0,13.0,20.0,0.3939393939393939,218.18459313365875,2800.8893331406134,25.0,16.0,9.0,0.64,2103.864233891882,14742.400192510682,21.0,5.0,16.0,0.238095238095238,1772.236121652308,34738.14859512964,95.0,48.0,47.0,0.5052631578947369,261.03992404091537,10549.478606478198,,,,,100571.0,100609.0,100667.0,100682.0,100713.0,100736.0,100741.0,100762.0,100926.0,101009.0,0.09064355676868681,-0.07960514417370133,0.055553180256968024,-0.0701530262934389,0.02383517826203216
110,110,101467.75339099858,2443.4089854186914,15.922927676919866,101549.63008649791,-2299.844923497519,38.219481012949586,101603.3394209341,37146.81368234016,11.79213481010006,101620.60271279886,-29212.592790943632,10.332895846879516,101839.21474482556,10735.944178915355,36.65498665706667,0.9485658780726856,81.0,41.0,114.0,250.0,364.0,40.0,878.0,875.0,42.0,28.0,14.0,0.6666666666666666,238.29821604629095,1356.6715153339474,50.0,29.0,21.0,0.58,217.4061543826751,2671.264895762118,25.0,16.0,9.0,0.64,2027.812417862652,13881.918416655377,22.0,5.0,17.0,0.2272727272727272,1767.5001356077746,34113.975495098406,92.0,43.0,49.0,0.4673913043478261,179.58339798365185,11130.829935756235,,,,,101442.0,101482.0,101523.0,101571.0,101588.0,101611.0,101616.0,101637.0,101799.0,101887.0,0.09752694594656951,-0.09453078864641529,0.05458913475603663,-0.06050473329281911,0.016727303625175428
111,111,102342.12330450072,2018.2582274587835,12.739827003434751,102455.87669549928,-3518.5795788873265,12.739827004294291,102494.95954381254,39841.98179475121,11.226894684894257,102512.02737371076,-27843.66411937988,10.748655228785488,102731.53850981857,10340.573287476744,34.7903959654757,0.9428995080048288,76.0,50.0,119.0,244.0,363.0,26.0,868.0,892.0,45.0,12.0,33.0,0.2666666666666666,213.11148622014008,2364.6533960741035,76.0,68.0,8.0,0.8947368421052632,330.13239399322083,117.06091927019564,25.0,16.0,9.0,0.64,2189.8628237193257,13678.607436548493,23.0,5.0,18.0,0.217391304347826,1802.930253403916,36249.81562858287,79.0,37.0,42.0,0.4683544303797468,230.2155341857244,10765.404849738834,,,,,102335.0,102361.0,102411.0,102463.0,102480.0,102503.0,102508.0,102530.0,102695.0,102774.0,0.105591783707713,-0.09382547320348456,0.05496370223249834,-0.06475190354523175,0.022263324071648303
112,112,103269.945252602,3099.0008863414814,18.415148348280137,103350.18637397424,-2278.866151059755,48.41134261486486,103407.54050357218,39147.05457799901,11.720877316769284,103425.027373699,-28235.004070897303,10.056046170056025,103642.58846674352,11177.045634042304,36.03813788443318,0.9476361276956232,79.0,48.0,112.0,245.0,357.0,31.0,924.0,913.0,45.0,21.0,24.0,0.4666666666666667,250.75939677906095,2441.811094240954,47.0,22.0,25.0,0.4680851063829787,249.19016441211025,2107.1756934774476,24.0,16.0,8.0,0.6666666666666666,2091.983493337074,13678.87673096952,23.0,5.0,18.0,0.217391304347826,1836.6747450759783,34854.38646275885,85.0,40.0,45.0,0.4705882352941176,241.033695787088,11925.78544326356,,,,,103250.0,103281.0,103329.0,103373.0,103392.0,103416.0,103421.0,103441.0,103606.0,103686.0,0.08091620686017112,-0.10934831091164694,0.053439103296235906,-0.06504956544238986,0.02156506322681224
113,113,104130.24660900142,3549.2197777801716,25.26021130758807,104229.60271279886,-1160.4972521048123,20.383723206911696,104279.3536596444,36485.167874513885,11.528298112814976,104297.60271279886,-26120.73805327429,9.787212754821292,104514.24011795694,11660.120639899036,40.17917141662807,0.949405240242597,108.0,59.0,89.0,250.0,339.0,49.0,862.0,872.0,50.0,14.0,36.0,0.28,309.392430358931,4069.0911526737264,25.0,9.0,16.0,0.36,239.7952948355681,1653.3840348441677,24.0,15.0,9.0,0.625,2072.895540346887,18035.97084863064,21.0,5.0,16.0,0.238095238095238,1716.997092679907,33157.81353889524,93.0,43.0,50.0,0.4623655913978494,196.2471291126835,12011.97414110212,,,,,104116.0,104165.0,104224.0,104241.0,104265.0,104288.0,104293.0,104313.0,104473.0,104563.0,0.0871719560157635,-0.2066315059347599,0.056814745857175414,-0.06573310023545363,0.01683062595777592
114,114,105076.87669549928,2618.9194072713226,12.739827004313977,105170.30135639945,-2155.7020165693575,10.191861603329524,105207.24660900142,38658.87562652763,11.282147046091914,105225.4972543543,-25171.940575531127,10.155785469815594,105444.65852406112,10622.03726593549,36.27123569061575,0.9464138451634628,116.0,79.0,79.0,249.0,328.0,37.0,953.0,927.0,37.0,30.0,7.0,0.8108108108108109,219.1984366657506,1815.018191014071,75.0,69.0,6.0,0.92,319.0777408201503,1032.7076303010638,25.0,15.0,10.0,0.6,2124.661386348012,19162.43355052371,22.0,4.0,18.0,0.1818181818181818,1759.3258375716182,35127.0465529261,91.0,44.0,47.0,0.4835164835164835,196.06126499016864,10738.67749257034,,,,,105047.0,105084.0,105163.0,105176.0,105193.0,105216.0,105221.0,105242.0,105406.0,105491.0,0.08369804586470095,-0.14801569900089404,0.05495921316682253,-0.06989234033397508,0.018457971863733748
115,115,105972.12330450072,2587.0034856991783,12.739827004320285,106064.51415421334,-2004.2780775582912,24.048840598625837,106125.89642412144,39908.73949807562,11.220667948264422,106142.45203459916,-28081.30480644825,10.445659958094804,106360.00139203788,10764.872174176082,36.257959951516696,0.9379770605491576,84.0,64.0,110.0,245.0,355.0,20.0,891.0,919.0,46.0,7.0,39.0,0.1521739130434782,274.62020387963855,2993.1615021420853,44.0,16.0,28.0,0.3636363636363636,232.7455163481351,2333.3796688101866,24.0,16.0,8.0,0.6666666666666666,2157.3374995877057,15543.41022324741,23.0,4.0,19.0,0.1739130434782608,1814.7205429015944,34512.42191656896,96.0,46.0,50.0,0.4791666666666667,273.01742853115616,11056.250539854504,,,,,105965.0,105985.0,106049.0,106093.0,106111.0,106134.0,106139.0,106159.0,106320.0,106404.0,0.10615378193254275,-0.11612436365700163,0.054056768685759454,-0.06462379705678363,0.025361882994402788
116,116,106846.17263552644,2642.556594264501,16.331543329155704,106939.7533909998,-1865.9334496657475,25.479653996807716,106987.94952918292,35547.598110792234,11.525876025676071,107006.17805189874,-27166.1588590663,10.32655892774116,107224.27424916672,10942.43983422583,36.78578670399883,0.9431236669420888,90.0,56.0,102.0,248.0,350.0,34.0,877.0,863.0,36.0,18.0,18.0,0.5,253.35994416539057,3112.187385064045,74.0,59.0,15.0,0.7972972972972973,216.61796082736777,603.1249480619213,24.0,15.0,9.0,0.625,2031.223582681137,14836.05347235344,22.0,5.0,17.0,0.2272727272727272,1689.8102214734315,34101.90991947656,93.0,45.0,48.0,0.4838709677419355,198.050871071122,10798.46216212979,,,,,106830.0,106864.0,106920.0,106954.0,106973.0,106996.0,107001.0,107022.0,107180.0,107270.0,0.09587682803664149,-0.11609093607608109,0.057140951586950074,-0.06220276595745086,0.018099333793150707
117,117,107751.32873009848,2367.8844763542693,15.2040952571982,107832.3287300988,-2832.3474216058676,28.02761940950102,107888.2493722317,41220.313988243506,11.275609633312072,107905.027373699,-28439.26570502128,10.646314766764904,108127.4698729028,10402.43168246947,33.779770538790984,0.9507806323629536,83.0,59.0,96.0,248.0,344.0,24.0,909.0,899.0,25.0,8.0,17.0,0.32,261.4545196723515,2352.0799217224253,31.0,7.0,24.0,0.2258064516129032,218.2029122774596,2558.366490727645,25.0,16.0,9.0,0.64,2194.9261437081423,15765.26973630972,23.0,4.0,19.0,0.1739130434782608,1861.2760450072212,35615.81472316125,82.0,38.0,44.0,0.4634146341463415,245.8279686268218,10740.50626146027,,,,,107743.0,107767.0,107826.0,107856.0,107873.0,107897.0,107901.0,107922.0,108089.0,108170.0,0.11041692374912727,-0.07703959994912778,0.0532486517287122,-0.06544740164225096,0.023631779196502622
118,118,108629.29888613027,3315.3457079412897,24.798197782049694,108718.69864360055,-1408.7393849384334,10.191861603456228,108775.65897253812,38596.454716718465,11.484696386960326,108793.3678132522,-26278.4573816466,9.558815537600042,109009.1766926368,12553.109437468724,44.543391775573845,0.9699376499848472,96.0,53.0,96.0,251.0,347.0,43.0,876.0,888.0,51.0,18.0,33.0,0.3529411764705882,284.27071914901927,4170.211011162136,20.0,7.0,13.0,0.35,190.1791467860353,822.1452035568591,25.0,16.0,9.0,0.64,2146.738323065417,16405.51027822787,21.0,4.0,17.0,0.1904761904761904,1792.8557395613236,33757.650206109945,98.0,46.0,52.0,0.4693877551020408,237.81006708561455,13884.778699340548,,,,,108617.0,108660.0,108713.0,108730.0,108761.0,108784.0,108789.0,108809.0,108963.0,109060.0,0.08574391456918112,-0.13499952426924355,0.055620090985598586,-0.06822530384958936,0.01894431561122181
119,119,109475.24660900142,3441.21357347277,22.13607974727515,109569.26125344046,-1583.5118498419902,10.191861603456228,109622.36325663366,35063.43558888002,11.706535783420213,109640.60271279886,-26604.310275530577,9.633569472606109,109855.1654381246,11708.78913563544,41.913536829225066,0.935266201249394,104.0,58.0,91.0,251.0,342.0,46.0,839.0,847.0,46.0,14.0,32.0,0.3043478260869565,195.73030367763496,3968.473400266269,18.0,4.0,14.0,0.2222222222222222,196.00175644968832,1469.1664232611,24.0,15.0,9.0,0.625,2035.8184659835351,17059.82335084118,21.0,5.0,16.0,0.238095238095238,1695.0969179202564,32617.93362202327,102.0,48.0,54.0,0.4705882352941176,244.3471109523529,12004.770825494625,,,,,109461.0,109507.0,109565.0,109583.0,109607.0,109631.0,109636.0,109656.0,109810.0,109907.0,0.05687827840342667,-0.1237766275441805,0.05806100947589894,-0.06371512361586493,0.0208686917256617
120,120,110345.75339099858,3009.5061293932354,18.323823066743103,110429.31628634685,-2565.821422997513,50.9593080172807,110482.87692048514,40445.57556481621,11.368328720079118,110500.027373699,-26918.64526071545,10.33782539212784,110723.68483389584,10560.28631176798,33.274455810208934,0.9450239151001116,74.0,38.0,119.0,248.0,367.0,36.0,879.0,861.0,46.0,26.0,20.0,0.5652173913043478,202.39638309325673,1568.2352631727806,55.0,32.0,23.0,0.5818181818181818,224.0083229364631,2693.208699141221,24.0,15.0,9.0,0.625,2160.700935799439,15694.24263015144,22.0,4.0,18.0,0.1818181818181818,1779.617282542341,35368.63685610428,86.0,45.0,41.0,0.5232558139534884,178.29242814438015,10981.361562728194,,,,,110324.0,110360.0,110398.0,110452.0,110468.0,110491.0,110496.0,110517.0,110679.0,110765.0,0.06725235782592112,-0.08730472079181803,0.053422430157701664,-0.06611095266148033,0.01688329491083001
121,121,111253.6117454127,3080.8206189912567,17.30451769705189,111337.20542559796,-2365.418499173831,40.767446413560755,111391.43668392616,41989.27512416273,11.457692418547447,111408.02737370032,-27914.647275302283,10.634087205764846,111629.80297183649,11711.9385745669,36.883465775530944,0.9634648968562296,81.0,41.0,114.0,249.0,363.0,40.0,908.0,908.0,40.0,23.0,17.0,0.575,153.74726704364568,2636.2038469998274,48.0,25.0,23.0,0.5208333333333334,222.07485845406703,2507.005570543862,24.0,15.0,9.0,0.625,2229.584194950611,17038.957000951643,23.0,4.0,19.0,0.1739130434782608,1765.915400729352,34553.28144550335,90.0,44.0,46.0,0.4888888888888889,166.97112040667585,12100.710307567371,,,,,111231.0,111271.0,111312.0,111360.0,111377.0,111400.0,111404.0,111426.0,111590.0,111675.0,0.04990464751368311,-0.09388396113906737,0.053098897000667604,-0.06326124716222943,0.014256488739555255
122,122,112128.90406919828,2507.5244785394034,15.309261763985504,112195.972626301,-2734.2284610681286,17.8357578060484,112266.3366755116,34948.51283128944,11.049189249654573,112285.17805189872,-26137.01990267613,10.050222006202889,112502.7746834593,11024.906602260666,36.08958829526981,0.9502019172309856,82.0,40.0,114.0,248.0,362.0,42.0,876.0,875.0,48.0,25.0,23.0,0.5208333333333334,211.66450095780385,1514.4650755776163,78.0,40.0,38.0,0.5128205128205128,221.6933405857273,2749.5634947500503,24.0,15.0,9.0,0.625,2045.0040574858456,16681.967983143117,21.0,5.0,16.0,0.238095238095238,1742.6172288841174,34256.47231720291,91.0,45.0,46.0,0.4945054945054945,230.1747086299361,10676.79171828508,,,,,112104.0,112146.0,112186.0,112233.0,112252.0,112275.0,112280.0,112300.0,112463.0,112548.0,0.08441173865672305,-0.08108076693017913,0.058514766203583674,-0.06667237639841615,0.0208777014566943
123,123,112956.64802494804,3092.347835377662,19.717300068253753,113043.054747398,-1745.3317770364415,35.6715156120968,113098.08795929467,35254.519162322365,11.749796845393154,113116.60271279886,-26942.309215221587,9.889473193184118,113333.93331358494,11758.227194026564,40.8882878292865,0.9639414166038976,97.0,58.0,97.0,250.0,347.0,39.0,825.0,832.0,44.0,19.0,25.0,0.4318181818181818,194.89616738645427,2877.7870988329714,29.0,8.0,21.0,0.2758620689655172,189.2509154185394,2048.650317287801,24.0,15.0,9.0,0.625,2041.5059368921984,16519.724543174136,22.0,6.0,16.0,0.2727272727272727,1676.783659492782,33576.251304660545,97.0,46.0,51.0,0.4742268041237113,189.35618821104725,12316.32399383094,,,,,112938.0,112977.0,113035.0,113064.0,113084.0,113107.0,113112.0,113132.0,113289.0,113382.0,0.06302530561302526,-0.1084326303505949,0.05790763809577131,-0.06223607806213768,0.016104144365167935
124,124,113839.41381450513,2517.508193590205,16.044908062815576,113929.47940829818,-3165.2470691549397,33.12355021113745,113979.12317001638,40372.75383998032,11.596612830411066,113996.60271279886,-27705.10894160613,10.489295266037674,114217.78020455247,10619.806874363472,33.88949774502897,0.9434253076573076,67.0,27.0,131.0,247.0,378.0,40.0,880.0,882.0,40.0,23.0,17.0,0.575,196.9751541164954,2618.4286802163197,71.0,52.0,19.0,0.7323943661971831,178.87200098502677,3066.4380578533046,24.0,15.0,9.0,0.625,2140.2972869799287,17162.60796603386,23.0,5.0,18.0,0.217391304347826,1786.5292645291315,35469.902515804715,79.0,36.0,43.0,0.4556962025316455,238.34315274374015,11323.949506059203,,,,,113816.0,113856.0,113883.0,113948.0,113964.0,113988.0,113992.0,114014.0,114182.0,114261.0,0.07824211044000226,-0.0565112286898925,0.05301340838584153,-0.06448374804425376,0.02244326620657364
125,125,114752.8868105097,2655.826621030888,18.92465251986352,114836.63008649784,-2500.049366915052,38.21948101296085,114890.89667588192,41822.01803554388,11.884660264049195,114907.027373699,-30173.850499745156,10.296236408165267,115125.60753826983,11341.065060519171,37.03580902971051,0.9513125228351494,70.0,28.0,119.0,248.0,367.0,42.0,917.0,910.0,49.0,23.0,26.0,0.4693877551020408,205.2504843623561,1953.425356297668,74.0,52.0,22.0,0.7027027027027027,219.9215565510364,2395.979133868349,24.0,16.0,8.0,0.6666666666666666,2111.3834338802876,14063.437329956192,22.0,4.0,18.0,0.1818181818181818,1785.5098953887002,35179.572895910256,90.0,43.0,47.0,0.4777777777777778,175.9820448767531,11567.673238180523,,,,,114735.0,114777.0,114805.0,114858.0,114875.0,114899.0,114903.0,114924.0,115084.0,115172.0,0.07728308871408401,-0.08796688555890785,0.05048497258276384,-0.059174081723636175,0.015517241452867302
126,126,116441.35610379744,3735.4224157267786,19.568832686754124,116539.02737369906,-1649.7522072502331,17.835757805436867,116581.24693686656,35141.41840645812,11.854453930442224,116599.39832783528,-27956.141789881214,9.992035047964444,116817.05001442744,11158.494655428416,36.2420187395809,0.9630352775781248,101.0,56.0,92.0,249.0,341.0,45.0,1693.0,1690.0,45.0,19.0,26.0,0.4222222222222222,212.2321101151472,4270.435367102925,26.0,16.0,10.0,0.6153846153846154,320.31063276507825,691.5805374837892,24.0,15.0,9.0,0.625,2010.0984021305292,15202.451869423528,22.0,5.0,17.0,0.2272727272727272,1716.0481512481222,33678.85340934545,90.0,43.0,47.0,0.4777777777777778,184.33419204007637,11871.405245361308,,,,,116422.0,116467.0,116523.0,116549.0,116566.0,116590.0,116595.0,116615.0,116774.0,116864.0,0.056816093735908714,-0.1941568141914865,0.05720026377083069,-0.06138358304754519,0.01651962901200127
127,127,117307.23531947738,3473.366873182594,19.534318369684108,117395.027373699,-1900.1605210330529,17.8357578060484,117448.1995285144,37534.69167907994,11.015990053906863,117466.94820212416,-23830.840292422217,9.36577730188631,117684.60250039167,11579.993765247298,40.21029918170293,0.9699439170040594,95.0,46.0,100.0,249.0,349.0,49.0,859.0,868.0,52.0,23.0,29.0,0.4423076923076923,213.60025119230576,3954.6037209134697,52.0,30.0,22.0,0.5769230769230769,178.33658210736564,1582.3682614961065,25.0,15.0,10.0,0.6,2144.6374741487466,20864.096222826476,20.0,5.0,15.0,0.25,1810.8731610792488,33738.16223216754,93.0,45.0,48.0,0.4838709677419355,191.8059898224569,12456.612993651,,,,,117287.0,117336.0,117382.0,117405.0,117434.0,117458.0,117462.0,117482.0,117641.0,117731.0,0.061496599406611785,-0.0938534298199239,0.05713747411289024,-0.07598864072179085,0.01656356589742609
128,128,118246.78076469756,3350.976068104321,19.953849880660716,118338.30135639945,-1586.7450297139944,10.191861603456228,118390.08027686046,38128.12322836022,11.147960439509996,118408.95642561208,-23320.141332820556,9.369485085892077,118626.46367184444,11678.08456207663,42.18522258769755,0.9706104902814556,96.0,56.0,97.0,254.0,351.0,40.0,946.0,942.0,53.0,24.0,29.0,0.4528301886792453,175.52080176185305,3344.268455178373,17.0,11.0,6.0,0.6470588235294118,224.6824796596595,1143.9932844593766,25.0,15.0,10.0,0.6,2152.4660287973215,20708.006938928385,21.0,5.0,16.0,0.238095238095238,1809.5811167619736,33054.114868049684,102.0,49.0,53.0,0.4803921568627451,172.6561746819998,12148.388302391695,,,,,118231.0,118271.0,118327.0,118344.0,118376.0,118400.0,118404.0,118424.0,118579.0,118678.0,0.05237900784565938,-0.14159961143861768,0.05645350063273735,-0.07759734775771644,0.01478463131211456
129,129,119149.9891152885,3152.5204259194907,21.58710421981924,119238.90406919846,-1873.9828044738065,30.575584810350396,119294.53996787108,36309.21232172424,11.78422915181609,119311.60271281772,-29401.164906307706,9.90272892826304,119535.13777747852,11300.150688451298,33.98642564915311,0.9458494640189328,101.0,56.0,95.0,251.0,346.0,45.0,897.0,904.0,48.0,19.0,29.0,0.3958333333333333,225.3863254461703,3369.3429874497583,31.0,8.0,23.0,0.2580645161290322,197.8694822602508,1841.7957427954864,25.0,17.0,8.0,0.68,2003.4611761593192,10633.310700064923,21.0,5.0,16.0,0.238095238095238,1772.0313237469318,34205.74053554877,86.0,43.0,43.0,0.5,269.1789067708394,11842.815366792467,,,,,119131.0,119176.0,119232.0,119262.0,119279.0,119302.0,119307.0,119327.0,119498.0,119578.0,0.071494009552827,-0.10558767230300727,0.05517776476138603,-0.06027078618802486,0.023820824535193054
130,130,120014.67446383988,2062.595373242732,14.57248451868116,120103.054747398,-3149.5720813549374,35.6715156120968,120154.55407373782,39269.28101241898,11.516636065991303,120172.027373699,-27775.887056284253,10.554973937005087,120395.01336629402,11403.509339575055,33.62197651145569,0.9447695257299876,72.0,39.0,121.0,248.0,369.0,33.0,862.0,860.0,34.0,20.0,14.0,0.5882352941176471,205.8746572450129,1122.9034203147633,77.0,57.0,20.0,0.7402597402597403,224.04269913777273,3574.80541832188,24.0,16.0,8.0,0.6666666666666666,2082.7208072874387,13625.543935536736,23.0,5.0,18.0,0.217391304347826,1775.090812307983,35089.18011500202,89.0,46.0,43.0,0.5168539325842697,282.6270512032944,11680.77931341637,,,,,119996.0,120029.0,120068.0,120123.0,120140.0,120163.0,120168.0,120189.0,120351.0,120437.0,0.09981340010539479,-0.07113432979168083,0.05303689687185194,-0.06390761917741783,0.024784217102577156
131,131,120938.47940829814,3318.680550504833,20.83004542363184,121027.30652769092,-1887.430827819232,7.64389620259217,121075.91581184098,37970.11924122586,10.870340847928007,121095.26507693875,-23323.296947649444,9.294178160116427,121312.421025476,11832.831856429932,41.627468775944,0.969060364653992,101.0,58.0,95.0,252.0,347.0,43.0,931.0,922.0,55.0,30.0,25.0,0.5454545454545454,202.4816858963264,3039.2762187847184,29.0,12.0,17.0,0.4137931034482758,216.68757113214215,2601.7185626429523,25.0,15.0,10.0,0.6,2168.8110617508964,21161.42044838845,20.0,5.0,15.0,0.25,1845.4885644016035,33940.387229255255,94.0,44.0,50.0,0.4680851063829787,253.2116221293565,13074.783598653365,,,,,120914.0,120957.0,121015.0,121031.0,121062.0,121086.0,121091.0,121110.0,121268.0,121362.0,0.06101270755497247,-0.11480556952781494,0.057118889934802235,-0.07912640174945741,0.021399072107304722
132,132,121889.21103165862,3384.8044475457227,21.252745831049342,121974.60271279931,-1442.9605657461134,20.383723206909007,122029.03655963956,39220.67241577071,11.853073345945,122045.45203460424,-29372.30451173928,9.81619128711436,122261.06422036476,12220.059426439851,40.511716847027635,0.9432817316211248,102.0,54.0,92.0,251.0,343.0,48.0,945.0,952.0,48.0,21.0,27.0,0.4375,231.35259567785496,3668.4002785003586,26.0,6.0,20.0,0.2307692307692307,176.2633562965046,1838.6519459758456,24.0,16.0,8.0,0.6666666666666666,2093.604712451081,14750.988745933018,22.0,4.0,18.0,0.1818181818181818,1788.9058441950074,33501.00003465284,103.0,51.0,52.0,0.4951456310679611,185.55591021396984,12483.972771977891,,,,,121868.0,121916.0,121970.0,121995.0,122013.0,122037.0,122042.0,122062.0,122211.0,122313.0,0.06835035797876172,-0.12215396628345411,0.05338013306496088,-0.06090451103283477,0.015184534194039433
133,133,122766.82194810128,2630.716145724801,21.078327369867385,122856.78076469756,-2138.845858200731,29.253228664006897,122915.4651144948,39308.548257955,11.712865456339664,122932.027373699,-29245.75303951367,10.29062492774887,123152.69267706748,11666.74971154436,37.24754966799677,0.9530137724728208,79.0,38.0,116.0,248.0,364.0,41.0,874.0,887.0,45.0,14.0,31.0,0.3111111111111111,270.34408771702226,3041.2262197343334,52.0,27.0,25.0,0.5192307692307693,192.2674076449485,2044.17714154118,25.0,16.0,9.0,0.64,2097.857269058383,15824.929148426529,22.0,4.0,18.0,0.1818181818181818,1763.2727682692805,34137.58022076267,87.0,42.0,45.0,0.4827586206896552,188.49240029228577,12795.217625992958,,,,,122754.0,122795.0,122833.0,122881.0,122900.0,122923.0,122928.0,122949.0,123112.0,123197.0,0.1027644461590281,-0.08989306401289258,0.053368983644259425,-0.06029158373480548,0.01615637645039824
134,134,123690.75339100292,4309.517825070354,25.479654008370936,123748.03190254194,-2823.7162456442243,48.41134261641491,123828.37054870972,39476.600051581576,11.239030863406134,123846.02737369903,-26447.56062545666,10.187199963611782,124066.58742033337,10894.04176053434,35.57976904853811,0.9409123715350372,70.0,30.0,127.0,251.0,378.0,40.0,932.0,914.0,44.0,26.0,18.0,0.5909090909090909,190.20778834405704,2197.284244661066,76.0,26.0,50.0,0.3421052631578947,239.6076112096351,2323.662931595822,24.0,15.0,9.0,0.625,2186.2690114811476,18109.701191853535,23.0,5.0,18.0,0.217391304347826,1797.790962357389,34861.018011196684,89.0,43.0,46.0,0.4831460674157303,192.8006869998451,11574.683009497025,,,,,123665.0,123705.0,123735.0,123795.0,123814.0,123837.0,123842.0,123862.0,124025.0,124113.0,0.04413667516062585,-0.08485541405913086,0.055381390713093025,-0.0679756816826031,0.017697810531468763
135,135,124597.12330450072,3243.6494750531333,12.739827004320285,124692.32036955006,-2311.840194700139,24.603262631294893,124750.88398822011,38320.8155434808,11.426398884444245,124768.60271279886,-26954.733698205295,10.061460261125031,124987.90664546064,11546.122410303904,37.31103100740501,0.9419858123175084,91.0,54.0,104.0,250.0,354.0,37.0,900.0,922.0,45.0,7.0,38.0,0.1555555555555555,221.9079362201029,3756.769746161587,56.0,29.0,27.0,0.5178571428571429,240.41502108845535,2137.050651415296,24.0,15.0,9.0,0.625,2196.0143861878723,16318.846824718628,21.0,5.0,16.0,0.238095238095238,1773.7795368820632,34745.69893700509,92.0,44.0,48.0,0.4782608695652174,226.93064818365335,11950.679928514666,,,,,124590.0,124627.0,124681.0,124717.0,124736.0,124759.0,124764.0,124785.0,124949.0,125035.0,0.06841304460509497,-0.103992923749489,0.057306045162221556,-0.06580586388802517,0.01965427354045178
136,136,125474.09770467856,2924.5062031525076,18.461864547716868,125546.82194810128,-2198.991125628504,22.93168860777651,125615.23980905351,35900.79475973745,10.929727144094022,125633.49333389723,-26080.22245035267,10.362387616176576,125852.98619029528,11706.624367513086,37.29975444982536,0.9414895494592502,79.0,39.0,116.0,250.0,366.0,40.0,884.0,864.0,46.0,22.0,24.0,0.4782608695652174,212.5490039548503,2414.9401600984347,74.0,37.0,37.0,0.5,238.106234418608,1898.530638208979,24.0,15.0,9.0,0.625,2101.697952999583,15487.07963112846,23.0,5.0,18.0,0.217391304347826,1728.586948287876,34316.387885321215,97.0,50.0,47.0,0.5154639175257731,209.91045645985088,12494.09441251068,,,,,125455.0,125495.0,125534.0,125556.0,125601.0,125624.0,125628.0,125650.0,125806.0,125900.0,0.07267859569787558,-0.1082797614067468,0.058541822460059456,-0.06627960906309299,0.017930912436412573
