Unnamed: 0,cycle,p_center,p_height,p_width,q_center,q_height,q_width,r_center,r_height,r_width,s_center,s_height,s_width,t_center,t_height,t_width,r_squared,pr_interval,pr_segment,qrs_duration,st_segment,qt_interval,p_duration,pp_interval,rr_interval,fwhm_p,rise_time_p,decay_time_p,rise_decay_symmetry_p,sharpness_deriv_p,sharpness_diff_p,fwhm_q,rise_time_q,decay_time_q,rise_decay_symmetry_q,sharpness_deriv_q,sharpness_diff_q,fwhm_r,rise_time_r,decay_time_r,rise_decay_symmetry_r,sharpness_deriv_r,sharpness_diff_r,fwhm_s,rise_time_s,decay_time_s,rise_decay_symmetry_s,sharpness_deriv_s,sharpness_diff_s,fwhm_t,rise_time_t,decay_time_t,rise_decay_symmetry_t,sharpness_deriv_t,sharpness_diff_t,Average_Heart_Rate,SDNN,RMSSD,NN50,p_on,p_off,q_on,q_off,r_on,r_off,s_on,s_off,t_on,t_off,sharpness_deriv_p_norm,sharpness_deriv_q_norm,sharpness_deriv_r_norm,sharpness_deriv_s_norm,sharpness_deriv_t_norm
0,0,,,,,,,,,,,,,,,,,,,,,,,,,,,,,,,,,,,,,,,,,,,,,,,,,,,,,,,63.76211132512711,125.51354404344497,158.33888453396526,186.0,,,,,,,,,,,,,,,
1,1,1727.0547473983795,4257.56042377503,14.909882665880078,1815.452034599136,-2434.809843566631,15.287792405184335,1852.7241807161197,58765.02667414782,10.86519871977662,1921.794574402304,-3497.3139575953696,40.767446413824906,2137.302305029404,5824.665433419425,32.231082584708716,0.9916302882685704,58.0,19.0,268.0,139.0,407.0,39.0,,,41.0,20.0,21.0,0.4878048780487805,86.19059768234189,4328.683838997,62.0,53.0,9.0,0.8548387096774194,267.7908936036695,971.3490686350708,27.0,14.0,13.0,0.5185185185185185,2339.2046171436405,55773.72939825819,136.0,23.0,113.0,0.1691176470588235,26.004090912124862,3198.370328751785,76.0,40.0,36.0,0.5263157894736842,60.09348950612818,6318.782805252278,,,,,1708.0,1747.0,1766.0,1824.0,1839.0,1866.0,1899.0,2034.0,2097.0,2173.0,0.02024412788155328,-0.10998431533010232,0.03980606747810282,-0.007435446524796522,0.010317071459819405
2,2,2578.2262934004684,5223.352070325771,17.07089800742723,2665.0273736991808,-2378.7232269692004,17.835757806022684,2703.72594576058,59184.65456548992,10.88730311081188,2774.2192353024475,-3090.9556268275455,43.31541181468896,2989.57192782733,6122.6189730214965,35.8274910871388,0.9952608599399346,65.0,22.0,232.0,173.0,405.0,43.0,851.0,851.0,43.0,20.0,23.0,0.4651162790697674,93.53039541984924,5446.756289338708,55.0,44.0,11.0,0.8,214.56019438141817,279.3636595943801,27.0,14.0,13.0,0.5185185185185185,2345.9324121949226,56213.091631795,106.0,24.0,82.0,0.2264150943396226,18.646491233311643,2874.3892974162077,82.0,44.0,38.0,0.5365853658536586,46.31178390417969,6600.516336414393,,,,,2558.0,2601.0,2623.0,2675.0,2690.0,2717.0,2750.0,2855.0,2947.0,3028.0,0.017906201642275268,-0.09019973065752399,0.03963751126736856,-0.006032597514979464,0.007564048017400134
3,3,3484.3293508485713,4854.902841197952,18.544963256763364,3572.452034599149,-1372.0531784851817,15.287792405125762,3610.617775806976,59656.80603727364,10.943868267855144,3675.7038190123,-1976.2751040659,56.055238819009254,3898.2709766972016,6436.560801715472,38.21399072322581,0.994658480477367,89.0,41.0,177.0,209.0,386.0,48.0,904.0,907.0,48.0,22.0,26.0,0.4583333333333333,62.64399210300043,5053.96222688385,31.0,22.0,9.0,0.7096774193548387,218.9977257387764,1138.5345902914669,27.0,14.0,13.0,0.5185185185185185,2346.02807200094,56294.068734453365,68.0,16.0,52.0,0.2352941176470588,51.73485539348442,2818.845149020743,83.0,43.0,40.0,0.5180722891566265,60.06227598887414,7160.015516891814,,,,,3462.0,3510.0,3551.0,3581.0,3597.0,3624.0,3661.0,3728.0,3856.0,3937.0,0.012903243206313674,-0.15961314705058396,0.03932540522761374,-0.026177962413758818,0.009331423696466341
4,4,4357.292769182095,3902.1438239469726,12.331302843907087,4442.027373698993,-2281.8220231555374,17.8357578060484,4479.470733147106,59143.12502155352,10.687299099492964,4548.281325184737,-2788.02116041881,61.15116962073736,4763.984488312307,5899.111846188528,34.50400811684084,0.9945535194029954,48.0,11.0,243.0,173.0,416.0,37.0,871.0,869.0,37.0,18.0,19.0,0.4864864864864865,77.69961826937542,3583.278846722787,65.0,55.0,10.0,0.8461538461538461,245.26716373508927,627.1061090825733,27.0,13.0,14.0,0.4814814814814814,2376.186592878598,57619.13201777869,104.0,22.0,82.0,0.2115384615384615,47.48884594030017,2988.470418332494,85.0,45.0,40.0,0.5294117647058824,44.33802254932758,6229.89265548219,,,,,4339.0,4376.0,4387.0,4452.0,4466.0,4493.0,4526.0,4630.0,4722.0,4803.0,0.019912033429558003,-0.10748742068669698,0.040176886020355615,-0.01703317270847633,0.007516050501394511
5,5,5218.054747397985,4343.996495852347,16.98319182030528,5300.602712798849,-1158.5748272928463,20.383723206912453,5340.335471302644,60148.33177571853,10.997341274958991,5411.739581293808,-2939.247943099202,95.35525002613784,5622.09584916046,6342.830113546272,34.82288790655491,0.9964342029175384,57.0,13.0,243.0,170.0,413.0,44.0,865.0,861.0,45.0,25.0,20.0,0.5555555555555556,55.65864618655238,3604.633951702293,62.0,51.0,11.0,0.8225806451612904,190.77320984601764,251.90478059241707,27.0,13.0,14.0,0.4814814814814814,2333.5136852432634,57628.35062643049,134.0,27.0,107.0,0.2014925373134328,23.973642707176076,3061.997214194019,78.0,36.0,42.0,0.4615384615384615,52.06610390248052,6583.038290992579,,,,,5194.0,5238.0,5251.0,5312.0,5327.0,5354.0,5387.0,5494.0,5587.0,5664.0,0.012812774190700964,-0.16466196688545606,0.0387959834687433,-0.008156386657839347,0.00820865496480567
6,6,6069.905370009343,4886.219185920623,16.979838655062263,6161.575501375705,-1934.3488147761032,6.386572284189238,6193.860057836201,59954.54430143999,11.052615668244371,6255.986190295249,-3168.2847413427953,84.08285822851387,6476.658244949586,6275.321697887484,35.92951268753708,0.9967963084316782,78.0,35.0,233.0,157.0,390.0,43.0,851.0,853.0,43.0,22.0,21.0,0.5116279069767442,71.3901659926394,4452.024192564204,42.0,38.0,4.0,0.9047619047619048,705.6409196090868,6950.079925783889,27.0,14.0,13.0,0.5185185185185185,2326.205460271185,55893.84358246352,124.0,20.0,104.0,0.1612903225806451,41.93811926332435,3645.317437314219,79.0,40.0,39.0,0.5063291139240507,56.84722969083444,6875.409021830607,,,,,6048.0,6091.0,6126.0,6166.0,6180.0,6207.0,6237.0,6359.0,6438.0,6516.0,0.014610512397468026,-0.3647950743003729,0.03879948529965416,-0.01323685296213306,0.009058855055984048
7,7,7011.585964910503,5226.163465332781,18.28801804705776,7098.452034599445,-2049.5858136539205,15.287792405039704,7136.300628192105,59036.483289429125,10.84660916160916,7197.671269901583,-2410.4768479925583,28.027619409504627,7425.635503288871,6502.612788463077,37.73592488945442,0.9927743841798342,84.0,40.0,207.0,185.0,392.0,44.0,941.0,943.0,45.0,22.0,23.0,0.4888888888888889,79.438340141733,5410.971941017645,33.0,24.0,9.0,0.7272727272727273,227.39286812446272,1089.6501583425684,27.0,13.0,14.0,0.4814814814814814,2335.482976457156,58518.51130811221,101.0,16.0,85.0,0.1584158415841584,52.00616740108455,2452.0667262985207,84.0,43.0,41.0,0.5119047619047619,39.99887415288752,6813.212639506911,,,,,6991.0,7035.0,7075.0,7107.0,7123.0,7150.0,7182.0,7282.0,7383.0,7467.0,0.015200125420622426,-0.11094576602239245,0.039559994876512905,-0.021575053684666255,0.006151200364237194
8,8,7951.13694694026,5016.077647780707,18.48319019538754,8037.452034599137,-2138.0254206381123,15.287792404989018,8074.728499448224,59123.93846254908,10.87802217828719,8140.520591701871,-2535.366372429506,33.12355021123273,8362.743917754522,6543.8955079385,34.9357376955581,0.994233644652176,87.0,45.0,194.0,188.0,382.0,42.0,941.0,938.0,44.0,21.0,23.0,0.4772727272727273,93.87160431671435,5461.545817547867,28.0,19.0,9.0,0.6785714285714286,275.7755330857053,1209.3566270797066,27.0,14.0,13.0,0.5185185185185185,2340.9838509166557,56744.70568775379,95.0,20.0,75.0,0.2105263157894736,46.0378956950199,2430.807570909249,84.0,45.0,39.0,0.5357142857142857,49.87497302531983,6976.709518630532,,,,,7932.0,7974.0,8019.0,8046.0,8061.0,8088.0,8122.0,8213.0,8319.0,8401.0,0.018714144977051247,-0.12898608708001127,0.039594518088464405,-0.01815828126287888,0.007621602906833665
9,9,8891.05850439016,5381.172238145954,17.938884226573755,8978.876695499283,-1692.6093839139166,12.739827004316355,9015.518840096887,59899.95313760287,10.97268551570428,9088.7260238273,-2104.8012296176557,61.15116962073732,9304.12053781428,6590.876395650655,35.954446624341294,0.9949635799236703,72.0,26.0,248.0,154.0,402.0,46.0,940.0,941.0,46.0,22.0,24.0,0.4782608695652174,77.11970424135066,5509.407667670362,46.0,39.0,7.0,0.8478260869565217,328.1953478302113,2726.972718878161,27.0,14.0,13.0,0.5185185185185185,2342.0266852552186,56245.62791960618,128.0,28.0,100.0,0.21875,18.9174560000292,1924.367049651741,82.0,42.0,40.0,0.5121951219512195,53.24985570939695,7070.455098883813,,,,,8869.0,8915.0,8941.0,8986.0,9002.0,9029.0,9061.0,9189.0,9262.0,9343.0,0.014331394876132365,-0.19389904779524889,0.03909897358141646,-0.008987763658550134,0.008079328531261296
10,10,9797.276380617994,5256.499606155326,17.370522238592333,9884.027373699,-990.033959519293,17.835757805996835,9922.554695493438,59880.341054607,10.990184345297228,9986.561529395103,-2668.890653319795,86.63082362934598,10209.451343149463,6152.29617936239,34.99878956622037,0.9958657332279424,58.0,15.0,234.0,180.0,414.0,43.0,899.0,907.0,43.0,20.0,23.0,0.4651162790697674,82.12653166159129,5021.1066077643445,59.0,49.0,10.0,0.8305084745762712,231.12922634156172,401.48420153928623,27.0,14.0,13.0,0.5185185185185185,2342.6533013717194,55323.754283501345,114.0,21.0,93.0,0.1842105263157894,33.22201649247487,3263.8272151912115,83.0,42.0,41.0,0.5060240963855421,51.23197379147565,6535.652437806904,,,,,9777.0,9820.0,9835.0,9894.0,9909.0,9936.0,9967.0,10069.0,10168.0,10249.0,0.015623806299808654,-0.23345585686150158,0.039122243796764135,-0.012447874719464612,0.008327293143547134
11,11,10696.15248318745,5331.517776119851,16.288954173794224,10783.45203459914,-1178.394778045224,15.28779240518434,10821.252903612913,60302.63216683033,11.084328035269763,10890.561529395103,-1951.5672594422083,81.1487958382416,11106.6244107785,6809.365118980455,38.143455028811935,0.9959539645053644,60.0,18.0,204.0,209.0,413.0,42.0,904.0,899.0,43.0,21.0,22.0,0.4883720930232558,90.4503243483483,5171.3365975471215,59.0,50.0,9.0,0.847457627118644,242.95151876676428,1374.8626240867638,27.0,13.0,14.0,0.4814814814814814,2326.8850526840583,58615.00236904215,87.0,23.0,64.0,0.264367816091954,23.04408298659388,2470.645613897421,86.0,44.0,42.0,0.5116279069767442,62.272560248188135,7458.911073274135,,,,,10675.0,10717.0,10735.0,10792.0,10808.0,10835.0,10869.0,10939.0,11064.0,11148.0,0.01696521106118788,-0.20617158467876406,0.03858679080950582,-0.011807988105508739,0.009145134555145137
12,12,11584.600518063096,5378.788910387707,16.7719484979569,11677.54796540086,-1709.285221572428,5.312515526702666,11709.825850315789,60618.962619083766,11.053384346071502,11781.314920393665,-2788.254239359431,101.74506372772478,11993.935475956956,6531.043947779104,36.002844141295824,0.9962491809897716,96.0,58.0,193.0,180.0,373.0,38.0,886.0,888.0,38.0,19.0,19.0,0.5,104.69784011308369,4931.174512195786,56.0,52.0,4.0,0.9285714285714286,719.53286098162,7277.810456133669,27.0,14.0,13.0,0.5185185185185185,2351.436158179494,56698.950606552746,127.0,27.0,100.0,0.2125984251968504,21.515340367812133,3222.778231685371,80.0,37.0,43.0,0.4625,38.12736549452108,6516.872465369908,,,,,11566.0,11604.0,11662.0,11681.0,11696.0,11723.0,11756.0,11855.0,11958.0,12035.0,0.019464946823045524,-0.4209554098406689,0.038790438776648194,-0.007716419853002728,0.005837866932052474
13,13,12473.3158810338,5148.239258424003,16.876552169784755,12561.45203459914,-2658.2009543621893,15.28779240518434,12598.43119397308,58871.78648425703,10.732494843840042,12664.945252602014,-3085.9327443918737,35.6715156120968,12885.65208048705,6348.164617101065,33.558100999356846,0.9931644331287016,67.0,23.0,208.0,194.0,402.0,44.0,893.0,889.0,45.0,22.0,23.0,0.4888888888888889,75.04896767911981,5149.465647286638,52.0,43.0,9.0,0.8269230769230769,275.6089650605394,948.9571443998254,27.0,13.0,14.0,0.4814814814814814,2363.3878524717124,58233.36977217272,85.0,21.0,64.0,0.2470588235294117,41.43729496993853,2890.1340578884074,76.0,40.0,36.0,0.5263157894736842,55.191052187524775,6778.173937929604,,,,,12452.0,12496.0,12519.0,12570.0,12585.0,12612.0,12645.0,12727.0,12848.0,12921.0,0.014577599041520471,-0.10368251678198243,0.040144660007959986,-0.013427802354164502,0.008694017171332927
14,14,13391.168982543422,5262.296061067081,18.819420765446147,13484.123304500716,-1132.7945035592911,5.472106675036568,13516.892029674342,60597.3539299388,11.025063504613405,13583.13686849496,-2302.012945241805,65.72712651395366,13802.513275033683,7139.449296197124,38.20325762509176,0.9966614242113072,82.0,36.0,202.0,191.0,393.0,46.0,916.0,918.0,46.0,22.0,24.0,0.4782608695652174,72.12709653732911,5527.340600101896,38.0,35.0,3.0,0.9210526315789472,588.8504676769761,7268.206949850479,27.0,14.0,13.0,0.5185185185185185,2351.564934327923,57624.09715535541,91.0,20.0,71.0,0.2197802197802197,27.698954469505132,2935.9640601180568,89.0,46.0,43.0,0.5168539325842697,56.88900667331193,7735.145445047976,,,,,13369.0,13415.0,13451.0,13487.0,13503.0,13530.0,13563.0,13653.0,13759.0,13844.0,0.013706392741936167,-0.5198210847834992,0.038806396349364454,-0.012032492921796152,0.007968262580646696
15,15,14397.780764697554,5225.672182135292,20.05621366085648,14489.123304500716,-1789.830311597793,6.590620153312809,14522.15409058049,60112.04322637714,11.165897534296027,14626.712453305328,-1979.6878355743215,50.52230362956524,14813.888368856098,7048.614818922653,38.61599367850696,0.9954235672805136,104.0,57.0,218.0,156.0,374.0,47.0,1010.0,1005.0,49.0,24.0,25.0,0.4897959183673469,67.37185415941536,5381.573772358317,14.0,11.0,3.0,0.7857142857142857,610.3796132458446,7332.278233968787,28.0,14.0,14.0,0.5,2301.305966400485,59317.95012240008,125.0,54.0,71.0,0.432,13.882675304879315,1759.0983180716405,83.0,43.0,40.0,0.5180722891566265,52.9520667275446,7567.592668832886,,,,,14375.0,14422.0,14479.0,14492.0,14508.0,14536.0,14574.0,14697.0,14772.0,14853.0,0.012892476185118478,-0.34102652597326655,0.03828360912195167,-0.007012557765629677,0.007512407485423932
16,16,15449.967903514736,5260.742557371395,18.4296587258211,15541.123304500716,-847.718679071448,4.627155360026592,15574.47726357631,60389.14918670888,11.039647645850764,15660.00644345922,-2161.065455467661,71.20648670422518,15865.810839602678,6874.540771735503,38.95536323668548,0.9960116376176136,105.0,60.0,211.0,163.0,374.0,45.0,1051.0,1053.0,46.0,22.0,24.0,0.4782608695652174,73.44639310933468,5417.828482409212,11.0,8.0,3.0,0.7272727272727273,546.4418872629922,6822.130579026557,27.0,13.0,14.0,0.4814814814814814,2327.5127609859114,59407.109997787775,122.0,37.0,85.0,0.3032786885245901,14.53051165145198,2342.4675389520144,87.0,45.0,42.0,0.5172413793103449,59.01892510621086,7558.537485299381,,,,,15428.0,15473.0,15533.0,15544.0,15561.0,15588.0,15623.0,15744.0,15823.0,15907.0,0.0139612216922535,-0.6446028626637547,0.03854190350968178,-0.006723772116521816,0.008585144385042511
17,17,16433.35394778721,4853.876710217346,16.449013560588924,16521.876695499283,-1744.5346023204795,12.73982700432026,16558.684546894994,59629.18635562017,11.095480918392663,16647.04118340374,-1859.0048043490583,66.24710042246546,16849.28263153009,7020.175323248248,36.345030047146665,0.9958247957415682,64.0,23.0,247.0,164.0,411.0,41.0,980.0,984.0,41.0,19.0,22.0,0.4634146341463415,90.97001749906208,5091.417738415537,51.0,44.0,7.0,0.8627450980392157,341.3656569562455,2614.320392853341,27.0,14.0,13.0,0.5185185185185185,2314.287677076017,56920.58971935578,119.0,38.0,81.0,0.3193277310924369,16.474361527448796,1829.8300137091433,82.0,42.0,40.0,0.5121951219512195,41.036343892746146,7499.842592455627,,,,,16414.0,16455.0,16478.0,16529.0,16545.0,16572.0,16610.0,16725.0,16808.0,16889.0,0.01874172397242217,-0.19567720611685235,0.03881132409343853,-0.008861925202617964,0.005845487043158141
18,18,17307.356818373246,4767.4391598654465,15.540029003328392,17394.027373698995,-1271.957609134011,17.8357578060484,17432.0622096054,60253.79473851888,11.219675907976557,17501.14969490725,-2782.8256428157747,81.53489282764981,17717.8488046572,6817.674498486548,33.56380884634497,0.9964939334375832,58.0,17.0,256.0,155.0,411.0,41.0,875.0,873.0,42.0,21.0,21.0,0.5,75.04157705039339,4446.452176290462,61.0,51.0,10.0,0.8360655737704918,262.74054619181226,929.9813774521735,28.0,14.0,14.0,0.5,2295.964374560642,57389.26962205422,123.0,22.0,101.0,0.1788617886178861,30.782897897516673,3239.3372459555544,78.0,39.0,39.0,0.5,49.1416905715381,7175.997942861031,,,,,17287.0,17328.0,17345.0,17404.0,17418.0,17446.0,17480.0,17601.0,17681.0,17756.0,0.015740437273353964,-0.20656391715026914,0.038104892555304644,-0.011061741498964089,0.007207984274175459
19,19,18098.64651481635,4813.354688910777,15.179447146091738,18187.452034600177,-2108.218501480551,15.287792404725591,18224.854207228473,58800.96175542931,11.04689644621268,18292.369913502156,-3301.2773563737665,38.21948101296085,18508.90839361217,7402.319614885879,34.36139512281698,0.9920767645384828,61.0,20.0,261.0,146.0,407.0,41.0,790.0,793.0,41.0,20.0,21.0,0.4878048780487805,77.33657258494779,4651.655259952076,58.0,49.0,9.0,0.8448275862068966,262.79075972426216,1530.6804028305169,28.0,14.0,14.0,0.5,2293.3217307069963,56441.48911340673,132.0,22.0,110.0,0.1666666666666666,30.397117849155528,3092.777518252923,83.0,44.0,39.0,0.5301204819277109,52.11767246440686,7816.825309896949,,,,,18079.0,18120.0,18140.0,18196.0,18211.0,18239.0,18271.0,18401.0,18466.0,18547.0,0.01606708368346909,-0.12465062778820628,0.039001432327682044,-0.009207683744132526,0.007040721716419746
20,20,18871.21912444849,4610.479649687219,16.315721895774026,18955.602712798885,-1280.1275176271365,20.383723206417383,18996.651060496886,59724.325728360905,11.028751025538984,19076.048100033993,-2229.9407001167347,73.89099662461142,19278.049316479766,7362.511178242106,35.64550225697719,0.9951103579349913,59.0,16.0,259.0,150.0,409.0,43.0,776.0,772.0,44.0,21.0,23.0,0.4772727272727273,56.11265663822028,4397.037392763214,59.0,48.0,11.0,0.8135593220338984,144.62759068154307,1.249654226421626,27.0,14.0,13.0,0.5185185185185185,2329.1327982749767,56312.24278068089,125.0,31.0,94.0,0.248,32.64137704824531,2505.630194232524,82.0,42.0,40.0,0.5121951219512195,38.02977277222738,7530.029588146741,,,,,18850.0,18893.0,18909.0,18967.0,18983.0,19010.0,19045.0,19168.0,19236.0,19318.0,0.012170676567681421,-0.1129790498915506,0.0389980593312744,-0.01463777805684993,0.0051653263202661075
21,21,19701.428476092275,5233.145744422022,18.03069747128239,19794.54796540086,-1473.865517586997,5.915595309849505,19827.10251402447,60152.31499848228,10.960023861629567,19913.650014234925,-2330.252919836914,78.98692742678575,20108.550123675293,7152.047072547155,38.17783576330906,0.9949302914949985,86.0,42.0,233.0,150.0,383.0,44.0,828.0,830.0,44.0,21.0,23.0,0.4772727272727273,85.4888455711846,5414.730041783872,37.0,34.0,3.0,0.918918918918919,661.7768227262119,7908.995608131538,28.0,14.0,14.0,0.5,2343.3031634311847,57885.551118701755,126.0,40.0,86.0,0.3174603174603174,18.925025387472456,2249.3501461915084,83.0,43.0,40.0,0.5180722891566265,47.189310599324685,7685.417242833411,,,,,19680.0,19724.0,19766.0,19798.0,19813.0,19841.0,19875.0,19999.0,20067.0,20149.0,0.0163360337636892,-0.4490076026811921,0.03895615926818958,-0.008121446915211656,0.0065980145433408785
22,22,20830.786070993523,5485.747273925736,20.290955456970305,20918.849321800284,-766.2622906129731,4.699383702470677,20952.97965862219,60790.2482658121,11.217365111464884,21042.191861603453,-2021.590176880802,41.354386493447414,21244.34685596258,7631.1032656085645,39.73398087881956,0.995383633696236,106.0,61.0,172.0,199.0,371.0,45.0,1129.0,1126.0,45.0,22.0,23.0,0.4888888888888889,92.41072380634226,5841.689668766206,6.0,5.0,1.0,0.8333333333333334,531.1057601412383,7235.667736096832,28.0,14.0,14.0,0.5,2320.095336415056,59446.71798017951,84.0,35.0,49.0,0.4166666666666667,25.30278751874254,1909.2930272666488,88.0,46.0,42.0,0.5227272727272727,68.37192204305853,8389.509506985525,,,,,20809.0,20854.0,20915.0,20920.0,20939.0,20967.0,21008.0,21087.0,21199.0,21286.0,0.01684560355989766,-0.693112223643916,0.038165584161956076,-0.012516279416129384,0.008959637900746716
23,23,21885.727577385493,4823.056745487551,21.947414455426127,21927.753390998565,-1446.4787609429293,11.60950089488636,22011.45861782697,61363.90833077178,11.1795363190792,22099.46584430389,-2131.3560036067875,59.4251025844916,22300.023736774063,7926.5120758382545,37.48825886030714,0.9967453781198808,59.0,14.0,252.0,167.0,419.0,45.0,1054.0,1059.0,45.0,23.0,22.0,0.5111111111111111,83.4743818509462,5114.690280780871,23.0,6.0,17.0,0.2608695652173913,70.52327418660889,1347.5923385519343,27.0,13.0,14.0,0.4814814814814814,2337.723029737451,60782.55755256036,113.0,38.0,75.0,0.336283185840708,18.328363215498,2106.9520344184916,86.0,45.0,41.0,0.5232558139534884,57.17805538671964,8557.695149314666,,,,,21863.0,21908.0,21922.0,21945.0,21998.0,22025.0,22061.0,22174.0,22256.0,22341.0,0.017307360509296266,-0.048755139785554985,0.03809605830737426,-0.008599390803076458,0.007213520251992157
24,24,22908.14744150996,4542.831998850225,16.732099229001985,23002.12330449271,-1808.4873406313625,7.0510574394546115,23034.87057176667,60556.53416371376,10.922725711846008,23102.945252602018,-2400.82153391,35.6715156120968,23325.275360146512,7616.7679193903405,35.18592453569436,0.9947099784244828,101.0,58.0,213.0,162.0,375.0,43.0,1022.0,1023.0,43.0,20.0,23.0,0.4651162790697674,64.01181760070183,4568.994619231864,59.0,56.0,3.0,0.9491525423728814,604.2827966610517,7341.975421945463,27.0,14.0,13.0,0.5185185185185185,2377.613541281343,58402.75844271461,119.0,20.0,99.0,0.1680672268907563,26.011981155920967,2424.024694285706,83.0,43.0,40.0,0.5180722891566265,39.98514233054093,7856.679781393335,,,,,22888.0,22931.0,22989.0,23005.0,23021.0,23048.0,23083.0,23202.0,23283.0,23364.0,0.014090729663105084,-0.3341371449413022,0.0392627083784798,-0.010834616729531584,0.005249620672929918
25,25,23887.194512431284,5062.347658581089,17.830203963550098,23978.180315012534,-1795.6832979190615,7.275406589306794,24012.45104658996,59073.54992821678,10.9250344666236,24081.945252602018,-2020.8963549544435,35.6715156120968,24303.640166968205,7554.003968731914,37.31143803079856,0.993648738128007,99.0,57.0,202.0,176.0,378.0,42.0,983.0,978.0,44.0,21.0,23.0,0.4772727272727273,85.95164145520405,5395.853370411254,16.0,12.0,4.0,0.75,486.0045104258249,5159.541143170347,27.0,13.0,14.0,0.4814814814814814,2314.987407583189,58811.7614705696,110.0,21.0,89.0,0.1909090909090909,25.774081914032102,1880.5159107900315,85.0,44.0,41.0,0.5176470588235295,61.02849452937835,8207.8045415447,,,,,23867.0,23909.0,23966.0,23982.0,23999.0,24026.0,24062.0,24168.0,24261.0,24344.0,0.016978612938506717,-0.2706515736873168,0.039188222316015306,-0.012753787125620858,0.008078959818129823
26,26,24858.040266282627,5183.367348124985,19.589914376851738,24950.123304500717,-1742.8146637180778,6.2207367651011705,24982.383122197676,60587.32297296789,10.986435509074882,25054.01356399424,-1568.747874975622,76.13997666080398,25273.075583682752,7475.081639550499,40.829008704028794,0.994837218436774,100.0,55.0,191.0,187.0,378.0,45.0,966.0,970.0,45.0,21.0,24.0,0.4666666666666667,78.54931412516213,5285.492024750647,17.0,14.0,3.0,0.8235294117647058,653.6577381724973,7417.475569024542,27.0,13.0,14.0,0.4814814814814814,2356.7333665465712,59593.69994863347,115.0,24.0,91.0,0.208695652173913,20.457372747398313,1626.244668563294,88.0,44.0,44.0,0.5,52.172795501844,8159.7043813952,,,,,24837.0,24882.0,24937.0,24953.0,24969.0,24996.0,25031.0,25128.0,25230.0,25315.0,0.01515410906648866,-0.3750586633107619,0.038898126718654814,-0.013040573997728103,0.0069795619656912965
27,27,25819.452995276268,5250.817054798861,18.83063352441447,25904.027373700796,-1481.652769063523,17.835757805173497,25942.89825216357,60376.74284857833,11.018766685972002,26017.739581293812,-1762.4625531557708,76.99918119785116,26234.466576722425,7376.698394625276,38.002540002237986,0.9957624921817206,79.0,33.0,218.0,181.0,399.0,46.0,966.0,960.0,47.0,23.0,24.0,0.4893617021276595,64.05188560869097,5182.562469858866,39.0,29.0,10.0,0.7435897435897436,221.52591022703083,622.9157683749625,28.0,14.0,14.0,0.5,2335.88954723446,57792.97931093181,104.0,26.0,78.0,0.25,10.14423694929601,1847.5296818822785,84.0,42.0,42.0,0.5,65.66859078069889,8140.192393286177,,,,,25797.0,25843.0,25876.0,25914.0,25929.0,25957.0,25993.0,26094.0,26193.0,26275.0,0.012198460723393943,-0.14951270287642768,0.038688565116749465,-0.005755717720715418,0.008902165612267079
28,28,26752.34391679889,5520.162473741035,18.7274258207069,26841.08746890864,-1548.844365120365,9.376535599991293,26876.64154425997,59881.122796789256,10.703987688428173,26935.66920050758,-1589.4344347714862,28.027619409504627,27167.203479330787,7297.751912983032,41.16187542297675,0.9916190583952038,84.0,42.0,151.0,240.0,391.0,42.0,930.0,934.0,42.0,19.0,23.0,0.4523809523809524,101.05882581752704,6058.396280846529,31.0,25.0,6.0,0.8064516129032258,368.7490371584742,3823.3279239093977,27.0,14.0,13.0,0.5185185185185185,2398.940341456125,57235.53969545437,45.0,9.0,36.0,0.2,79.42767623053895,2342.2482821570484,88.0,47.0,41.0,0.5340909090909091,58.6685110834335,8141.935288026267,,,,,26733.0,26775.0,26817.0,26847.0,26863.0,26890.0,26927.0,26968.0,27120.0,27208.0,0.018307219452009915,-0.23808011021805778,0.04006171276375521,-0.049972288565623225,0.008039258087008899
29,29,27689.04191606035,5287.903464186048,19.23300360045558,27778.047724220483,-2147.5311041525174,8.85106297925788,27813.375125106173,59667.98069069888,10.920405291807707,27879.095930801723,-1919.1609664544644,30.57558481036868,28103.374831815538,7468.411636626468,38.568913233346514,0.9937059011619644,99.0,52.0,168.0,211.0,379.0,47.0,938.0,937.0,47.0,22.0,25.0,0.4680851063829787,69.61896835479722,5440.752873271063,18.0,12.0,6.0,0.6666666666666666,440.6538863727661,3830.256226267521,27.0,13.0,14.0,0.4814814814814814,2326.0407439053274,59273.73684819028,75.0,18.0,57.0,0.24,44.02631614561262,1846.7032742533115,89.0,47.0,42.0,0.5280898876404494,58.1426516583789,8166.098793950532,,,,,27667.0,27714.0,27766.0,27784.0,27800.0,27827.0,27862.0,27934.0,28057.0,28145.0,0.01316570335035673,-0.2051909215753417,0.03898306456796038,-0.022940397869256696,0.00778514287740068
30,30,28620.2054255977,4967.541637955643,17.843505389817885,28707.09574900872,-2018.0800102796425,17.8357578060286,28744.96748586883,59738.295118775626,10.98905573012324,28812.369913502156,-2742.18892926014,38.21948101296085,29035.35467395153,7055.499099205011,33.23887813145017,0.9951676226314544,90.0,45.0,199.0,186.0,385.0,45.0,934.0,931.0,45.0,22.0,23.0,0.4888888888888889,67.40600934720234,5029.901452935796,29.0,20.0,9.0,0.6896551724137931,274.69012195051045,1146.7962639689497,28.0,14.0,14.0,0.5,2328.8609650968187,57718.18767586705,100.0,22.0,78.0,0.22,49.21276350588663,2500.280047859203,81.0,42.0,39.0,0.5185185185185185,50.53824191051971,7391.939409289778,,,,,28598.0,28643.0,28688.0,28716.0,28731.0,28759.0,28791.0,28887.0,28993.0,29073.0,0.013569289250073165,-0.13611458443238186,0.038984389502017484,-0.01794652548581492,0.007162957744011927
31,31,29566.365835135588,5316.363406182623,20.693109740444864,29660.123304500717,-1611.135147418088,5.592956319678945,29692.891700378088,59845.09973155212,10.799173027478885,29757.095930801723,-1732.9641996404948,30.57558481036868,29984.023925445952,7362.86959829809,40.62373345333498,0.9934897073692992,108.0,61.0,174.0,198.0,372.0,47.0,942.0,948.0,48.0,22.0,26.0,0.4583333333333333,71.97970410343487,5675.946346646772,12.0,9.0,3.0,0.75,594.7001254117401,7066.2492483646065,28.0,14.0,14.0,0.5,2361.124797161524,57930.71052650187,89.0,17.0,72.0,0.1910112359550561,28.537194667936863,1689.960665093574,88.0,47.0,41.0,0.5340909090909091,50.71233031688489,8025.09997210196,,,,,29544.0,29591.0,29652.0,29663.0,29679.0,29707.0,29740.0,29826.0,29938.0,30024.0,0.013539274613869818,-0.3691187088586405,0.03945393704334774,-0.016467273053798186,0.006887576866580243
32,32,30546.523477753948,4690.583702869599,18.832084651515057,30639.54796540086,-1468.6162809978434,5.956143361308588,30672.61137317286,60174.47359037917,11.084819939566094,30743.782340987025,-1597.896360795393,80.19652471775532,30963.01715796577,7207.588170381267,39.65423181212769,0.9953303949083452,100.0,54.0,199.0,179.0,378.0,46.0,982.0,980.0,46.0,22.0,24.0,0.4782608695652174,61.93464830148558,4719.4236186204935,22.0,19.0,3.0,0.8636363636363636,638.1121248703429,7508.862801516913,27.0,14.0,13.0,0.5185185185185185,2329.2668704780267,56769.10089901656,108.0,22.0,86.0,0.2037037037037037,21.23020481657201,1996.646903605152,86.0,44.0,42.0,0.5116279069767442,62.59621963582516,8010.776571016264,,,,,30525.0,30571.0,30625.0,30643.0,30659.0,30686.0,30723.0,30824.0,30921.0,31003.0,0.01320403860687856,-0.43449887702237716,0.03870855416756708,-0.01328634656005108,0.008684766409526134
33,33,31511.80255011605,5091.217689796059,18.73364381394896,31604.123304500717,-901.3382548802616,5.718946296935423,31638.61140083525,60023.25257928203,11.091410166941015,31722.54912786777,-1772.9794347674065,72.82771198222426,31928.865180767436,7376.291746781904,39.3945000247836,0.9946844655111028,100.0,57.0,198.0,180.0,378.0,43.0,962.0,966.0,43.0,20.0,23.0,0.4651162790697674,85.39616008953035,5360.680936550425,18.0,15.0,3.0,0.8333333333333334,462.1422022486214,5660.264209223204,27.0,14.0,13.0,0.5185185185185185,2318.2412330923125,56744.802137091014,102.0,35.0,67.0,0.3431372549019608,10.36809670424709,1938.0050744652535,85.0,44.0,41.0,0.5176470588235295,39.340952221658334,7792.655606429157,,,,,31492.0,31535.0,31592.0,31607.0,31625.0,31652.0,31688.0,31790.0,31886.0,31970.0,0.016773228978341152,-0.5127289336121817,0.03862238604997707,-0.005847838108515488,0.005333432241047384
34,34,32508.95794709216,4920.818425186816,19.2693942115397,32603.123304500717,-1546.1821908587312,5.251133782310833,32635.09182792221,60599.24549614471,10.97414951367296,32718.090616801728,-1836.852917693601,76.36049507823847,32925.87515180639,7291.541313664464,37.8938209166036,0.9955252228369862,107.0,60.0,204.0,169.0,373.0,47.0,999.0,996.0,47.0,23.0,24.0,0.4893617021276595,59.11355216546317,4891.9484620087815,14.0,11.0,3.0,0.7857142857142857,676.0212174718131,8050.888431831292,28.0,14.0,14.0,0.5,2358.651857114334,58627.23732849183,110.0,31.0,79.0,0.2818181818181818,15.810099666611404,2109.57918721316,86.0,45.0,41.0,0.5232558139534884,52.629030107323466,7929.710554271629,,,,,32486.0,32533.0,32593.0,32606.0,32621.0,32649.0,32687.0,32797.0,32882.0,32966.0,0.012012951313727645,-0.43721963780759815,0.038922132409460276,-0.008607166918112837,0.0072178196410539195
35,35,33482.4554607103,5222.309542171093,19.857399312950655,33573.12330450071,-1221.9007260237145,7.666780906412012,33607.68044678532,59793.55633444173,10.93978464242454,33679.52059170187,-1831.0897931661616,33.12355021123273,33899.86903163669,7440.043273553136,35.79029500355845,0.994207866359874,94.0,47.0,219.0,167.0,386.0,47.0,974.0,973.0,47.0,22.0,25.0,0.4680851063829787,70.20881303039965,5488.972097377734,22.0,19.0,3.0,0.8636363636363636,441.13630376218055,5553.385272671683,27.0,14.0,13.0,0.5185185185185185,2347.815181323348,57446.12056966919,114.0,19.0,95.0,0.1666666666666666,35.79449150763009,1932.556310652284,85.0,45.0,40.0,0.5294117647058824,52.27438226544279,7858.611043755442,,,,,33460.0,33507.0,33554.0,33576.0,33594.0,33621.0,33661.0,33773.0,33856.0,33940.0,0.01344401599779768,-0.36102466785310594,0.039265354416977226,-0.019548190176811243,0.007026085782492788
36,36,34532.457270941224,5061.168232335562,17.19279297632576,34717.82268523283,985.1473652255714,580.936111397005,34657.70830718157,61211.541707043514,11.35267274557663,34751.776084878824,-2162.7604895942413,96.86904407090576,34950.545586856504,7477.238775819968,37.8517051628367,0.995935004903527,-149.0,-195.0,459.0,175.0,634.0,46.0,1047.0,1050.0,47.0,23.0,24.0,0.4893617021276595,82.47667424910637,5922.7246004873,120.0,7.0,113.0,0.0583333333333333,78.90240802318448,2213.0943199821068,28.0,14.0,14.0,0.5,2304.53829883367,58851.19520325196,109.0,38.0,71.0,0.3486238532110092,12.068803614601286,1567.376262395168,91.0,46.0,45.0,0.5054945054945055,59.327038817792165,8879.848560634251,,,,,34510.0,34556.0,34361.0,34849.0,34644.0,34672.0,34715.0,34820.0,34906.0,34995.0,0.016295975644944352,0.08009198502512162,0.03764875437810596,-0.0055802774614518375,0.00793435124870494
37,37,,,,,,,,,,,,,,,,,,,,,,,,,,,,,,,,,,,,,,,,,,,,,,,,,,,,,,,,,,,35571.0,35617.0,35396.0,35765.0,35705.0,35733.0,35770.0,35877.0,35967.0,36056.0,,,,,
38,38,36623.04707318132,5498.036429734174,20.30685111803235,36715.273982700426,-1007.2650619803056,5.189002653032225,36748.42766858651,61041.510701413674,10.94978608604972,36840.55862744702,-1483.1591721739262,52.30194177460377,37043.29979285245,7587.264292582605,40.20651765747829,0.9951537429420284,108.0,62.0,185.0,191.0,376.0,46.0,2095.0,2091.0,47.0,23.0,24.0,0.4893617021276595,80.0469110424664,5836.092459490834,9.0,7.0,2.0,0.7777777777777778,545.3238365560312,7267.604724374512,27.0,13.0,14.0,0.4814814814814814,2375.4738132983953,60776.77812864972,97.0,43.0,54.0,0.4432989690721649,28.88355032122607,1450.3090819230576,86.0,43.0,43.0,0.5,48.462638868523726,8153.90351996467,,,,,36601.0,36647.0,36709.0,36717.0,36735.0,36762.0,36799.0,36894.0,37000.0,37085.0,0.014559181639750724,-0.541390600289374,0.038915711390533805,-0.019474342918225213,0.006387366644905378
39,39,37647.25710946247,5119.091901819652,19.66138517164244,37739.12330450071,-1379.219103771584,7.397557623956786,37774.02978502576,60547.97251053131,11.277725843788213,37870.31516610417,-1755.8450295423645,50.150854552532515,38068.7708157203,7846.86396520404,37.58955666759742,0.996068992778559,101.0,55.0,214.0,169.0,383.0,46.0,1022.0,1025.0,46.0,21.0,25.0,0.4565217391304347,75.02749698594099,5485.340031536318,23.0,20.0,3.0,0.8695652173913043,468.6242388434708,5745.784871958674,28.0,14.0,14.0,0.5,2296.637852965639,59325.78224501939,117.0,41.0,76.0,0.3504273504273504,13.671413035920525,1685.632729311118,87.0,45.0,42.0,0.5172413793103449,48.78739314613964,8287.069672193611,,,,,37626.0,37672.0,37727.0,37742.0,37760.0,37788.0,37829.0,37941.0,38024.0,38110.0,0.014656407508384725,-0.33977504920137824,0.03793087956109806,-0.007786229881280457,0.006217438375697779
40,40,38712.11448851695,4994.581041670169,18.355325296696883,38761.63008649785,-676.7329065844614,32.08100664049075,38836.12295934456,60340.70572574324,11.111937999350776,38905.36991350215,-2495.080462193614,38.21948101296085,39131.97211933957,7780.297218264547,35.94683283548257,0.994857517277914,57.0,16.0,258.0,165.0,423.0,41.0,1064.0,1062.0,41.0,20.0,21.0,0.4878048780487805,93.65023427576692,4874.01074385846,36.0,14.0,22.0,0.3888888888888889,21.004014907747948,680.5361941585923,28.0,14.0,14.0,0.5,2308.4481448137185,58793.831638405885,125.0,21.0,104.0,0.168,25.19188996968966,2378.304952903208,84.0,44.0,40.0,0.5238095238095238,69.14352358458976,8412.3250312909,,,,,38692.0,38733.0,38749.0,38783.0,38822.0,38850.0,38884.0,39007.0,39089.0,39172.0,0.018750368348102855,-0.031037377824225085,0.038256896684402915,-0.010096624277816501,0.008887002854116251
41,41,39707.463666549505,5080.543690570317,17.9739622846071,39800.12330450071,-980.2855062785096,5.087665673539947,39832.86311060481,60147.852480607995,10.89663361873004,39903.86288579454,-1695.6188685917764,83.32726151468972,40126.36810332981,7402.45486174568,39.898844050360346,0.9951027926972268,80.0,37.0,209.0,191.0,400.0,43.0,996.0,997.0,43.0,20.0,23.0,0.4651162790697674,71.87743597297415,5114.168473899799,38.0,35.0,3.0,0.9210526315789472,573.6297253578269,7093.581309709052,27.0,14.0,13.0,0.5185185185185185,2365.8789919756873,57303.77645009478,103.0,24.0,79.0,0.233009708737864,21.876690087978297,1808.6668911969068,88.0,45.0,43.0,0.5113636363636364,53.2354060741926,8121.558453604437,,,,,39687.0,39730.0,39767.0,39803.0,39819.0,39846.0,39882.0,39976.0,40083.0,40167.0,0.014147587413996934,-0.5851659763240982,0.039334388417915006,-0.012901891157974106,0.007191588070236256
42,42,40697.30776633893,5094.234117549265,19.837301504769133,40790.12330450071,-1355.4716629280888,6.065063555097781,40824.03923044129,60182.12710351066,11.12704060607598,40892.09593080172,-2028.9716896982193,30.57558481036868,41119.12641693493,7843.17345735948,36.81032008927748,0.9945765046379428,107.0,60.0,202.0,176.0,378.0,47.0,994.0,991.0,48.0,22.0,26.0,0.4583333333333333,63.18199299201865,5323.637118366727,12.0,9.0,3.0,0.75,527.7167543671802,6608.14531076278,28.0,14.0,14.0,0.5,2305.118321885913,58973.53328981805,109.0,17.0,92.0,0.1559633027522936,30.400823387497077,2206.1248254360253,86.0,44.0,42.0,0.5116279069767442,56.882376360302594,8390.492572542726,,,,,40675.0,40722.0,40782.0,40793.0,40810.0,40838.0,40875.0,40984.0,41076.0,41160.0,0.012402648079003925,-0.38932333946930836,0.03830237369179738,-0.014983364993140328,0.007252469509893114
43,43,41710.22112847712,4956.248385439062,18.34427852143183,41802.12330450071,-1073.3202928985677,6.1122414514009655,41836.16294672202,60501.94824910004,11.11899858254544,41925.155751246304,-1801.4584163472764,71.25827257310894,42130.59636292086,7575.74339322305,38.15288564937304,0.996965988003176,89.0,45.0,209.0,186.0,395.0,44.0,1010.0,1013.0,44.0,21.0,23.0,0.4772727272727273,81.13905075546866,5169.099349728131,29.0,26.0,3.0,0.896551724137931,505.3403245714336,6266.591674594162,28.0,14.0,14.0,0.5,2320.4562249940636,58958.11833382167,103.0,38.0,65.0,0.3689320388349514,20.299861450057502,2063.326320206482,86.0,44.0,42.0,0.5116279069767442,48.2791210185838,8052.256892958156,,,,,41689.0,41733.0,41778.0,41805.0,41822.0,41850.0,41888.0,41987.0,42088.0,42173.0,0.016371062232039598,-0.47081968720327727,0.038353413272581356,-0.011268570656889475,0.006372855905041917
44,44,42685.29924366423,4873.998663177151,16.95553943898853,42778.16906764606,-1651.3777196911913,7.120027401047009,42812.14821101291,59718.45733962389,10.742209695854116,42887.21923530245,-2183.535423355161,43.31541181468896,43105.65742886442,7317.441925019528,35.52162962720575,0.9956537680259632,101.0,60.0,200.0,179.0,379.0,41.0,976.0,975.0,42.0,19.0,23.0,0.4523809523809524,89.28295630757886,5151.715412217523,15.0,11.0,4.0,0.7333333333333333,484.6208325074942,5336.867331917263,27.0,13.0,14.0,0.4814814814814814,2371.792896843422,58199.50254913359,107.0,25.0,82.0,0.2336448598130841,26.03744944002271,1918.248755930586,85.0,44.0,41.0,0.5176470588235295,66.78127022192002,8009.453007899386,,,,,42666.0,42707.0,42767.0,42782.0,42799.0,42826.0,42863.0,42967.0,43062.0,43146.0,0.018318215181737273,-0.2934645579438474,0.039716245236457406,-0.011924445631394553,0.009126313663465366
45,45,43688.59692267547,4988.803222159211,17.96034203995409,43780.165768701154,-1661.2167168074411,10.640447995240065,43815.4579104969,60354.62843216061,11.198167165434718,43882.09593080172,-2354.5692984590696,30.57558481036868,44110.56345800533,7983.763267540811,35.607080025135595,0.9940336299787268,88.0,42.0,229.0,168.0,397.0,46.0,1004.0,1004.0,47.0,23.0,24.0,0.4893617021276595,59.879846849212086,4995.996948925951,31.0,26.0,5.0,0.8387096774193549,428.9019641374512,4693.548608293197,27.0,13.0,14.0,0.4814814814814814,2314.039084187219,60425.7248419665,119.0,17.0,102.0,0.1428571428571428,36.878750237584335,2655.1974880558873,84.0,44.0,40.0,0.5238095238095238,58.89897975329168,8438.967404546864,,,,,43666.0,43712.0,43754.0,43785.0,43802.0,43829.0,43865.0,43983.0,44068.0,44151.0,0.012002848014377164,-0.25818543709439873,0.03834070632690961,-0.01566263106450906,0.007377345467237778
46,46,44720.46275143629,5007.292349473408,18.890884196917188,44813.54796540086,-1381.8577036380525,7.04923981805533,44848.116117185855,60971.82093786601,11.27537632381332,44941.31516610417,-1952.8417427740671,59.320751346627645,45142.854182621624,7825.919296529032,36.31586192109514,0.9966491357196724,101.0,56.0,208.0,174.0,382.0,45.0,1026.0,1032.0,45.0,20.0,25.0,0.4444444444444444,80.4941634907779,5327.155574509145,17.0,14.0,3.0,0.8235294117647058,540.6894878344817,6633.796026733098,28.0,14.0,14.0,0.5,2314.815518297452,59674.26437636302,111.0,41.0,70.0,0.3693693693693693,11.946452264686952,1996.172013829026,85.0,44.0,41.0,0.5176470588235295,47.79697288901577,8272.382181088218,,,,,44700.0,44745.0,44801.0,44817.0,44834.0,44862.0,44900.0,45009.0,45100.0,45183.0,0.016075387229835515,-0.391277254098591,0.03796533353754335,-0.006117470762232211,0.006107521823054677
47,47,45771.85137203376,5210.9460422398915,21.092178281883143,45833.87669549929,-211.61763098897563,12.739827004320285,45900.32711127915,60905.984861254066,11.086185774980931,45999.69099527232,-1753.0075523183448,45.50939899769417,46196.07916138427,8007.996208511028,38.69001072575591,0.9967675036184276,82.0,34.0,220.0,187.0,407.0,48.0,1058.0,1053.0,48.0,23.0,25.0,0.4791666666666667,67.43453046488021,5604.960544086139,13.0,4.0,9.0,0.3076923076923077,20.184451989801588,39.194267916156605,28.0,14.0,14.0,0.5,2335.3343444488605,60509.27655995339,98.0,47.0,51.0,0.4795918367346938,16.455751749016297,1781.629534094348,88.0,45.0,43.0,0.5113636363636364,44.29125402286976,8491.630852155939,,,,,45749.0,45797.0,45831.0,45843.0,45886.0,45914.0,45953.0,46051.0,46152.0,46238.0,0.012940938155616349,-0.09538171226788335,0.038343265440479,-0.009387153938529036,0.005530878495646176
48,48,46822.363697294626,4940.127326726334,19.360317237401,46984.98717313729,380.67776074324297,659.9230388237908,46949.54823404321,60716.97767056533,11.189259069453064,47014.246609001435,-1865.553590992088,25.47965400864057,47245.109969120545,8142.018543220907,37.05246788388536,0.9953604586805858,-197.0,-245.0,496.0,189.0,685.0,48.0,1050.0,1049.0,49.0,24.0,25.0,0.4897959183673469,81.49973242109641,5687.05888357442,102.0,92.0,10.0,0.9019607843137256,385.53331345542335,4655.375040375011,29.0,15.0,14.0,0.5172413793103449,2314.531467158943,58469.83631378817,100.0,14.0,86.0,0.14,44.74693179998423,1763.4400673332354,89.0,47.0,42.0,0.5280898876404494,49.990668716239,9076.097815254114,,,,,46799.0,46847.0,46602.0,47134.0,46935.0,46964.0,47000.0,47098.0,47199.0,47287.0,0.01649749632568756,1.0127550206838989,0.03812000458450014,-0.023985873156390076,0.006139837246853426
49,49,47824.92734802261,4874.032310886426,17.49942087496462,47914.45203459914,-2263.867691103182,15.287792405180738,47952.205358327396,60005.03927709929,11.130739742886057,48030.06855710273,-2207.995619965329,48.4113426164167,48248.84915426328,7922.28771130433,35.22650863545444,0.9967331885371632,85.0,41.0,224.0,175.0,399.0,44.0,1002.0,1003.0,44.0,21.0,23.0,0.4772727272727273,73.37991101033366,5016.676933996367,35.0,26.0,9.0,0.7428571428571429,252.924087461429,1313.414548050323,27.0,13.0,14.0,0.4814814814814814,2323.092093402279,59035.59246744095,114.0,27.0,87.0,0.2368421052631578,23.86638569687193,2070.024166126426,82.0,43.0,39.0,0.524390243902439,55.03398518965902,8347.853069308123,,,,,47804.0,47848.0,47889.0,47923.0,47939.0,47966.0,48003.0,48113.0,48207.0,48288.0,0.01505527791566656,-0.111722115411338,0.03871494996735847,-0.010809072935229234,0.006946728924163018
50,50,48761.79547145761,5221.310236225268,17.177813728877513,48850.45203459915,-1697.32361230173,15.287792405182566,48888.46600815585,59585.541909727785,10.84473140532578,48953.52059170187,-2223.9234997670087,33.12355021123273,49181.63105090862,7755.732735246742,36.291173408602155,0.9947093012457952,62.0,18.0,206.0,213.0,419.0,44.0,935.0,936.0,44.0,21.0,23.0,0.4772727272727273,71.80767790113401,5183.646474909682,58.0,49.0,9.0,0.8448275862068966,228.3617914939691,1260.9035482636466,27.0,13.0,14.0,0.4814814814814814,2344.868715022162,59358.88250579685,78.0,19.0,59.0,0.2435897435897435,36.287964825035075,2115.696534175221,86.0,45.0,41.0,0.5232558139534884,75.40281421146665,8452.03884443871,,,,,48741.0,48785.0,48803.0,48859.0,48875.0,48902.0,48935.0,49009.0,49138.0,49222.0,0.01375280813672684,-0.1345422816479228,0.039352981274797215,-0.01631709221510399,0.009722203792401282
51,51,49662.12688191868,4414.5253056644115,13.552640571637308,49751.027373699,-2922.4573491653828,17.8357578060484,49789.17420654399,59777.53280659208,11.073895341876677,49865.34253980316,-3488.7158764457304,56.055238819009254,50080.77041429191,7166.644346568636,30.258173349951743,0.9958953028286612,52.0,14.0,250.0,171.0,421.0,38.0,899.0,901.0,38.0,18.0,20.0,0.4736842105263157,89.86264322968762,4332.5622492594175,65.0,55.0,10.0,0.8461538461538461,252.24052452012216,440.3132878910467,27.0,13.0,14.0,0.4814814814814814,2327.027337105344,57718.300952725425,115.0,32.0,83.0,0.2782608695652174,16.923948440716472,3340.0743497131066,76.0,39.0,37.0,0.5131578947368421,58.163806885043414,7447.221040879173,,,,,49644.0,49682.0,49696.0,49761.0,49776.0,49803.0,49834.0,49946.0,50043.0,50117.0,0.020356128237475984,-0.08631110547846281,0.03892812613451867,-0.004851053808932823,0.00811590530690867
52,52,50546.249401785935,5167.815585599523,18.553379706968144,50640.12330450071,-1556.1379948282618,6.364921008908652,50673.42125239672,60130.54498652673,11.086650281236087,50755.95881659626,-2455.382780274218,52.59605399834681,50962.06509066678,8075.040308943899,36.83868962159696,0.9959887044241666,104.0,57.0,165.0,209.0,374.0,47.0,886.0,884.0,47.0,22.0,25.0,0.4680851063829787,67.20129251089352,5377.948626006543,16.0,13.0,3.0,0.8125,571.9093051393671,6892.903215944448,27.0,13.0,14.0,0.4814814814814814,2309.31948524952,59350.169852154075,78.0,36.0,42.0,0.4615384615384615,22.344611380388475,2593.6764842162656,85.0,44.0,41.0,0.5176470588235295,67.93410314093644,8778.057137294616,,,,,50524.0,50571.0,50628.0,50643.0,50660.0,50687.0,50720.0,50793.0,50919.0,51002.0,0.013003810100761837,-0.36751837371754686,0.038405098203699334,-0.00910025579714012,0.008412850034406982
53,53,51536.76902085452,5258.171208477141,20.018637859998172,51631.12330450071,-1552.3632657040644,6.086270745767626,51663.9224640826,60519.06117845976,10.963713900072,51745.041568972,-1799.6542426225194,56.05523881897957,51956.3667737908,7816.929032893218,37.62384770354045,0.9971127680739597,107.0,60.0,184.0,193.0,377.0,47.0,993.0,990.0,48.0,24.0,24.0,0.5,72.55790832911158,5505.484748990439,14.0,11.0,3.0,0.7857142857142857,599.0795946993887,7305.366755073938,28.0,14.0,14.0,0.5,2357.372904031179,58380.69773291885,94.0,31.0,63.0,0.3297872340425531,18.602540481634545,1660.485243170689,88.0,44.0,44.0,0.5,45.45228043516478,8143.866315281454,,,,,51514.0,51561.0,51621.0,51634.0,51650.0,51678.0,51715.0,51805.0,51915.0,51998.0,0.013799076799198715,-0.3859145651888896,0.03895256896136761,-0.010336730267990962,0.005814595507251508
54,54,52542.43336846902,5121.361765116483,20.297492756911492,52634.69864360057,-1128.448850633397,4.9772409748646576,52667.437363381825,60124.2140890908,11.046508380708373,52741.57685975943,-1561.6288334059766,72.81252239318476,52960.448700978865,8065.648602678048,40.12849320008885,0.9950141502875832,104.0,58.0,190.0,187.0,377.0,46.0,1003.0,1004.0,46.0,21.0,25.0,0.4565217391304347,76.94281789754444,5502.437636690776,13.0,11.0,2.0,0.8461538461538461,635.7445293865605,8094.407654238818,27.0,13.0,14.0,0.4814814814814814,2314.0528275321394,59184.78765774119,98.0,25.0,73.0,0.2551020408163265,16.88819148742696,1873.45168594584,90.0,47.0,43.0,0.5222222222222223,44.59179895240683,8652.890214759382,,,,,52521.0,52567.0,52625.0,52637.0,52654.0,52681.0,52717.0,52815.0,52914.0,53002.0,0.015023898218171357,-0.5633791279327529,0.03848786820070903,-0.010814472124335154,0.00552860670592579
55,55,53528.08161446793,5139.382003731607,19.56057777780328,53620.972626301,-1808.125791005663,7.825239745333055,53654.998070897185,60214.58626588316,11.10800900170582,53754.024476259976,-1947.654880975168,52.7155962351864,53949.72442675462,8016.878404991841,36.987213264397646,0.9966341538029396,103.0,53.0,198.0,185.0,383.0,50.0,989.0,987.0,50.0,24.0,26.0,0.48,57.96453876172362,5228.633316784036,19.0,15.0,4.0,0.7894736842105263,534.7433995649433,6094.007414960615,28.0,14.0,14.0,0.5,2326.4048491373696,58829.1523532001,124.0,49.0,75.0,0.3951612903225806,19.771664522939897,1715.7727636930126,85.0,44.0,41.0,0.5176470588235295,67.9782617408051,8801.149328760233,,,,,53504.0,53554.0,53607.0,53625.0,53641.0,53669.0,53705.0,53805.0,53906.0,53990.0,0.011278503664377677,-0.29574457829481204,0.03863523762938286,-0.010151523617490412,0.008479392889192047
56,56,54563.49104635825,5349.152108433765,20.013676015528603,54655.69864360057,-901.226511074491,6.7206430517973255,54690.937367410814,61058.48490952733,11.20597384725549,54770.49321800287,-1936.8405715330653,50.95930801728114,54988.25812714265,7965.664376164134,38.5101452152824,0.994878992574942,68.0,19.0,253.0,168.0,421.0,49.0,1028.0,1036.0,49.0,23.0,26.0,0.4693877551020408,62.35343724886573,5550.856018957547,51.0,48.0,3.0,0.9411764705882352,455.7594438915806,6070.95554243441,28.0,14.0,14.0,0.5,2330.543429105883,59110.55888733678,121.0,29.0,92.0,0.2396694214876033,17.079780256738406,1780.932082725512,88.0,46.0,42.0,0.5227272727272727,52.60886751175103,8552.284169471486,,,,,54540.0,54589.0,54608.0,54658.0,54677.0,54705.0,54742.0,54861.0,54943.0,55029.0,0.011656695488347753,-0.505710205249288,0.038169034697784224,-0.00881837178948563,0.006604454446910156
57,57,55573.464284852795,5096.434117486586,17.616795809145152,55664.05624832377,-2333.140716096521,10.325683600829835,55699.04090052028,59400.48381860428,11.017243989576505,55767.52059170187,-1910.779696363263,33.12355021123273,55995.696550551496,7609.485361128635,36.50509668869736,0.996120722795238,97.0,54.0,195.0,190.0,385.0,43.0,1014.0,1008.0,43.0,20.0,23.0,0.4651162790697674,88.20447350031623,5240.6645049528515,20.0,14.0,6.0,0.7,464.57810087211413,3992.855869190837,28.0,14.0,14.0,0.5,2316.7322879722747,58239.75608199341,97.0,19.0,78.0,0.1958762886597938,25.464376421043667,1974.4824712466304,84.0,44.0,40.0,0.5238095238095238,73.33894543899251,8425.942817570485,,,,,55553.0,55596.0,55650.0,55670.0,55685.0,55713.0,55749.0,55845.0,55952.0,56035.0,0.017307095798153108,-0.19912133788886086,0.039001909396008526,-0.013326694055578124,0.009637832515406128
58,58,56523.23848313281,5022.809505666086,17.46418111612624,56612.027373699,-2027.0339410015124,17.8357578060484,56650.088895034874,59437.10966847017,10.842431018880488,56725.91787890302,-2394.9311261210446,53.50727341814519,56946.158489967595,7162.702421709619,35.50959521661586,0.9954142583051688,85.0,40.0,235.0,164.0,399.0,45.0,952.0,951.0,46.0,22.0,24.0,0.4782608695652174,64.52173992343026,5029.074174042715,38.0,28.0,10.0,0.7368421052631579,248.9085480049106,722.8624582655978,27.0,13.0,14.0,0.4814814814814814,2344.7977747059435,57504.20635107525,125.0,30.0,95.0,0.24,14.896196086937923,2061.2329794851116,83.0,43.0,40.0,0.5180722891566265,55.17266983044798,7642.710156821996,,,,,56501.0,56546.0,56586.0,56622.0,56637.0,56664.0,56696.0,56821.0,56904.0,56985.0,0.012845746957085503,-0.12279446484350945,0.0394500639042648,-0.0062198849580549645,0.0077027728617098095
59,59,57461.58458223636,5258.180654224244,17.834553614205348,57551.45203459914,-2199.4110872334495,15.28779240518095,57589.24726459348,59230.085318844074,11.047682306473767,57655.94525260201,-2410.1120930233396,35.6715156120968,57885.99810357971,7310.384449487897,34.92169306754474,0.9938205043105768,65.0,19.0,229.0,190.0,419.0,46.0,939.0,940.0,46.0,22.0,24.0,0.4782608695652174,75.52942469057531,5422.660719072757,57.0,48.0,9.0,0.8421052631578947,254.83457782828697,1365.7456397696176,27.0,13.0,14.0,0.4814814814814814,2300.7360789831127,58380.96005110395,130.0,21.0,109.0,0.1615384615384615,39.120007842319716,2237.4331433042385,80.0,42.0,38.0,0.525,53.5962551771902,7766.332170267619,,,,,57440.0,57486.0,57505.0,57560.0,57576.0,57603.0,57636.0,57734.0,57845.0,57924.0,0.014364174541986787,-0.11586491461622715,0.038844044653961234,-0.016231613440537546,0.007331523471511091
60,60,58361.97887119581,4461.446835895544,14.11880058411056,58451.027373699,-2983.246493059201,17.8357578060484,58489.98804286701,59412.2216832688,11.09647873539316,58559.643896202586,-3612.3405094740015,45.86337721555302,58784.136482467045,7016.0472100259,30.739741692744325,0.9949964005767948,54.0,15.0,263.0,163.0,426.0,39.0,898.0,900.0,40.0,19.0,21.0,0.475,85.3739999183117,4377.092776787413,65.0,54.0,11.0,0.8307692307692308,216.37607335558965,40.8226906504442,28.0,14.0,14.0,0.5,2321.181856175278,57103.618755174946,128.0,26.0,102.0,0.203125,25.825379881619757,3390.4986213880807,77.0,38.0,39.0,0.4935064935064935,56.46246789308546,7120.468403093224,,,,,58343.0,58382.0,58397.0,58461.0,58476.0,58504.0,58534.0,58660.0,58746.0,58823.0,0.01913594469655372,-0.07253040399410797,0.03906909707146924,-0.00714920971981687,0.008047618010950788
61,61,59240.42895607178,4351.843437829453,15.619506726023587,59328.60271279886,-2818.829157648045,20.383723206912453,59368.79323737088,59194.69979794671,11.020229178699214,59436.36991350215,-3559.34029466637,38.21948101296085,59662.10923169754,6795.388066251435,30.557785050389025,0.9939136797217952,56.0,14.0,248.0,174.0,422.0,42.0,877.0,879.0,43.0,20.0,23.0,0.4651162790697674,68.51634038560151,4474.250511950679,64.0,53.0,11.0,0.828125,175.47937440571974,286.003398886128,27.0,14.0,13.0,0.5185185185185185,2323.591578275026,56526.0467973411,112.0,21.0,91.0,0.1875,33.867937743046575,3422.9895377854796,77.0,40.0,37.0,0.5194805194805194,58.58023338116451,7106.349600142286,,,,,59221.0,59263.0,59277.0,59340.0,59355.0,59382.0,59415.0,59525.0,59623.0,59699.0,0.015744210784332593,-0.06225257530404396,0.03925337211281245,-0.00951522892986582,0.008620586905418537
62,62,60113.058268118126,4725.689039444918,16.629588097737525,60204.45203459914,-1223.039058597206,15.287792405184335,60241.6381793648,60174.46774811763,10.949636998148236,60310.5889030941,-2543.0692574525706,93.76713041018743,60531.12449228008,7041.1050630008685,36.16007844768164,0.9958460513463152,60.0,19.0,226.0,193.0,419.0,41.0,867.0,873.0,42.0,20.0,22.0,0.4761904761904761,72.43258588702113,4332.453339961726,60.0,51.0,9.0,0.85,259.055483996572,1086.780578015812,27.0,14.0,13.0,0.5185185185185185,2363.4363689834804,56002.24924403893,121.0,24.0,97.0,0.1983471074380165,19.979708807726485,2882.890138154972,83.0,40.0,43.0,0.4819277108433735,61.88957903113478,7625.334512221965,,,,,60093.0,60134.0,60153.0,60213.0,60228.0,60255.0,60287.0,60379.0,60492.0,60572.0,0.015327412633889492,-0.21181292794827167,0.03927639840333134,-0.00785653349753457,0.008789753664712097
63,63,60981.68125014782,4498.383099388167,17.379072642989048,61071.027373699,-2487.3931256921423,17.8357578060484,61110.289492698954,59636.01883167031,11.175879815161734,61190.7672007033,-3442.969674080204,58.60320421987331,61403.11288060341,6827.993219731491,31.454189028136017,0.9960295018903192,64.0,17.0,249.0,168.0,417.0,47.0,877.0,869.0,47.0,23.0,24.0,0.4893617021276595,55.17311974387757,4457.338995809352,59.0,48.0,11.0,0.8135593220338984,206.7333616749151,101.53863396366783,27.0,13.0,14.0,0.4814814814814814,2288.9961908892383,57972.27260165462,118.0,34.0,84.0,0.288135593220339,24.79817097351773,3187.0376875472734,77.0,40.0,37.0,0.5194805194805194,49.07519090461604,7061.468242331386,,,,,60959.0,61006.0,61023.0,61081.0,61097.0,61124.0,61158.0,61272.0,61363.0,61440.0,0.012265100264888903,-0.0831124600046442,0.03838277999995606,-0.00720255283112321,0.007187352026478127
64,64,61889.05474739799,3757.2109143642897,14.86349247953788,61976.027373699,-2313.1346998502927,17.8357578060484,62014.58220367696,60269.82486581983,11.134479103212277,62084.033846786675,-3419.3508826837506,68.79506582332952,62307.042501308635,6874.397224114187,31.6069116688372,0.9962623033536712,57.0,13.0,270.0,153.0,423.0,44.0,908.0,904.0,45.0,25.0,20.0,0.5555555555555556,50.85372490131772,3204.3799406556172,65.0,54.0,11.0,0.8307692307692308,232.9550462777204,143.32994290777697,27.0,14.0,13.0,0.5185185185185185,2336.4474375882337,55762.27132021034,135.0,27.0,108.0,0.2,24.45283087990662,3620.03574987861,77.0,39.0,38.0,0.5064935064935064,49.249385637150255,7116.3947517420975,,,,,61865.0,61909.0,61922.0,61986.0,62001.0,62028.0,62057.0,62192.0,62269.0,62345.0,0.01353496677732345,-0.10070967604817713,0.03876645473568113,-0.0071513078706664625,0.007164175131514366
65,65,62743.220179359945,4209.276199786305,15.881992398287265,62833.027373699,-1913.3285997519615,17.835757806048225,62870.79891206132,59991.72112093171,10.966120511365814,62947.101714126235,-3028.6512966086534,71.3430312241936,63159.085598529986,7014.388777659973,33.05164329715058,0.996289239437514,60.0,21.0,256.0,156.0,412.0,39.0,851.0,856.0,39.0,18.0,21.0,0.4615384615384615,84.8473770167546,4365.121406084934,59.0,49.0,10.0,0.8305084745762712,253.9937775657955,814.4294415124469,27.0,14.0,13.0,0.5185185185185185,2352.881238045162,56443.53387031976,123.0,29.0,94.0,0.2357723577235772,21.64974901687947,3160.464691576498,78.0,40.0,38.0,0.5128205128205128,59.82605941341384,7549.176718200739,,,,,62725.0,62764.0,62785.0,62843.0,62857.0,62884.0,62918.0,63041.0,63120.0,63197.0,0.02015723677649428,-0.13274968951947017,0.039220098941689104,-0.007148313521969953,0.008529048119481629
66,66,63592.32214477949,4817.312365252329,16.87292680798753,63682.027373699,-883.946994634916,17.835757806047962,63721.45208069954,60526.55655984197,11.318296937797012,63790.28754669468,-2615.8900767649043,94.27471982824947,64007.70930270243,7410.444453532932,35.0261411317978,0.9972518812323709,59.0,16.0,247.0,171.0,418.0,43.0,849.0,851.0,43.0,21.0,22.0,0.4883720930232558,66.97557788259543,4419.293719499552,63.0,53.0,10.0,0.8412698412698413,217.8233731143604,411.6661210827963,27.0,13.0,14.0,0.4814814814814814,2288.2093218987256,58779.96537788084,115.0,22.0,93.0,0.1913043478260869,28.77191292820144,3123.6879821882517,79.0,39.0,40.0,0.4936708860759494,59.90478872833922,7841.985680579631,,,,,63571.0,63614.0,63630.0,63692.0,63708.0,63735.0,63769.0,63877.0,63969.0,64048.0,0.013903100485178373,-0.24642130629600126,0.03780504710583357,-0.010998899832895094,0.008083832097247499
67,67,64466.130024120444,4902.683748157285,17.995186467970516,64556.45203459914,-1614.1508440065793,15.28779240518434,64594.45673919261,60411.88930860975,11.090276635169529,64664.21923530245,-3395.519140414829,43.31541181468896,64883.184761329554,7367.129383449872,32.59272786083608,0.9958414725715636,104.0,58.0,198.0,175.0,373.0,46.0,871.0,873.0,46.0,22.0,24.0,0.4782608695652174,70.08353790605379,5057.80862116071,51.0,42.0,9.0,0.8235294117647058,254.3751219429995,1404.71200286003,27.0,13.0,14.0,0.4814814814814814,2331.6969956519924,59448.50634608548,106.0,24.0,82.0,0.2264150943396226,24.485173886140423,3240.9995866069003,79.0,41.0,38.0,0.5189873417721519,52.06821023788155,7699.442765066647,,,,,64444.0,64490.0,64548.0,64565.0,64581.0,64608.0,64640.0,64746.0,64843.0,64921.0,0.014294933449948772,-0.15759067554776973,0.038596657418553615,-0.0072110251403704586,0.007067638903539807
68,68,65471.18901446752,5730.010192763399,19.21332114354236,65562.972626301,-1571.4550983965494,6.6468776866906865,65596.43531005364,60972.562438639405,10.99931383643352,65666.13686849497,-1507.4856401538357,89.17878903024199,65891.53803701935,7657.867731743799,39.69021657257684,0.9958316822582752,83.0,37.0,233.0,167.0,400.0,46.0,1011.0,1002.0,46.0,22.0,24.0,0.4782608695652174,73.16373415334766,5654.409239063723,36.0,32.0,4.0,0.8888888888888888,567.8175496553811,6130.296311164644,27.0,13.0,14.0,0.4814814814814814,2376.645957857889,60049.07104576077,124.0,21.0,103.0,0.1693548387096774,23.755073985809577,1758.344548984856,87.0,46.0,41.0,0.5287356321839081,53.293696404759736,8196.050698403069,,,,,65449.0,65495.0,65532.0,65567.0,65583.0,65610.0,65646.0,65765.0,65848.0,65932.0,0.012768517278686229,-0.36133234111159757,0.038978941720706914,-0.015758076463922684,0.006959338848834367
69,69,66391.4252065851,5241.6542456494635,17.82363228859525,66479.027373699,-2106.815105779474,17.835757806047155,66518.26124066113,59410.5567318012,11.01074655540973,66584.945252602,-2509.3809401335952,35.6715156120968,66810.62802150901,7484.230529007838,35.01044888163975,0.9946416064216111,70.0,25.0,207.0,203.0,410.0,45.0,917.0,922.0,46.0,21.0,25.0,0.4565217391304347,68.48320113638404,5337.662445173256,51.0,41.0,10.0,0.803921568627451,204.2548167770193,670.2822079610837,27.0,13.0,14.0,0.4814814814814814,2320.281705760205,58567.18278837884,82.0,20.0,62.0,0.2439024390243902,39.2442178575041,2663.717226624648,81.0,41.0,40.0,0.5061728395061729,65.22884324057077,8068.544857380126,,,,,66370.0,66415.0,66440.0,66489.0,66505.0,66532.0,66565.0,66647.0,66770.0,66850.0,0.013065188569662834,-0.09694956914667158,0.039055040608939585,-0.015639003719943294,0.008715504284341967
70,70,67317.03056026851,5217.667356461028,18.093532836344217,67405.1728670016,-2062.1736231462246,15.287792403802266,67442.72500917682,59718.7491275121,11.075202182619092,67511.36991350215,-2409.1758336468624,38.21948101296085,67736.70145400087,7394.927835628039,36.30586556204637,0.9954675747843508,93.0,48.0,176.0,211.0,387.0,45.0,929.0,924.0,45.0,22.0,23.0,0.4888888888888889,78.02172728322408,5306.17574375721,25.0,17.0,8.0,0.68,299.6851524361665,1491.9933304886815,27.0,14.0,13.0,0.5185185185185185,2323.71791565972,57295.076174254,102.0,22.0,80.0,0.2156862745098039,37.38131206808657,2324.0162143833145,83.0,44.0,39.0,0.5301204819277109,66.27802074236885,8129.229795460033,,,,,67295.0,67340.0,67388.0,67413.0,67429.0,67456.0,67490.0,67564.0,67694.0,67775.0,0.014953373213148576,-0.14532488878358446,0.038911027936939756,-0.015516224073815749,0.008962632525370677
71,71,68259.44891455556,5425.225106355311,18.82323581401077,68348.45306226797,-1763.872606790114,15.28779240518434,68386.44496114425,59398.75077019349,11.038835166136574,68452.52059170186,-1862.3488226379725,33.12355021123273,68682.14169361762,7399.612502210722,38.667399976138626,0.9948344619309808,90.0,43.0,206.0,190.0,396.0,47.0,940.0,944.0,47.0,22.0,25.0,0.4680851063829787,70.82530147747119,5579.782139115955,32.0,23.0,9.0,0.71875,250.29812276749212,1336.0152374558822,27.0,13.0,14.0,0.4814814814814814,2291.0039757944955,59238.1344560894,101.0,19.0,82.0,0.1881188118811881,26.931237009787235,1707.2085645560935,87.0,45.0,42.0,0.5172413793103449,40.22343047889408,7824.936551226268,,,,,68237.0,68284.0,68327.0,68357.0,68373.0,68400.0,68434.0,68533.0,68638.0,68723.0,0.013054813411245146,-0.14190260782097144,0.038569901657664656,-0.014460898346443918,0.005435883361037738
72,72,69198.63561571408,5291.205536253014,18.019115101556153,69289.87669549929,-1873.961443474467,12.739827004320285,69326.13051191239,59577.93822351957,10.769075872777291,69397.36991350215,-1872.8394860741876,38.21948101296085,69621.9596698767,7166.552888785162,36.1691215359927,0.994885333247684,66.0,20.0,213.0,205.0,418.0,46.0,941.0,940.0,46.0,22.0,24.0,0.4782608695652174,64.26017556219543,5311.450718944963,55.0,48.0,7.0,0.8727272727272727,347.3023505463885,3054.5460659398946,27.0,13.0,14.0,0.4814814814814814,2372.4585755273665,58417.497379870736,100.0,22.0,78.0,0.22,35.694049995476234,1726.8317546370267,80.0,41.0,39.0,0.5125,67.02774339206908,7871.325408038047,,,,,69177.0,69223.0,69243.0,69297.0,69313.0,69340.0,69376.0,69456.0,69581.0,69661.0,0.012144713548153245,-0.1853305743059812,0.03982109227456937,-0.019058787611477297,0.009352856866089672
73,73,70094.6772478928,5197.303960673397,15.791124462167064,70182.027373699,-1493.7452579120984,17.835757806048285,70220.41856858575,60239.94388724447,10.96786800017793,70286.13686849497,-2762.9676561127912,89.17878903005547,70511.87176737751,6613.8868632343265,33.51791453151345,0.9960511540702,58.0,17.0,240.0,180.0,420.0,41.0,895.0,894.0,41.0,21.0,20.0,0.5121951219512195,77.22380732368978,4652.74042241581,62.0,51.0,11.0,0.8225806451612904,237.82946720505817,125.37239195127133,27.0,13.0,14.0,0.4814814814814814,2349.1850395078645,58130.426390274035,115.0,21.0,94.0,0.1826086956521739,35.56900321943337,3459.4847000275868,79.0,39.0,40.0,0.4936708860759494,51.773427773550914,6921.429548147786,,,,,70074.0,70115.0,70132.0,70192.0,70207.0,70234.0,70266.0,70372.0,70474.0,70552.0,0.014858435817497222,-0.15921688517189828,0.03899713193466791,-0.012873477957927044,0.007827988117146691
74,74,71000.83444006364,5231.711888602432,16.941014291841903,71089.027373699,-2433.672766625436,17.8357578060484,71128.41096385398,59192.17357090955,11.047192396091951,71198.79457440229,-2500.3395187530077,40.767446413824906,71421.92414980568,7174.3306495516035,34.586277320492634,0.9963533932946416,60.0,16.0,229.0,193.0,422.0,44.0,903.0,908.0,44.0,21.0,23.0,0.4772727272727273,79.82328752855605,5317.449097039832,60.0,50.0,10.0,0.8333333333333334,187.4907803006954,548.785850185237,27.0,13.0,14.0,0.4814814814814814,2307.8305730956663,58710.68822406704,94.0,23.0,71.0,0.2446808510638297,24.008211053841418,2454.071565904026,85.0,44.0,41.0,0.5176470588235295,46.38623943519503,7425.920874908722,,,,,70980.0,71024.0,71040.0,71099.0,71115.0,71142.0,71176.0,71269.0,71378.0,71462.0,0.01525758475011887,-0.07704025901587118,0.03898877898665082,-0.009601980400571765,0.006465584275530174
75,75,71904.4017511214,5466.846750729953,17.47532204974584,71992.027373699,-2153.3042183309853,17.8357578060484,72031.63917502563,59288.36812744354,11.109524854402393,72106.64389620257,-2307.2445814727175,45.86337721555302,72325.92693371892,7117.780507685417,35.97028208024943,0.9954781351096904,62.0,17.0,222.0,198.0,420.0,45.0,909.0,903.0,45.0,21.0,24.0,0.4666666666666667,83.37802488020661,5681.104940992939,58.0,48.0,10.0,0.8275862068965517,187.76753407270465,519.5171826615508,27.0,14.0,13.0,0.5185185185185185,2299.670542636032,56471.16418112189,87.0,26.0,61.0,0.2988505747126437,24.911084506042,2416.6339512314744,84.0,44.0,40.0,0.5238095238095238,50.55097423090583,7589.73929623963,,,,,71883.0,71928.0,71945.0,72002.0,72018.0,72045.0,72081.0,72167.0,72282.0,72365.0,0.015251575301442954,-0.08719972425365992,0.03878788732543231,-0.01079689804283394,0.0071020698343147075
76,76,72802.98230673687,4791.422390629868,17.82212334185999,72891.02737370195,-1681.5897021885096,17.83575780299962,72929.32597482218,60120.68177745541,11.203209942521058,72995.2875466948,-2700.130866895055,74.47448406888357,73222.06172741877,6740.193079905426,34.21264402239162,0.9973016380333972,74.0,31.0,216.0,188.0,404.0,43.0,896.0,898.0,45.0,22.0,23.0,0.4888888888888889,70.6290954343766,4668.0947211527555,46.0,36.0,10.0,0.782608695652174,256.07526699673383,651.9318166515359,27.0,13.0,14.0,0.4814814814814814,2296.929157756659,58132.40273712369,102.0,21.0,81.0,0.2058823529411764,33.138749896104216,3287.463334742921,81.0,41.0,40.0,0.5061728395061729,63.531727481406506,7279.206302659893,,,,,72782.0,72825.0,72856.0,72901.0,72916.0,72943.0,72974.0,73072.0,73184.0,73260.0,0.014740736607254508,-0.15228165744798744,0.03820530788820799,-0.012273016209103692,0.00942580230688257
77,77,73736.63008649785,5197.497965394627,15.809432991033477,73824.027373699,-2384.203170706025,17.8357578060484,73862.94595352557,59215.72851756681,10.791346789424615,73928.945252602,-2592.9184568311266,35.6715156120968,74158.44909887601,6916.05764531501,34.37514730723041,0.9948573661827226,57.0,15.0,245.0,180.0,425.0,42.0,936.0,933.0,42.0,21.0,21.0,0.5,87.07596869947106,5123.314614358966,62.0,52.0,10.0,0.8387096774193549,192.59253605936792,668.7342820586366,26.0,13.0,13.0,0.5,2363.499295059054,57305.65447582817,112.0,21.0,91.0,0.1875,29.878048723466115,2425.72389278705,82.0,41.0,41.0,0.5,62.63777927459456,7332.383856093665,,,,,73716.0,73758.0,73773.0,73834.0,73850.0,73876.0,73909.0,74018.0,74117.0,74198.0,0.016753439689487153,-0.08077857559527371,0.03991337021814911,-0.011522941897671885,0.009056861941719915
78,78,74637.99138142086,4948.932364905899,16.728598428776174,74727.45203459915,-1487.7567387112658,15.287792404999871,74764.55743070491,59256.49203149086,10.92672992952986,74831.25897671535,-2579.828952906463,61.15116962073736,75056.47843620162,6920.697073858755,35.005251686850656,0.996074284883383,85.0,41.0,187.0,209.0,396.0,44.0,901.0,902.0,45.0,22.0,23.0,0.4888888888888889,67.15456155460406,4890.444377384447,36.0,27.0,9.0,0.75,269.67304967657697,1433.5585879648534,27.0,14.0,13.0,0.5185185185185185,2333.9891112414816,55201.54713364337,81.0,19.0,62.0,0.2345679012345679,38.145619892827106,3259.5848719237515,86.0,44.0,42.0,0.5116279069767442,54.171416637017046,7387.207229297584,,,,,74616.0,74660.0,74701.0,74736.0,74751.0,74778.0,74813.0,74888.0,75013.0,75097.0,0.013569504814980628,-0.18126152122837963,0.039387905547988274,-0.014786104268599606,0.007827450914104644
79,79,75598.14831306646,5241.829227944524,19.636162182940836,75689.80519065884,-1651.773364595348,7.611244988224748,75724.0438069809,59679.82848680576,11.149111350064514,75796.16424219396,-1625.976374387927,101.31538499578188,76018.3288202377,6799.155599963932,35.69209125636216,0.9970775841227262,91.0,44.0,238.0,153.0,391.0,47.0,961.0,959.0,47.0,23.0,24.0,0.4893617021276595,58.88408742288363,5017.9919053431695,30.0,25.0,5.0,0.8333333333333334,528.6880774359255,5303.307345108427,28.0,14.0,14.0,0.5,2286.314223424964,57568.55788934317,139.0,25.0,114.0,0.1798561151079136,15.7927696298726,1705.0575520772968,80.0,40.0,40.0,0.5,48.95373022040173,7229.157755825248,,,,,75575.0,75622.0,75666.0,75695.0,75710.0,75738.0,75772.0,75904.0,75979.0,76057.0,0.011233499769311222,-0.32007301290116374,0.03830966477945611,-0.00971279157473462,0.007199972040743033
80,80,76531.85330825373,5330.1122599150185,20.050789288068973,76624.16886764356,-1441.6710590438815,8.36263840910076,76659.5140494211,59231.883983424894,10.97848174337161,76726.52059170186,-2206.9288162502726,33.12355021123273,76954.53484415435,7052.012452878012,36.33552913923911,0.9950153651543684,92.0,45.0,173.0,219.0,392.0,47.0,932.0,936.0,48.0,23.0,25.0,0.4791666666666667,80.24409552629571,5767.699738974819,27.0,22.0,5.0,0.8148148148148148,400.14414427633454,4495.245271484584,27.0,14.0,13.0,0.5185185185185185,2312.5346607935476,56205.18814654256,102.0,20.0,82.0,0.196078431372549,45.65102819113599,1984.9342447995732,84.0,45.0,39.0,0.5357142857142857,74.26789594307074,7827.934680928186,,,,,76510.0,76557.0,76602.0,76629.0,76646.0,76673.0,76708.0,76775.0,76911.0,76994.0,0.015054860313125017,-0.2775557862288716,0.03904205818340463,-0.020685319732559524,0.010531447078310406
81,81,77528.09185354611,5233.880533362356,19.703853762840996,77621.12330450071,-1383.6472737214397,5.744400055057167,77654.63919688735,59487.11005346247,11.179103661425422,77738.87696102425,-1680.714202737319,76.87391084193962,77951.66276355721,6901.207873696505,39.63717208316885,0.996586534778849,103.0,58.0,203.0,180.0,383.0,45.0,992.0,995.0,45.0,21.0,24.0,0.4666666666666667,90.48113029990198,5522.867945480755,15.0,12.0,3.0,0.8,560.3695101251152,6433.03103049562,27.0,14.0,13.0,0.5185185185185185,2281.108195253955,56393.084254747286,110.0,34.0,76.0,0.3090909090909091,12.671110264127218,1852.8789572123492,86.0,45.0,41.0,0.5232558139534884,63.247011491061855,7703.131469243134,,,,,77507.0,77552.0,77610.0,77624.0,77641.0,77668.0,77705.0,77813.0,77908.0,77993.0,0.017287580357088314,-0.40499448144609335,0.03834626010918784,-0.007539122501309404,0.00916462924296537
82,82,78513.36249188863,5229.897684815742,18.59419924404968,78608.12330450071,-1923.8517657170123,5.989547962375749,78639.46580812694,59149.01237288132,10.919392873059474,78716.38722661017,-1529.5822240201278,78.98692742678574,78937.19941481002,6877.290567738624,39.8507931906925,0.9961004987069568,104.0,60.0,209.0,173.0,382.0,44.0,990.0,985.0,45.0,22.0,23.0,0.4888888888888889,74.34423627533367,5270.976518114192,17.0,14.0,3.0,0.8235294117647058,716.8877672297682,8279.663024017313,27.0,13.0,14.0,0.4814814814814814,2315.520273237192,58422.75252566907,117.0,27.0,90.0,0.2307692307692307,17.49924598853604,1806.9737636288985,86.0,45.0,41.0,0.5232558139534884,43.66169298260141,7525.53770743687,,,,,78492.0,78536.0,78596.0,78611.0,78626.0,78653.0,78690.0,78805.0,78893.0,78978.0,0.01421523722943596,-0.3726314989567748,0.03914723476091062,-0.011440539589002027,0.006348676495859931
83,83,79477.14823594921,4827.942097566855,16.24810572632277,79563.6027127989,-2618.2428715901,20.383723206883776,79603.55213569682,58545.96227956907,11.027608999594497,79672.36991350215,-2466.758913328335,38.21948101296077,79901.61821719282,6774.289369421983,33.29989191939339,0.9953358336795656,64.0,23.0,251.0,166.0,417.0,41.0,962.0,964.0,41.0,19.0,22.0,0.4634146341463415,92.01968222400396,4990.42155629244,55.0,44.0,11.0,0.8,190.00510302995997,205.01640005291577,27.0,14.0,13.0,0.5185185185185185,2287.1501376761016,55505.730314820015,124.0,21.0,103.0,0.1693548387096774,23.460080209702635,2258.9970878815593,80.0,42.0,38.0,0.525,60.2543840076617,7276.081812994074,,,,,79458.0,79499.0,79522.0,79575.0,79590.0,79617.0,79651.0,79773.0,79860.0,79939.0,0.01905981479570338,-0.07256970126479019,0.039065890261645836,-0.009510487661742568,0.008894568968317177
84,84,80389.33863754864,5239.666931746039,16.293936705392724,80478.45203459915,-2092.3526085400717,15.28779240518434,80516.54797983548,59128.48469107419,11.053906538490809,80591.06855710273,-2312.1732887436237,48.41134261641708,80812.99409344146,6921.948862037587,34.19967389507497,0.9950713028481916,60.0,17.0,221.0,200.0,421.0,43.0,912.0,913.0,43.0,20.0,23.0,0.4651162790697674,85.27692441899498,5354.8091943210275,59.0,50.0,9.0,0.847457627118644,223.8023203667682,1264.9471126437622,27.0,14.0,13.0,0.5185185185185185,2307.5229058421287,55999.62301107664,88.0,27.0,61.0,0.3068181818181818,37.18069703625799,2129.568919712865,79.0,41.0,38.0,0.5189873417721519,52.507545693268305,7367.591867763196,,,,,80369.0,80412.0,80429.0,80487.0,80503.0,80530.0,80564.0,80650.0,80774.0,80850.0,0.016275256715712224,-0.10696204810475282,0.039025571480448634,-0.016080411108140184,0.007585659290440332
85,85,81279.35250360264,4304.2580079835525,15.81282080666356,81370.45203459915,-2600.985818389802,15.28779240518434,81407.74087786123,58943.13297464857,10.846608680323016,81478.21923530243,-3332.264500178901,43.31541181468896,81703.39459188549,6677.945500023305,31.243986909331515,0.9943579115842898,56.0,14.0,267.0,157.0,424.0,42.0,891.0,891.0,42.0,19.0,23.0,0.4523809523809524,71.13645401446368,4411.657128500105,64.0,54.0,10.0,0.84375,256.42741441823784,924.4565585472184,27.0,14.0,13.0,0.5185185185185185,2352.358113635645,56002.812780101565,130.0,24.0,106.0,0.1846153846153846,23.82037316145473,3207.5629906988056,77.0,40.0,37.0,0.5194805194805194,62.727382232965255,7136.263338317381,,,,,81260.0,81302.0,81316.0,81379.0,81394.0,81421.0,81454.0,81583.0,81664.0,81740.0,0.016526995798699692,-0.09858854769803588,0.03990894265235942,-0.007148404083822239,0.009393215657831641
86,86,82139.83269995527,4481.7138218669115,16.40934318653553,82227.60271279886,-1289.99469136608,20.383723206912453,82267.40509047749,59611.34328347769,11.01327804497776,82338.16424219396,-2558.805449180994,86.80014422329151,82557.8992651888,6460.787108350865,34.806747812984455,0.9950729715721328,57.0,16.0,237.0,184.0,421.0,41.0,858.0,860.0,41.0,20.0,21.0,0.4878048780487805,71.22609264777667,4243.3958137665195,64.0,53.0,11.0,0.828125,180.7410748454215,169.9268434303766,27.0,13.0,14.0,0.4814814814814814,2317.8491450163447,57764.10363139366,106.0,26.0,80.0,0.2452830188679245,21.33508802929767,2647.8414973771196,81.0,41.0,40.0,0.5061728395061729,45.89350147876615,6867.262251960336,,,,,82120.0,82161.0,82177.0,82239.0,82254.0,82281.0,82314.0,82414.0,82518.0,82598.0,0.015892601687384534,-0.14010993692851567,0.038882686035004624,-0.008337909408519693,0.007103391693474419
87,87,82989.63008649785,4625.604858412337,17.529099336975648,83083.54796540085,-1398.9041487346046,5.814104009306546,83116.25024989602,60219.72259888456,11.216563503753292,83186.01356399426,-2633.2365799061763,101.91861603456228,83406.48765586571,6671.961848944583,36.12042142226061,0.9967251251561086,58.0,16.0,253.0,169.0,422.0,42.0,854.0,849.0,42.0,21.0,21.0,0.5,58.72615304276258,4049.580358319274,63.0,59.0,4.0,0.9365079365079364,674.0058385546691,7394.7138263588895,27.0,13.0,14.0,0.4814814814814814,2295.796643316094,57802.05419514903,128.0,24.0,104.0,0.1875,26.553617151924147,2787.6516437552136,83.0,39.0,44.0,0.4698795180722891,52.70037585062779,6964.103054616295,,,,,82969.0,83011.0,83027.0,83087.0,83103.0,83130.0,83163.0,83280.0,83369.0,83449.0,0.012695886233334546,-0.481809878942992,0.038123666869209705,-0.010084022588228768,0.00789878255358494
88,88,83825.68276498832,4620.111749785662,19.259314477692417,83899.39327499777,-2191.483144542985,38.62265433334157,83953.26883584406,59517.12797512894,10.9732486012032,84021.36991350215,-3550.6063521046335,38.21948101296085,84245.50343434015,6781.3124287104965,31.695505046204534,0.9931627780634176,58.0,14.0,265.0,156.0,421.0,44.0,828.0,837.0,44.0,23.0,21.0,0.5227272727272727,65.1433701740913,4099.512765141496,63.0,38.0,25.0,0.6031746031746031,31.7870422552106,2371.2084115006455,27.0,13.0,14.0,0.4814814814814814,2318.7235679165433,57609.23467619642,128.0,22.0,106.0,0.171875,34.94638223070806,3265.636681993665,77.0,41.0,36.0,0.5324675324675324,47.7208404015428,6943.9405306102635,,,,,83803.0,83847.0,83861.0,83924.0,83940.0,83967.0,84000.0,84126.0,84206.0,84282.0,0.01409995552101385,-0.014504808003823144,0.03895892908148211,-0.009842370222199788,0.007037109837249775
89,89,84692.08835036961,4813.826157240604,15.6482180708805,84781.45203459915,-1278.969871270741,15.28779240518434,84818.65246181522,60064.261300383194,10.777563177581008,84909.16424219396,-2009.5168651220797,103.22802423740588,85107.25555265335,6917.688011085248,40.25173830952872,0.9951493279562194,61.0,20.0,236.0,181.0,417.0,41.0,867.0,865.0,41.0,20.0,21.0,0.4878048780487805,75.35587304065562,4378.0022307778545,60.0,50.0,10.0,0.8333333333333334,258.6205602731412,1057.5017439781436,27.0,14.0,13.0,0.5185185185185185,2393.834557638249,56451.13724084098,108.0,44.0,64.0,0.4074074074074074,14.390869254366134,2253.386609600484,85.0,41.0,44.0,0.4823529411764706,52.804835297238725,7410.777326822994,,,,,84672.0,84713.0,84733.0,84790.0,84805.0,84832.0,84866.0,84969.0,85068.0,85150.0,0.01565404951886575,-0.2022100489483655,0.039854557532416984,-0.007161357789098165,0.007633306852321415
90,90,85534.1204296462,3596.462785973998,14.244281612517902,85624.027373699,-3041.1615887762428,17.8357578060484,85662.64489824127,59224.50012998219,11.120224859230172,85739.34253980315,-3656.9059000130896,56.055238819009254,85953.01336016387,6426.915041298218,29.311950550934725,0.9951666748745088,55.0,15.0,263.0,156.0,419.0,40.0,847.0,844.0,40.0,19.0,21.0,0.475,63.435076939647885,3548.570396564881,64.0,54.0,10.0,0.84375,231.9394898959463,50.780673038299255,27.0,14.0,13.0,0.5185185185185185,2313.4480799146354,55638.1982227753,125.0,31.0,94.0,0.248,10.845638983643978,3374.787135588813,75.0,38.0,37.0,0.5066666666666667,43.31880755170599,6493.41211017198,,,,,85515.0,85555.0,85570.0,85634.0,85649.0,85676.0,85708.0,85833.0,85916.0,85989.0,0.017638185271106128,-0.07626674319179412,0.03906234877182966,-0.0029657965723441657,0.006740217860878353
91,91,86398.54328345942,5191.036784603397,18.54020353219981,86488.45203459915,-998.7665073540304,15.28779240518431,86526.88147371972,60151.81845164151,11.244931212216104,86597.13686849497,-2297.028159511158,89.17878902939322,86817.4644907873,6778.991130169612,34.919721479349484,0.995902280102692,64.0,19.0,232.0,183.0,415.0,45.0,864.0,864.0,45.0,22.0,23.0,0.4888888888888889,67.78324940570178,4973.269553778246,57.0,48.0,9.0,0.8421052631578947,222.07554098870435,1115.101614792511,28.0,14.0,14.0,0.5,2294.515925662139,57108.705023523224,100.0,21.0,79.0,0.21,28.49124625164392,2882.987989452123,79.0,39.0,40.0,0.4936708860759494,55.59454555303261,7212.095425882337,,,,,86377.0,86422.0,86441.0,86497.0,86513.0,86541.0,86577.0,86673.0,86780.0,86856.0,0.013057747848512024,-0.2223498078415096,0.03814541247006179,-0.012403525021524893,0.008201005796513209
92,92,87279.26719546276,5012.496145179924,15.94215721306583,87368.027373699,-1417.9666971296313,17.83575780604514,87406.54340698269,60370.01746807201,10.899903302706084,87472.98619029527,-2615.90591094863,84.08285822462123,87697.51115359245,6340.511126657492,33.249037917984694,0.9962891619373024,56.0,15.0,224.0,196.0,420.0,41.0,882.0,880.0,42.0,20.0,22.0,0.4761904761904761,79.40601343225299,4771.050396205893,64.0,54.0,10.0,0.84375,206.6731579461374,574.5311018239299,27.0,14.0,13.0,0.5185185185185185,2389.355221030635,55873.87010500125,88.0,20.0,68.0,0.2272727272727272,33.5927333924731,3232.2727884873643,79.0,41.0,38.0,0.5189873417721519,53.38083891506537,6712.338067787467,,,,,87259.0,87300.0,87315.0,87378.0,87393.0,87420.0,87454.0,87539.0,87659.0,87735.0,0.015841610872581072,-0.14575318190794098,0.03957850802833207,-0.012841720817202884,0.008419011945367563
93,93,88170.85861344928,5143.566886837023,19.153134402596184,88264.972626301,-1221.1670327010152,5.913743382896327,88298.47004556401,59815.24223745205,10.988624481559254,88363.2601729957,-2143.189392255481,75.91150354570563,88589.87074389582,6778.3991387840815,37.72404487703423,0.9966026973057271,94.0,46.0,181.0,209.0,390.0,48.0,892.0,892.0,49.0,24.0,25.0,0.4897959183673469,54.82085394443496,5027.025827017575,30.0,26.0,4.0,0.8666666666666667,542.0928875820358,5990.7029050502915,27.0,13.0,14.0,0.4814814814814814,2326.5953496883467,58440.42572464182,78.0,18.0,60.0,0.2307692307692307,40.465719788290606,2964.602429651344,87.0,45.0,42.0,0.5172413793103449,33.09047660670252,6978.3328295280135,,,,,88147.0,88195.0,88241.0,88269.0,88285.0,88312.0,88346.0,88422.0,88546.0,88631.0,0.010658139604391615,-0.44391379153351196,0.038896362576821567,-0.018881075062481857,0.004881753925844847
94,94,89136.84272154135,5170.561173222535,18.511573524290643,89225.027373699,-2078.869385654089,17.83575780604777,89263.69379371112,59056.30730631106,10.978337792932855,89327.67126990156,-2002.0452015581284,28.027619409504627,89560.57089206406,6935.21158444233,36.09399494493192,0.9940063451813392,74.0,29.0,239.0,169.0,408.0,45.0,963.0,965.0,45.0,21.0,24.0,0.4666666666666667,74.7237550806929,5324.370852874516,47.0,37.0,10.0,0.7872340425531915,230.16067616889143,874.8790950512373,27.0,14.0,13.0,0.5185185185185185,2313.773411820572,56877.98990372624,117.0,16.0,101.0,0.1367521367521367,36.38158230269872,2137.2190947099607,81.0,44.0,37.0,0.5432098765432098,55.04367614201998,7544.703234211962,,,,,89116.0,89161.0,89190.0,89235.0,89250.0,89277.0,89312.0,89429.0,89517.0,89598.0,0.014451768884908399,-0.11071435163612955,0.03917910748837679,-0.018172208237048838,0.007936841648133526
95,95,90052.65143033938,4470.096760108429,16.680409437128176,90143.027373699,-2663.8441112959845,17.8357578060484,90181.80055925512,59099.419637693776,11.001480920243209,90253.21923530244,-2866.610230538809,43.31541181468896,90478.07001022102,6458.012879035414,33.8132713404395,0.9947952878604588,61.0,17.0,261.0,161.0,422.0,44.0,916.0,918.0,45.0,22.0,23.0,0.4888888888888889,67.96865161583243,4485.898075535239,61.0,51.0,10.0,0.8360655737704918,209.82267806683777,517.262105676949,27.0,14.0,13.0,0.5185185185185185,2316.0859059878812,56592.952050563355,127.0,25.0,102.0,0.1968503937007874,21.18825975261804,2749.6073986048145,82.0,43.0,39.0,0.524390243902439,64.0231962088812,6912.453015592077,,,,,90032.0,90076.0,90093.0,90153.0,90168.0,90195.0,90229.0,90354.0,90437.0,90515.0,0.015205185762955105,-0.07876687572560585,0.03918965567151991,-0.007391398916704308,0.009913760998637692
96,96,90929.90406919828,3695.952375108744,12.876855979709443,91014.60271279886,-2982.714093088016,20.383723206912453,91053.55893911044,58937.40456960085,10.80555842835923,91134.19186160344,-3639.375979187171,61.15116962073736,91347.86767191716,5739.683072746457,29.31754047355156,0.9946129117094832,52.0,13.0,267.0,156.0,423.0,39.0,880.0,872.0,40.0,23.0,17.0,0.575,72.81176460535744,3051.193401184807,67.0,56.0,11.0,0.835820895522388,215.94473973150065,607.9788055631686,27.0,14.0,13.0,0.5185185185185185,2360.602407410234,54705.29739474963,133.0,35.0,98.0,0.2631578947368421,24.22299565050862,3220.473583144203,73.0,37.0,36.0,0.5068493150684932,42.98602260846667,5933.567929283386,,,,,90908.0,90947.0,90960.0,91026.0,91040.0,91067.0,91100.0,91227.0,91311.0,91383.0,0.019700406611222944,-0.07239873919928148,0.040052703790553444,-0.006655810168840718,0.007489267623952227
97,97,91783.054747398,4353.556121450229,16.415989789007924,91869.027373699,-1263.0651369134432,17.8357578060484,91908.05275320313,59530.2419905865,11.204612800242565,91976.71220759484,-2402.001395414077,91.7267544311057,92200.91266589574,6599.685275918329,35.43904257376935,0.996372085537194,56.0,13.0,257.0,166.0,423.0,43.0,854.0,854.0,45.0,24.0,21.0,0.5333333333333333,60.466663197706005,3800.8398062435535,63.0,53.0,10.0,0.8412698412698413,205.2724609640205,774.3736517703162,28.0,14.0,14.0,0.5,2286.749889534637,56921.61422964535,127.0,22.0,105.0,0.1732283464566929,24.393496654165595,2723.541318246623,79.0,40.0,39.0,0.5063291139240507,53.8545089219986,7089.326054991643,,,,,91760.0,91803.0,91816.0,91879.0,91894.0,91922.0,91956.0,92073.0,92163.0,92239.0,0.013889028075182764,-0.1625192992545464,0.038413246999671864,-0.01015548812783285,0.008160163200283045
98,98,92621.31404077505,4928.803373971267,18.297740530369257,92711.027373699,-978.6778667733806,17.8357578060484,92749.88297889096,59630.15031387732,11.132984461431253,92822.31492039368,-2527.405672764153,93.76397957926774,93039.28684022102,6478.326274916425,37.70837186247976,0.9969850396881214,61.0,17.0,251.0,167.0,418.0,44.0,836.0,842.0,45.0,21.0,24.0,0.4666666666666667,70.08632723365375,4751.540562128617,61.0,51.0,10.0,0.8360655737704918,219.8260681535061,629.78521158697,28.0,14.0,14.0,0.5,2295.2879479485273,56330.928697239826,118.0,26.0,92.0,0.2203389830508474,22.975669826205436,2742.9586313024515,82.0,40.0,42.0,0.4878048780487805,49.97034310715829,6911.196121293093,,,,,92600.0,92644.0,92661.0,92721.0,92736.0,92764.0,92797.0,92912.0,93001.0,93079.0,0.014219745020419295,-0.22461534649624226,0.03849207046882725,-0.009090614171597386,0.007713465019605383
99,99,93498.78816682054,5055.3407330410855,18.359262954261688,93587.45203459916,-1497.4047679523926,15.28779240518434,93625.0363309364,59714.53806491514,11.034557952106878,93688.68483389584,-2550.2670598437203,73.89099662505764,93917.98783161148,6193.442609809076,34.346820555979356,0.9963208637912996,65.0,19.0,217.0,198.0,415.0,46.0,878.0,875.0,46.0,22.0,24.0,0.4782608695652174,62.70992204683351,5005.202269667978,55.0,46.0,9.0,0.8363636363636363,250.478356682844,897.1884532407989,27.0,13.0,14.0,0.4814814814814814,2327.972622964279,56971.61602256156,88.0,17.0,71.0,0.1931818181818181,44.42742013741742,3240.443171673579,80.0,40.0,40.0,0.5,35.33762037343825,6345.377193633085,,,,,93477.0,93523.0,93542.0,93596.0,93612.0,93639.0,93672.0,93759.0,93878.0,93957.0,0.012404687509383724,-0.16727498271917318,0.03898502271647083,-0.017420693243059778,0.005705650734128235
100,100,94409.84549937263,5358.244832144041,17.822088238961395,94497.027373699,-2050.407262878313,17.8357578060484,94536.21140691065,58220.65380191761,10.933916453432122,94599.09593080172,-2460.966251884173,30.57558481036868,94829.59839001537,6743.219842029409,37.37093133857652,0.9945500028310024,70.0,23.0,209.0,204.0,413.0,47.0,914.0,912.0,48.0,24.0,24.0,0.5,65.49072496549876,5366.455187279325,53.0,43.0,10.0,0.8113207547169812,202.9721162488312,499.5924561402444,27.0,13.0,14.0,0.4814814814814814,2282.3001188737135,57264.43499058759,89.0,18.0,71.0,0.2022471910112359,43.14563234118419,2550.1395363191973,84.0,44.0,40.0,0.5238095238095238,50.91793056110931,7317.261242471824,,,,,94387.0,94434.0,94457.0,94507.0,94523.0,94550.0,94582.0,94666.0,94786.0,94870.0,0.012222421150414919,-0.09899112236068838,0.03920086721524487,-0.017531988627698933,0.0075509818386382726
101,101,95334.61288794527,5313.087256962948,18.659763904590747,95422.027373699,-1753.39523436905,17.8357578060484,95462.25975326184,59219.07619133869,10.94887287425976,95527.09593080172,-2071.0644018571907,30.57558481036868,95756.86637157312,7008.147891750703,36.82989439309805,0.9937911857329854,64.0,18.0,223.0,197.0,420.0,46.0,923.0,926.0,46.0,22.0,24.0,0.4782608695652174,83.51608283032478,5601.438510143627,56.0,46.0,10.0,0.8214285714285714,149.3899196535868,639.93113064095,27.0,13.0,14.0,0.4814814814814814,2324.868607137683,58617.321761971834,104.0,17.0,87.0,0.1634615384615384,42.31424623342669,2205.689683725611,82.0,42.0,40.0,0.5121951219512195,66.44017609225551,7650.858216173275,,,,,95313.0,95359.0,95377.0,95432.0,95449.0,95476.0,95510.0,95600.0,95715.0,95797.0,0.015718936804750314,-0.08520036824860194,0.03925877870208511,-0.020431159067522058,0.009480418666743934
102,102,96235.48144810372,4866.526277798209,16.022652390400946,96323.60271279886,-1543.656984624294,20.383723206907113,96364.28871297222,59586.851317214096,11.13848254737588,96434.82672605758,-2299.596761921182,66.24710042243964,96656.7221864285,6717.277918507898,34.7317563861185,0.9952068207710156,62.0,21.0,216.0,201.0,417.0,41.0,894.0,902.0,41.0,19.0,22.0,0.4634146341463415,92.6289985412409,4911.567278246251,58.0,47.0,11.0,0.8103448275862069,157.49509840836927,193.3617326840922,27.0,13.0,14.0,0.4814814814814814,2290.5698147004205,57952.6571092409,83.0,23.0,60.0,0.2771084337349397,22.458236037798695,2784.0259928620108,79.0,41.0,38.0,0.5189873417721519,54.44651020284803,7166.285743604365,,,,,96216.0,96257.0,96278.0,96335.0,96351.0,96378.0,96412.0,96494.0,96617.0,96695.0,0.019033904936222718,-0.10202726381385922,0.03844086009019738,-0.00976616266368201,0.008105442541365354
103,103,97108.13248393068,4494.079690582131,16.817556405945563,97198.027373699,-2349.486567408784,17.8357578060484,97236.12301689824,58472.06255981985,10.718816996739523,97301.52059170186,-2930.5638002907453,33.12355021123273,97528.12106895952,6616.163477656708,32.53358397861878,0.9937684207145336,58.0,13.0,245.0,175.0,420.0,45.0,881.0,871.0,46.0,22.0,24.0,0.4782608695652174,62.97212849278985,4602.906801077709,64.0,54.0,10.0,0.84375,229.4821511528642,1041.7049225836663,27.0,13.0,14.0,0.4814814814814814,2353.1786814518355,57098.923941578585,109.0,19.0,90.0,0.1743119266055046,35.314639414626285,2803.2533837960514,79.0,41.0,38.0,0.5189873417721519,53.27407230701453,7077.314951868165,,,,,97087.0,97132.0,97145.0,97208.0,97223.0,97250.0,97283.0,97390.0,97487.0,97565.0,0.014012241176932243,-0.09767331907156075,0.04024449589142534,-0.01205045916800128,0.00805210942669799
104,104,97973.3698357439,4877.909925687833,14.877725270769323,98058.60271279886,-2115.347632263557,20.383723206911977,98098.62075796454,59461.30990842022,11.12120932698635,98172.67417156968,-2556.658885955188,71.34303122419279,98388.19655937616,6648.893540500334,32.5430013774995,0.9965916874340142,53.0,13.0,244.0,175.0,419.0,40.0,862.0,863.0,40.0,19.0,21.0,0.475,95.05078991744818,4869.484688518809,63.0,52.0,11.0,0.8253968253968254,183.68514123783825,125.0638779946895,27.0,14.0,13.0,0.5185185185185185,2311.8457077901357,55761.0844233754,105.0,27.0,78.0,0.2571428571428571,23.260703088872408,2831.6842028283263,79.0,40.0,39.0,0.5063291139240507,46.26652433730533,6941.75781985912,,,,,97954.0,97994.0,98007.0,98070.0,98085.0,98112.0,98146.0,98251.0,98350.0,98426.0,0.019485966605675913,-0.08683449397926309,0.03887983146268964,-0.009098086262760088,0.0069585298750059
105,105,98871.5015735992,5225.201419620049,17.48179585941296,98962.39134341716,-1630.107512907426,14.993005842147856,98998.04134459131,59273.30006891146,11.009278789387048,99080.50678199712,-1948.1106508268992,50.95930801728114,99289.56980786267,7220.83442160072,36.42083209161369,0.9950327154271452,90.0,47.0,168.0,219.0,387.0,43.0,896.0,899.0,43.0,21.0,22.0,0.4883720930232558,83.21816497439835,5238.3385334272225,29.0,22.0,7.0,0.7586206896551724,362.3943685625625,3155.484153796544,28.0,14.0,14.0,0.5,2317.2804775418017,57861.3037766362,66.0,37.0,29.0,0.5606060606060606,13.916191881435406,2280.8696291238216,82.0,43.0,39.0,0.524390243902439,53.86807797557982,7778.648095015706,,,,,98851.0,98894.0,98941.0,98969.0,98984.0,99012.0,99045.0,99109.0,99248.0,99328.0,0.015926307579631937,-0.22231316995539968,0.03909484497822323,-0.007143429905035686,0.007460090459135374
106,106,99830.78076469756,5161.225424217988,20.92569356136186,99921.98327436524,-1395.1136584515034,7.15049802525799,99956.07299775103,59582.9795600893,11.056637641680563,100029.73958129382,-1785.5983082967557,95.9075595120225,100249.4301717573,7063.290565282457,36.66628602973973,0.9962334913875358,87.0,39.0,224.0,171.0,395.0,48.0,965.0,958.0,49.0,25.0,24.0,0.5102040816326531,64.81826254636388,5111.3136349589995,34.0,29.0,5.0,0.8529411764705882,506.71066172316097,5312.40046565348,28.0,14.0,14.0,0.5,2305.849294168172,57377.78802373141,136.0,27.0,109.0,0.1985294117647058,19.593371998281235,1730.7715446542034,84.0,43.0,41.0,0.5119047619047619,48.8913998661373,7407.74791605763,,,,,99807.0,99855.0,99894.0,99926.0,99942.0,99970.0,100005.0,100118.0,100209.0,100289.0,0.012558696282130504,-0.363203857014475,0.03869979835168747,-0.010973000986414988,0.006921901260362798
107,107,100768.00769014636,5098.539757625622,18.62913479706528,100859.42447269624,-2026.12617953157,7.782611377837546,100893.73242379478,58917.69693274514,10.66451048607582,100959.945252602,-2253.3088959879965,35.6715156120968,101187.082697662,6927.407833178269,35.88157331935368,0.9942163425124612,101.0,55.0,188.0,193.0,381.0,46.0,933.0,938.0,47.0,22.0,25.0,0.4680851063829787,71.54820128351466,5244.415615334545,18.0,12.0,6.0,0.6666666666666666,443.68379296610925,4076.918848817003,27.0,14.0,13.0,0.5185185185185185,2369.5923173858523,56242.50218561331,104.0,20.0,84.0,0.1923076923076923,33.647062241282065,2043.970247975637,86.0,45.0,41.0,0.5232558139534884,55.67943778186982,7462.908510339087,,,,,100746.0,100792.0,100847.0,100865.0,100880.0,100907.0,100940.0,101035.0,101143.0,101228.0,0.014033077054367129,-0.21898132379331217,0.04021868539924014,-0.014932290153911195,0.008037557355176575
108,108,101738.87226830792,5169.334999666928,20.519216695098397,101829.972626301,-1885.305417564158,6.913274919854789,101863.74431755557,59317.27640136416,11.169732751995774,101938.16424219396,-1488.860888861802,106.15125938910955,102158.44350711822,6843.047546077671,36.67192551240202,0.9963490588387238,97.0,50.0,214.0,171.0,385.0,47.0,971.0,970.0,47.0,23.0,24.0,0.4893617021276595,59.02494434494758,4942.249762938121,24.0,20.0,4.0,0.8333333333333334,568.56186279917,5506.3131458394,28.0,14.0,14.0,0.5,2279.9904013521223,56406.19693418148,122.0,26.0,96.0,0.2131147540983606,25.57621418035854,1544.9018322430584,82.0,41.0,41.0,0.5,57.944955785709226,7302.311624679176,,,,,101716.0,101763.0,101813.0,101834.0,101850.0,101878.0,101914.0,102027.0,102119.0,102198.0,0.011418285785067265,-0.30157546756204634,0.03843720648812001,-0.01717837735660511,0.00846771199462473
109,109,102681.08707873504,5428.619003683175,20.403111898549703,102773.90249796688,-2041.4725009795752,7.0049288555691005,102806.88055967858,58812.94389848816,10.920662747314251,102876.36991350216,-2393.709531013435,38.21948101296085,103102.82943970778,7041.121077217952,36.48623629762767,0.9920209032826116,104.0,56.0,198.0,182.0,380.0,48.0,946.0,943.0,49.0,23.0,26.0,0.4693877551020408,63.929060835793145,5652.154955569114,17.0,13.0,4.0,0.7647058823529411,603.403697210733,6797.97446375658,28.0,14.0,14.0,0.5,2305.874560816032,56681.92217622424,107.0,21.0,86.0,0.1962616822429906,24.378933736282853,2281.35735091703,83.0,44.0,39.0,0.5301204819277109,42.732358539058474,7387.1908179036,,,,,102658.0,102706.0,102762.0,102777.0,102793.0,102821.0,102855.0,102960.0,103059.0,103142.0,0.01177630273784529,-0.2955727774541157,0.03920692296573351,-0.010184583141949324,0.0060689708457538185
110,110,103637.84209235768,5472.066448986617,18.900996668361433,103724.027373699,-1397.124225892558,17.8357578060484,103763.77880886996,59552.0535326925,11.012384784163206,103832.65867030271,-1456.0570377372726,76.4389620259217,104061.19763766404,6629.185187165163,36.65250872293347,0.995715719092679,72.0,26.0,245.0,166.0,411.0,46.0,953.0,957.0,46.0,22.0,24.0,0.4782608695652174,71.52198291573085,5499.620157948175,48.0,38.0,10.0,0.7916666666666666,179.25529409520283,341.18252464475086,27.0,14.0,13.0,0.5185185185185185,2317.488188648826,56826.22655893905,121.0,20.0,101.0,0.1652892561983471,16.626799671262447,1532.0491540615571,83.0,44.0,39.0,0.5301204819277109,48.52944089769469,7156.222262127605,,,,,103616.0,103662.0,103688.0,103734.0,103750.0,103777.0,103813.0,103933.0,104018.0,104099.0,0.013070379093984896,-0.12830304619525507,0.038915336267566096,-0.011419057935464301,0.007320574026450952
111,111,104541.5267938828,5217.479782185701,18.417857822701876,104629.45203459916,-2068.9544617131087,15.287792405184332,104667.10769781478,58642.000741644246,10.789440675224828,104736.36991350216,-2638.8340601615087,38.21948101296085,104962.06708776634,6586.044664936394,35.66431228628396,0.9957031865643076,87.0,42.0,193.0,201.0,394.0,45.0,905.0,904.0,46.0,23.0,23.0,0.5,72.16933728640376,5230.911661607511,34.0,24.0,10.0,0.7058823529411765,242.93277636605683,856.9965074638346,27.0,13.0,14.0,0.4814814814814814,2330.2464929517328,57127.98424718351,86.0,21.0,65.0,0.2441860465116279,24.252143124359225,2716.5666555352645,85.0,45.0,40.0,0.5294117647058824,54.29656189348322,7154.111765007074,,,,,104520.0,104565.0,104607.0,104638.0,104654.0,104681.0,104715.0,104800.0,104918.0,105001.0,0.013832221742921763,-0.11741813600136312,0.03973681769859743,-0.009190476767938521,0.008244183672569672
112,112,105485.47819404882,5323.869009433414,19.49077501303019,105575.66402368466,-2030.9240201639875,8.8912054684224,105611.2753889636,58832.238257320336,10.919253004457843,105674.67126990156,-1791.419256776652,28.027619409504627,105908.40317818252,6825.684515652432,36.68302208526746,0.993254935625176,96.0,50.0,208.0,180.0,388.0,46.0,945.0,944.0,48.0,23.0,25.0,0.4791666666666667,71.17171858420933,5510.619426202438,22.0,17.0,5.0,0.7727272727272727,430.1995276658238,4066.593867581681,27.0,13.0,14.0,0.4814814814814814,2296.223507731089,58248.736741774905,109.0,16.0,93.0,0.146788990825688,42.462882693357145,1870.181044225351,84.0,44.0,40.0,0.5238095238095238,48.0921824384866,7385.501894159591,,,,,105463.0,105509.0,105559.0,105581.0,105598.0,105625.0,105659.0,105767.0,105865.0,105947.0,0.013368420308256924,-0.2118245308020372,0.039030021222171946,-0.02370348679279117,0.00704576695981234
113,113,106432.15258330862,5373.898221686838,18.351290539275933,106522.08128764728,-2247.587803004554,10.80371383106087,106557.6552082946,58684.3205699673,10.941378412479256,106624.52059170186,-1979.0644309165984,33.12355021123273,106855.63748851638,6493.286908099021,37.15792071319754,0.9929184870281093,94.0,49.0,215.0,175.0,390.0,45.0,946.0,946.0,46.0,22.0,24.0,0.4782608695652174,75.56219681510535,5527.379306694229,24.0,17.0,7.0,0.7083333333333334,405.3893916238853,3223.2796999006105,27.0,14.0,13.0,0.5185185185185185,2299.434143609396,56238.378731043726,117.0,19.0,98.0,0.1623931623931624,25.4022694643753,1864.5750089936373,84.0,45.0,39.0,0.5357142857142857,56.82751491791575,7085.301864638346,,,,,106411.0,106456.0,106505.0,106529.0,106544.0,106571.0,106606.0,106720.0,106812.0,106895.0,0.014060965373361087,-0.18036643155028897,0.03918310924070186,-0.012835493916997088,0.00875173324730735
114,114,107377.23480747965,5107.402217568521,18.01316367973878,107464.027373699,-1903.459585925856,17.8357578060484,107502.83768951846,59095.44975546016,10.779063260029602,107574.79457440229,-1912.7081606239883,40.767446413824906,107801.19655150468,6434.671838657566,36.81240360216515,0.9948143695034438,86.0,42.0,212.0,186.0,398.0,44.0,946.0,945.0,45.0,22.0,23.0,0.4888888888888889,83.8831429023444,5281.036560969299,35.0,25.0,10.0,0.7142857142857143,210.19006963790807,577.2096258004949,27.0,14.0,13.0,0.5185185185185185,2354.4539114057616,56988.448706787975,125.0,23.0,102.0,0.184,22.60726011275677,1554.7058634376815,84.0,44.0,40.0,0.5238095238095238,47.39440139419518,6966.139394009002,,,,,107356.0,107400.0,107442.0,107474.0,107489.0,107516.0,107552.0,107654.0,107758.0,107840.0,0.016423837271676366,-0.11042528624828678,0.03984154315008357,-0.011819503141232762,0.007365472953797569
115,115,108319.7842177476,5033.492171096404,17.2093906760627,108407.45203459918,-1450.7555438101856,15.287792404972537,108446.04697342508,59238.49643752419,11.025595441114854,108516.21923530244,-2277.1429187651843,43.31541181468896,108743.15919499294,6487.880344542432,34.906182153859696,0.9951981821811128,66.0,23.0,250.0,166.0,416.0,43.0,942.0,943.0,43.0,21.0,22.0,0.4883720930232558,83.16910200807821,5153.653643139651,53.0,44.0,9.0,0.8301886792452831,203.01546139247804,1393.5083582520908,28.0,14.0,14.0,0.5,2301.214257983045,57540.571925747274,124.0,24.0,100.0,0.1935483870967742,20.7505851490233,1978.6180089581107,82.0,43.0,39.0,0.524390243902439,52.5362452177433,6965.584718223826,,,,,108299.0,108342.0,108365.0,108416.0,108432.0,108460.0,108492.0,108615.0,108702.0,108781.0,0.016523141227010627,-0.13993774640990808,0.03884660138884548,-0.009112552830138402,0.008097597740367776
116,116,109321.8807765938,5252.503050435702,18.046143363138455,109410.45203459916,-1736.0903896222342,15.28779240518411,109448.20484454608,59731.6950314517,11.111782703978744,109532.136608041,-1675.3468069329604,78.98692742678575,109749.08247229533,6694.445062481684,36.5858636793564,0.996309126052354,65.0,19.0,261.0,163.0,424.0,46.0,1003.0,1003.0,46.0,22.0,24.0,0.4782608695652174,73.90938456880953,5278.283031028066,55.0,46.0,9.0,0.8363636363636363,256.4945958720673,1142.59017426562,27.0,13.0,14.0,0.4814814814814814,2303.9411431206927,58377.07216372789,127.0,33.0,94.0,0.2598425196850393,10.104565509526886,1775.8886762102916,79.0,39.0,40.0,0.4936708860759494,47.86369143042387,7100.158951458464,,,,,109300.0,109346.0,109365.0,109419.0,109435.0,109462.0,109499.0,109626.0,109710.0,109789.0,0.014071269232804853,-0.147742650616181,0.0385715011420244,-0.0060313276437522845,0.007149762375177431
117,117,110227.51757542338,4994.858372913749,16.720869196550666,110318.45203459916,-2428.2470488484564,15.287792405184335,110355.64558353944,58668.81281528695,10.705948226459808,110426.36991350216,-2733.531603512464,38.21948101296085,110653.87075638032,6313.965347641321,32.972497919245114,0.9929904017595398,59.0,16.0,234.0,191.0,425.0,43.0,905.0,907.0,45.0,22.0,23.0,0.4888888888888889,74.00621735677576,5023.1152295035745,61.0,52.0,9.0,0.8524590163934426,246.12257272320565,1161.520218158299,27.0,14.0,13.0,0.5185185185185185,2371.781950016849,55880.975613876886,100.0,22.0,78.0,0.22,40.72838145188613,2742.7477509301616,80.0,42.0,38.0,0.525,56.251243350921506,6764.371831466942,,,,,110207.0,110250.0,110266.0,110327.0,110342.0,110369.0,110405.0,110500.0,110613.0,110691.0,0.01481647963395692,-0.10135812698297068,0.04042662253085253,-0.01489954657906717,0.008909019966657723
118,118,111105.5024931824,4535.019696689865,15.73931708311341,111196.027373699,-2574.285880107816,17.8357578060484,111234.33500719696,59082.157538721935,11.051130527431296,111310.06855710271,-3169.0382349848373,48.41134261641708,111530.50024268744,6243.793849068405,31.012862802527277,0.99538181207134,60.0,18.0,229.0,193.0,422.0,42.0,873.0,879.0,42.0,20.0,22.0,0.4761904761904761,73.34680614619903,4467.372613950571,61.0,51.0,10.0,0.8360655737704918,248.4835049951725,529.9798866123979,27.0,13.0,14.0,0.4814814814814814,2300.7311015911014,57915.22146458632,120.0,28.0,92.0,0.2333333333333333,20.320370357243338,2961.893694121418,76.0,39.0,37.0,0.5131578947368421,53.23351752885222,6461.153559996679,,,,,111086.0,111128.0,111146.0,111206.0,111221.0,111248.0,111283.0,111375.0,111492.0,111568.0,0.016173426148454274,-0.09652521769834108,0.038941216729995384,-0.0064121568912975145,0.008525828817489681
119,119,111977.31253847614,4155.476911342557,15.318281766907342,112067.45203459916,-2859.9689159699133,15.28779240518434,112105.11357007906,58600.23088352409,11.042592725175904,112175.21923530244,-3347.8801760792267,43.31541181468896,112399.9677779026,6317.419733213146,30.777713586305897,0.9947602238045016,57.0,14.0,263.0,161.0,424.0,43.0,875.0,870.0,43.0,20.0,23.0,0.4651162790697674,56.63167630880405,4156.269001429235,63.0,53.0,10.0,0.8412698412698413,259.43152335953334,682.5157909651549,27.0,13.0,14.0,0.4814814814814814,2293.5969505244475,56876.66131161032,127.0,24.0,103.0,0.1889763779527559,20.89197455112235,3163.5543031634556,77.0,39.0,38.0,0.5064935064935064,50.016349318269114,6467.1056839931225,,,,,111957.0,112000.0,112014.0,112076.0,112092.0,112119.0,112151.0,112277.0,112361.0,112438.0,0.013628201411545663,-0.09071130875265168,0.03913972549158181,-0.00624035910854772,0.007917211683009379
120,120,112842.60774881708,4507.096893570624,17.27422548436718,112932.027373699,-1229.0577508856563,17.8357578060484,112970.91467970375,59860.96615669305,11.174562246011108,113042.16424219396,-2424.27122578898,90.55875896845995,113261.48440645424,6542.4671252355665,35.47584605661866,0.9970173844267588,58.0,14.0,234.0,187.0,421.0,44.0,860.0,866.0,44.0,21.0,23.0,0.4772727272727273,60.39472520323884,4181.677268715243,63.0,53.0,10.0,0.8412698412698413,216.00290055504468,658.5249628657912,28.0,14.0,14.0,0.5,2300.937470367584,56816.759009657486,121.0,26.0,95.0,0.2148760330578512,23.59076461589772,2597.4174906420917,81.0,39.0,42.0,0.4814814814814814,56.21691867667663,6897.818729523149,,,,,112822.0,112866.0,112880.0,112942.0,112957.0,112985.0,113018.0,113114.0,113225.0,113301.0,0.013399917203775216,-0.1757467461552506,0.03843802761794075,-0.009731074792681291,0.008592617677792687
121,121,113705.26238625088,4420.691685354317,16.6058369463188,113791.60271279886,-1150.9917006899725,20.383723206912453,113831.05372789156,60065.39766607411,10.85821799684181,113904.04093769324,-2623.1632876184026,101.44626245693917,114120.7745081097,6457.103961822612,34.41974124734148,0.9966326981167154,59.0,18.0,250.0,167.0,417.0,41.0,870.0,860.0,41.0,20.0,21.0,0.4878048780487805,72.28227090908084,3991.426834666857,61.0,50.0,11.0,0.819672131147541,202.4066638537802,305.03035701902286,26.0,13.0,13.0,0.5,2372.171810800543,56962.82843925475,126.0,28.0,98.0,0.2222222222222222,18.485853471026743,2804.8148139699156,77.0,36.0,41.0,0.4675324675324675,54.393299898256224,6767.403220043929,,,,,113685.0,113726.0,113744.0,113803.0,113818.0,113844.0,113877.0,113994.0,114086.0,114161.0,0.016350896206706947,-0.17585414710848538,0.039493150848485654,-0.007047160791812637,0.008423791876335676
122,122,114545.27668981624,4458.085700236861,14.84074442363888,114634.60271279886,-2885.5264823520683,20.383723206912453,114673.70544293067,58686.06539849437,10.967126405418464,114742.79457440229,-3458.3433180722486,40.767446413824906,114964.6296581461,6588.662741741649,30.48043681704331,0.9928007567911764,60.0,21.0,253.0,161.0,414.0,39.0,835.0,843.0,39.0,18.0,21.0,0.4615384615384615,91.90447062017766,4540.722098671973,61.0,50.0,11.0,0.819672131147541,229.1370373325278,284.5484919476953,27.0,14.0,13.0,0.5185185185185185,2314.0959632236536,55611.51910633832,120.0,23.0,97.0,0.1916666666666666,20.29997203548128,3107.9464261158514,77.0,40.0,37.0,0.5194805194805194,70.28014441064309,7054.2946209660095,,,,,114527.0,114566.0,114587.0,114646.0,114660.0,114687.0,114720.0,114840.0,114926.0,115001.0,0.020615231917882313,-0.07940909180142135,0.03943177903494316,-0.005869854484775935,0.010666829850827243
123,123,115426.86397335993,5193.992312833323,17.944689263087962,115514.027373699,-2345.9556032174396,17.835757806048,115553.0918204332,59251.71573000322,11.072620936005642,115620.52059170186,-2591.453965727788,33.12355021123273,115845.052957151,7020.19118766618,34.99064995442963,0.9949603273551072,71.0,24.0,209.0,198.0,407.0,47.0,887.0,879.0,47.0,23.0,24.0,0.4893617021276595,64.86240757273099,5090.493286709639,50.0,40.0,10.0,0.8,222.7570047563677,563.5457646785228,28.0,14.0,14.0,0.5,2306.4733285319944,58122.64314007273,83.0,19.0,64.0,0.2289156626506024,54.80896757909331,2652.6962338527796,78.0,41.0,37.0,0.5256410256410257,77.65270237812938,7845.181973541443,,,,,115404.0,115451.0,115475.0,115524.0,115539.0,115567.0,115602.0,115684.0,115804.0,115882.0,0.012487967572163876,-0.0949536318806972,0.03892669267236203,-0.021149890487713402,0.011061337263087353
124,124,116347.87866461712,5086.345813955181,17.203812754736575,116435.027373699,-2220.251904104534,17.8357578060421,116473.57680334516,59440.37708967136,10.823540255341689,116542.36991350216,-2480.053296062776,38.219481012960806,116766.17965002714,6804.442422852638,33.90794793332343,0.9958113978035144,70.0,28.0,201.0,203.0,404.0,42.0,918.0,921.0,44.0,21.0,23.0,0.4772727272727273,81.94401792605268,5215.851038468553,49.0,39.0,10.0,0.7959183673469388,216.37423647193097,786.231080884954,27.0,14.0,13.0,0.5185185185185185,2372.9543130102847,56437.084475485,82.0,21.0,61.0,0.2560975609756097,46.60051233913876,2448.1043389735087,79.0,42.0,37.0,0.5316455696202531,67.56732882787914,7536.669103136317,,,,,116328.0,116370.0,116398.0,116445.0,116460.0,116487.0,116521.0,116599.0,116724.0,116802.0,0.016110587231648016,-0.09745481405597463,0.039921589148575916,-0.018790125362676557,0.009929884717806573
125,125,117274.6679866576,5106.506704069757,17.914044984466322,117362.45203459916,-1461.0992067731752,15.28779240518434,117401.09462279482,59664.10771830476,11.104661049709136,117472.36991350216,-2294.144381444462,38.21948101296085,117694.7025564254,7320.027972444385,34.87837563279581,0.9955730653548908,81.0,36.0,207.0,192.0,399.0,45.0,924.0,927.0,45.0,22.0,23.0,0.4888888888888889,68.65571259381932,5149.090760259995,39.0,30.0,9.0,0.7692307692307693,218.8325496877505,1388.196084928347,28.0,14.0,14.0,0.5,2308.058230665823,58375.11488650574,110.0,22.0,88.0,0.2,40.461232508452575,2229.625595184223,80.0,42.0,38.0,0.525,63.4951097391403,7929.701210423105,,,,,117253.0,117298.0,117334.0,117371.0,117387.0,117415.0,117451.0,117541.0,117654.0,117733.0,0.01344475128938976,-0.14977254704767123,0.03868419924358842,-0.017636741974791044,0.008674162172352642
126,126,118325.46141190876,5061.783142082139,22.09400083743996,118379.60271279886,-560.3067840028606,14.292847173460329,118451.039724917,60346.16250570953,11.207733153053978,118572.72337205076,-1715.8970937298427,40.057838438288435,118750.60715621962,7332.530108031634,39.468080919120986,0.995077433415526,73.0,23.0,244.0,171.0,415.0,50.0,1057.0,1050.0,50.0,24.0,26.0,0.48,63.32742237717327,5395.60963176979,18.0,7.0,11.0,0.3888888888888889,30.02595684716919,388.53886475468835,28.0,14.0,14.0,0.5,2302.2277615706553,59507.22010504236,108.0,62.0,46.0,0.5740740740740741,17.55198447401423,1535.1577483051938,86.0,47.0,39.0,0.5465116279069767,54.54379724083092,7997.762966201026,,,,,118301.0,118351.0,118374.0,118391.0,118437.0,118465.0,118519.0,118618.0,118705.0,118789.0,0.012510892031444051,-0.05358842281484119,0.03815035896197765,-0.010229042602934602,0.007438605288655653
127,127,119410.46093028664,4681.765225979078,18.90832282005804,119535.52083741238,812.6427225967919,219.1250244743089,119534.91182899254,59859.700352009655,11.056063525127287,119652.50822471098,-2340.6418108479775,56.53345828417212,119836.90174740752,6933.945169187509,39.40849736108978,0.9948601230297216,-192.0,-243.0,518.0,167.0,685.0,51.0,1082.0,1084.0,51.0,25.0,26.0,0.4901960784313725,64.21488133284947,5522.909836881949,28.0,15.0,13.0,0.5357142857142857,2313.210540683188,55718.54999053718,28.0,14.0,14.0,0.5,2306.4539591142416,58880.25843098185,119.0,61.0,58.0,0.5126050420168067,21.755664770513825,1617.993917893662,86.0,45.0,41.0,0.5232558139534884,60.701177074944674,7920.91245261354,,,,,119385.0,119436.0,119193.0,119585.0,119521.0,119549.0,119592.0,119711.0,119793.0,119878.0,0.013715955036899673,2.846528340635779,0.038530997408121964,-0.009294743292068294,0.008754204943050823
128,128,120501.00858031287,4953.924601372635,19.394997365374937,120591.2739827004,-806.643387599143,4.6132419942052865,120624.80051219404,59389.62424471338,10.96400204016478,120694.52059170186,-1787.9421057173397,33.12355021123273,120928.64773774924,6956.362507760258,40.00208884712995,0.9933345591817556,107.0,61.0,197.0,187.0,384.0,46.0,1092.0,1090.0,47.0,23.0,24.0,0.4893617021276595,60.845239567249095,5045.519952154333,7.0,5.0,2.0,0.7142857142857143,506.76502831539176,6740.68931339332,28.0,14.0,14.0,0.5,2318.635480247738,57364.3388327125,109.0,19.0,90.0,0.1743119266055046,23.146843446041597,1850.643017355845,89.0,48.0,41.0,0.5393258426966292,38.835222968945104,7269.9920257106705,,,,,120479.0,120525.0,120586.0,120593.0,120611.0,120639.0,120676.0,120783.0,120881.0,120970.0,0.012282229638777722,-0.6282392394285959,0.0390410868857136,-0.01294608106829883,0.005582691086846319
129,129,121477.00751804042,5001.047146384096,17.375195496103256,121565.4520345998,-1990.6158492844131,15.287792402559708,121603.23800537128,58228.057932986485,10.740490784383264,121670.09593080172,-1957.2573221071011,30.575584810368134,121904.17627732528,6731.429514973889,35.666232483201895,0.9940187032511356,61.0,15.0,250.0,176.0,426.0,46.0,977.0,979.0,46.0,22.0,24.0,0.4782608695652174,69.4656314972569,5089.2210998703085,58.0,49.0,9.0,0.8448275862068966,215.32959855905295,1193.9177948350446,27.0,13.0,14.0,0.4814814814814814,2329.7934680312687,57590.14064327414,117.0,17.0,100.0,0.1452991452991453,39.69777887193427,1992.1779616102224,82.0,43.0,39.0,0.524390243902439,54.16725848041157,7348.450868854405,,,,,121455.0,121501.0,121516.0,121574.0,121590.0,121617.0,121653.0,121766.0,121862.0,121942.0,0.013890217281291297,-0.10817235210724344,0.04001152624242735,-0.020282350421454706,0.00804691757670758
130,130,122351.7807646976,4335.318479849663,18.096760495517913,122440.027373699,-1472.9133428663763,17.835757806048395,122478.33450613136,59113.77432637636,11.077712986520693,122546.28754669469,-2381.3515167657183,94.27471982392062,122774.23518450397,6315.297201722946,34.678734827975155,0.9965378071107296,63.0,15.0,242.0,180.0,422.0,48.0,876.0,875.0,48.0,24.0,24.0,0.5,45.213373615237394,3929.8813896964257,60.0,50.0,10.0,0.8333333333333334,235.53869032524585,521.5415829166086,27.0,13.0,14.0,0.4814814814814814,2283.4831016957587,57169.92174559912,113.0,22.0,91.0,0.1946902654867256,24.756577031465987,2714.4882119870595,79.0,39.0,40.0,0.4936708860759494,73.48862822821323,7017.854024765305,,,,,122328.0,122376.0,122391.0,122450.0,122465.0,122492.0,122525.0,122633.0,122736.0,122813.0,0.01042907777718911,-0.15991347452041793,0.038628612835450035,-0.010396019595246334,0.011636606462188982
131,131,123212.36129824724,4570.352120494635,15.315582334489418,123296.60271279886,-953.313261157446,20.383723206912453,123336.23035421364,59686.188129480615,11.236342966197816,123407.31492039368,-2893.775897654973,109.65986383468804,123630.224364541,6130.8873194295265,36.904526227956104,0.995638521222005,53.0,16.0,265.0,159.0,424.0,37.0,856.0,858.0,37.0,18.0,19.0,0.4864864864864865,83.9639281800883,3804.659538585693,63.0,52.0,11.0,0.8253968253968254,214.19930980835795,71.51505960648615,27.0,13.0,14.0,0.4814814814814814,2269.283496992646,56927.70714656965,134.0,26.0,108.0,0.1940298507462686,21.78640180354102,3137.3767854028342,79.0,37.0,42.0,0.4683544303797468,46.4985548182149,6288.8651971063855,,,,,123194.0,123231.0,123247.0,123308.0,123323.0,123350.0,123382.0,123512.0,123595.0,123671.0,0.018371435278164334,-0.22468932148105458,0.03802024501999963,-0.007528710782751369,0.0075843107849748485
132,132,124044.52209062476,4871.115877878905,17.200052237696177,124136.54796540084,-1047.304056697527,5.453292500333943,124169.40681720388,59707.07453475773,11.166819750224498,124243.19161589297,-2608.8330897517208,113.48507525042106,124461.51616521238,6440.000137286432,39.62344450018854,0.9960122085071026,60.0,18.0,259.0,162.0,421.0,42.0,833.0,833.0,42.0,22.0,20.0,0.5238095238095238,68.08201801236434,4000.820605526902,60.0,57.0,3.0,0.95,635.0358998167895,7248.942851204572,27.0,13.0,14.0,0.4814814814814814,2286.3795197108393,57690.62771617041,128.0,28.0,100.0,0.21875,19.46375378984591,2673.9191675047537,83.0,39.0,44.0,0.4698795180722891,48.679439805580174,6686.717654004642,,,,,124023.0,124065.0,124083.0,124140.0,124156.0,124183.0,124215.0,124342.0,124426.0,124504.0,0.013976677976712433,-0.6063529456949244,0.0382932765928743,-0.007460712556240327,0.007558919063329682
133,133,124864.98545563724,5069.307926267593,16.8414053690106,124957.8352351986,-1610.5350740428698,5.80844966154971,124990.50739756886,59669.72487915477,10.856434121553235,125074.24636329092,-2180.467926681278,111.78818071777972,125279.32740569496,6618.3038007907835,43.32903639035224,0.995172108986808,70.0,28.0,251.0,157.0,408.0,42.0,821.0,821.0,42.0,21.0,21.0,0.5,74.45179367952683,4478.121333742333,52.0,48.0,4.0,0.9230769230769232,625.5473265784298,6405.522052915245,27.0,14.0,13.0,0.5185185185185185,2360.5073554350633,55307.097791804874,132.0,37.0,95.0,0.2803030303030303,16.91387338262654,2108.875891609394,85.0,41.0,44.0,0.4823529411764706,48.97743816133755,7084.995767285245,,,,,124844.0,124886.0,124914.0,124962.0,124977.0,125004.0,125038.0,125165.0,125240.0,125322.0,0.014686776728188192,-0.388409626502663,0.03955954816643861,-0.007756992513239963,0.007400300686632958
134,134,125670.98919561316,4561.870493269849,16.14022068459059,125757.027373699,-1388.3424895143155,17.83575780604839,125796.62725025136,59154.475925152205,11.10551985072533,125889.16448789724,-2330.932592897859,78.98692742678531,126086.40982736838,6277.61400049205,38.222281446549694,0.9947385253585356,60.0,18.0,269.0,149.0,418.0,42.0,807.0,806.0,43.0,21.0,22.0,0.4883720930232558,74.61907192241704,4461.869899056759,58.0,48.0,10.0,0.8275862068965517,195.64124412982852,439.3056056238229,27.0,14.0,13.0,0.5185185185185185,2294.7851167909876,55831.90903939709,137.0,45.0,92.0,0.3284671532846715,15.212236185663793,2129.672534958297,84.0,41.0,43.0,0.4880952380952381,45.44897325868842,6693.897384780427,,,,,125650.0,125692.0,125710.0,125767.0,125783.0,125810.0,125845.0,125979.0,126047.0,126128.0,0.016357121937701415,-0.1409171336377307,0.03879309352168998,-0.006526244573529969,0.007239848333319961
135,135,126488.79951807189,4635.987634402221,18.6900661967707,126556.48451797396,-1560.6339222391216,34.725260038513525,126613.5950582982,59416.30168515993,11.11679527959785,126687.64389620256,-2517.856271245815,45.86337721555302,126906.76599642976,6384.059964533589,36.038509532325655,0.9930019519524472,63.0,19.0,265.0,152.0,417.0,44.0,814.0,817.0,44.0,24.0,20.0,0.5454545454545454,68.92513632151697,4113.932271145297,56.0,29.0,27.0,0.5178571428571429,22.7272173877621,1588.4717223638238,27.0,14.0,13.0,0.5185185185185185,2307.415274194936,56135.77928600632,133.0,27.0,106.0,0.2030075187969924,15.859808686113654,2234.0711559550605,83.0,45.0,38.0,0.5421686746987951,48.2079415192214,6874.041678985181,,,,,126465.0,126509.0,126528.0,126583.0,126600.0,126627.0,126662.0,126793.0,126862.0,126945.0,0.014867411597486798,-0.014562811344734961,0.038834717219891284,-0.006298933289892019,0.007551298356694463
136,136,127321.01772038249,4600.349298227222,16.649630269719776,127408.027373699,-1359.7711424482736,17.8357578060484,127447.5329141874,59597.22138026694,11.132784528090736,127549.91763319253,-2195.72320206473,93.52732072672624,127737.1193251739,6263.698914750991,40.822464201338555,0.9944990413791496,60.0,19.0,263.0,157.0,420.0,41.0,834.0,834.0,41.0,20.0,21.0,0.4878048780487805,86.5108459274142,4612.003021299393,58.0,48.0,10.0,0.8275862068965517,190.6890648999168,506.7214368812413,27.0,14.0,13.0,0.5185185185185185,2303.703566445947,55976.92569957619,135.0,56.0,79.0,0.4148148148148148,15.2825864746657,2201.8178042124623,87.0,42.0,45.0,0.4827586206896552,50.75719570109007,6731.038694801497,,,,,127301.0,127342.0,127361.0,127418.0,127434.0,127461.0,127495.0,127624.0,127696.0,127781.0,0.018805277668970003,-0.14023614632428538,0.038654546522343736,-0.006960160761745765,0.008103390088172506
