Unnamed: 0,cycle,p_center,p_height,p_width,q_center,q_height,q_width,r_center,r_height,r_width,s_center,s_height,s_width,t_center,t_height,t_width,r_squared,pr_interval,pr_segment,qrs_duration,st_segment,qt_interval,p_duration,pp_interval,rr_interval,fwhm_p,rise_time_p,decay_time_p,rise_decay_symmetry_p,sharpness_deriv_p,sharpness_diff_p,fwhm_q,rise_time_q,decay_time_q,rise_decay_symmetry_q,sharpness_deriv_q,sharpness_diff_q,fwhm_r,rise_time_r,decay_time_r,rise_decay_symmetry_r,sharpness_deriv_r,sharpness_diff_r,fwhm_s,rise_time_s,decay_time_s,rise_decay_symmetry_s,sharpness_deriv_s,sharpness_diff_s,fwhm_t,rise_time_t,decay_time_t,rise_decay_symmetry_t,sharpness_deriv_t,sharpness_diff_t,Average_Heart_Rate,SDNN,RMSSD,NN50,p_on,p_off,q_on,q_off,r_on,r_off,s_on,s_off,t_on,t_off,sharpness_deriv_p_norm,sharpness_deriv_q_norm,sharpness_deriv_r_norm,sharpness_deriv_s_norm,sharpness_deriv_t_norm
0,0,,,,,,,,,,,,,,,,,,,,,,,,,,,,,,,,,,,,,,,,,,,,,,,,,,,,,,,65.80120097446697,632.6288613542522,907.7377501175688,161.0,,,,,,,,,,,,,,,
1,1,1304.356103797408,1339.131048802457,18.01455935736183,1397.6027127988482,-867.0899939258715,20.383723206912453,1446.568814547427,16732.35756745987,10.165369300962888,1474.061472168386,-17139.359108167435,9.264448158638718,1688.7624007666316,8322.419606466925,38.977085828571376,0.9308308526591068,117.0,63.0,92.0,253.0,345.0,54.0,,,54.0,28.0,26.0,0.5185185185185185,69.39684770612077,1099.195936917327,57.0,44.0,13.0,0.7719298245614035,99.5726363487005,530.4905508880786,21.0,12.0,9.0,0.5714285714285714,987.432065656824,13053.506518705575,20.0,9.0,11.0,0.45,1137.822329169471,22280.372596423935,100.0,50.0,50.0,0.5,126.88470522432992,8903.651843303162,,,,,1276.0,1330.0,1393.0,1410.0,1435.0,1456.0,1465.0,1485.0,1646.0,1738.0,0.05182229757735824,-0.11483541160228529,0.059013325628250096,-0.06638651550437866,0.015246131680951815
2,2,2149.4520345991364,733.5037082307192,7.520399390477645,2231.7533909985605,-1919.6897978592845,25.47965400864057,2282.2558651872646,18039.173641509788,10.847398849297454,2308.2696667113037,-19186.288916151658,9.800455366811956,2525.1531699929333,8465.817377186171,36.47313210742865,0.9251260903964796,42.0,28.0,134.0,252.0,386.0,14.0,840.0,835.0,17.0,7.0,10.0,0.4117647058823529,93.75175737867404,603.4203891802188,79.0,65.0,14.0,0.8227848101265823,91.72688288518904,1201.5971573982508,21.0,12.0,9.0,0.5714285714285714,1051.215860594816,13606.2556606077,20.0,8.0,12.0,0.4,1293.1530682343434,25680.712325762695,89.0,42.0,47.0,0.4719101123595505,107.66408692895,9082.37302255658,,,,,2144.0,2158.0,2186.0,2246.0,2270.0,2291.0,2300.0,2320.0,2483.0,2572.0,0.1278136106561918,-0.047782138024318827,0.05827405852870511,-0.0673998538167391,0.012717506429926662
3,3,2992.9726263010075,642.0430828904854,11.857845307965,3097.4520345991364,-1576.4300461604748,15.28779240518434,3143.860396844346,18253.47110302007,10.50162743798556,3169.9365558914633,-18858.096218027673,10.084040729062906,3388.835512095536,8735.548495944988,36.94296580912953,0.9329365880101668,73.0,57.0,128.0,251.0,379.0,16.0,838.0,864.0,19.0,13.0,6.0,0.6842105263157895,70.43444659290462,778.6290830377814,80.0,69.0,11.0,0.8625,112.95007643352396,501.5384029346704,21.0,13.0,8.0,0.6190476190476191,1095.476761085998,13151.208543905988,21.0,9.0,12.0,0.4285714285714285,1260.899385092534,25133.200858902397,99.0,54.0,45.0,0.5454545454545454,98.76719637016852,8885.682349277711,,,,,2981.0,2997.0,3054.0,3106.0,3131.0,3152.0,3161.0,3182.0,3341.0,3433.0,0.10970361408740349,-0.071649279147288,0.0600147092519159,-0.06686249611385262,0.011306353163286303
4,4,3863.7031085674607,583.0288391078273,1.3855222905187832,3952.9040691982727,-2111.658142163353,30.57558481036868,4007.397287193098,19745.30869694769,12.299968476745466,4027.71222972291,-21208.23564620555,12.476142687663533,4250.684833895824,7708.696134842851,33.25048582819639,0.912224774335098,69.0,64.0,113.0,249.0,362.0,5.0,874.0,860.0,5.0,3.0,2.0,0.6,85.5040516782213,542.3510435582551,85.0,68.0,17.0,0.8,93.04829404882008,1555.1217509041458,22.0,16.0,6.0,0.7272727272727273,1093.245316949694,5440.195766491768,23.0,7.0,16.0,0.3043478260869565,1149.5278917249182,25341.468358054542,86.0,45.0,41.0,0.5232558139534884,81.72360554265957,7797.809176174578,,,,,3861.0,3866.0,3930.0,3970.0,3992.0,4012.0,4022.0,4043.0,4208.0,4292.0,0.14665492672551642,-0.044064089821609996,0.055367344908549956,-0.05420195771592083,0.010601482288719839
5,5,4699.798598734576,680.8303201326929,10.233168974987992,4801.602712798849,-1830.6098244055331,20.383723206912453,4849.1664495068435,14196.22043633004,10.487002728180608,4876.86669770735,-16868.851045286872,10.78014565793625,5091.71708893655,7548.738291870098,35.97437732002056,0.9307950887122932,71.0,53.0,130.0,248.0,378.0,18.0,836.0,843.0,18.0,12.0,6.0,0.6666666666666666,77.43335208955811,815.2689147128011,81.0,69.0,12.0,0.8518518518518519,121.07399181873043,1089.8340182214556,20.0,12.0,8.0,0.6,879.4631892010167,10382.215653223764,22.0,10.0,12.0,0.4545454545454545,1017.4841547741036,21057.862222884745,87.0,42.0,45.0,0.4827586206896552,91.50685811525352,8294.468128725373,,,,,4688.0,4706.0,4759.0,4813.0,4837.0,4857.0,4867.0,4889.0,5051.0,5137.0,0.11373370104090907,-0.06613861140947806,0.06195051655793903,-0.060317335901687676,0.012122139432732134
6,6,5516.876695499587,839.9967492944526,12.73982025956458,5615.027373698998,-1253.8224698771332,17.83575780478333,5660.426935791854,14880.59844769407,10.049945276401203,5688.452825183297,-16105.265729964867,10.175955411441937,5909.958816596257,7953.644960411724,34.93518001159695,0.931015779114148,96.0,82.0,90.0,247.0,337.0,14.0,819.0,815.0,37.0,19.0,18.0,0.5135135135135135,82.19048465364482,827.8440306534981,80.0,68.0,12.0,0.85,115.81376923608548,323.1100451999695,20.0,11.0,9.0,0.55,887.2509028731114,12016.079247954607,21.0,9.0,12.0,0.4285714285714285,980.1121505853348,20588.333195417737,87.0,50.0,37.0,0.5747126436781609,82.8760142000781,7920.039837688546,,,,,5514.0,5528.0,5610.0,5625.0,5649.0,5669.0,5679.0,5700.0,5863.0,5947.0,0.0978461937176304,-0.09236855457490285,0.059624678805213084,-0.06085662708202163,0.010419878510114939
7,7,6376.69864359937,630.663044339923,10.191861557755733,6453.161216242503,-1644.652207595445,25.664449127031915,6522.561601977916,15018.117855879347,10.014809181846427,6550.66974373346,-16481.625031478212,9.226328432875642,6773.109494795968,7766.886951323883,35.43846976117287,0.9234227024657224,66.0,55.0,128.0,251.0,379.0,11.0,856.0,859.0,12.0,10.0,2.0,0.8333333333333334,107.86999361900216,756.564786486646,55.0,20.0,35.0,0.3636363636363636,85.13847801558349,1750.037083176461,21.0,12.0,9.0,0.5714285714285714,896.0684639193777,11745.287946889202,20.0,9.0,11.0,0.45,1057.0542196735553,20200.335367146276,91.0,51.0,40.0,0.5604395604395604,95.14897824203142,8236.46779525217,,,,,6368.0,6379.0,6434.0,6487.0,6511.0,6532.0,6542.0,6562.0,6723.0,6813.0,0.17104219850380353,-0.051766858441189674,0.059665829800941504,-0.06413531539849318,0.01225059394302283
8,8,7425.301356399425,1119.2200886406472,9.21870354188011,7500.904069198273,-1450.3206944970443,30.57558481036868,7555.381457722289,17016.885917776413,10.384326917865046,7582.494066438627,-17009.829295756703,9.598000610831496,7801.585738934514,7955.956581954727,38.3136329023104,0.9373095508853736,66.0,52.0,110.0,256.0,366.0,14.0,1052.0,1034.0,24.0,13.0,11.0,0.5416666666666666,90.58061721025852,644.7945637055907,74.0,57.0,17.0,0.7702702702702703,80.07500462788389,1321.9507553499773,22.0,12.0,10.0,0.5454545454545454,953.006856193409,14078.846216941927,19.0,8.0,11.0,0.4210526315789473,1141.5930135330084,22841.904034100775,96.0,48.0,48.0,0.5,101.20000390437826,8516.38341320139,,,,,7417.0,7431.0,7483.0,7518.0,7543.0,7565.0,7574.0,7593.0,7757.0,7849.0,0.0809319079684082,-0.05521192997639259,0.056003599060264364,-0.06711372546329973,0.01272002968617434
9,9,8389.904069198274,1941.90372635834,15.365345495459882,8480.178051898705,-1472.0188616281089,22.93168860777651,8535.072670153948,18217.202461965524,10.914629473215514,8560.785448390267,-18155.21879941689,9.600034227089186,8779.192220216855,8672.720672860232,39.22327516483612,0.9393342608690024,105.0,68.0,97.0,256.0,353.0,37.0,968.0,978.0,44.0,24.0,20.0,0.5454545454545454,71.85726956857215,1641.5986321227751,77.0,57.0,20.0,0.7402597402597403,82.10420170942983,1613.069922585492,23.0,13.0,10.0,0.5652173913043478,1025.604202119248,13295.612930636868,19.0,8.0,11.0,0.4210526315789473,1251.9522265953967,24221.837307831694,98.0,47.0,51.0,0.4795918367346938,122.08241518364206,9174.964817524604,,,,,8370.0,8407.0,8475.0,8498.0,8522.0,8545.0,8553.0,8572.0,8734.0,8828.0,0.03700351803913904,-0.05577659624457492,0.05629866628866524,-0.06895825604897733,0.014076599464995765
10,10,9327.821681292173,2068.986906845589,14.55599174266662,9401.0191431725,-1288.7021727621498,20.38372320691243,9470.75633050486,18741.75312088084,10.194879785560358,9497.4057799347,-18526.658279836905,9.155800164440874,9717.410851195393,8706.65893930652,38.1661621903467,0.9383418636183872,83.0,47.0,114.0,255.0,369.0,36.0,933.0,938.0,36.0,17.0,19.0,0.4722222222222222,92.52967571747652,2306.120388663533,39.0,21.0,18.0,0.5384615384615384,83.07243543283579,1135.049555091519,22.0,13.0,9.0,0.5909090909090909,1082.2835750180452,14676.322919029057,19.0,8.0,11.0,0.4210526315789473,1304.0812622869948,25249.90591278431,96.0,50.0,46.0,0.5208333333333334,85.03559153490642,9180.91432598868,,,,,9311.0,9347.0,9394.0,9418.0,9458.0,9480.0,9489.0,9508.0,9674.0,9763.0,0.04472221424472365,-0.0644620899915004,0.05774718981930433,-0.07038944868466991,0.009766730513700292
11,11,10231.123304500716,2380.0165337694352,12.739827004320285,10299.520187786347,-1743.191772259535,61.15116962073736,10368.479007504557,17067.465853304508,10.968168545244655,10395.221252016843,-18133.391759698938,10.262540769097493,10614.854113459767,8165.377124584847,35.16896858633644,0.930286229339836,32.0,15.0,151.0,254.0,405.0,17.0,901.0,896.0,18.0,7.0,11.0,0.3888888888888889,99.0913031171658,1360.9935835721133,79.0,45.0,34.0,0.569620253164557,73.49009752552207,1790.2868221788815,21.0,12.0,9.0,0.5714285714285714,937.224923488746,12590.498050651757,21.0,9.0,12.0,0.4285714285714285,1167.5209870817312,24156.445834578008,94.0,47.0,47.0,0.5,90.63468165888403,8253.798835277126,,,,,10224.0,10241.0,10256.0,10333.0,10356.0,10377.0,10386.0,10407.0,10570.0,10661.0,0.041634712074973046,-0.042158354975634034,0.05491295143310837,-0.06438514110065834,0.01109987698988149
12,12,11117.5412177517,2400.183065965408,19.031014853724344,11182.534155696114,-1868.7033269651845,68.79506582332952,11255.45189820238,18093.69044525495,10.433212792015892,11282.571428633368,-17963.06131846943,9.444060804967869,11501.257116745606,8282.25763314999,35.840562250357536,0.9291543055786547,47.0,15.0,148.0,253.0,401.0,32.0,891.0,886.0,35.0,22.0,13.0,0.6285714285714286,74.49067360302507,864.1672452717761,77.0,38.0,39.0,0.4935064935064935,89.53994090197993,1503.0790237292476,21.0,11.0,10.0,0.5238095238095238,996.753947263813,13924.233787147932,20.0,9.0,11.0,0.45,1202.942544887799,23138.885005299275,93.0,47.0,46.0,0.5053763440860215,96.37206382858716,9091.533569883271,,,,,11099.0,11131.0,11146.0,11221.0,11244.0,11265.0,11274.0,11294.0,11455.0,11547.0,0.031035413364631517,-0.04791554636304671,0.055088482378961585,-0.06696756881027546,0.011635965469469945
13,13,12001.46016423512,2706.497455730501,17.538523663776516,12069.383477496878,-1677.6804080456518,63.699134986380585,12141.423223069543,19521.675407321316,10.732113491413529,12167.250191566807,-18875.356556666004,9.550649708827647,12391.684833895826,8914.59659123486,35.21882327417583,0.9320674564336808,61.0,35.0,134.0,254.0,388.0,26.0,882.0,888.0,27.0,18.0,9.0,0.6666666666666666,150.02631393681628,1814.1611686453873,77.0,39.0,38.0,0.5064935064935064,76.7648328406356,1742.7310258130406,22.0,12.0,10.0,0.5454545454545454,1105.3464683452034,15180.172348977772,20.0,8.0,12.0,0.4,1317.481124019825,26171.308730516874,92.0,50.0,42.0,0.5434782608695652,75.93202656885117,8845.932955072263,,,,,11984.0,12010.0,12045.0,12105.0,12129.0,12151.0,12159.0,12179.0,12345.0,12433.0,0.05543190651044718,-0.04575652935594557,0.05662149612069974,-0.06979900591888659,0.008517718753926585
14,14,12891.60271279885,3061.0883788450765,19.30554237153832,12936.561529395103,-1559.781316779456,61.38186051213257,13029.302396077774,18931.350901881484,10.473574093725665,13055.77275708037,-18742.480471273153,9.6979618987083,13273.680354002556,8809.614774216936,37.09510497031065,0.942524950246242,47.0,14.0,150.0,254.0,404.0,33.0,893.0,886.0,34.0,22.0,12.0,0.6470588235294118,83.46568722335839,1482.514158925827,80.0,22.0,58.0,0.275,72.79033835149176,1197.7282399259552,21.0,12.0,9.0,0.5714285714285714,1091.4828800870755,14755.476539325851,20.0,9.0,11.0,0.45,1255.8403960927258,24773.53063418775,90.0,42.0,48.0,0.4666666666666667,107.8652804900278,9827.596869447963,,,,,12870.0,12903.0,12917.0,12994.0,13017.0,13038.0,13047.0,13067.0,13233.0,13321.0,0.027266670181815954,-0.04666701515683297,0.05765478046147245,-0.06700502625666699,0.012244040545985812
15,15,13766.051062770972,2450.892993314501,13.28545933409709,13832.383477496402,-1441.07619430975,63.69913501408358,13904.92414257182,17538.988087203263,10.664444664757337,13931.516557369863,-17381.96682817615,10.395155360704516,14154.10949479597,8130.134882387001,33.782477620341766,0.9270121737815722,51.0,32.0,136.0,250.0,386.0,19.0,872.0,877.0,19.0,9.0,10.0,0.4736842105263157,118.56164773153378,1491.3926444786148,79.0,40.0,39.0,0.5063291139240507,107.88174522271504,1354.855417667686,20.0,12.0,8.0,0.6,1053.5810517864234,12597.328896523815,21.0,9.0,12.0,0.4285714285714285,1111.401464651315,22780.978228808835,89.0,48.0,41.0,0.5393258426966292,114.96024389339166,8231.204840758157,,,,,13757.0,13776.0,13808.0,13868.0,13893.0,13913.0,13923.0,13944.0,14109.0,14194.0,0.04837487726104076,-0.07486193002750176,0.06007080035336438,-0.06393991402916122,0.014140016808631277
16,16,14641.60271279885,1259.0531287587369,9.716360248486245,14738.876695499284,-1594.9869305056789,12.739827004320285,14780.62085743682,15256.891853254603,9.746582097853166,14809.430182126574,-16677.513610592585,9.863953692834908,15030.10949479597,7840.209074344265,34.53579958975757,0.9223351087657592,108.0,80.0,88.0,249.0,337.0,28.0,878.0,876.0,31.0,19.0,12.0,0.6129032258064516,91.72363608448418,898.6889115523927,56.0,49.0,7.0,0.875,144.12841744345263,779.9371333454696,21.0,12.0,9.0,0.5714285714285714,916.041930332421,11975.37289622725,21.0,9.0,12.0,0.4285714285714285,1030.8814065883591,20824.583385102167,92.0,49.0,43.0,0.532608695652174,104.73274588603748,7953.845134148998,,,,,14625.0,14653.0,14733.0,14746.0,14769.0,14790.0,14800.0,14821.0,14982.0,15070.0,0.07285128322973296,-0.0903633846063916,0.06004118919785164,-0.06181265569069021,0.013358412370501364
17,17,15508.455205897,1610.7571595040636,11.398940404517404,15597.904069198274,-1738.761460246592,30.57558481036868,15650.72702750511,16332.26009908997,10.823475444573129,15676.995414256782,-17283.239556526813,10.106057636694665,15894.82504109569,7748.298974971011,36.31529757506319,0.93418457978646,42.0,22.0,146.0,254.0,400.0,20.0,867.0,869.0,29.0,15.0,14.0,0.5172413793103449,120.73121923826513,1439.6579507512274,79.0,62.0,17.0,0.7848101265822784,73.98334636257287,1359.7567971375283,21.0,13.0,8.0,0.6190476190476191,963.3009634494944,11005.26887720708,20.0,8.0,12.0,0.4,1126.1918314388915,22853.94857690809,93.0,43.0,50.0,0.4623655913978494,103.3738196735098,7633.47197109919,,,,,15501.0,15521.0,15543.0,15615.0,15638.0,15659.0,15669.0,15689.0,15859.0,15943.0,0.07495308558829382,-0.04254945146534391,0.05898148557548194,-0.06516092239279288,0.013341485661231412
18,18,16393.087083341125,1629.7307037231292,12.538931152022624,16479.630086497844,-1587.0531296087224,38.21948101295009,16536.501735062717,17567.731341708306,10.347646233248476,16563.561584693955,-17088.652007713554,9.679055784943108,16782.82416657247,8448.87697812308,35.58915072779936,0.9352486322371212,62.0,38.0,134.0,253.0,387.0,24.0,882.0,885.0,24.0,15.0,9.0,0.625,84.66227253514526,1589.461217880718,63.0,41.0,22.0,0.6507936507936508,101.39197529323216,1646.5966590568669,21.0,12.0,9.0,0.5714285714285714,1018.19983003348,12905.686335482762,20.0,9.0,11.0,0.45,1122.1045400561643,21934.31906467468,87.0,42.0,45.0,0.4827586206896552,89.38555041879187,8999.807193542496,,,,,16378.0,16402.0,16440.0,16501.0,16525.0,16546.0,16555.0,16574.0,16743.0,16827.0,0.051948627059509776,-0.06388694455253031,0.057958526928068854,-0.0656637246489462,0.01057957769420012
19,19,17303.85600367233,2130.7177238514305,14.634220772465472,17392.178051898707,-1098.390230113906,22.93168860777608,17446.717867959625,18783.01826416403,10.525623107761485,17473.563760048022,-17927.239922636312,9.157102626891517,17696.684833895826,8979.71475855798,37.25828123490642,0.9423198515886534,99.0,67.0,97.0,254.0,351.0,32.0,914.0,911.0,40.0,19.0,21.0,0.475,123.08049318583215,1728.2508994045083,71.0,51.0,20.0,0.7183098591549296,92.89613472653924,914.7558286780176,23.0,13.0,10.0,0.5652173913043478,1055.0081217623012,14721.468358492844,19.0,9.0,10.0,0.4736842105263157,1224.7192437049364,23134.84424079329,93.0,50.0,43.0,0.5376344086021505,85.64172452452546,9629.97328137144,,,,,17288.0,17320.0,17387.0,17411.0,17434.0,17457.0,17465.0,17484.0,17647.0,17738.0,0.057764804698463304,-0.0845748006306517,0.056168189101702716,-0.06831610716374201,0.009537243311977802
20,20,18229.557649395316,2440.8596521894015,19.39164507663967,18291.808138396547,-1589.1496396207438,61.15116953399375,18368.946432360663,20082.5793988668,10.656964885120894,18395.0104959963,-19019.370423139862,9.362446640725382,18625.3834774964,8887.26274513291,33.60842919564216,0.9282744893307412,60.0,38.0,128.0,255.0,383.0,22.0,920.0,924.0,28.0,13.0,15.0,0.4642857142857143,109.53771163714994,1662.679181902506,57.0,15.0,42.0,0.2631578947368421,100.42477927796196,2204.8456931400738,22.0,12.0,10.0,0.5454545454545454,1132.7629144892005,15378.432509867733,19.0,8.0,11.0,0.4210526315789473,1321.8077083070636,25839.945386933243,88.0,52.0,36.0,0.5909090909090909,95.4802290175314,8658.886970833622,,,,,18218.0,18240.0,18278.0,18333.0,18357.0,18379.0,18387.0,18406.0,18576.0,18661.0,0.04487669397087081,-0.06319403583788918,0.056405250141977226,-0.06949797384980157,0.010743491191348082
21,21,19146.178051898707,2081.463764839655,14.751064742312812,19222.93144289727,-1299.805612926578,48.41134261641708,19284.159751227,18170.183794040368,10.738983857381392,19310.6758192092,-17616.188443315586,10.482374193750552,19528.747057016037,8387.412640868983,36.77904142731361,0.9391255912274732,64.0,30.0,134.0,252.0,386.0,34.0,922.0,913.0,34.0,21.0,13.0,0.6176470588235294,120.71169950746338,1246.7177452196122,62.0,35.0,27.0,0.5645161290322581,79.65689940530113,1119.2530236353898,21.0,12.0,9.0,0.5714285714285714,1020.4087624231096,13326.563726533435,21.0,9.0,12.0,0.4285714285714285,1139.74899133288,23234.89758464357,88.0,42.0,46.0,0.4772727272727273,100.1920391071466,9215.498852728308,,,,,19125.0,19159.0,19189.0,19250.0,19272.0,19293.0,19302.0,19323.0,19488.0,19575.0,0.057993658859952515,-0.061283701665166376,0.0561584172174303,-0.06469895545227064,0.011945524012845772
22,22,20036.676129693467,2841.9355065028244,20.38372319135136,20081.95881659626,-1906.584830225071,66.24710042226955,20176.584068990825,17873.83766440292,10.924246883992534,20202.78707378797,-18251.75820494215,10.057401367841548,20428.53415569611,8173.394569522102,33.52920136964951,0.9264588555170796,41.0,18.0,147.0,253.0,400.0,23.0,884.0,892.0,24.0,11.0,13.0,0.4583333333333333,122.96497919168148,1064.9477778710357,81.0,19.0,62.0,0.2345679012345679,93.074720184707,1555.400892487829,21.0,13.0,8.0,0.6190476190476191,1027.2104976022222,12040.844335274553,20.0,9.0,11.0,0.45,1209.2704966419396,24422.945132916473,92.0,54.0,38.0,0.5869565217391305,65.27318890043098,8136.04325336816,,,,,20026.0,20049.0,20067.0,20142.0,20164.0,20185.0,20194.0,20214.0,20376.0,20467.0,0.04326804000664935,-0.04881750799082965,0.05747005857885733,-0.06625501406842534,0.007986056264043485
23,23,20928.83497705914,1998.6779512406772,13.31030114527168,21019.753390998565,-1461.1519873907991,25.4796540086183,21069.874428101637,18421.311790834963,10.627924827876337,21096.203222150063,-18726.620545584356,9.557256940501237,21318.410851195396,8675.111564722663,37.65227689657571,0.940395732831026,87.0,57.0,107.0,257.0,364.0,30.0,898.0,896.0,32.0,17.0,15.0,0.53125,94.63735890213805,1903.94742374046,35.0,21.0,14.0,0.6,74.8411741908733,1315.921701355314,22.0,13.0,9.0,0.5909090909090909,1061.5658196895145,14079.860084957872,19.0,8.0,11.0,0.4210526315789473,1276.18499129025,25411.05592201393,101.0,54.0,47.0,0.5346534653465347,70.46679161824055,8514.716367463547,,,,,20913.0,20943.0,21000.0,21034.0,21057.0,21079.0,21088.0,21107.0,21268.0,21364.0,0.047349978941525823,-0.0512206634468727,0.05762704804864486,-0.06814817378201045,0.008122868633158992
24,24,21812.178051898707,1450.630148904076,10.952502046415468,21902.753390998565,-2066.568356838946,25.47965400864057,21955.82194810124,22239.866882715356,12.385538320067026,21975.195255207327,-22478.583047339027,12.414328790751576,22196.06282177676,8166.22808480204,36.434355610419985,0.9294816472254802,38.0,19.0,146.0,250.0,396.0,19.0,884.0,882.0,26.0,11.0,15.0,0.4230769230769231,120.90586845891502,1149.7467740027755,72.0,58.0,14.0,0.8055555555555556,83.11965325798802,1473.436368544174,24.0,18.0,6.0,0.75,1213.1630488951482,4170.865211088527,24.0,6.0,18.0,0.25,1221.8263769735393,26093.588563089084,92.0,46.0,46.0,0.5,144.58129573432586,8409.441202679818,,,,,21807.0,21826.0,21845.0,21917.0,21940.0,21961.0,21970.0,21991.0,22156.0,22241.0,0.08334713610513139,-0.04022110034875841,0.05454902474429866,-0.05435513325730631,0.01770478294665838
25,25,22682.821948101293,1399.8625715008689,12.10049974355606,22748.095930801723,-1784.811456304319,30.57558481026876,22823.127714290666,15141.39598707683,9.606946884148428,22851.809780180633,-17426.620448066216,9.943417503225362,23070.260172995804,7628.814609512323,34.644421745006646,0.9261201921473612,61.0,38.0,132.0,250.0,382.0,23.0,863.0,870.0,25.0,14.0,11.0,0.56,110.83486040077584,1151.7008967004465,60.0,18.0,42.0,0.3,123.3580879454491,2152.796907377173,20.0,11.0,9.0,0.55,908.221600018359,12526.259443620116,22.0,10.0,12.0,0.4545454545454545,1087.978224254292,21014.970483619378,86.0,43.0,43.0,0.5,132.4701790948058,8314.742626755233,,,,,22670.0,22693.0,22731.0,22776.0,22812.0,22832.0,22842.0,22863.0,23027.0,23113.0,0.07917552955355021,-0.06911547295918742,0.059982685928927915,-0.06243196880867523,0.017364451212332453
26,26,23533.348837640653,1735.829279862104,13.979642873172342,23595.397287201147,-1197.5322909164356,20.383723206912453,23672.12615010722,14164.0192480428,9.531239551886534,23701.172161921004,-16323.153478091175,9.698367258170729,23917.410851195396,7311.011995303104,37.620739188844865,0.9347491758004758,64.0,33.0,128.0,251.0,379.0,31.0,855.0,849.0,36.0,17.0,19.0,0.4722222222222222,118.32431247113244,1898.3574459768408,53.0,13.0,40.0,0.2452830188679245,124.93034960929278,1331.6084473290853,21.0,12.0,9.0,0.5714285714285714,829.5152767811262,11456.895556991749,22.0,10.0,12.0,0.4545454545454545,1019.4596468380944,20120.108277843257,92.0,46.0,46.0,0.5,106.88541399598174,7771.773893876972,,,,,23520.0,23551.0,23584.0,23601.0,23660.0,23681.0,23691.0,23712.0,23874.0,23963.0,0.06816586967615401,-0.1043231573435797,0.058564963959347176,-0.06245482211549418,0.014619783699527416
27,27,25313.69864360057,1305.9162975342228,10.191861603399428,25386.946338560636,-1809.3807141926716,34.41152223177492,25455.413270673387,14125.148045268175,10.292001935844697,25483.157764224194,-16057.99174584856,9.985381633605558,25701.169677445345,6869.379231737865,35.50954265715778,0.9249079571300074,39.0,22.0,147.0,254.0,401.0,17.0,1778.0,1782.0,19.0,7.0,12.0,0.3684210526315789,126.5532757528604,1033.3046020541124,79.0,42.0,37.0,0.5316455696202531,109.81479338429472,1242.8667201320463,21.0,12.0,9.0,0.5714285714285714,835.8569429165653,10894.377987506152,20.0,9.0,11.0,0.45,1011.7516465681492,20543.458479193323,92.0,45.0,47.0,0.4891304347826087,152.26843745218036,7404.329138525898,,,,,25308.0,25325.0,25347.0,25419.0,25443.0,25464.0,25474.0,25494.0,25663.0,25748.0,0.09690764713773238,-0.06069192211617721,0.05917509255391992,-0.06300611325383919,0.022166258742663477
28,28,26280.412694433868,1351.4891016774054,14.715539508220054,26353.67126990158,-1776.516458379387,28.027619409504553,26424.63007036892,15854.945250755,9.737607307957193,26452.66068431338,-16687.48258069147,9.4043941306335,26671.791835558688,7259.8606440485955,36.429366807642545,0.92790789096061,74.0,40.0,125.0,254.0,379.0,34.0,965.0,970.0,36.0,17.0,19.0,0.4722222222222222,93.57819652096865,1278.6429849351775,56.0,20.0,36.0,0.3571428571428571,108.01807351988508,1734.8794819612797,21.0,12.0,9.0,0.5714285714285714,930.4411888326356,12157.528707315983,20.0,10.0,10.0,0.5,1064.7713765823898,20511.553055540127,97.0,51.0,46.0,0.5257731958762887,84.93886823270537,7385.33952095687,,,,,26264.0,26298.0,26338.0,26386.0,26413.0,26434.0,26444.0,26463.0,26632.0,26717.0,0.06924080734711345,-0.06080330582381641,0.058684604337459235,-0.06380659104413995,0.011699793205030123
29,29,27265.010452218252,1742.1100482792658,15.367970691657774,27336.2491240232,-1337.4179638475352,33.12355021123273,27409.32947698424,16786.731044993106,10.371444461638314,27436.7112283108,-17316.777578394078,9.183382190477683,27656.568414825226,7881.5883363251805,37.60064899253349,0.9343304377450222,82.0,40.0,123.0,256.0,379.0,42.0,988.0,985.0,42.0,23.0,19.0,0.5476190476190477,78.10534988337945,1674.1718019045557,30.0,12.0,18.0,0.4,98.24418449442518,1886.444980089655,22.0,12.0,10.0,0.5454545454545454,930.7892594541242,14103.01932374704,19.0,9.0,10.0,0.4736842105263157,1166.045087146669,22193.26669466582,90.0,44.0,46.0,0.4888888888888889,96.96153571040024,8583.94876335257,,,,,27242.0,27284.0,27324.0,27353.0,27397.0,27419.0,27428.0,27447.0,27613.0,27703.0,0.04483376349302757,-0.07345810146873798,0.05544791639059149,-0.067336147378917,0.012302283698771422
30,30,28233.830796812115,1773.2510217724994,14.193154673883518,28333.178051898707,-1390.454516272611,22.93168860777651,28381.718480568692,18324.25341981727,10.84258416394796,28407.966349296687,-18568.64429224816,9.506868316544518,28627.488118986475,8455.892983828693,39.2513793767777,0.9400762644850048,91.0,60.0,109.0,259.0,368.0,31.0,966.0,974.0,31.0,15.0,16.0,0.4838709677419355,113.97731863562193,1960.8729770478851,77.0,63.0,14.0,0.8181818181818182,111.70226365515572,702.2831884406951,22.0,13.0,9.0,0.5909090909090909,1054.3997389402632,13815.08856158964,19.0,8.0,11.0,0.4210526315789473,1247.382737888071,24531.72062024185,98.0,46.0,52.0,0.4693877551020408,84.86381900790708,9088.303559004036,,,,,28219.0,28250.0,28310.0,28346.0,28369.0,28391.0,28400.0,28419.0,28581.0,28678.0,0.06427590749204415,-0.08033507198394074,0.057541211354343834,-0.06717683414339598,0.010036056412989524
31,31,29190.071073903335,1958.8538101198988,14.05268508038455,29264.178051898707,-1425.5723203991772,22.93168860777008,29333.85402673489,19525.12412935213,10.510797879322856,29359.699908014143,-18884.97755814772,9.447512588652486,29583.98619029525,8755.67757186549,37.63115374652097,0.943071781347852,58.0,31.0,133.0,260.0,393.0,27.0,962.0,949.0,36.0,19.0,17.0,0.5277777777777778,115.23259833177237,1987.032098058888,59.0,27.0,32.0,0.4576271186440678,81.12472428905865,984.0000505892629,23.0,13.0,10.0,0.5652173913043478,1112.7605942519356,14398.9391838554,19.0,8.0,11.0,0.4210526315789473,1302.027643890607,24996.869604478015,99.0,52.0,47.0,0.5252525252525253,86.83063314429383,9386.121006604297,,,,,29180.0,29207.0,29238.0,29277.0,29321.0,29344.0,29352.0,29371.0,29532.0,29631.0,0.05882654322464173,-0.05690677570559364,0.05699121741198674,-0.06894515176846801,0.009917066090156816
32,32,30136.19856159291,2145.9941794800648,16.40373505725711,30209.753390998565,-1321.2775750671535,25.47965400864057,30282.149236919773,20482.612776079975,11.23161268333481,30306.18449510221,-19705.414333912307,10.150301976636085,30526.188091533873,8859.913484413624,40.494830351732894,0.935679064261171,80.0,44.0,117.0,256.0,373.0,36.0,947.0,951.0,40.0,19.0,21.0,0.475,92.59650068465253,2312.28930225016,44.0,13.0,31.0,0.2954545454545454,148.70382143260775,1057.2599385006126,23.0,14.0,9.0,0.6086956521739131,1201.9431298783122,14009.497441039388,19.0,7.0,12.0,0.3684210526315789,1338.9157409541465,27425.064566106492,96.0,47.0,49.0,0.4895833333333333,223.8092053311778,10234.680614244382,,,,,30121.0,30157.0,30201.0,30224.0,30268.0,30291.0,30299.0,30318.0,30484.0,30574.0,0.04314853300631364,-0.11254548191741613,0.05868114302692704,-0.06794659164562304,0.025260879321779308
33,33,31053.182601511795,1932.6830828357715,14.469357894476165,31129.20582437044,-1366.451419800789,32.74316662207293,31196.22564366553,17881.633958912687,9.832453482461544,31224.21805571679,-18255.342328476847,10.114422828607216,31451.53415569611,8472.330477296295,35.101039439297516,0.9281091231048998,65.0,36.0,131.0,254.0,385.0,29.0,910.0,915.0,33.0,17.0,16.0,0.5151515151515151,119.8646742057986,1814.7645808297293,65.0,33.0,32.0,0.5076923076923077,107.1209094865833,1173.636296639677,21.0,12.0,9.0,0.5714285714285714,1071.7292152341097,14762.036030428408,22.0,9.0,13.0,0.4090909090909091,1154.1062272476477,23108.33394392897,96.0,57.0,39.0,0.59375,100.96000071433792,7859.456589668087,,,,,31040.0,31069.0,31105.0,31160.0,31184.0,31205.0,31215.0,31236.0,31396.0,31490.0,0.0620198289467741,-0.07839350007935164,0.05993463559855116,-0.06322019091624133,0.011916437984198707
34,34,31939.30135639943,1233.551845751953,10.191861603456228,32002.301356400436,-1844.0925002859371,10.191861603456228,32072.330170391204,15643.635758873985,9.47287316115095,32101.574016641312,-17534.814093750396,9.377007814580656,32317.02533273581,7599.787181896494,37.777254681586705,0.928796538395075,81.0,55.0,113.0,252.0,365.0,26.0,891.0,876.0,27.0,21.0,6.0,0.7777777777777778,147.5584899897014,688.3225424115312,11.0,2.0,9.0,0.1818181818181818,183.5397766424097,1870.7121239596872,21.0,12.0,9.0,0.5714285714285714,929.1988978411196,14128.792551234335,21.0,10.0,11.0,0.4761904761904761,1063.6590220289693,20547.378410695837,87.0,39.0,48.0,0.4482758620689655,152.28258455440198,7823.126646322431,,,,,31919.0,31945.0,32000.0,32011.0,32061.0,32081.0,32092.0,32113.0,32279.0,32365.0,0.11962082542201716,-0.09952850879983016,0.05939788628190372,-0.06065984026645992,0.020037743282753415
35,35,32785.32509759342,2265.547176325675,15.768362140403465,32848.26017299569,-1568.0107561330176,76.43896201211378,32923.71926937803,14759.876807158398,10.347238452558448,32952.547232323304,-16402.52828095243,10.25870622821296,33178.808138396555,7134.980961954044,33.661796461832644,0.9129037874588752,36.0,19.0,151.0,248.0,399.0,17.0,845.0,850.0,18.0,7.0,11.0,0.3888888888888889,169.78052876382927,1386.185727383727,77.0,34.0,43.0,0.4415584415584415,123.68491936310322,2033.4564568314509,20.0,12.0,8.0,0.6,872.5537682983444,10944.04755082257,23.0,10.0,13.0,0.4347826086956521,978.6583999780912,19981.178747035927,87.0,52.0,35.0,0.5977011494252874,83.32448627524758,7440.730803103939,,,,,32778.0,32795.0,32814.0,32891.0,32912.0,32932.0,32943.0,32965.0,33128.0,33213.0,0.07494018687317025,-0.07888014726897113,0.05911660237402281,-0.059665094503422764,0.011678305340905585
36,36,33643.04683735684,1341.1049095380652,7.64389620259217,33711.874659265784,-1646.34162611928,25.700874101684384,33781.55721595108,14487.52070861958,8.98809506229652,33811.05938005544,-16139.78778035246,9.553822486081298,34027.498498932524,7180.554594511033,36.487000459236086,0.9324239674612538,51.0,40.0,135.0,252.0,387.0,11.0,858.0,857.0,11.0,7.0,4.0,0.6363636363636364,125.34700062847055,959.5953678568968,78.0,43.0,35.0,0.5512820512820513,95.6001256691388,1293.8846788371834,20.0,12.0,8.0,0.6,890.8654100890137,11750.293685294004,21.0,10.0,11.0,0.4761904761904761,978.3995370517238,18985.882335917275,93.0,46.0,47.0,0.4946236559139785,94.82088125066876,7527.868014538255,,,,,33636.0,33647.0,33687.0,33745.0,33770.0,33790.0,33801.0,33822.0,33982.0,34074.0,0.09346546995465516,-0.05806821874174761,0.06149191625030632,-0.06062034708057094,0.013205230877730786
37,37,34550.30135639943,1170.9580703367387,8.147609972363762,34637.027373699,-1619.071424162922,17.8357578060484,34682.66620556291,14741.600390669655,10.08472833837514,34710.68758553839,-16702.456183237315,9.925005466920586,34929.01239994573,7271.451841963138,35.597172037336115,0.9293031319356264,81.0,62.0,104.0,252.0,356.0,19.0,908.0,902.0,22.0,15.0,7.0,0.6818181818181818,106.84087410881408,840.7960753639545,77.0,65.0,12.0,0.8441558441558441,170.04386203396783,665.2683541255751,20.0,12.0,8.0,0.6,926.534115760716,11420.421606893737,20.0,9.0,11.0,0.45,1032.8395814311668,20389.052378840195,94.0,48.0,46.0,0.5106382978723404,114.88664440028104,7441.650792190689,,,,,34537.0,34556.0,34618.0,34647.0,34671.0,34691.0,34702.0,34722.0,34884.0,34974.0,0.09124227144878831,-0.10502554704890947,0.06285166408032222,-0.061837586645952757,0.01579968442303045
38,38,35470.156418204,1966.3023568485717,14.271317391736968,35549.178051898736,-1257.8409048017295,22.9316886077248,35613.25428071347,16210.363732813476,10.000160494901156,35640.86537469141,-16959.91640929526,9.516063876893307,35870.808138396555,8240.094004073164,35.87619044684816,0.9177672589462668,86.0,58.0,108.0,253.0,361.0,28.0,919.0,930.0,29.0,13.0,16.0,0.4482758620689655,95.09852891419132,2224.2855366763197,53.0,26.0,27.0,0.490566037735849,77.66876966021987,1236.2865602419513,21.0,12.0,9.0,0.5714285714285714,955.1938011573344,13597.866724196612,20.0,9.0,11.0,0.45,1121.5606306655911,21733.45313194835,96.0,58.0,38.0,0.6041666666666666,85.5266375883319,7968.3414227748835,,,,,35458.0,35486.0,35544.0,35576.0,35601.0,35622.0,35632.0,35652.0,35814.0,35905.0,0.04836414327784637,-0.06174768952394867,0.058924883913851,-0.06613008010174477,0.010379327899178722
39,39,36409.00075011832,1891.71849170542,12.696703462317144,36509.027373699,-1468.4174336570154,17.8357578060484,36555.51304077075,17584.83636820193,10.368624392121498,36582.502386655266,-18461.696189884053,9.379006306036333,36807.26017299569,8514.513515203329,36.59045052142133,0.9302736449321246,63.0,33.0,132.0,257.0,389.0,30.0,943.0,944.0,32.0,12.0,20.0,0.375,143.78858947749364,1843.0967868312268,79.0,68.0,11.0,0.8607594936708861,110.82381357945036,919.5824821741816,22.0,13.0,9.0,0.5909090909090909,1036.1711981470935,13270.121564042754,19.0,9.0,10.0,0.4736842105263157,1222.67124364229,23231.41601029403,96.0,53.0,43.0,0.5520833333333334,113.20418942306688,8969.906185814949,,,,,36398.0,36428.0,36461.0,36519.0,36543.0,36565.0,36574.0,36593.0,36755.0,36850.0,0.07600950675693058,-0.07547160026794938,0.0589241307937768,-0.06622745987512477,0.01329543833842438
40,40,37341.22925170619,2115.118886149463,14.368663837165183,37410.793794095545,-1342.6821881635897,40.767446413824906,37481.87955730418,18723.418140320555,10.599555471131875,37508.70708228675,-18778.147818440204,9.784093125775003,37728.45035099399,8637.608166536558,37.64251530471195,0.9442616767885864,66.0,33.0,132.0,255.0,387.0,33.0,925.0,924.0,33.0,19.0,14.0,0.5757575757575758,83.0100772524259,1605.5916905410577,59.0,24.0,35.0,0.4067796610169492,86.46665016156597,1326.5741538264317,22.0,13.0,9.0,0.5909090909090909,1067.1549483505028,14207.316549679714,20.0,9.0,11.0,0.45,1232.8271414751755,24218.777723335177,95.0,46.0,49.0,0.4842105263157895,103.09306901696468,8946.673955559138,,,,,37322.0,37355.0,37388.0,37446.0,37470.0,37491.0,37500.0,37520.0,37685.0,37775.0,0.03924605741833467,-0.06439844880926583,0.05699573338334004,-0.06565222264703524,0.011935372273121084
41,41,38285.49860932978,1586.5436487701138,11.835933378419492,38350.67126990158,-2188.727059471161,28.02761940949762,38427.04308416221,18426.641321875995,10.208696113284372,38453.89615627413,-18974.96343341112,10.201271162983844,38680.53415569612,8459.290342113482,34.735671906388035,0.9402854678574636,61.0,40.0,130.0,254.0,384.0,21.0,947.0,947.0,26.0,16.0,10.0,0.6153846153846154,88.45663480634478,1370.1926453526205,61.0,19.0,42.0,0.3114754098360656,124.73236836331957,2179.170587632678,21.0,12.0,9.0,0.5714285714285714,1091.742111434244,13926.356363333602,21.0,9.0,12.0,0.4285714285714285,1234.132451460785,24882.479870264237,92.0,53.0,39.0,0.5760869565217391,79.62934266602457,8037.2878064486495,,,,,38274.0,38295.0,38335.0,38392.0,38415.0,38436.0,38445.0,38465.0,38630.0,38719.0,0.05575430267860341,-0.05698854401400663,0.059248025310946625,-0.06504004372876546,0.00941324147128515
42,42,39178.45203459914,1139.2842401333808,9.39159521611838,39271.60271279886,-2083.6518559929086,20.383723206912453,39317.5337171161,16293.366956396583,11.349269480073351,39343.788577735846,-18326.831537458635,11.049648526179574,39563.613793105214,7733.454973269459,35.33295525967103,0.9233671251076504,37.0,19.0,150.0,253.0,403.0,18.0,895.0,890.0,20.0,10.0,10.0,0.5,135.0940386988463,813.0024359315461,80.0,67.0,13.0,0.8375,92.5728374386288,1209.9539361573943,21.0,14.0,7.0,0.6666666666666666,985.0659381534932,10607.502517655936,20.0,8.0,12.0,0.4,1119.0209725744546,23675.108932588704,92.0,45.0,47.0,0.4891304347826087,119.44674112084884,7901.467265562881,,,,,39169.0,39187.0,39206.0,39283.0,39304.0,39325.0,39336.0,39356.0,39527.0,39609.0,0.11857799304151725,-0.04442816930879064,0.060458095664921364,-0.06105916182441366,0.015445456336619822
43,43,40054.84932180029,2551.5556734245765,5.095930801728113,40134.43847060489,-1630.4907609523814,82.0563903246349,40187.98549936776,15885.5558048023,10.932489086512538,40214.69969080616,-16833.245083133344,10.92310019318698,40440.95881659626,7117.862320820323,32.070155515714355,0.9169702920385816,22.0,9.0,154.0,250.0,404.0,13.0,873.0,871.0,20.0,9.0,11.0,0.45,131.21442988076586,804.7835428389672,80.0,60.0,20.0,0.75,96.76347149889652,1849.209696244464,21.0,13.0,8.0,0.6190476190476191,920.0003845502064,10164.10601483092,22.0,9.0,13.0,0.4090909090909091,1061.9102096715933,22543.464267505733,86.0,49.0,37.0,0.5697674418604651,101.4769519455928,7106.09750700142,,,,,40052.0,40065.0,40074.0,40154.0,40175.0,40196.0,40206.0,40228.0,40392.0,40478.0,0.051425266259096006,-0.059346224962585056,0.05791427104313748,-0.06308410555583314,0.014256661251899255
44,44,40903.35610451826,1881.349961870851,18.77995020282323,40990.163291926336,-904.8132772258122,10.191861603456228,41047.73605633923,16104.41014819508,9.997315651838504,41075.80145419908,-16517.36735892507,9.26197590842838,41297.68483389583,8198.918009111507,36.891688055654704,0.9467170005087095,102.0,54.0,104.0,252.0,356.0,48.0,857.0,858.0,54.0,23.0,31.0,0.4259259259259259,92.17860179232632,1709.4016679911597,11.0,7.0,4.0,0.6363636363636364,98.446290778869,1170.4209796629248,22.0,12.0,10.0,0.5454545454545454,920.9177486102186,12464.92262607579,20.0,9.0,11.0,0.45,1089.6283103366943,20927.162614846355,94.0,50.0,44.0,0.5319148936170213,98.35093730711282,8387.064565155488,,,,,40881.0,40929.0,40983.0,40994.0,41036.0,41057.0,41067.0,41087.0,41254.0,41339.0,0.04899598886996129,-0.1088028803917518,0.05718419613856093,-0.06596864298401159,0.011995599565432271
45,45,41776.130910667445,1804.871122927332,14.683552624806309,41850.79151223209,-1864.2833332881564,61.15116962073736,41912.892516837106,16833.911122932066,10.67116626757059,41940.45660634758,-17669.18151809377,9.625182161650049,42158.52796464833,7763.886973887332,37.46724218818711,0.9464118234628252,37.0,20.0,148.0,256.0,404.0,17.0,864.0,866.0,18.0,11.0,7.0,0.6111111111111112,94.13411495437008,841.6257427707487,79.0,49.0,30.0,0.620253164556962,101.90488308298906,1658.6234496030322,21.0,12.0,9.0,0.5714285714285714,953.003717472742,12501.191169436868,19.0,8.0,11.0,0.4210526315789473,1162.3799790006365,24028.635217177536,90.0,41.0,49.0,0.4555555555555555,93.03711472640036,8419.702157029678,,,,,41766.0,41783.0,41803.0,41880.0,41901.0,41922.0,41932.0,41951.0,42119.0,42207.0,0.052155588151742024,-0.05466169292156513,0.056612139063423515,-0.06578572854720659,0.01198331648043264
46,46,42657.01801381597,1812.1333511215,13.697427123695684,42734.9314430758,-1815.010330336805,48.41134260380961,42795.72382708534,17575.626754330413,10.393759295726069,42824.23301928005,-18491.055979007895,9.479500720367074,43043.46627096922,8307.702351983484,35.39493098905723,0.935448867003648,45.0,19.0,149.0,253.0,402.0,26.0,883.0,883.0,26.0,16.0,10.0,0.6153846153846154,77.9748702199076,1074.8712951575917,77.0,50.0,27.0,0.6493506493506493,87.60617780808454,2223.348986098044,22.0,12.0,10.0,0.5454545454545454,976.780107691323,13373.643784236732,20.0,9.0,11.0,0.45,1190.2892356631007,23384.07418547727,95.0,47.0,48.0,0.4947368421052631,96.72763711043883,8376.39818692893,,,,,42641.0,42667.0,42686.0,42762.0,42784.0,42806.0,42815.0,42835.0,43004.0,43088.0,0.043029322412531185,-0.048267591838900316,0.05557583358730901,-0.06437107956486558,0.011643127427085165
47,47,43546.94262814576,2108.2031925786373,14.479021834654734,43634.63008649801,-1476.0177174852072,38.21948101276239,43691.52224248813,19600.606680287052,10.824807545609628,43717.599620738554,-19310.607353839143,9.864797315383631,43936.21254425705,8801.292051694145,37.831526410687594,0.941329404469074,84.0,57.0,112.0,255.0,367.0,27.0,892.0,896.0,35.0,22.0,13.0,0.6285714285714286,114.28741520493968,1768.0338878578011,79.0,56.0,23.0,0.7088607594936709,101.16622773162509,1327.9857210294397,22.0,13.0,9.0,0.5909090909090909,1120.6248096762508,13662.489030801864,20.0,9.0,11.0,0.45,1273.8136172316272,25055.804319234892,99.0,49.0,50.0,0.494949494949495,81.75642870719733,9394.080290938991,,,,,43533.0,43560.0,43617.0,43656.0,43679.0,43701.0,43709.0,43729.0,43894.0,43984.0,0.05421081592479217,-0.06853998196172668,0.057172965508424725,-0.06596445124126975,0.009289139393057658
48,48,44451.18192278748,1593.1079902873228,11.696205791322411,44550.87669549929,-1834.921896439102,12.739827004320285,44594.368747631874,17926.71745438065,10.489759414355424,44620.98522210157,-18808.79632136564,10.421114603703844,44838.72833965349,8369.912321597045,37.45686217747701,0.9323778923514549,61.0,25.0,139.0,253.0,392.0,36.0,905.0,903.0,37.0,18.0,19.0,0.4864864864864865,78.18828014493332,1315.2670939484829,72.0,65.0,7.0,0.9027777777777778,101.7161565104186,1028.850630857566,21.0,12.0,9.0,0.5714285714285714,1065.3566777026551,13863.631565733382,21.0,9.0,12.0,0.4285714285714285,1218.2893160947633,24606.04990924364,97.0,48.0,49.0,0.4948453608247423,105.35214841725232,8471.781148968736,,,,,44433.0,44469.0,44494.0,44558.0,44582.0,44603.0,44612.0,44633.0,44796.0,44886.0,0.04907908354086642,-0.05543350739222833,0.05942843024182991,-0.06477231691380811,0.012587007410508968
49,49,45328.867505448674,2382.2580929990554,17.835757796747995,45390.68483389583,-1806.4969454615537,73.89099662504721,45467.112204697565,17157.25787939736,10.64298725177306,45495.130786960384,-17385.226785003393,10.168836771656938,45714.386121300086,8136.853913557535,34.5555189859698,0.9244457048347232,37.0,21.0,151.0,252.0,403.0,16.0,873.0,872.0,17.0,10.0,7.0,0.5882352941176471,87.23555392752117,1187.488888602659,79.0,37.0,42.0,0.4683544303797468,98.05671865658346,1570.171301805286,21.0,12.0,9.0,0.5714285714285714,984.5346865402456,13501.50211091656,21.0,9.0,12.0,0.4285714285714285,1100.3060637488854,23083.669814666377,90.0,43.0,47.0,0.4777777777777778,109.56839663817136,8309.711547465366,,,,,45319.0,45335.0,45356.0,45432.0,45455.0,45476.0,45486.0,45507.0,45672.0,45759.0,0.0366188509061582,-0.0542800356806196,0.057382985874595185,-0.06328971588095798,0.013465695439807484
50,50,46217.420115402834,1672.7247429933882,10.516449221045733,46314.45203459914,-1738.7311018033863,15.28779240518434,46359.07858167504,17929.783000306925,10.166803998610131,46386.022433993894,-18547.107433547168,9.513107875837994,46604.64445886087,8504.978494602328,37.65141079316711,0.9362101541975436,38.0,16.0,150.0,256.0,406.0,22.0,892.0,893.0,30.0,15.0,15.0,0.5,81.35987624931657,1593.9026845136675,77.0,67.0,10.0,0.8701298701298701,113.65140439651492,963.4441954353596,21.0,12.0,9.0,0.5714285714285714,1052.2598543297383,14362.994645084833,20.0,9.0,11.0,0.45,1226.1910385085232,24104.874002172677,92.0,44.0,48.0,0.4782608695652174,90.56093005472697,9035.90768933192,,,,,46209.0,46231.0,46247.0,46323.0,46347.0,46368.0,46377.0,46397.0,46561.0,46653.0,0.04863913001234188,-0.06536456630852083,0.05868781871547055,-0.06611225189166935,0.010647990481363513
51,51,47185.48044116573,2114.272781273439,16.204298487004763,47270.63008649785,-1300.474743967808,38.219481012960706,47329.001130363285,19494.997308070742,10.232880171179769,47356.45284740945,-18779.25134223055,9.34757205870718,47576.38080969236,8780.11860460095,38.651727419415685,0.9467373821228944,82.0,41.0,122.0,256.0,378.0,41.0,971.0,970.0,45.0,24.0,21.0,0.5333333333333333,96.92211648419722,1693.0508157911004,74.0,52.0,22.0,0.7027027027027027,66.43232974725439,1590.6331389839584,22.0,12.0,10.0,0.5454545454545454,1090.0822444539233,16165.93576921114,19.0,8.0,11.0,0.4210526315789473,1276.94079644522,25292.952061811266,95.0,46.0,49.0,0.4842105263157895,97.24777644038932,9364.67851698698,,,,,47163.0,47204.0,47245.0,47292.0,47317.0,47339.0,47348.0,47367.0,47532.0,47623.0,0.045841821993196384,-0.05108313718155441,0.055915998716380415,-0.06799742828797713,0.011075906923333545
52,52,48172.328730161986,2883.8392908357187,22.237306698493388,48223.561529398125,-1866.0267445242057,86.63082359348579,48316.99209964195,19934.410044061147,10.352239271150118,48344.158408497206,-18826.559394590167,9.46931180560559,48568.835512095546,8514.962200546457,35.42667620266667,0.9297238466465508,49.0,16.0,152.0,257.0,409.0,33.0,986.0,989.0,37.0,21.0,16.0,0.5675675675675675,80.0856166861395,1024.2859635359994,85.0,26.0,59.0,0.3058823529411765,82.42381178846804,1705.58298219724,21.0,12.0,9.0,0.5714285714285714,1142.4634853187058,15393.822585367465,20.0,8.0,12.0,0.4,1275.5627892581033,25844.50519431749,93.0,48.0,45.0,0.5161290322580645,127.06757289823936,9015.64130712898,,,,,48155.0,48188.0,48204.0,48282.0,48305.0,48326.0,48336.0,48356.0,48523.0,48613.0,0.027770485318178457,-0.044170755874929454,0.05731112597731821,-0.06775336706634977,0.014922858129667876
53,53,49094.730664205366,1324.1392776465464,6.632047397986588,49181.753390998565,-2059.7568242124566,25.47965400864057,49233.23877824688,19614.80383336036,11.51556228584129,49255.97926415919,-19485.408860218464,12.759482374286698,49483.53415569612,7822.99867851669,31.81385840715154,0.9076898119628704,76.0,58.0,110.0,250.0,360.0,18.0,919.0,913.0,18.0,9.0,9.0,0.5,121.8152565533438,797.9482625111423,81.0,66.0,15.0,0.8148148148148148,117.37580581627056,1659.8236111733213,21.0,14.0,7.0,0.6666666666666666,1133.4496417567532,9254.528963497603,23.0,7.0,16.0,0.3043478260869565,1093.5731463532402,25550.517006789072,81.0,43.0,38.0,0.5308641975308642,102.64431017500058,7653.715200970959,,,,,49086.0,49104.0,49162.0,49196.0,49219.0,49239.0,49249.0,49272.0,49441.0,49522.0,0.09199580331900709,-0.056985273424764074,0.05778541816610017,-0.056122668720895365,0.013120839513482169
54,54,49947.95932573081,1981.7280538951109,14.46698444028877,50040.84932180029,-973.9759945681744,4.866707050988909,50086.86634517798,14352.332060637016,10.266946934504356,50115.38078340708,-16185.57907642206,10.29220438487014,50349.50678199713,7575.723313554696,35.26113305828931,0.8965933568182999,109.0,67.0,89.0,251.0,340.0,42.0,855.0,856.0,43.0,20.0,23.0,0.4651162790697674,112.5077741161655,1849.7441830959635,11.0,3.0,8.0,0.2727272727272727,160.31344207910374,407.2178204171658,21.0,13.0,8.0,0.6190476190476191,863.1448535180092,11925.396657257012,22.0,9.0,13.0,0.4090909090909091,1006.2865774121703,20975.593604561192,86.0,58.0,28.0,0.6744186046511628,184.00198626598237,6977.4966104674895,,,,,49929.0,49971.0,50038.0,50048.0,50074.0,50095.0,50106.0,50127.0,50296.0,50378.0,0.056772559633008216,-0.16459691303806814,0.060139693665901654,-0.06217179951738973,0.024288372033962866
55,55,52587.030683229896,1161.7645629618062,13.802262173461054,52684.178051898714,-1458.7131828936222,22.93168860777651,52731.86152324917,14904.615442773951,10.388457030974925,52759.64369410147,-16181.477601981758,9.067964643124638,52979.08685479588,7297.902084193363,38.385433031411026,0.9330400619990882,95.0,68.0,106.0,255.0,361.0,27.0,2636.0,2644.0,27.0,18.0,9.0,0.6666666666666666,115.17806899024416,1252.273445201169,79.0,65.0,14.0,0.8227848101265823,137.4890135228701,405.1616102732806,21.0,12.0,9.0,0.5714285714285714,878.7041318037308,12157.002936952038,19.0,9.0,10.0,0.4736842105263157,1071.111965888137,19946.29847188481,97.0,49.0,48.0,0.5051546391752577,85.7869733637263,7797.079163009953,,,,,52569.0,52596.0,52664.0,52697.0,52720.0,52741.0,52751.0,52770.0,52934.0,53025.0,0.09914062854233463,-0.09425363062129576,0.058955169637049824,-0.0661937056821657,0.011755018411323113
56,56,53523.69864360057,1584.1094991296743,10.191861603456228,53598.67126990158,-1425.6090132297998,23.033806154582216,53678.279734661795,17141.060144417625,10.059652207625506,53705.2361188935,-16910.35601697476,9.354997587560264,53924.21034330326,8282.049426012692,39.56912224805046,0.9338344692903314,65.0,24.0,133.0,258.0,391.0,41.0,935.0,946.0,41.0,6.0,35.0,0.1463414634146341,99.46731476934308,1758.8540968191528,63.0,17.0,46.0,0.2698412698412698,95.43838005767452,1512.3787336105938,22.0,12.0,10.0,0.5454545454545454,956.3771539797996,13712.216532940023,19.0,8.0,11.0,0.4210526315789473,1153.75989280653,22370.64841122045,92.0,42.0,50.0,0.4565217391304347,129.13375661425687,9364.5094502854,,,,,53518.0,53559.0,53583.0,53644.0,53666.0,53688.0,53697.0,53716.0,53882.0,53974.0,0.06279068134115187,-0.06694569069920044,0.05579451597054605,-0.06822800724292119,0.015592005066845754
57,57,54495.32341497366,1691.2323907676134,13.050927523426887,54588.60271279886,-1505.7649030838516,20.383723206912453,54637.718792400934,18294.849997692058,10.90588359448447,54663.77929830206,-18657.32065558622,9.526710081182369,54884.66523424422,8398.226580555303,38.77998916391331,0.94256318063161,50.0,13.0,148.0,260.0,408.0,37.0,973.0,958.0,37.0,18.0,19.0,0.4864864864864865,75.73964771612206,1802.2818034375748,75.0,63.0,12.0,0.84,117.57662523621882,654.02068341119,22.0,13.0,9.0,0.5909090909090909,1063.1923448968205,13623.810705349184,19.0,8.0,11.0,0.4210526315789473,1257.2499874255343,24508.223792322897,94.0,44.0,50.0,0.4680851063829787,112.88780040829258,9142.837677051566,,,,,54477.0,54514.0,54527.0,54600.0,54625.0,54647.0,54656.0,54675.0,54841.0,54935.0,0.04478370218639527,-0.07808431780779215,0.05811429692131638,-0.06738641687273027,0.01344186172229093
58,58,55483.322832705446,2542.0695847531997,18.48224426544709,55548.383477496405,-1496.8640046208468,63.69913502160143,55623.92779574982,19993.75769693515,10.560738236879162,55650.66170923114,-18244.103128635365,9.82699189003922,55872.022784449335,8842.241110674893,37.55805557514713,0.9403917740832024,77.0,33.0,128.0,257.0,385.0,44.0,991.0,987.0,44.0,26.0,18.0,0.5909090909090909,79.3025174368215,1610.5129190858884,81.0,38.0,43.0,0.4691358024691358,82.06209150347966,1690.45409930214,21.0,12.0,9.0,0.5714285714285714,1123.9460802468695,15170.494481029327,20.0,9.0,11.0,0.45,1229.1719373099004,24244.417011187565,94.0,46.0,48.0,0.4893617021276595,95.40797056814166,9521.439112987642,,,,,55457.0,55501.0,55534.0,55590.0,55612.0,55633.0,55642.0,55662.0,55828.0,55919.0,0.031196045109253254,-0.054822676776348736,0.05621484951871551,-0.06737365649839104,0.010790021372857537
59,59,56451.36568037197,2248.830170346254,14.56885005916297,56550.87669549929,-1091.1268209629125,12.739827004320285,56595.451027121715,19445.48114700644,10.548526602569767,56621.761028598856,-19270.30643477869,9.405102066802092,56841.667760672426,8826.889841523413,39.91606763442696,0.9477421681028386,73.0,36.0,128.0,258.0,386.0,37.0,969.0,974.0,38.0,19.0,19.0,0.5,102.1607703322114,2506.888974874855,54.0,46.0,8.0,0.8518518518518519,99.89181156743751,406.8228700992985,22.0,12.0,10.0,0.5454545454545454,1101.5503270840225,15565.973778386451,20.0,9.0,11.0,0.45,1298.2813945744615,25259.374560484583,98.0,48.0,50.0,0.4897959183673469,91.97666743602096,9393.052406509649,,,,,56432.0,56469.0,56505.0,56558.0,56583.0,56605.0,56613.0,56633.0,56798.0,56891.0,0.045428406146152706,-0.09154922200453622,0.05664813941894166,-0.06737211984503513,0.01042005384539238
60,60,57400.196020388874,2147.492058444769,14.733824848368284,57478.506785246675,-1588.801177222599,50.95930801728114,57543.19431540439,20265.19215286375,10.95401833930446,57568.65512943853,-19575.38006111779,10.09923335422687,57790.68421148531,8794.712162877271,36.916037190725575,0.9364624608731132,47.0,20.0,150.0,256.0,406.0,27.0,948.0,947.0,30.0,18.0,12.0,0.6,117.48300006837576,1198.5668196575011,79.0,49.0,30.0,0.620253164556962,97.18762292972636,1643.175835337467,21.0,12.0,9.0,0.5714285714285714,1154.1374830210796,14747.992106928152,20.0,8.0,12.0,0.4,1299.0000065652591,26090.555358806298,93.0,46.0,47.0,0.4946236559139785,87.86506273173318,9198.24764975021,,,,,57384.0,57411.0,57431.0,57507.0,57531.0,57552.0,57561.0,57581.0,57747.0,57837.0,0.05470707079282886,-0.06117041220955105,0.05695171673257409,-0.06635886519237695,0.0099906695187381
61,61,58342.67927663959,2253.562097067779,12.728559960246027,58435.178051898714,-1373.969755291626,22.93168860777651,58484.942571895255,19850.269937606852,10.868558470239558,58510.74012146807,-19508.876591632412,10.031748145561291,58732.56152939511,8834.727428214483,38.25065758169007,0.942927716949816,53.0,25.0,138.0,258.0,396.0,28.0,942.0,942.0,29.0,12.0,17.0,0.4137931034482758,99.11439169768396,2507.295116667502,77.0,63.0,14.0,0.8181818181818182,113.75683763854713,472.4141885916374,22.0,13.0,9.0,0.5909090909090909,1163.862218996711,14956.69945862002,20.0,8.0,12.0,0.4,1290.281164935165,25851.667375416026,95.0,47.0,48.0,0.4947368421052631,69.2151885218936,9260.614319809303,,,,,58332.0,58360.0,58385.0,58448.0,58472.0,58494.0,58503.0,58523.0,58687.0,58781.0,0.04398121171218072,-0.08279428073320447,0.05863206005031416,-0.06613815812892998,0.0078344452711522
62,62,59294.285500145226,2564.880409779461,20.014621212602407,59360.53415569942,-1857.1286540020724,68.79506582332918,59435.78986296479,21350.736387299537,11.633218974322132,59459.62780018766,-20842.318748404203,10.546695267888175,59683.48292263128,8840.772250401038,35.87652233836839,0.935070734327314,69.0,41.0,128.0,256.0,384.0,28.0,950.0,950.0,28.0,19.0,9.0,0.6785714285714286,115.16856398310256,1128.6920127768888,78.0,39.0,39.0,0.5,83.97453488899419,1938.3765067696313,22.0,14.0,8.0,0.6363636363636364,1225.102480063985,11932.320815519544,20.0,8.0,12.0,0.4,1357.6803056208223,28246.786960953286,93.0,47.0,46.0,0.5053763440860215,103.02424733701432,9089.569499699404,,,,,59275.0,59303.0,59344.0,59399.0,59422.0,59444.0,59452.0,59472.0,59637.0,59728.0,0.04490211845510771,-0.04521740306361159,0.057379870082267324,-0.06514055955145458,0.011653308604612103
63,63,60227.45203459914,3224.3655823437384,15.28779240518434,60276.304267377855,-1532.01547845265,78.98692742678544,60368.13576674703,20511.920137001587,10.980627622655346,60393.42011687159,-19980.951644288107,9.985539368210445,60614.75774690272,8859.489843070802,37.10099075052865,0.9314954579309545,45.0,20.0,149.0,256.0,405.0,25.0,935.0,933.0,25.0,16.0,9.0,0.64,99.67660166754337,1709.0052494789113,77.0,21.0,56.0,0.2727272727272727,69.10724005061302,1602.8102761072532,22.0,13.0,9.0,0.5909090909090909,1168.5439578618216,14169.999305047462,20.0,8.0,12.0,0.4,1379.461556330104,28199.966990136803,96.0,49.0,47.0,0.5104166666666666,99.07252274978774,9041.013464256346,,,,,60211.0,60236.0,60256.0,60331.0,60355.0,60377.0,60385.0,60405.0,60568.0,60661.0,0.030913554658119777,-0.045108708771279496,0.05696901850518994,-0.06903883162764404,0.011182644204651862
64,64,61147.178051898714,3039.9926574386864,20.36868875145248,61198.71220759497,-1515.0675184647382,83.4611489414266,61285.73917402026,20770.198398400124,10.524441767179194,61312.36014952052,-19763.316365896902,9.32267290060214,61534.986190295254,8891.917994065816,37.20554439037339,0.940141021509462,40.0,15.0,149.0,258.0,407.0,25.0,921.0,916.0,32.0,19.0,13.0,0.59375,102.71062635047188,1838.6552169211943,78.0,25.0,53.0,0.3205128205128205,71.99887606869237,1713.6799562342903,21.0,12.0,9.0,0.5714285714285714,1180.6730122406102,15442.371188866658,20.0,8.0,12.0,0.4,1365.3283003919746,27313.66265639825,97.0,49.0,48.0,0.5051546391752577,102.93650848306687,9241.941442480198,,,,,61135.0,61160.0,61175.0,61250.0,61274.0,61295.0,61304.0,61324.0,61495.0,61582.0,0.03378647185187929,-0.04752189271515168,0.056844570744762575,-0.0690839672408398,0.011576412260185421
65,65,62060.79112289785,2880.0363617505363,17.913076157306595,62125.383477496405,-1366.2211690207282,63.69913502160143,62202.3917077044,21090.255448874123,10.984039175939566,62227.51710461922,-20057.139211367423,9.725987189518406,62449.485241278,9135.504460884116,37.393423981501144,0.9435106140981028,68.0,34.0,128.0,257.0,385.0,34.0,912.0,918.0,38.0,21.0,17.0,0.5526315789473685,105.8747338687198,2095.876105187931,77.0,34.0,43.0,0.4415584415584415,94.15169805216452,1783.60883413895,21.0,12.0,9.0,0.5714285714285714,1220.704052010448,16006.512943490468,19.0,8.0,11.0,0.4210526315789473,1377.407253783903,26614.303201581857,97.0,49.0,48.0,0.5051546391752577,94.50936953846508,9808.217245234657,,,,,62043.0,62077.0,62111.0,62167.0,62190.0,62211.0,62220.0,62239.0,62401.0,62496.0,0.03676159623358619,-0.06891395052797346,0.05788000315926064,-0.06867416331254532,0.010345281964792412
66,66,62995.32873009842,2287.1084030249185,14.86693653718176,63089.45203459914,-1106.6534456604809,15.287792405144774,63137.548277084024,19365.662145827933,10.332664414621387,63164.437768472395,-18416.934207126476,9.8784809343781,63383.17107103711,8879.255847283595,39.45710663168801,0.9409345839775008,109.0,75.0,90.0,255.0,345.0,34.0,937.0,936.0,43.0,23.0,20.0,0.5348837209302325,106.34863232627048,2018.8086766619756,60.0,47.0,13.0,0.7833333333333333,127.52107503725234,323.21046287660187,22.0,13.0,9.0,0.5909090909090909,1130.9525774055903,15096.035956782864,20.0,8.0,12.0,0.4,1277.6540125186034,25149.861443443177,98.0,48.0,50.0,0.4897959183673469,108.73841237066384,9216.411201488474,,,,,62977.0,63011.0,63086.0,63101.0,63125.0,63147.0,63156.0,63176.0,63337.0,63431.0,0.04649916557764131,-0.11523126371430968,0.058399891978350896,-0.06937387070776482,0.0122463429639692
67,67,63898.561716911165,2317.993334128977,17.496632945326475,63953.80813840133,-1844.1699291379643,61.15116962073358,64036.030049289075,16995.93049100097,10.802015122817924,64062.21914078667,-17563.66233961673,10.945686320525676,64291.95881659626,7814.205787901369,33.25293849408122,0.9143058280201322,49.0,32.0,136.0,253.0,389.0,17.0,900.0,898.0,17.0,8.0,9.0,0.4705882352941176,110.29532416916594,1117.8103694991332,83.0,34.0,49.0,0.4096385542168674,83.48791934464865,1822.2831884187317,21.0,13.0,8.0,0.6190476190476191,996.7974951540582,11096.73791659211,23.0,9.0,14.0,0.391304347826087,1103.8458677767635,23647.694955326093,89.0,52.0,37.0,0.5842696629213483,114.6438267533428,7751.308655247862,,,,,63891.0,63908.0,63940.0,64000.0,64023.0,64044.0,64053.0,64076.0,64241.0,64329.0,0.047582243893989094,-0.04527127247090191,0.05864918638504929,-0.0628482742626474,0.014671206500709811
68,68,64748.39728720114,1104.4694964419978,13.16438947211596,64842.47940829813,-1463.086279029376,33.12355021123273,64899.068671474946,16128.617181929978,11.659589111131009,64923.54137832754,-17649.856256084917,11.790471770799398,65144.282964048994,7101.1561955090365,35.48167030175948,0.9263774381944648,70.0,39.0,130.0,252.0,382.0,31.0,845.0,861.0,41.0,13.0,28.0,0.3170731707317073,101.6908420263703,1193.6161033226258,77.0,57.0,20.0,0.7402597402597403,114.98209748718983,1356.5759368605964,21.0,14.0,7.0,0.6666666666666666,933.7673587306546,8993.102379405733,21.0,8.0,13.0,0.3809523809523809,1035.5297649696306,22707.138123429948,90.0,42.0,48.0,0.4666666666666667,107.49722043380964,7514.045376165133,,,,,64737.0,64768.0,64807.0,64861.0,64885.0,64906.0,64916.0,64937.0,65103.0,65189.0,0.09207211457986218,-0.0785887333749517,0.057895066154637215,-0.058670719463373766,0.01513798844500756
69,69,65633.30135639943,1864.908814800438,10.191861603456228,65726.87669549929,-1091.249141457274,12.739827004318846,65770.77062848219,13676.4988986744,9.85666466752988,65799.59885174132,-15588.222524486804,9.88428500922807,66016.6826780557,7283.105336762039,38.40976563697463,0.92970641079162,93.0,73.0,99.0,254.0,353.0,20.0,890.0,873.0,31.0,20.0,11.0,0.6451612903225806,143.69622478838374,1556.7613665936528,38.0,30.0,8.0,0.7894736842105263,120.79036354769552,661.8890006380122,21.0,12.0,9.0,0.5714285714285714,823.2221343044112,11024.458906662934,22.0,10.0,12.0,0.4545454545454545,958.9228911519205,18646.985954864795,91.0,43.0,48.0,0.4725274725274725,119.56404511788982,8273.53343158788,,,,,65619.0,65639.0,65712.0,65734.0,65759.0,65780.0,65790.0,65811.0,65974.0,66065.0,0.0770526814222606,-0.11068999640759385,0.06019246156515995,-0.061515858504431385,0.016416629938658313
70,70,66526.54796540085,1726.2975772674706,14.518575549815823,66590.83401716265,-1120.9051409245642,29.57762751726398,66665.09589894177,14900.0206205813,10.18377436912889,66693.03192093082,-15750.872836219298,9.75743016121768,66912.00361532762,7571.670412472493,38.75071235966827,0.9371797814360736,61.0,40.0,125.0,254.0,379.0,21.0,889.0,894.0,27.0,9.0,18.0,0.3333333333333333,131.76080422722222,1728.0866148322614,36.0,13.0,23.0,0.3611111111111111,84.19414047763797,1557.5650312262496,21.0,12.0,9.0,0.5714285714285714,860.6884141661332,11899.576037417297,20.0,9.0,11.0,0.45,1012.3960453337542,20487.047727048113,98.0,49.0,49.0,0.5,106.42769036202138,8177.078332067205,,,,,66518.0,66539.0,66579.0,66612.0,66653.0,66674.0,66684.0,66704.0,66874.0,66958.0,0.07632566132415267,-0.0751126365681502,0.05776424315663496,-0.064275551955809,0.01405603843858649
71,71,67456.40072773103,1323.285931199688,13.408994869331782,67557.45203459915,-1610.9750771191611,15.28779240518434,67603.5142672857,16741.652629902812,11.008355021972866,67628.61007449351,-17060.35941543466,10.47428809333998,67853.41085119541,7580.278091913927,36.31666748064902,0.9267619304891098,81.0,58.0,113.0,259.0,372.0,23.0,936.0,939.0,25.0,10.0,15.0,0.4,74.97073746111701,1401.8198324695195,42.0,32.0,10.0,0.7619047619047619,133.09208247109504,956.9858593684964,22.0,14.0,8.0,0.6363636363636364,967.7465629416432,10659.040573284428,19.0,8.0,11.0,0.4210526315789473,1135.7764944228625,22789.54278713347,94.0,48.0,46.0,0.5106382978723404,82.98219052724453,7940.301412440696,,,,,67446.0,67469.0,67527.0,67566.0,67590.0,67612.0,67621.0,67640.0,67805.0,67899.0,0.05665497961816061,-0.08261585443587247,0.057804721214506596,-0.06657400742655604,0.010947116915903615
72,72,68420.36380078208,1742.4417797311442,11.01084702735428,68478.972626301,-1614.750962936697,17.8357578060484,68560.50892098699,18195.109428119307,10.011937163698134,68586.915659314,-17627.18947901343,9.508058060103806,68809.0097480865,8426.828811191355,37.473014849012905,0.9409954552733792,61.0,36.0,129.0,258.0,387.0,25.0,958.0,957.0,26.0,12.0,14.0,0.4615384615384615,104.63125591404678,1814.8957825948369,58.0,13.0,45.0,0.2241379310344827,82.73845565790144,1903.8059921856193,22.0,13.0,9.0,0.5909090909090909,1056.3158979193186,13031.426701148965,20.0,9.0,11.0,0.45,1202.9120412393136,23196.826013468715,94.0,46.0,48.0,0.4893617021276595,65.84934162271954,8778.436908530082,,,,,68408.0,68433.0,68469.0,68523.0,68548.0,68570.0,68578.0,68598.0,68763.0,68856.0,0.06004863814169516,-0.051239143098219676,0.05805493515124751,-0.06824185118515212,0.007814249357393792
73,73,69377.9354557486,2461.456867789105,18.350674777954264,69450.80813839761,-1441.5222687721316,61.15116962073736,69519.5944123156,19671.532244379465,10.743428790115743,69545.79975103876,-18685.43102296008,9.357905501410285,69766.83945944323,8692.039942504243,39.07004405207561,0.942270673500976,47.0,17.0,149.0,257.0,406.0,30.0,960.0,959.0,30.0,17.0,13.0,0.5666666666666667,113.05795804191858,1847.4261469139287,77.0,43.0,34.0,0.5584415584415584,83.69774813321413,1340.637932437863,22.0,13.0,9.0,0.5909090909090909,1104.9276712991189,14209.538199133014,19.0,8.0,11.0,0.4210526315789473,1303.4800984340905,25333.86199787839,94.0,46.0,48.0,0.4893617021276595,117.91876541041366,9489.743602873014,,,,,69361.0,69391.0,69408.0,69485.0,69507.0,69529.0,69538.0,69557.0,69722.0,69814.0,0.045931317961085336,-0.058062056997917,0.05616886664305563,-0.06975916674506541,0.013566293550238835
74,74,70338.0061315392,1853.1455270861647,10.788514191049796,70425.90406919828,-1710.0718657497175,30.57558481036868,70478.69348055142,19864.27416589393,10.811073539004775,70504.57298048167,-19593.07244285931,9.71891372942849,70728.41085119541,8836.400179800174,37.470668014931306,0.9368969936297684,56.0,32.0,133.0,258.0,391.0,24.0,960.0,960.0,24.0,11.0,13.0,0.4583333333333333,105.11371291294844,1701.3425989012558,79.0,61.0,18.0,0.7721518987341772,76.58134913132575,1380.795475105714,22.0,13.0,9.0,0.5909090909090909,1145.4157655146344,14385.004892459834,20.0,9.0,11.0,0.45,1302.59942556187,25296.731624360826,93.0,46.0,47.0,0.4946236559139785,87.28772113447206,9189.363106743978,,,,,70327.0,70351.0,70383.0,70443.0,70466.0,70488.0,70497.0,70516.0,70684.0,70774.0,0.056721780009488174,-0.04478253263218941,0.05766210010740095,-0.06648265244569145,0.00987819919405755
75,75,71279.01189565661,1753.4781897734445,12.312088645845993,71376.027373699,-1811.8207185215192,17.8357578060484,71421.91773471606,20043.80834461297,10.596405904732933,71447.44373972078,-19735.238183806698,9.974708433981402,71669.16020649955,8990.529345180397,38.290644638344425,0.940127470356004,63.0,33.0,131.0,258.0,389.0,30.0,945.0,942.0,36.0,16.0,20.0,0.4444444444444444,103.4289773271208,1573.7479254251807,76.0,66.0,10.0,0.868421052631579,96.30867967818268,888.2501201748421,22.0,13.0,9.0,0.5909090909090909,1190.8468393423598,14547.30904332482,20.0,8.0,12.0,0.4,1345.1752448405348,27125.172100146745,99.0,50.0,49.0,0.5050505050505051,106.45369919562582,9447.278119446426,,,,,71265.0,71295.0,71328.0,71386.0,71409.0,71431.0,71439.0,71459.0,71624.0,71717.0,0.058985037812465856,-0.05315574476749136,0.05941220445077819,-0.0681610848732643,0.011840648654652692
76,76,72229.60271279886,1881.762291246709,12.1807598198169,72316.90406919828,-1612.8219386272506,30.575584810367655,72371.55456655155,20423.68127449358,10.8070560975695,72397.145057032,-19717.452378985316,10.03164899109256,72619.29800681492,8965.07079281323,38.12227125171929,0.9395907002525457,44.0,19.0,149.0,258.0,407.0,25.0,950.0,950.0,27.0,16.0,11.0,0.5925925925925926,110.27514347268294,1750.1796958814125,75.0,57.0,18.0,0.76,91.60809082400948,1284.7623292729363,22.0,13.0,9.0,0.5909090909090909,1211.9941367431911,14298.011025198914,20.0,8.0,12.0,0.4,1331.5798361025545,27017.577483610956,92.0,44.0,48.0,0.4782608695652174,98.65338563974753,9562.605884506062,,,,,72216.0,72241.0,72260.0,72334.0,72359.0,72381.0,72389.0,72409.0,72576.0,72667.0,0.0586020582863435,-0.056799878914086124,0.059342589636708055,-0.06753305703538762,0.01100419482675275
77,77,73180.75339099858,1995.251938715928,12.645804066771875,73279.45203459915,-2033.708323490854,15.28779240518434,73324.07365089754,20851.515101276986,11.24696116919914,73347.5564747088,-21075.322580127464,10.573582613982838,73570.88352129632,8727.411506810402,37.053571319543224,0.9392690000427608,49.0,17.0,148.0,258.0,406.0,32.0,952.0,952.0,40.0,25.0,15.0,0.625,84.11313175178029,1875.2117059913423,77.0,67.0,10.0,0.8701298701298701,86.2614620961243,1069.7650762749674,22.0,14.0,8.0,0.6363636363636364,1241.3948530870048,12447.094061188956,20.0,8.0,12.0,0.4,1394.160234896732,28327.683603320864,90.0,42.0,48.0,0.4666666666666667,117.87059260227493,9213.819259625168,,,,,73163.0,73195.0,73212.0,73288.0,73310.0,73332.0,73340.0,73360.0,73530.0,73618.0,0.04215664704774699,-0.04241584749383175,0.059534995277680296,-0.06615131178164392,0.013505790635665003
78,78,74108.43061994185,1791.7210866008652,11.900711732179778,74202.027373699,-1621.8763851632634,17.8357578060484,74249.18230214778,19900.575646870893,10.810090834627552,74275.19609672768,-19965.897109585658,9.990136710366484,74495.9045584745,9016.260328937378,39.1412025177558,0.9386162374842638,73.0,47.0,115.0,258.0,373.0,26.0,928.0,924.0,35.0,17.0,18.0,0.4857142857142857,107.39993212562712,1775.5516546248127,76.0,65.0,11.0,0.8552631578947368,126.3230772477213,619.2785109892089,22.0,13.0,9.0,0.5909090909090909,1167.8142724984714,15499.829713694198,20.0,8.0,12.0,0.4,1341.7245489387367,26942.53020518549,99.0,48.0,51.0,0.4848484848484848,91.4377519245999,9667.461233302894,,,,,74099.0,74125.0,74172.0,74212.0,74237.0,74258.0,74267.0,74287.0,74450.0,74545.0,0.059942327479875324,-0.07788699459669685,0.058682436790821926,-0.06720081454765049,0.010141427663876736
79,79,75021.32873009844,1828.9910987569424,13.074999666834392,75115.60271279886,-1242.6363354551145,20.383723206912453,75163.47719440552,17531.588677487638,10.502392630859674,75190.55011819201,-17854.763232599824,10.423097504139534,75410.62676061646,8162.176009218861,38.1150400273338,0.9397395422568184,107.0,72.0,94.0,255.0,349.0,35.0,913.0,915.0,38.0,21.0,17.0,0.5526315789473685,102.292219163525,1481.229195894467,76.0,64.0,12.0,0.8421052631578947,147.7376974136464,446.11646750656973,21.0,12.0,9.0,0.5714285714285714,1014.8611928297888,14188.248053751278,21.0,9.0,12.0,0.4285714285714285,1125.7529103281931,22572.742010902228,101.0,51.0,50.0,0.504950495049505,99.53462762241406,8802.159831101251,,,,,75002.0,75037.0,75109.0,75127.0,75151.0,75172.0,75182.0,75203.0,75364.0,75458.0,0.055928221429315327,-0.1188905339385055,0.05788757718990835,-0.06305056503201094,0.012194619119949578
80,80,75897.23997307722,1641.1790846748254,13.515497887486625,75996.45203459915,-1424.0667476106648,15.28779240518434,76041.76109160524,16285.985844727722,10.895658545234962,76067.35311842222,-17118.15878969675,11.378709733302522,76291.83551209555,7828.789205701452,35.44255672668,0.935731871254666,53.0,31.0,135.0,256.0,391.0,22.0,875.0,877.0,42.0,22.0,20.0,0.5238095238095238,99.43105490399196,1688.6219503410991,69.0,59.0,10.0,0.855072463768116,98.00767099392384,559.3020616842622,22.0,14.0,8.0,0.6363636363636364,1000.7493597036264,9726.24907814396,21.0,8.0,13.0,0.3809523809523809,1072.7330146974168,23384.839551464276,94.0,48.0,46.0,0.5106382978723404,94.8875151837041,7920.510891856085,,,,,75892.0,75914.0,75945.0,76005.0,76028.0,76049.0,76059.0,76080.0,76245.0,76336.0,0.060585134085895755,-0.06882238571918317,0.061448497453262856,-0.06266637831067931,0.012120330831567237
81,81,76763.30135639943,1363.7915026411122,10.191861603456228,76838.33255674338,-1496.4319226916723,17.8357578060484,76901.91822171198,14300.195906528594,10.00070869486076,76930.35595833138,-15832.377560808216,10.08047523134666,77152.2601729957,7536.517650480023,36.90066732766008,0.9300367358305692,77.0,65.0,108.0,253.0,361.0,12.0,864.0,863.0,13.0,6.0,7.0,0.4615384615384615,141.79216606092314,1720.7330504684253,38.0,10.0,28.0,0.2631578947368421,121.58440690824888,1647.7070727794635,22.0,13.0,9.0,0.5909090909090909,836.1187289647137,11101.200966481196,21.0,9.0,12.0,0.4285714285714285,1026.470366414046,20589.091202318352,98.0,53.0,45.0,0.5408163265306123,153.87265669274424,7837.677832111802,,,,,76757.0,76769.0,76834.0,76865.0,76889.0,76911.0,76921.0,76942.0,77101.0,77195.0,0.10396909335945348,-0.08124954103461769,0.05846904017468691,-0.06483362100680262,0.020416943717095074
82,82,77636.027373699,1147.0831487207065,12.274076222935747,77719.27398270041,-1528.4946168332697,7.64389620259217,77778.65925188438,13749.58797288615,9.50406778651904,77807.37836875669,-15740.252395657672,9.775245515143734,78025.52434114061,7210.806319880252,37.16865630734935,0.9334197991819166,83.0,67.0,104.0,252.0,356.0,16.0,874.0,876.0,16.0,4.0,12.0,0.25,111.39928018297906,1278.379724494795,16.0,4.0,12.0,0.25,140.7378817210074,1551.696656418321,21.0,12.0,9.0,0.5714285714285714,833.1860293225308,10459.508743913631,22.0,10.0,12.0,0.4545454545454545,988.328705514312,19967.508607064778,90.0,44.0,46.0,0.4888888888888889,126.09276300817936,7884.122994533755,,,,,77632.0,77648.0,77715.0,77731.0,77767.0,77788.0,77798.0,77819.0,77982.0,78071.0,0.09711526170288351,-0.09207613829389055,0.06059716341795501,-0.06278988930234475,0.017486638444377655
83,83,78535.85516906246,1453.20662827042,15.651804346654696,78593.62706752346,-1080.7737746403786,15.28779240518434,78675.32187010512,13882.328508399423,9.696008847776069,78704.62395511518,-15377.939079602857,9.171727347660974,78922.83551209555,7244.99986729135,37.38987860179992,0.9298254662167876,57.0,34.0,130.0,251.0,381.0,23.0,899.0,896.0,23.0,7.0,16.0,0.3043478260869565,116.42745017597682,1935.9696131233384,22.0,9.0,13.0,0.4090909090909091,137.7825133247944,814.0498042968242,21.0,11.0,10.0,0.5238095238095238,796.7397088444177,12568.544015164494,21.0,10.0,11.0,0.4761904761904761,951.7961510696016,17730.059748732525,88.0,44.0,44.0,0.5,84.65503136445507,8058.292571346133,,,,,78529.0,78552.0,78586.0,78603.0,78664.0,78685.0,78695.0,78716.0,78879.0,78967.0,0.08011761569966595,-0.12748506353296807,0.05739236817241106,-0.061893609159373926,0.011684614619062044
84,84,79495.74675297584,1806.6923014715433,17.65352563710427,79567.8081384478,-1344.5260379263998,61.15116962073522,79636.8447179007,15225.43780438503,10.18321760937778,79664.98752214656,-15299.261117867309,10.031308992387364,79894.38347749642,7073.942712914517,33.7839309886627,0.9156391322163702,77.0,40.0,125.0,254.0,379.0,37.0,956.0,962.0,37.0,22.0,15.0,0.5945945945945946,72.36338127761496,672.2588039881273,55.0,21.0,34.0,0.3818181818181818,76.67559164340112,1531.0147490610252,20.0,12.0,8.0,0.6,874.9647128273294,11278.30957276713,20.0,9.0,11.0,0.45,985.2027407379792,20558.0383974075,86.0,47.0,39.0,0.5465116279069767,66.65251307999182,7036.460930097635,,,,,79474.0,79511.0,79551.0,79602.0,79625.0,79645.0,79656.0,79676.0,79847.0,79930.0,0.0400529637607219,-0.05702797080944177,0.057467294147386265,-0.06439544584198291,0.009422257966311758
85,85,80465.17805189872,1447.6122145039649,12.977726793460436,80550.90406919828,-1240.620805622702,30.57558481036868,80605.13582666575,15696.985876050803,10.42789105081019,80632.5068122056,-16233.263085797853,9.709351392706678,80854.41085119541,7579.883516263059,37.19643254885318,0.9362689135697086,70.0,37.0,128.0,257.0,385.0,33.0,975.0,968.0,37.0,23.0,14.0,0.6216216216216216,92.5927306895007,969.0941266266176,54.0,37.0,17.0,0.6851851851851852,69.39016962061987,963.2304754829626,21.0,12.0,9.0,0.5714285714285714,892.8206991909711,12528.22809275162,20.0,9.0,11.0,0.45,1064.3729202942654,20388.687691417683,91.0,44.0,47.0,0.4835164835164835,114.31600596991456,7827.811944158898,,,,,80445.0,80478.0,80515.0,80568.0,80593.0,80614.0,80624.0,80643.0,80812.0,80900.0,0.06396238561804916,-0.05593181196553529,0.05687848012612186,-0.06556740408066591,0.015081499039483026
86,86,81428.30135639943,1612.9857154039191,10.191861603456228,81488.52059170186,-1402.9931194943215,30.855870858595154,81562.44966644235,16656.67213287712,9.959414805086732,81590.80504785026,-16533.748020864423,9.034375631958463,81812.13686849497,7877.416731499508,38.057469628730395,0.9344879690963728,70.0,36.0,131.0,261.0,392.0,34.0,961.0,957.0,39.0,32.0,7.0,0.8205128205128205,120.5068683333832,700.416872024336,66.0,26.0,40.0,0.3939393939393939,103.59771460745262,1579.7289252613816,23.0,12.0,11.0,0.5217391304347826,892.7109365387759,14413.033019315795,20.0,9.0,11.0,0.45,1089.7031568832017,20462.621211635567,98.0,47.0,51.0,0.4795918367346938,87.7778266656928,8519.540029398271,,,,,81400.0,81434.0,81470.0,81528.0,81550.0,81573.0,81582.0,81601.0,81768.0,81862.0,0.07471043740967429,-0.07384050083210114,0.05359479549199587,-0.06590781204044438,0.01114297105987737
87,87,82366.55692461685,1371.3322929114072,12.128445177606938,82459.60271279886,-1454.8849334449048,20.383723206912453,82507.37165046929,17559.74459033796,10.337901985781148,82534.42145570596,-17626.31392934312,9.36044658886198,82756.54385740364,8097.736459418808,36.46867686168717,0.9395796792098944,58.0,36.0,127.0,260.0,387.0,22.0,941.0,948.0,35.0,20.0,15.0,0.5714285714285714,83.17837732556642,1233.6209691754236,54.0,43.0,11.0,0.7962962962962963,94.8052900777459,797.7578813039413,22.0,12.0,10.0,0.5454545454545454,992.6430431230408,14324.234644623444,19.0,8.0,11.0,0.4210526315789473,1211.777368317472,23852.623943780018,96.0,47.0,49.0,0.4895833333333333,86.30585227520854,8505.691797909301,,,,,82360.0,82382.0,82418.0,82471.0,82495.0,82517.0,82526.0,82545.0,82710.0,82805.0,0.06065515831248643,-0.06516342832231006,0.05652946932207834,-0.06874820073981466,0.010658021869163533
88,88,83291.03212894307,1751.0460300871282,12.325916277825296,83389.87669549929,-1440.4858065475476,12.739827004320285,83432.72787150372,18439.45014949597,10.303111314417585,83459.43364995513,-18569.441205539228,9.078361341649986,83680.66289386495,8581.867743397786,37.62443252257948,0.9358246330342856,95.0,69.0,94.0,261.0,355.0,26.0,922.0,924.0,31.0,15.0,16.0,0.4838709677419355,82.18691551157274,1890.3171873241083,53.0,46.0,7.0,0.8679245283018868,126.97563967600598,950.949919990778,22.0,13.0,9.0,0.5909090909090909,1050.5998158117957,14254.82166608975,19.0,8.0,11.0,0.4210526315789473,1289.255585760388,25137.597292427505,91.0,41.0,50.0,0.4505494505494505,93.09539945105227,9351.506366122025,,,,,83281.0,83307.0,83376.0,83397.0,83420.0,83442.0,83451.0,83470.0,83641.0,83731.0,0.046935896658001214,-0.08814778951576902,0.056975658563252395,-0.06942888434229273,0.010847918219512594
89,89,84210.90223252213,1941.8925584637352,10.73622245806168,84308.87669549929,-1757.4114073249016,12.739827004320285,84352.6637435324,19388.793985443503,10.587063525554331,84378.38476258388,-19590.91484172708,9.798727617422452,84601.41085119541,8742.53740791998,36.48390537725287,0.9368766354280196,53.0,32.0,134.0,257.0,391.0,21.0,921.0,919.0,24.0,10.0,14.0,0.4166666666666667,111.53593242679466,1703.629484364722,74.0,66.0,8.0,0.8918918918918919,127.92145336148008,827.3327273734424,22.0,13.0,9.0,0.5909090909090909,1144.5622533038963,13849.688037552,20.0,8.0,12.0,0.4,1349.9374151974837,26900.669082314715,95.0,47.0,48.0,0.4947368421052631,79.56977339573183,9096.12201597946,,,,,84203.0,84224.0,84256.0,84316.0,84340.0,84362.0,84370.0,84390.0,84557.0,84647.0,0.05743671653751671,-0.07278970241589572,0.05903215301391091,-0.06890629795001839,0.009101450721119996
90,90,85116.90406919828,2017.7133448628351,13.71906517998785,85205.32873009844,-1373.1450812158826,28.027619409504627,85258.22557389305,20234.240281867496,10.81985566194449,85284.43033874214,-19786.63468012948,9.508303686479062,85506.0468381546,8961.455172352968,38.20545372777896,0.9446638348173144,67.0,32.0,130.0,259.0,389.0,35.0,908.0,906.0,38.0,20.0,18.0,0.5263157894736842,77.07945790622279,1925.3256629381765,75.0,58.0,17.0,0.7733333333333333,101.918672157278,1028.4636677196995,22.0,12.0,10.0,0.5454545454545454,1139.35779765466,15947.789933959211,19.0,7.0,12.0,0.3684210526315789,1371.6410545352787,26953.91166679722,94.0,45.0,49.0,0.4787234042553192,87.86733966095102,9574.937900676328,,,,,85099.0,85134.0,85166.0,85221.0,85246.0,85268.0,85277.0,85296.0,85463.0,85555.0,0.03820139174004555,-0.0742227995799481,0.05630840504922107,-0.06932159392990335,0.009805030318293731
91,91,86014.31145471764,1949.745971205924,13.725934589657458,86094.35610379743,-1773.87348283861,45.86337721555302,86154.03236031333,20961.878057658916,11.27198525516186,86178.65907310604,-20122.74209572575,10.32487931810768,86401.72793751181,8830.845681656238,36.0351826012654,0.934095634314814,48.0,14.0,149.0,256.0,405.0,34.0,893.0,895.0,34.0,20.0,14.0,0.5882352941176471,96.30059754321148,1198.3074113044563,79.0,53.0,26.0,0.6708860759493671,65.26807162451016,1663.1066035563897,22.0,13.0,9.0,0.5909090909090909,1197.1379566859275,13801.296608290846,20.0,8.0,12.0,0.4,1350.283096148302,27120.613112115665,90.0,44.0,46.0,0.4888888888888889,94.7904913991422,9200.64362766311,,,,,85994.0,86028.0,86042.0,86120.0,86141.0,86163.0,86171.0,86191.0,86359.0,86447.0,0.04939135608709542,-0.03679409622836577,0.0571102433375966,-0.06710234071106613,0.010734021951719137
92,92,86924.71797214767,2691.3464197305057,17.56919758167301,86996.80813847529,-1508.0748045116177,61.151169620698,87065.28111791334,20892.28467451706,10.682942673484073,87091.17686255164,-19625.56912280783,9.652330752239228,87318.68483389584,9415.782392073044,36.3579874227909,0.9394728990039932,47.0,12.0,150.0,257.0,407.0,35.0,912.0,912.0,37.0,20.0,17.0,0.5405405405405406,92.82893860109344,1633.9892946270456,78.0,44.0,34.0,0.5641025641025641,67.64262595415032,1440.931909882759,22.0,12.0,10.0,0.5454545454545454,1178.7513864242471,15921.932603806898,20.0,8.0,12.0,0.4,1345.4544890268885,26969.49576491741,94.0,53.0,41.0,0.5638297872340425,77.2104340377066,9397.917433720397,,,,,86906.0,86941.0,86953.0,87031.0,87053.0,87075.0,87083.0,87103.0,87271.0,87360.0,0.03449163508664512,-0.044853627785430734,0.05642041570790988,-0.0685562024014514,0.008200108161240907
93,93,87878.8651699098,2159.3592846045344,11.6423552483746,87970.75339099858,-1840.7287989514373,25.47965400864057,88023.44473364655,21087.963401860743,11.111115107817684,88047.71633035291,-20560.06984040309,10.365613414257355,88270.71785496299,8852.506395341876,37.651773645175254,0.9400207505499238,63.0,41.0,129.0,260.0,389.0,22.0,955.0,957.0,32.0,17.0,15.0,0.53125,108.77876021259608,1905.4966493489408,75.0,60.0,15.0,0.8,93.30885867751724,1381.5340116859338,22.0,13.0,9.0,0.5909090909090909,1217.0776382555157,14783.582882821252,20.0,8.0,12.0,0.4,1377.6390327193883,27757.017505468415,95.0,45.0,50.0,0.4736842105263157,96.85489006178928,9552.832015310389,,,,,87868.0,87890.0,87931.0,87985.0,88010.0,88032.0,88040.0,88060.0,88231.0,88320.0,0.05037547988801588,-0.05069125812051737,0.05771432807722552,-0.06700556191750655,0.010940956802104499
94,94,88860.9496779221,2280.968696361462,17.549778220313197,88920.09593080172,-1316.2052727921832,30.57558481036868,89002.91149343454,20780.51193629487,10.49086071640344,89028.70383487365,-19677.477303807435,9.539200684688078,89250.23640450333,9072.157286220783,39.629519922759826,0.9418828741944244,64.0,29.0,137.0,259.0,396.0,35.0,981.0,981.0,39.0,23.0,16.0,0.5897435897435898,97.14543328204792,2028.968374865518,70.0,23.0,47.0,0.3285714285714285,62.13776127483141,1236.6526219642742,23.0,13.0,10.0,0.5652173913043478,1202.4849708649376,15824.18406319846,20.0,9.0,11.0,0.45,1343.5867205952968,25919.413873251695,100.0,49.0,51.0,0.49,93.45446582282548,9547.92377220368,,,,,88839.0,88874.0,88903.0,88965.0,88990.0,89013.0,89021.0,89040.0,89203.0,89299.0,0.042589551288893884,-0.04720977993274032,0.05786599360743846,-0.06828043553811258,0.010301239592127497
95,95,89870.69296453222,2279.6872469836094,13.81818682773992,89937.52059170186,-1706.1547937338903,33.12355021123273,90012.75343639612,20864.444814194925,10.426038202206522,90038.76050152238,-19716.224475710245,9.609950627098089,90262.18520757774,9085.846877032338,38.077540046574185,0.9461179253557724,66.0,35.0,131.0,261.0,392.0,31.0,1011.0,1010.0,31.0,18.0,13.0,0.5806451612903226,89.98930672088046,1857.4493005942584,56.0,19.0,37.0,0.3392857142857143,79.240813242813,1987.4795155777897,22.0,13.0,9.0,0.5909090909090909,1210.0589813188449,15684.333694932298,20.0,9.0,11.0,0.45,1346.1875753812214,25987.503510194696,94.0,45.0,49.0,0.4787234042553192,89.07580478348518,9651.877133104024,,,,,89853.0,89884.0,89919.0,89975.0,90000.0,90022.0,90031.0,90050.0,90218.0,90311.0,0.03947440897427956,-0.04644409377967157,0.057996222381895966,-0.06827816233476552,0.009803797707471331
96,96,90879.70186482144,1796.7999898674684,12.90467810226547,90971.32873009844,-1344.6120494515392,28.027619409504467,91023.74338154672,19081.69450875036,10.851873775894685,91049.9359141385,-18568.04267357707,10.494015846124643,91274.83551209555,8493.640725362122,37.34837427673245,0.9365842379833704,63.0,30.0,137.0,256.0,393.0,33.0,1008.0,1011.0,36.0,19.0,17.0,0.5277777777777778,78.38611261168406,1581.6460614619436,78.0,62.0,16.0,0.7948717948717948,92.07516173681115,1093.39805414673,21.0,13.0,8.0,0.6190476190476191,1105.8012917966475,13772.464429536283,21.0,8.0,13.0,0.3809523809523809,1193.173026017589,24592.362702555,97.0,51.0,46.0,0.5257731958762887,75.91628943131003,8700.260735061656,,,,,90863.0,90896.0,90926.0,90987.0,91011.0,91032.0,91042.0,91063.0,91225.0,91319.0,0.043625396846460246,-0.06847712079805336,0.05795089588555966,-0.06425949395923745,0.008938015144038646
97,97,91814.75339099858,1523.3891265500145,12.1479231885433,91912.45203459916,-1354.809686880571,15.28779240518434,91956.48021433668,16995.627678405166,10.617799002385066,91983.16553389282,-17138.058595579907,10.999837045519303,92204.80408269864,8115.225612423576,36.428470258343474,0.931340749705301,56.0,32.0,131.0,254.0,385.0,24.0,937.0,932.0,39.0,20.0,19.0,0.5128205128205128,106.56625947261968,1342.2394931231247,81.0,72.0,9.0,0.8888888888888888,107.31518740741588,526.1370575401131,21.0,12.0,9.0,0.5714285714285714,987.0878322626896,13035.823929706068,21.0,8.0,13.0,0.3809523809523809,1077.3222862587224,22902.758741913363,90.0,43.0,47.0,0.4777777777777778,106.89731576479836,8811.514925724074,,,,,91809.0,91833.0,91865.0,91921.0,91944.0,91965.0,91975.0,91996.0,92162.0,92250.0,0.06995340692365182,-0.07921052561596861,0.058078927765456666,-0.06286139589559903,0.013172439174229434
98,98,92708.05875899715,1555.249444722422,13.353371437239092,92806.30135639945,-1465.140296394604,10.191861603456228,92853.14971867118,15146.900568258798,9.899334146339552,92881.09278090108,-16090.02608893818,10.769942190808564,93100.38189382057,7439.161776512693,38.33862159246425,0.9316495338912012,109.0,84.0,90.0,255.0,345.0,25.0,887.0,897.0,33.0,13.0,20.0,0.3939393939393939,101.12549995434604,1634.594775776757,32.0,21.0,11.0,0.65625,148.9528552512476,843.8407814735574,20.0,12.0,8.0,0.6,921.3813028694128,11724.66511049049,23.0,10.0,13.0,0.4347826086956521,1010.5445347881548,20489.22733962537,96.0,44.0,52.0,0.4583333333333333,125.48629780752783,7891.505169800814,,,,,92695.0,92720.0,92804.0,92816.0,92841.0,92861.0,92871.0,92894.0,93057.0,93149.0,0.06502204536867379,-0.10166456797194687,0.0608296924322736,-0.06280564923899655,0.016868338339370393
99,99,93581.12389166036,1835.877054263966,11.35361416349416,93678.87669549928,-1201.9345958933145,12.73982700430842,93722.8778792192,13862.277590813872,9.976595089154332,93751.80961210644,-15625.44149504379,10.4699993730084,93977.68483389584,7394.964291197864,34.995116666696575,0.9325263850712262,103.0,79.0,88.0,255.0,343.0,24.0,878.0,871.0,33.0,16.0,17.0,0.4848484848484848,116.96576972773556,1700.195050397968,12.0,3.0,9.0,0.25,149.22867434433027,1064.8188897241455,21.0,12.0,9.0,0.5714285714285714,797.4928296921831,10672.426829657225,24.0,11.0,13.0,0.4583333333333333,925.5760850098848,18833.374505374377,87.0,46.0,41.0,0.5287356321839081,113.05713263671537,7212.462171396752,,,,,93573.0,93597.0,93676.0,93687.0,93711.0,93732.0,93742.0,93764.0,93934.0,94019.0,0.06371111260205227,-0.1241570671600637,0.057529711439385574,-0.0592351957097319,0.015288394667609942
100,100,96464.95376812502,1639.9870030916447,15.99093880503159,96528.81871166234,-1169.8242052523044,32.30615889804516,96608.76513633486,13031.530023399811,10.557298081943822,96636.5571179454,-15167.287557746407,10.176407697101494,96859.46273724016,6459.087926745582,36.488614837614136,0.934603620432325,62.0,25.0,141.0,255.0,396.0,37.0,2877.0,2883.0,38.0,20.0,18.0,0.5263157894736842,92.91987433162387,988.1922208333252,66.0,23.0,43.0,0.3484848484848485,94.83123233402615,1267.6552512106769,20.0,12.0,8.0,0.6,786.904114602617,9649.53410279242,21.0,10.0,11.0,0.4761904761904761,916.1798289096504,18529.466518938854,90.0,43.0,47.0,0.4777777777777778,76.11373363430745,6807.491074011456,,,,,96445.0,96482.0,96507.0,96550.0,96597.0,96617.0,96627.0,96648.0,96816.0,96903.0,0.05665890897699473,-0.08106451542740409,0.06038462967814432,-0.060404988395023125,0.01178397546178899
101,101,97499.23733741778,1311.3274113831783,15.60510927415589,97577.82194810128,-1396.753412003835,22.93168860777651,97647.70682574742,14389.471442696447,9.921632822385508,97675.63302773776,-15685.8326433696,9.628171804586271,97896.6165665072,6917.504153823562,38.815246950409936,0.9383918623102742,86.0,46.0,121.0,260.0,381.0,40.0,1039.0,1039.0,46.0,25.0,21.0,0.5434782608695652,114.73856778592312,1171.4704524022568,50.0,14.0,36.0,0.28,105.95108186673032,1632.773848274374,22.0,13.0,9.0,0.5909090909090909,854.2940867193566,10886.913636919127,20.0,9.0,11.0,0.45,998.3149022292852,19380.48694438443,98.0,48.0,50.0,0.4897959183673469,95.55280499178572,7257.166432328694,,,,,97479.0,97519.0,97565.0,97610.0,97635.0,97657.0,97667.0,97686.0,97849.0,97946.0,0.08749803198645695,-0.0758552518692107,0.05936938615997352,-0.06364436781437119,0.013813190836896012
102,102,98505.30334358018,1238.5393204475106,12.24437540553843,98609.87669549928,-1651.8161445909443,12.739827004320285,98651.06175922725,14516.348378023838,10.388533527372562,98678.19358688546,-15909.77734114585,10.04447115444578,98901.39880954292,7221.926933333144,37.604438138653606,0.9332745860737038,111.0,84.0,86.0,261.0,347.0,27.0,1009.0,1003.0,27.0,13.0,14.0,0.4814814814814814,80.60423645528029,1190.7795508997006,60.0,52.0,8.0,0.8666666666666667,110.42025289178171,1242.1395275892091,22.0,13.0,9.0,0.5909090909090909,875.3137872227016,10696.970020268716,19.0,8.0,11.0,0.4210526315789473,1017.8640368494948,20932.56177792177,99.0,49.0,50.0,0.494949494949495,76.29527045518155,7194.117814597337,,,,,98492.0,98519.0,98603.0,98617.0,98639.0,98660.0,98670.0,98689.0,98854.0,98950.0,0.06508007870606503,-0.06684778645212126,0.06029848309150743,-0.06397726473626353,0.010564392461939366
103,103,99483.32873009844,1360.8136026167122,15.15864425121512,99583.45203459916,-1111.2127116335864,15.287792404428282,99626.33977146704,15784.393516060894,10.527256422993611,99653.60960120804,-15925.513253518551,10.09621733244406,99876.7954948482,7508.969078262418,38.18286446165982,0.9375150785470492,114.0,76.0,90.0,258.0,348.0,38.0,979.0,979.0,43.0,23.0,20.0,0.5348837209302325,91.37348970437486,1309.463779660776,17.0,8.0,9.0,0.4705882352941176,104.12807920870203,990.981571494824,21.0,12.0,9.0,0.5714285714285714,893.5114550176838,12374.888963178124,20.0,9.0,11.0,0.45,1018.5766212991136,20264.10037564951,91.0,45.0,46.0,0.4945054945054945,90.53000346614688,8345.547681503638,,,,,99461.0,99499.0,99575.0,99592.0,99614.0,99635.0,99645.0,99665.0,99832.0,99923.0,0.06714622012057532,-0.09370670270287318,0.05660727186689311,-0.06395879398574933,0.012056249336306443
104,104,100460.3052630588,1913.2038696648808,16.58424088506526,100536.47940829814,-985.8504352132974,26.75371370042243,100605.20644581706,16227.45468318554,10.36845627695584,100632.88047081824,-16092.139777707322,9.255203184914414,100855.3335609541,7821.868568545817,40.2379520486346,0.9442040558236524,58.0,23.0,143.0,260.0,403.0,35.0,972.0,976.0,35.0,17.0,18.0,0.4857142857142857,105.98460080498953,2285.193610698334,74.0,41.0,33.0,0.5540540540540541,60.6981872089837,1016.7909064420204,22.0,12.0,10.0,0.5454545454545454,890.0047280647017,13565.85910613961,20.0,9.0,11.0,0.45,1064.8400682732872,20585.806283181544,93.0,43.0,50.0,0.4623655913978494,72.13196887945499,8231.573182925824,,,,,100443.0,100478.0,100501.0,100555.0,100593.0,100615.0,100625.0,100644.0,100813.0,100904.0,0.05539639684272326,-0.0615693669555982,0.05484561475848095,-0.06617144040399313,0.009221833408134756
105,105,101416.55885613192,1694.6499022999697,14.222020656980147,101513.027373699,-1295.6516945157096,17.83575780602783,101558.55160545188,17213.187385455443,10.738649389260903,101585.35236462226,-16613.985387802768,9.79462215201858,101808.12798352972,8086.465413401931,38.000660811110755,0.940862572010986,73.0,38.0,126.0,260.0,386.0,35.0,959.0,955.0,35.0,19.0,16.0,0.5428571428571428,92.99713519820446,1711.3182859834242,54.0,43.0,11.0,0.7962962962962963,115.5793424935294,481.3663681502983,22.0,13.0,9.0,0.5909090909090909,1003.5108315414705,13257.121525170189,20.0,8.0,12.0,0.4,1093.2153080420694,22163.149493491288,99.0,49.0,50.0,0.494949494949495,65.06500048286574,8069.035622883722,,,,,101398.0,101433.0,101471.0,101523.0,101546.0,101568.0,101577.0,101597.0,101762.0,101857.0,0.054876901165243186,-0.08920556580349381,0.05829895469501499,-0.06580090703851578,0.008046160733592165
106,106,102359.75339099858,1707.928280891428,13.4770594855984,102453.60271279886,-1378.7551467714368,20.383723206912453,102500.29555068802,17595.720234599303,10.58831307234743,102527.04080518115,-17515.055271619778,9.56823429301639,102750.42617731544,8037.778937385945,36.970476731617474,0.9370456384598012,92.0,72.0,92.0,259.0,351.0,20.0,945.0,939.0,34.0,17.0,17.0,0.5,104.20617423935282,1659.4717039995894,19.0,8.0,11.0,0.4210526315789473,120.15076551020266,1140.558914384449,22.0,12.0,10.0,0.5454545454545454,1003.6112132749948,14251.604399081732,19.0,8.0,11.0,0.4210526315789473,1190.0317645367447,23242.226235220813,94.0,45.0,49.0,0.4787234042553192,90.74519939329176,8515.709297993086,,,,,102354.0,102374.0,102446.0,102465.0,102488.0,102510.0,102519.0,102538.0,102707.0,102797.0,0.061013202606472416,-0.08714438222881982,0.05703723404862657,-0.06794336335695111,0.011289835177129667
107,107,103315.08155067451,2657.153630532228,19.737948632813087,103371.98619029536,-1533.7217606948575,77.3781752686002,103454.09370779524,18626.57514170685,10.854919805971049,103481.09003231388,-17622.295364579466,9.453398036073784,103707.83551209555,8358.720658326149,37.01815287177807,0.93949514714812,37.0,12.0,149.0,260.0,409.0,25.0,952.0,957.0,25.0,9.0,16.0,0.36,97.82300955210611,1706.5353719824946,78.0,30.0,48.0,0.3846153846153846,70.27720548277368,1719.0968999082374,23.0,13.0,10.0,0.5652173913043478,1007.5651997289076,14397.645565034354,19.0,8.0,11.0,0.4210526315789473,1201.5563483086485,23850.61133096437,95.0,50.0,45.0,0.5263157894736842,95.03454543773596,8473.380289831914,,,,,103306.0,103331.0,103343.0,103419.0,103441.0,103464.0,103473.0,103492.0,103663.0,103752.0,0.03681496185544686,-0.04582135253198362,0.05409288567885267,-0.06818387295469792,0.011369508483702197
108,108,104261.24971702334,1724.807805832994,12.70363080437501,104361.027373699,-1594.6924661751063,17.8357578060337,104405.37405316424,18528.772484663634,10.72489874523176,104432.01768762688,-18960.52955932667,9.587424826267236,104655.0427266002,8304.811451624106,37.56263203601407,0.9395567314396784,95.0,71.0,96.0,258.0,354.0,24.0,949.0,951.0,36.0,19.0,17.0,0.5277777777777778,85.35968799413943,1683.6541989334776,78.0,67.0,11.0,0.8589743589743589,108.16501290851852,1019.4111794096214,23.0,13.0,10.0,0.5652173913043478,1038.7334290477263,14782.603102182788,19.0,8.0,11.0,0.4210526315789473,1280.4029863089722,25062.269783378608,94.0,47.0,47.0,0.5,81.93918151995773,8598.945500760281,,,,,104252.0,104276.0,104347.0,104371.0,104392.0,104415.0,104424.0,104443.0,104609.0,104701.0,0.04948939105300203,-0.06782813313713955,0.05606056364000862,-0.06752991694154148,0.009866471020715773
109,109,105203.55390726912,2684.4386049227815,17.3302571866237,105271.38347749654,-1069.3782143610872,63.69913496920874,105345.29691005686,20198.90217227044,10.857692860045391,105371.08187737595,-19006.315720393395,9.76643372664205,105594.54364109087,8723.713901769861,39.110640790407466,0.944011828270426,62.0,39.0,129.0,260.0,389.0,23.0,941.0,939.0,37.0,21.0,16.0,0.5675675675675675,106.54243133553018,2315.2248447699526,58.0,18.0,40.0,0.3103448275862069,84.61087747564375,951.5613067641827,21.0,12.0,9.0,0.5714285714285714,1147.2369653273868,15781.047821141112,20.0,8.0,12.0,0.4,1314.03236528505,26291.399026696352,97.0,47.0,50.0,0.4845360824742268,113.0259838921288,9193.651671519274,,,,,105192.0,105215.0,105254.0,105307.0,105333.0,105354.0,105363.0,105383.0,105551.0,105643.0,0.039688905956035046,-0.07912156460583548,0.05679699597250105,-0.06913661672341471,0.012956177284676676
110,110,106139.3782965461,1857.371726524056,11.638369805165045,106229.75339099858,-1977.321237222593,25.47965400864057,106281.09891979104,21013.47300486984,11.627185936968347,106304.233114851,-21260.30683348137,10.752776858489966,106529.50210039642,8730.630670282748,36.88067410121282,0.939727460838378,44.0,13.0,148.0,258.0,406.0,31.0,936.0,934.0,32.0,14.0,18.0,0.4375,105.91523256115607,1859.5936147982377,76.0,62.0,14.0,0.8157894736842105,90.24030137235198,1250.41454503281,22.0,14.0,8.0,0.6363636363636364,1227.6653890494747,11904.94654515037,20.0,7.0,13.0,0.35,1395.6435778891914,28672.448622180025,92.0,45.0,47.0,0.4891304347826087,91.65879367978954,8947.379162858579,,,,,106125.0,106156.0,106169.0,106244.0,106267.0,106289.0,106297.0,106317.0,106488.0,106575.0,0.057024251553225255,-0.045637653444266,0.058422774225134755,-0.06564550496944334,0.010498530649312315
111,111,107067.16918857316,2387.129526745622,17.858939727329858,107140.0111798794,-1465.0517551806345,43.315411814672295,107207.32817319976,20541.74943217843,10.785961409880771,107232.98246467672,-19863.07052768529,9.851884321187654,107455.07095993776,8882.58360683206,38.86433212746776,0.9468925521636212,82.0,46.0,115.0,258.0,373.0,36.0,927.0,928.0,37.0,19.0,18.0,0.5135135135135135,76.1783600832965,2107.815839032082,41.0,10.0,31.0,0.2439024390243902,85.07445601925573,2040.042957279368,22.0,12.0,10.0,0.5454545454545454,1166.7854816170236,15568.383070144402,20.0,8.0,12.0,0.4,1338.3718733832625,26764.754667756544,97.0,47.0,50.0,0.4845360824742268,86.85333257114647,9504.265000638445,,,,,107048.0,107084.0,107130.0,107171.0,107195.0,107217.0,107225.0,107245.0,107412.0,107503.0,0.031912118395666024,-0.05806924958003714,0.05680068708214631,-0.06737990843449054,0.009777935836634628
112,112,107994.75339099858,2186.374006390031,12.679696445946815,108090.45203459916,-1537.039688291684,15.28779240518434,108134.8948387888,20177.866765787887,10.780786811724557,108160.75462281908,-20227.821778310707,9.541428851572933,108382.8751411748,9144.276680778928,38.60884335562168,0.9419962942647432,64.0,33.0,130.0,258.0,388.0,31.0,930.0,928.0,33.0,18.0,15.0,0.5454545454545454,111.31568665589435,2048.589379964057,58.0,49.0,9.0,0.8448275862068966,98.49119222395004,1162.48323753471,22.0,13.0,9.0,0.5909090909090909,1179.7746797094514,15543.601968212872,19.0,8.0,11.0,0.4210526315789473,1381.6171891874667,26622.412948365178,94.0,46.0,48.0,0.4893617021276595,105.46891477726084,9845.258944256231,,,,,107978.0,108009.0,108042.0,108099.0,108122.0,108144.0,108153.0,108172.0,108338.0,108430.0,0.0509133781917258,-0.06407849645926604,0.058468751598151646,-0.06830281600903299,0.011533871782221355
113,113,108911.36639262566,2998.8871991856754,19.626989824680116,108972.68483389584,-1849.2089930649772,73.89099662504445,109053.5667561658,21993.893234821924,11.847206601707416,109076.19373903218,-21645.499294888057,10.564549375686552,109301.41085120276,9015.62794382823,36.13356676017973,0.9388522568048618,50.0,17.0,147.0,258.0,405.0,33.0,913.0,917.0,33.0,19.0,14.0,0.5757575757575758,98.93954153593111,1648.0528666118353,76.0,32.0,44.0,0.4210526315789473,56.03900416404005,1719.0512209325225,23.0,15.0,8.0,0.6521739130434783,1297.0317261316477,9864.355024928973,20.0,7.0,13.0,0.35,1454.5935699421582,29644.968364712684,91.0,45.0,46.0,0.4945054945054945,93.57359875342314,9204.501051308058,,,,,108892.0,108925.0,108942.0,109014.0,109039.0,109061.0,109069.0,109089.0,109260.0,109347.0,0.03299208505168096,-0.030304310856264022,0.058972357112205886,-0.06720073998411691,0.010379043959714443
114,114,109841.06731469704,1869.239684192307,15.662456313407436,109903.09593080172,-1981.1794211089848,30.57558481036772,109980.65227056084,20440.490721419243,10.424219476633317,110006.27189534988,-20282.709453206844,10.03439124461582,110230.12999109048,9024.103043203328,36.20917811723702,0.9397921661880224,56.0,36.0,132.0,258.0,390.0,20.0,929.0,928.0,20.0,11.0,9.0,0.55,98.56208757151629,1667.1435319877128,76.0,35.0,41.0,0.4605263157894737,78.31151465084405,2283.092748801051,22.0,13.0,9.0,0.5909090909090909,1236.4278407308732,14148.064871694794,20.0,8.0,12.0,0.4,1374.2865249258416,27737.077542159008,88.0,42.0,46.0,0.4772727272727273,99.9006481356387,9921.85510402705,,,,,109830.0,109850.0,109886.0,109944.0,109968.0,109990.0,109998.0,110018.0,110188.0,110276.0,0.05272843734542511,-0.039527724655553105,0.06048914664437295,-0.0677565553111326,0.011070424136045382
115,115,110756.01498302569,2168.0568734717717,13.238331142562588,110857.45203459916,-1824.5167552446192,15.28779240518434,110900.9496145044,20805.41738972949,11.051486802500175,110925.663543119,-20801.293411447532,9.93873576084386,111149.21012368606,9238.548505459892,37.56514887314381,0.9439924651381324,60.0,25.0,138.0,259.0,397.0,35.0,920.0,920.0,42.0,21.0,21.0,0.5,111.8278628013841,1618.4508351134234,68.0,59.0,9.0,0.8676470588235294,96.02487753603006,911.6322750156044,22.0,13.0,9.0,0.5909090909090909,1222.504136503772,14404.757805788671,19.0,8.0,11.0,0.4210526315789473,1398.0124161026345,27719.289303944817,93.0,46.0,47.0,0.4946236559139785,108.9436282362298,10168.9089061039,,,,,110739.0,110774.0,110799.0,110866.0,110888.0,110910.0,110918.0,110937.0,111108.0,111196.0,0.051579764428555296,-0.052630307318364794,0.05875893348370201,-0.0672079561809012,0.01179228838511214
116,116,111638.43422811972,1902.6390437820337,14.519968714405412,111714.054747398,-1176.9181093072125,33.848075712064045,111780.27970035913,18985.786552404526,10.80089984759285,111807.481824999,-18530.408925479696,10.450365041503066,112028.32130406018,8743.809343922081,37.309326252145006,0.9329412771432282,84.0,51.0,114.0,256.0,370.0,33.0,882.0,880.0,34.0,17.0,17.0,0.5,119.4442866498828,1648.2993956632504,29.0,8.0,21.0,0.2758620689655172,81.3265923074342,1856.827820114219,22.0,13.0,9.0,0.5909090909090909,1059.6837696193525,15611.918348419276,21.0,8.0,13.0,0.3809523809523809,1203.4371772171603,24881.345865199663,93.0,44.0,49.0,0.4731182795698925,79.24212329079351,8951.582112347103,,,,,111622.0,111655.0,111706.0,111735.0,111767.0,111789.0,111799.0,111820.0,111985.0,112076.0,0.06277821694043105,-0.06910131780987441,0.05581458354092498,-0.06494390825679024,0.00906265452206773
117,117,112486.6432352496,1658.249602451814,12.83458502709139,112580.17805189872,-1522.167823407976,22.93168860777651,112627.6167497578,15691.204320193165,10.857295519664024,112655.49160582904,-17321.616691033472,10.25588651481431,112874.81354265868,7983.617207842348,38.17955403796249,0.9372845111509098,62.0,44.0,125.0,256.0,381.0,18.0,844.0,847.0,18.0,7.0,11.0,0.3888888888888889,109.13654712347194,2055.811016945157,59.0,45.0,14.0,0.7627118644067796,110.30031892135617,755.6932086837669,21.0,13.0,8.0,0.6190476190476191,932.976711851469,12059.930669426189,20.0,8.0,12.0,0.4,1085.040885700315,22734.465102972805,95.0,47.0,48.0,0.4947368421052631,91.41937042002183,8583.95935599715,,,,,112480.0,112498.0,112542.0,112593.0,112615.0,112636.0,112647.0,112667.0,112829.0,112923.0,0.06581430621910447,-0.0724626530827627,0.059458579011096815,-0.06264085535745552,0.01145087095736756
118,118,113335.17805195876,2343.99281605163,19.55563053781115,113382.98619030234,-1531.2026872753834,81.78658600063274,113474.85672396015,14607.406331325474,10.56862028142627,113503.19974914168,-16038.232889974122,10.582060258385514,113725.2601729957,7228.307335042022,35.258995971362545,0.929055606867719,34.0,15.0,152.0,252.0,404.0,19.0,852.0,847.0,25.0,7.0,18.0,0.28,118.0394503530713,1231.0685951080218,89.0,27.0,62.0,0.3033707865168539,124.69042931985535,1052.082086136658,20.0,12.0,8.0,0.6,847.2463004786018,10043.868790550494,22.0,9.0,13.0,0.4090909090909091,965.271413838161,20931.029677124563,90.0,43.0,47.0,0.4777777777777778,121.54725130949188,7152.034424590998,,,,,113330.0,113349.0,113364.0,113441.0,113463.0,113483.0,113494.0,113516.0,113683.0,113768.0,0.05035828162302324,-0.08143300057925647,0.05800114553270751,-0.06018564641504707,0.01681545148478185
119,119,122387.60271279929,1419.7907997539517,11.259160198748944,122485.30135639945,-1599.5721620564102,10.191861603454946,122527.10759082396,14056.739549048709,10.253055368156533,122553.79994718102,-15303.01388558029,10.590461927852584,122784.2601729957,6862.725328840083,36.195992200137056,0.9241125553301373,33.0,14.0,149.0,262.0,411.0,19.0,9052.0,9054.0,27.0,13.0,14.0,0.4814814814814814,119.39862076298942,1203.673994849551,76.0,69.0,7.0,0.9078947368421052,111.9888081756016,873.1914155024581,21.0,13.0,8.0,0.6190476190476191,843.7825976196414,9805.609746154843,20.0,9.0,11.0,0.45,990.1396927418964,20322.05283485062,93.0,50.0,43.0,0.5376344086021505,95.00702502716,6833.901137450432,,,,,122383.0,122402.0,122416.0,122491.0,122514.0,122535.0,122545.0,122565.0,122734.0,122827.0,0.08409592510648828,-0.07001172615534193,0.06002690699898074,-0.06470226715764038,0.013843920669227452
120,120,123321.86338344816,1616.9591082271745,16.215235445787123,123397.60271279886,-1335.4069579286074,20.383723206912453,123461.93940261973,14857.714819409375,9.696844255736044,123489.99032738678,-15950.200524194415,9.528340605175462,123715.83551209555,7094.826206769239,38.025634521294165,0.9391818676283128,64.0,25.0,131.0,259.0,390.0,39.0,934.0,933.0,41.0,18.0,23.0,0.4390243902439024,102.73001536483996,1522.516265936846,67.0,38.0,29.0,0.5671641791044776,90.81527990320534,1258.7337980909938,21.0,12.0,9.0,0.5714285714285714,895.4938550330311,11784.819772564872,20.0,9.0,11.0,0.45,1005.193794580962,20068.16381452742,95.0,51.0,44.0,0.5368421052631579,77.2215304735712,7890.79156432631,,,,,123306.0,123345.0,123370.0,123409.0,123450.0,123471.0,123481.0,123501.0,123672.0,123760.0,0.06353284683709325,-0.06800569621418764,0.060271304565840955,-0.0630207622190211,0.010884203252208409
121,121,124241.7788006322,1523.4927107600104,14.674075720317722,124337.45203459916,-951.7026101519132,15.28779240518434,124381.7555404208,15467.139695837504,10.628115956284573,124409.43802420323,-16438.143939285477,9.814216803705865,124632.9111881007,7365.573957935454,38.82778290100686,0.9362998426992062,92.0,60.0,103.0,260.0,363.0,32.0,918.0,919.0,34.0,17.0,17.0,0.5,74.45091336158309,1557.254962303256,30.0,20.0,10.0,0.6666666666666666,108.3160368962728,43.20142225528775,22.0,13.0,9.0,0.5909090909090909,916.926249531862,12013.763648207016,20.0,8.0,12.0,0.4,1050.4983115865848,21623.20379424508,101.0,52.0,49.0,0.5148514851485149,87.31272641231993,7973.940260707324,,,,,124226.0,124258.0,124318.0,124346.0,124369.0,124390.0,124401.0,124421.0,124589.0,124681.0,0.04886857208817394,-0.1138129030443482,0.05928221167994131,-0.06390613900611988,0.011854164646361572
122,122,125138.54796540084,1568.131448631549,11.874956414835482,125204.62064090492,-1588.655137099556,38.21948101271652,125275.43932682415,16031.822761420972,10.104408704368195,125303.14892067212,-17068.829667500984,9.960766451609024,125526.37078111728,7445.095514947531,36.0203322849398,0.922764989844864,37.0,19.0,147.0,261.0,408.0,18.0,893.0,896.0,18.0,9.0,9.0,0.5,124.40970336625244,1304.696237032357,62.0,40.0,22.0,0.6451612903225806,88.1683112601444,1469.069223842975,21.0,12.0,9.0,0.5714285714285714,922.6809638615176,12767.27909659017,20.0,9.0,11.0,0.45,1095.5974070637328,22189.02260544895,85.0,36.0,49.0,0.4235294117647059,70.14604491083024,8101.176658881032,,,,,125130.0,125148.0,125167.0,125225.0,125263.0,125284.0,125294.0,125314.0,125491.0,125575.0,0.07933627214403502,-0.05549871032495782,0.057553091597410864,-0.06418702561369793,0.009421779045009954
123,123,126020.24910514084,1673.371921064315,10.59997151378507,126119.30135639945,-1469.0442448476988,10.191861603456228,126160.8881953872,16906.69347320847,10.13816213709498,126188.2120077366,-17655.729331071503,9.80044584175903,126410.98619029528,7932.228523555556,37.35566957002253,0.9331957870639486,94.0,77.0,93.0,259.0,352.0,17.0,886.0,883.0,17.0,8.0,9.0,0.4705882352941176,95.134658119313,1768.8695060981745,76.0,69.0,7.0,0.9078947368421052,120.4987485858808,809.1385720382905,21.0,12.0,9.0,0.5714285714285714,1003.2844997148936,12917.074721417472,20.0,9.0,11.0,0.45,1169.9975207409575,23272.963494989526,98.0,50.0,48.0,0.5102040816326531,91.11013168192922,8536.686862561304,,,,,126012.0,126029.0,126106.0,126125.0,126149.0,126170.0,126179.0,126199.0,126363.0,126458.0,0.056852070314891194,-0.08202526847540481,0.05934244335267381,-0.06626730047803422,0.011486069950124161
124,124,126907.39728720114,2369.0621255389465,14.85041853008538,126977.23279930478,-1474.5945015557345,58.603204219873206,127045.66130699,18362.999467132104,10.810094811729847,127072.66487620464,-18302.040052358087,9.664024399934869,127295.98619030352,8285.296146035304,37.40959057017639,0.9395684554814724,54.0,32.0,134.0,259.0,393.0,22.0,882.0,885.0,31.0,18.0,13.0,0.5806451612903226,89.27877181984486,1503.8740638353756,77.0,44.0,33.0,0.5714285714285714,65.95786638274214,1385.1576705260666,22.0,13.0,9.0,0.5909090909090909,1031.403135157305,13367.749358402303,20.0,9.0,11.0,0.45,1207.0937181889244,23701.804473592252,98.0,49.0,49.0,0.5,82.44245429287473,8656.402115845252,,,,,126896.0,126918.0,126950.0,127010.0,127033.0,127055.0,127064.0,127084.0,127249.0,127343.0,0.03768528096304546,-0.04472949432074711,0.05616746528819606,-0.06595405292173422,0.009950453531142066
125,125,127787.76065286357,2613.174206751146,20.61410956794703,127846.98619029528,-1496.1521973258505,84.08285763877046,127929.02824578038,19342.994860298288,11.171999761163596,127954.4536082567,-18910.02638024807,9.837337795009535,128184.10949479598,8417.109312441171,35.812567678204175,0.932346450924525,40.0,20.0,147.0,258.0,405.0,20.0,886.0,884.0,23.0,9.0,14.0,0.391304347826087,109.4606952373187,1793.696110646653,77.0,29.0,48.0,0.3766233766233766,81.62168849696378,1727.414902823461,22.0,13.0,9.0,0.5909090909090909,1095.9700977595242,13471.252217935637,19.0,7.0,12.0,0.3684210526315789,1321.5889298014254,26685.52668401374,95.0,53.0,42.0,0.5578947368421052,73.72851548474206,8376.638739442158,,,,,127779.0,127799.0,127819.0,127894.0,127916.0,127938.0,127947.0,127966.0,128133.0,128224.0,0.04188802068936949,-0.05455440204736551,0.056659793670783366,-0.06988826473462002,0.008759362953236847
126,126,128686.82266145504,1897.1178642828536,12.060620633037368,128780.17805189872,-1822.5808042117287,22.93168860777629,128828.6813392614,19443.13387105459,10.590804313433368,128854.99257890882,-19138.29877494659,9.626411647093354,129080.83551209555,8926.713116855786,37.30826394873431,0.9437603423702664,63.0,38.0,126.0,259.0,385.0,25.0,900.0,901.0,30.0,15.0,15.0,0.5,126.8525614158346,1916.3783796403725,55.0,41.0,14.0,0.7454545454545455,115.9138155565224,1051.9705567116314,22.0,13.0,9.0,0.5909090909090909,1131.2332677040276,14418.335145256551,19.0,8.0,11.0,0.4210526315789473,1320.674528891959,25718.522022047993,93.0,48.0,45.0,0.5161290322580645,98.87994906536105,9404.383425114958,,,,,128677.0,128702.0,128740.0,128793.0,128816.0,128838.0,128847.0,128866.0,129033.0,129125.0,0.0668659358514803,-0.06359872510928559,0.058181632405880764,-0.06900689264088702,0.011076859732240287
127,127,129579.4067593669,2129.1248340777393,12.650714734884572,129664.054747398,-1512.1489626597197,35.6715156120968,129720.54167826015,19987.76918803126,11.17739502427904,129745.53987969196,-19521.71387294134,10.181753250740986,129968.64165905848,8832.1579368418,37.51859076576878,0.9427472729640792,45.0,18.0,149.0,258.0,407.0,27.0,887.0,891.0,30.0,15.0,15.0,0.5,104.73885055382172,2074.8113603641964,77.0,56.0,21.0,0.7272727272727273,71.53310459462021,1575.0249905446185,22.0,14.0,8.0,0.6363636363636364,1180.1995772943512,13037.525269057032,20.0,8.0,12.0,0.4,1301.4572353221954,25942.97036375135,93.0,46.0,47.0,0.4946236559139785,89.04213822726251,9515.039981200258,,,,,129564.0,129591.0,129609.0,129684.0,129707.0,129729.0,129738.0,129758.0,129923.0,130016.0,0.049193381654951594,-0.04730559380128833,0.05904608794467461,-0.06666716067005364,0.01008158355681558
128,128,130461.45203459916,2423.4990124415353,14.904579881923189,130537.50678199712,-1855.091558585358,50.95930801728114,130601.78343791504,20412.078263614927,11.186411746911606,130626.88914560436,-19689.783631159014,10.319924605482475,130849.98619029528,8467.726954420195,37.54323449840173,0.9419128910893072,64.0,36.0,133.0,258.0,391.0,28.0,887.0,882.0,32.0,20.0,12.0,0.625,102.71059549046736,1263.462822761653,60.0,32.0,28.0,0.5333333333333333,59.09681297526883,1982.3754170046789,21.0,13.0,8.0,0.6190476190476191,1176.5769710347188,13547.561423918689,20.0,8.0,12.0,0.4,1310.9393415144286,26816.084433098607,95.0,47.0,48.0,0.4947368421052631,89.00878883546002,9162.23829057999,,,,,130442.0,130470.0,130506.0,130566.0,130589.0,130610.0,130619.0,130639.0,130809.0,130897.0,0.042381117121641554,-0.03185654783547959,0.0576412139831934,-0.06657967228445678,0.010511532707014956
129,129,131333.34752765385,2687.5061114721684,18.39357581740009,131396.109494796,-1430.726209963118,71.34303121341506,131471.7715515546,19255.916511050946,10.846958638041016,131498.157417294,-18614.60329897332,10.117715011112002,131722.83551209557,8607.878522459652,36.9978733959895,0.9309442441882824,46.0,14.0,149.0,257.0,406.0,32.0,870.0,869.0,32.0,18.0,14.0,0.5625,105.53126249997696,1727.0081441491193,75.0,35.0,40.0,0.4666666666666667,51.843524622347765,1520.3891778161633,21.0,13.0,8.0,0.6190476190476191,1114.2533030823265,13730.665272171169,20.0,8.0,12.0,0.4,1244.645794117315,25619.369790852,94.0,49.0,45.0,0.5212765957446809,91.20507232050744,8872.211665353203,,,,,131315.0,131347.0,131361.0,131436.0,131459.0,131480.0,131490.0,131510.0,131678.0,131767.0,0.03926735721622929,-0.03623581105967452,0.05786550343853319,-0.06686394408340482,0.010595534321556167
130,130,132217.86652810944,1717.7549974481085,13.032675742788584,132312.75339099858,-1523.7331659618,25.47965400864057,132361.8595655255,21499.302221155813,11.716758329092633,132383.9252053103,-20575.783618639132,11.11594671279517,132609.05962565658,8561.003994455123,37.0176176643273,0.936856090613252,105.0,68.0,92.0,260.0,352.0,37.0,888.0,889.0,41.0,21.0,20.0,0.5121951219512195,73.67361012540577,1336.1848362956284,79.0,64.0,15.0,0.810126582278481,95.644048296005,655.2981583949152,23.0,15.0,8.0,0.6521739130434783,1238.6835925456412,10268.391531506502,19.0,6.0,13.0,0.3157894736842105,1376.8355373328343,27540.425635995896,94.0,46.0,48.0,0.4893617021276595,82.401244628394,8935.46496405455,,,,,132200.0,132237.0,132305.0,132327.0,132347.0,132369.0,132378.0,132397.0,132566.0,132657.0,0.04288947506184238,-0.06276955206631159,0.05761506023794334,-0.06691533906322725,0.009625184695832926
131,131,133104.91681872556,3157.839503352787,21.201718951085965,133162.56152939718,-2086.944144260932,86.63082362807546,133246.52464551397,21461.320181696556,11.602310981425,133270.26434115483,-20131.7352045012,10.54701511981656,133500.68483389585,8716.247011972226,33.739782339028075,0.9337857109311912,48.0,18.0,149.0,259.0,408.0,30.0,885.0,885.0,34.0,19.0,15.0,0.5588235294117647,90.37761600468002,1397.3613766915078,77.0,29.0,48.0,0.3766233766233766,74.53826222846273,2316.828807577921,22.0,14.0,8.0,0.6363636363636364,1232.21932971009,11294.293068163886,20.0,7.0,13.0,0.35,1366.1775519696346,28541.037528342116,92.0,51.0,41.0,0.5543478260869565,85.35914560915043,8648.331520548625,,,,,133086.0,133116.0,133134.0,133211.0,133233.0,133255.0,133263.0,133283.0,133450.0,133542.0,0.028620078983977178,-0.03571646248101174,0.057415821546756354,-0.06786188761633297,0.009793107686359178
132,132,133983.45203459918,2333.2410725330924,15.28779240518434,134050.25071904712,-1584.6647926174974,56.055238819009254,134121.40818803673,19257.284839799268,11.123506302009924,134147.0901036806,-19242.88083537345,10.851329814581776,134368.3568817675,8241.12586980498,36.63117424782482,0.9355988988519012,60.0,38.0,130.0,255.0,385.0,22.0,879.0,875.0,29.0,18.0,11.0,0.6206896551724138,111.41347845539909,1232.6209238375584,59.0,24.0,35.0,0.4067796610169492,77.33276694130963,1593.0344527374834,21.0,12.0,9.0,0.5714285714285714,1093.5002017160905,13470.13166509726,21.0,8.0,13.0,0.3809523809523809,1231.4583058182188,26029.252904669775,98.0,48.0,50.0,0.4897959183673469,108.82706967025824,8399.084667508881,,,,,133970.0,133992.0,134030.0,134085.0,134109.0,134130.0,134139.0,134160.0,134323.0,134415.0,0.04775052169574685,-0.048800709968178126,0.05678371643837039,-0.0639955272993468,0.013205364338505552
133,133,134814.8705996283,1578.9176368330195,10.04351926490028,134911.7260172996,-1756.6990314173502,7.64389620259217,134952.30635313608,15834.969367994969,10.009202693610517,134980.22648080532,-17091.9723028376,10.638214225549898,135204.68483389585,7786.949366162457,36.41126415531853,0.9282813319381048,92.0,69.0,95.0,253.0,348.0,23.0,831.0,831.0,24.0,10.0,14.0,0.4166666666666667,108.12409665033024,1634.4346752499073,20.0,15.0,5.0,0.75,137.19138396604927,1372.5693368910518,21.0,12.0,9.0,0.5714285714285714,959.7205496693716,12736.106913045489,22.0,9.0,13.0,0.4090909090909091,1041.8213876728546,21883.97711889132,94.0,50.0,44.0,0.5319148936170213,75.97939867057782,7758.803612027079,,,,,134806.0,134829.0,134898.0,134916.0,134940.0,134960.0,134971.0,134993.0,135157.0,135246.0,0.06847988402181934,-0.0780961231904134,0.060607666953187915,-0.060953842494812144,0.0097572740103769
134,134,138101.67126974792,993.955372441646,21.40520025718825,138171.69864360054,-910.417172486858,10.191861603456228,138251.0736018382,13604.360372491776,10.09889954631734,138279.3702118124,-15421.10554304623,9.487798438782637,138498.10843978,6755.634901960443,40.0770226796781,0.9456180539935288,84.0,58.0,124.0,256.0,380.0,26.0,3280.0,3299.0,28.0,21.0,7.0,0.75,68.31629646045333,1068.9778501684525,21.0,10.0,11.0,0.4761904761904761,122.38096502694836,932.4383810354428,21.0,12.0,9.0,0.5714285714285714,796.5030927699562,10918.3839163864,20.0,9.0,11.0,0.45,986.7261698603884,19838.01075883642,97.0,48.0,49.0,0.4948453608247423,102.47555676018848,7347.003195721354,,,,,138082.0,138108.0,138166.0,138182.0,138240.0,138260.0,138270.0,138290.0,138456.0,138546.0,0.06873175431673026,-0.13442295326290646,0.058547632594362735,-0.06398543652438254,0.015168900961544076
135,135,139061.02737370026,947.4238780375882,17.835757805750823,139090.3013564156,-1378.601630652434,10.19186160345596,139192.08585924856,14544.16022279363,9.72813944529013,139220.34236974618,-15016.41844977596,8.923439082417845,139445.41085119543,7632.884422678429,40.85173554606603,0.9353012909387208,23.0,8.0,151.0,261.0,412.0,15.0,967.0,941.0,57.0,42.0,15.0,0.7368421052631579,94.04078809110813,571.2923414464606,26.0,12.0,14.0,0.4615384615384615,112.8913801173999,1438.909241317203,21.0,12.0,9.0,0.5714285714285714,820.7928653568798,12331.189750946956,18.0,8.0,10.0,0.4444444444444444,1008.4758141284746,19611.976753869894,105.0,58.0,47.0,0.5523809523809524,106.58224456697188,7799.86061943556,,,,,139056.0,139071.0,139079.0,139096.0,139180.0,139201.0,139212.0,139230.0,139394.0,139491.0,0.0992594658748691,-0.08188832626287637,0.05643453130216016,-0.06715821202648496,0.013963560649536402
136,136,139976.50154119704,1739.5831653755836,15.875427134171202,140038.4608378211,-1046.46035294798,15.28779240518434,140117.49747579545,15217.04462467662,9.76499886781459,140146.32874036147,-16274.923997397116,9.10452240775349,140367.38518590617,7800.974326040096,38.855928167230296,0.9402844843715092,60.0,26.0,135.0,259.0,394.0,34.0,912.0,925.0,35.0,16.0,19.0,0.4571428571428571,88.87972701090115,2012.4546849297733,22.0,16.0,6.0,0.7272727272727273,86.39686076056154,1224.768254107653,22.0,12.0,10.0,0.5454545454545454,834.2198429191299,13183.926102527344,20.0,9.0,11.0,0.45,1053.6827292581968,20674.034948797736,92.0,42.0,50.0,0.4565217391304347,99.5727057720542,8548.304908450407,,,,,139962.0,139996.0,140022.0,140044.0,140105.0,140127.0,140137.0,140157.0,140327.0,140416.0,0.051092542615926974,-0.08256104544923581,0.05482141003689525,-0.0647427127418054,0.01276413709498759
