Unnamed: 0,cycle,p_center,p_height,p_width,q_center,q_height,q_width,r_center,r_height,r_width,s_center,s_height,s_width,t_center,t_height,t_width,r_squared,pr_interval,pr_segment,qrs_duration,st_segment,qt_interval,p_duration,pp_interval,rr_interval,fwhm_p,rise_time_p,decay_time_p,rise_decay_symmetry_p,sharpness_deriv_p,sharpness_diff_p,fwhm_q,rise_time_q,decay_time_q,rise_decay_symmetry_q,sharpness_deriv_q,sharpness_diff_q,fwhm_r,rise_time_r,decay_time_r,rise_decay_symmetry_r,sharpness_deriv_r,sharpness_diff_r,fwhm_s,rise_time_s,decay_time_s,rise_decay_symmetry_s,sharpness_deriv_s,sharpness_diff_s,fwhm_t,rise_time_t,decay_time_t,rise_decay_symmetry_t,sharpness_deriv_t,sharpness_diff_t,Average_Heart_Rate,SDNN,RMSSD,NN50,p_on,p_off,q_on,q_off,r_on,r_off,s_on,s_off,t_on,t_off,sharpness_deriv_p_norm,sharpness_deriv_q_norm,sharpness_deriv_r_norm,sharpness_deriv_s_norm,sharpness_deriv_t_norm
0,0,0.0,0.0,0.0,0.0,0.0,0.0,0.0,0.0,0.0,0.0,0.0,0.0,0.0,0.0,0.0,0.0,0.0,0.0,0.0,0.0,0.0,0.0,0.0,0.0,0.0,0.0,0.0,0.0,0.0,0.0,0.0,0.0,0.0,0.0,0.0,0.0,0.0,0.0,0.0,0.0,0.0,0.0,0.0,0.0,0.0,0.0,0.0,0.0,0.0,0.0,0.0,0.0,0.0,0.0,57.09036377218632,291.3780956198694,392.3396157159641,240.0,,,,,,,,,,,,,,,
1,1,2753.1506781997123,3145.510221075078,5.095930801728113,2849.726017465156,-5718.827494614534,7.64389620259217,2910.185191565316,27488.91238056797,8.659685724478571,2925.1506781997123,-9336.578009871866,4.309483659103178,3182.8434533726527,9785.388796611163,34.412775289620996,0.8342569794760067,89.0,85.0,87.0,294.0,381.0,4.0,,,4.0,1.0,3.0,0.25,788.8396170103662,3379.3021894511367,20.0,16.0,4.0,0.8,871.0143297514747,4702.561450915851,18.0,10.0,8.0,0.5555555555555556,1834.2282158980563,24043.58477771328,9.0,2.0,7.0,0.2222222222222222,1651.176729741902,18317.094937140373,87.0,40.0,47.0,0.4597701149425287,871.5900112571676,8268.32745470503,0.0,0.0,0.0,0.0,2752.0,2756.0,2841.0,2854.0,2900.0,2918.0,2924.0,2928.0,3151.0,3222.0,0.25078272253738065,-0.15230645277755203,0.06672611089533975,-0.1768503115377025,0.0890705550257761
2,2,3815.178051898704,4271.424606486397,19.216837200745022,3909.150678199712,-3895.380890173219,5.095930801728113,3987.919406430897,28395.714585581612,11.078565778730855,4001.150678199712,-14853.417483858855,4.682702511333491,4259.2352444857615,10812.018947447265,39.414965053952635,0.8768116204312356,96.0,78.0,98.0,303.0,401.0,18.0,1065.0,1076.0,39.0,25.0,14.0,0.6410256410256411,804.4313584478205,2249.740166767534,6.0,3.0,3.0,0.5,756.1267081180464,3495.630921984698,19.0,12.0,7.0,0.631578947368421,1990.1107101764844,23547.65501425381,4.0,1.0,3.0,0.25,1612.996727272857,18510.962058507725,87.0,38.0,49.0,0.4367816091954023,814.4537012198591,11314.92661800814,0.0,0.0,0.0,0.0,3810.0,3828.0,3906.0,3912.0,3977.0,3995.0,4000.0,4004.0,4229.0,4307.0,0.18832858649225517,-0.19410854276805345,0.07008489623244049,-0.10859431703348361,0.07532854919868162
3,3,4932.328730098417,5200.964679351839,22.400112249361815,5039.495449725811,-2653.4687765138187,5.095930801728113,5097.20959301297,28439.459541395467,9.15768392135548,5158.5753391283,-1631.840931906212,-0.3893180098762798,5374.986190295249,12243.25192023916,41.16860309912839,0.8962126848312868,129.0,89.0,123.0,262.0,385.0,40.0,1118.0,1111.0,54.0,32.0,22.0,0.5925925925925926,735.7940863675877,2957.7485928050423,4.0,2.0,2.0,0.5,758.1533846844322,3959.6934774611927,18.0,9.0,9.0,0.5,1723.300570500128,28959.52173590116,3.0,2.0,1.0,0.6666666666666666,773.2433365453156,2743.9634711670747,91.0,41.0,50.0,0.4505494505494505,857.241052247686,13617.565124490093,0.0,0.0,0.0,0.0,4908.0,4948.0,5037.0,5041.0,5088.0,5106.0,5154.0,5160.0,5339.0,5422.0,0.14147261743359596,-0.28572161519100653,0.060595405056546627,-0.47384724909557346,0.07001743146611171
4,4,6008.849321800287,3311.5733163641785,5.095930801728113,6098.953144677278,-5832.42499467631,22.93168860777651,6175.724848022143,27052.31754703648,7.991668722483787,6205.610299678541,-5044.27081673456,0.9107288472249429,6459.356103797409,10756.944998328489,32.03453222671452,0.8621755146096575,82.0,78.0,119.0,278.0,397.0,4.0,1071.0,1079.0,11.0,3.0,8.0,0.2727272727272727,753.374525186951,3151.457400675429,40.0,31.0,9.0,0.775,848.5002955859788,4066.804555169938,17.0,9.0,8.0,0.5294117647058824,1887.786129185928,26601.78538521932,3.0,2.0,1.0,0.6666666666666666,1122.828803636123,5982.238419987272,71.0,34.0,37.0,0.4788732394366197,935.4049450259696,12228.88473754832,0.0,0.0,0.0,0.0,6006.0,6010.0,6088.0,6107.0,6167.0,6184.0,6204.0,6207.0,6425.0,6485.0,0.22749746214711355,-0.14547984695224858,0.06978278758940307,-0.22259486939343062,0.08695823444029148
5,5,7069.178051898705,5015.651289263965,17.620579975948353,7163.575339099857,-3531.2995870791915,1.2631535616300829,7223.027373698993,30402.407973146488,8.608955171214236,7286.18108785566,2662.8353005936906,0.975455706478688,7495.029422775153,12600.913223432764,45.284844387956205,0.8710474980418,97.0,78.0,129.0,253.0,382.0,19.0,1065.0,1050.0,20.0,5.0,15.0,0.25,908.641373390387,3507.701721139896,4.0,3.0,1.0,0.75,871.0940814077716,3540.721629356437,20.0,10.0,10.0,0.5,1813.59997471418,26829.37045841627,4.0,2.0,2.0,0.5,795.9263188696427,2650.4383182260754,110.0,51.0,59.0,0.4636363636363636,982.230789392222,11066.3058205259,0.0,0.0,0.0,0.0,7064.0,7083.0,7161.0,7165.0,7214.0,7233.0,7264.0,7290.0,7463.0,7543.0,0.18116119342972267,-0.24667804583758665,0.05965316879886873,0.298901820436355,0.07794917495072162
6,6,8147.178051898705,4791.604053642164,18.270712219715907,8221.575339099858,-2883.0719624259273,2.547965400858201,8296.70675109374,28473.650148879387,9.443156705169804,8313.575339099858,-7045.0344043139585,2.5479654008640567,8573.258425663178,11944.18769008152,40.46463871273626,0.8900927674767103,77.0,59.0,96.0,304.0,400.0,18.0,1078.0,1072.0,39.0,25.0,14.0,0.6410256410256411,821.9614612837115,3313.0213265696016,4.0,3.0,1.0,0.75,782.0907335477898,4147.82568273304,18.0,9.0,9.0,0.5,1917.3370952656176,27322.496923532904,3.0,2.0,1.0,0.6666666666666666,1643.2776381584004,17750.852813811052,93.0,45.0,48.0,0.4838709677419355,787.1276017478879,10645.337222115832,0.0,0.0,0.0,0.0,8142.0,8160.0,8219.0,8223.0,8288.0,8306.0,8312.0,8315.0,8541.0,8619.0,0.17154202477538336,-0.27126993142748634,0.06733724286280439,-0.23325331628645493,0.06590047160775281
7,7,9221.150678199714,5115.028219618004,5.095930801728113,9319.575339099858,-2691.764731020625,2.5479654008640567,9370.220435316613,29541.892950126763,8.495121426826469,9399.575339099858,-2298.6018246465624,0.4316294266935032,9650.10949479597,11543.935132356946,38.87254084146653,0.8333692983189641,97.0,91.0,84.0,289.0,373.0,6.0,1071.0,1075.0,27.0,21.0,6.0,0.7777777777777778,762.022683163895,3214.8937375526853,4.0,3.0,1.0,0.75,712.7043693690064,3163.681452184124,19.0,9.0,10.0,0.4736842105263157,1688.068151478328,27285.51503617372,3.0,2.0,1.0,0.6666666666666666,1016.987966287898,2039.848089678389,98.0,50.0,48.0,0.5102040816326531,799.428022494656,10871.000490498234,0.0,0.0,0.0,0.0,9220.0,9226.0,9317.0,9321.0,9361.0,9380.0,9398.0,9401.0,9619.0,9690.0,0.14897721976220174,-0.2647721627212098,0.057141502554631816,-0.44243763986582235,0.0692509108314294
8,8,10234.150678199714,2684.355010126924,5.095930801728113,10305.309946307172,-6759.980447677644,37.621002694274154,10384.299820714135,25910.543980711976,7.590891460284586,10418.849321800286,-3515.9933522651327,4.713851222027174,10666.698546627242,8887.606435648551,27.21130912053169,0.7873151036452821,37.0,30.0,153.0,277.0,430.0,7.0,1013.0,1013.0,7.0,4.0,3.0,0.5714285714285714,823.6325770610699,129.67981649683202,84.0,37.0,47.0,0.4404761904761904,802.8362035666573,5987.14654479245,17.0,8.0,9.0,0.4705882352941176,1585.5914021151218,25782.84146693191,6.0,5.0,1.0,0.8333333333333334,836.8872248464327,6259.932291729907,66.0,29.0,37.0,0.4393939393939394,829.8632768554814,8042.746710052665,0.0,0.0,0.0,0.0,10230.0,10237.0,10267.0,10352.0,10376.0,10393.0,10415.0,10420.0,10638.0,10697.0,0.30682699343188824,-0.11876309551197999,0.06119483262472024,-0.23802298269627814,0.093373090141218
9,9,11179.849321800286,2895.5828022477986,5.095930801728113,11281.30135639943,-5597.933891468583,10.191861603456228,11343.398964980026,28820.405894206127,7.686636346267632,11375.975809716869,-2874.2529257325164,1.053103618964122,11627.808138396544,11530.032427138498,33.81502322552358,0.8293064657341154,102.0,98.0,99.0,284.0,383.0,4.0,944.0,959.0,6.0,3.0,3.0,0.5,827.1733893650744,3072.068195686877,20.0,2.0,18.0,0.1,798.4575645919123,5404.21894169893,18.0,8.0,10.0,0.4444444444444444,1734.46932072458,27363.544094473426,4.0,2.0,2.0,0.5,835.10998708358,2174.0129755467515,91.0,52.0,39.0,0.5714285714285714,903.5005037387816,9131.571028191753,0.0,0.0,0.0,0.0,11177.0,11181.0,11279.0,11293.0,11336.0,11352.0,11374.0,11378.0,11588.0,11662.0,0.285667323594736,-0.14263433260774752,0.06018198796684077,-0.2905485385809422,0.07836062122533081
10,10,12216.150678199714,2852.778363583626,5.095930801728113,12314.150678199714,-6450.4770505481165,5.095930801728113,12369.560994557602,27355.83935654001,8.449056484527977,12385.150678199714,-8000.0113437296,3.5469565070226636,12648.070032887674,10747.68077933034,33.65480032602169,0.8512120598492297,82.0,78.0,91.0,298.0,389.0,4.0,1038.0,1026.0,6.0,1.0,5.0,0.1666666666666666,807.4763535547612,1522.7210389353856,39.0,36.0,3.0,0.9230769230769232,761.4125888805607,5087.278434212588,17.0,9.0,8.0,0.5294117647058824,1921.2662897384296,24612.27826902126,4.0,1.0,3.0,0.25,1701.4108028512542,19628.139003588163,78.0,34.0,44.0,0.4358974358974359,818.234864635316,13048.0132486133,0.0,0.0,0.0,0.0,12215.0,12219.0,12297.0,12317.0,12361.0,12378.0,12384.0,12388.0,12615.0,12686.0,0.28304910183783755,-0.11803973301724424,0.0702324013786515,-0.21267604878895802,0.07613129580559594
11,11,13274.72601729957,3253.244064229284,7.64389620259217,13372.150678199714,-4929.196914039055,5.095930801728113,13427.004275545669,27568.133695667504,8.571423252419484,13443.150678199714,-6946.836198474397,3.2160091733284344,13704.140293873214,11398.18924263594,37.19299721880273,0.8506750992881825,89.0,83.0,84.0,298.0,382.0,6.0,1059.0,1056.0,6.0,2.0,4.0,0.3333333333333333,802.8045746799446,3700.59964896613,19.0,16.0,3.0,0.8421052631578947,762.302830042026,4030.904995349003,17.0,8.0,9.0,0.4705882352941176,1831.9552399250624,27041.62615439747,4.0,1.0,3.0,0.25,1639.9005952210296,18299.64677253802,93.0,45.0,48.0,0.4838709677419355,875.1986786381777,9502.46329349338,0.0,0.0,0.0,0.0,13273.0,13279.0,13362.0,13375.0,13419.0,13436.0,13442.0,13446.0,13673.0,13744.0,0.24677047243614492,-0.15465051271757455,0.0664519136532251,-0.23606438216884545,0.07678401016228255
12,12,14287.150678199714,1995.868634477769,4.986474118830692,14394.60271279885,-5944.738449390113,20.383723206912453,14437.80674986494,26086.194727787817,8.10478780989565,14471.849321800286,-3597.4091910839943,3.7280179807288336,14725.35610379741,8906.589680668862,27.278441704055844,0.8107127693813575,70.0,64.0,119.0,278.0,397.0,6.0,1012.0,1013.0,6.0,3.0,3.0,0.5,923.8200345661764,1389.6514890025455,87.0,74.0,13.0,0.8505747126436781,783.9430322853365,3452.9726229093435,17.0,8.0,9.0,0.4705882352941176,1626.6366310504438,26115.544573116505,6.0,4.0,2.0,0.6666666666666666,742.2125229945693,6303.756874529887,60.0,34.0,26.0,0.5666666666666667,774.0023765119863,10050.028122997755,0.0,0.0,0.0,0.0,14284.0,14290.0,14354.0,14406.0,14430.0,14447.0,14468.0,14473.0,14702.0,14751.0,0.4628661519138004,-0.13187174489834172,0.06235622512308016,-0.20631862642540286,0.08690221557998849
13,13,15246.150678199714,2359.5088976080924,4.0321693063900605,15330.849321800286,-6705.926424768332,5.095930801728113,15392.77645833016,28525.31128017572,7.40913582914372,15469.654648813872,-3495.492623575358,1.0840750845313816,15668.72500262177,10644.127750880312,36.17808991946277,0.8137633872759089,85.0,78.0,144.0,238.0,382.0,7.0,959.0,953.0,7.0,4.0,3.0,0.5714285714285714,1020.8954019362386,3051.8502427743606,73.0,44.0,29.0,0.6027397260273972,910.398218318064,4433.481881914756,16.0,8.0,8.0,0.5,1870.3201889404415,27889.243920550944,3.0,2.0,1.0,0.6666666666666666,862.155000754449,3506.131849813313,86.0,39.0,47.0,0.4534883720930232,827.3430840663165,10084.1973481379,0.0,0.0,0.0,0.0,15242.0,15249.0,15327.0,15332.0,15385.0,15401.0,15468.0,15471.0,15637.0,15709.0,0.4326728341525442,-0.13576024558747157,0.06556703871064365,-0.2466476384300292,0.07772765448046148
14,14,17268.150678199716,4657.643629454407,5.095930801728113,17357.30135639943,-4212.329885397941,10.191861603456228,17415.08262955731,29293.45217362716,7.756331440425476,17446.575339099858,-2809.59918976405,1.0422370613611394,17697.109494795972,11800.74975735641,39.8291411996459,0.8325281119694318,83.0,79.0,98.0,289.0,387.0,4.0,2022.0,2023.0,27.0,21.0,6.0,0.7777777777777778,846.6891457672721,2877.089051393354,19.0,7.0,12.0,0.3684210526315789,911.1600210156824,3196.584597295367,18.0,8.0,10.0,0.4444444444444444,1833.6512501684376,27595.509599463418,4.0,3.0,1.0,0.75,831.0067728984664,720.9670397885388,99.0,51.0,48.0,0.5151515151515151,805.644699111939,11200.525099473636,0.0,0.0,0.0,0.0,17267.0,17271.0,17350.0,17363.0,17407.0,17425.0,17444.0,17448.0,17658.0,17737.0,0.18178487087610276,-0.21630785000344402,0.06259594257788675,-0.29577413601413166,0.06827063666948044
15,15,19166.775440637583,5305.688646199022,7.64389620259217,19263.456033803704,-3159.058347271815,5.095930801728113,19323.027373698995,29843.190652062403,8.631078855391449,19355.575339099854,-1399.446213829471,0.5935817679113599,19594.960405218415,11511.674809200009,43.63188253676362,0.860602292174645,97.0,85.0,96.0,286.0,382.0,12.0,1898.0,1910.0,12.0,3.0,9.0,0.25,757.0708709232966,4797.650593452162,5.0,2.0,3.0,0.4,767.6051491115918,2536.5423915595784,19.0,9.0,10.0,0.4736842105263157,1685.749106319348,28510.656925118757,3.0,2.0,1.0,0.6666666666666666,829.4317588932878,1130.6609148711457,106.0,51.0,55.0,0.4811320754716981,847.1289025836285,9803.265506253356,0.0,0.0,0.0,0.0,19164.0,19176.0,19261.0,19266.0,19314.0,19333.0,19354.0,19357.0,19563.0,19643.0,0.14269040673271693,-0.24298542943168525,0.05648689263736112,-0.5926857000267378,0.07358867555106856
16,16,21243.849321800284,5420.569439356228,5.095930801728113,21340.150678199716,-4990.900648836295,5.095930801728113,21392.78876256758,27707.13065458229,7.806976327191972,21426.512000455405,-2442.471644959303,1.4767758361752612,21673.27444242619,10887.597576025091,36.454619400938576,0.8678875287976753,83.0,72.0,105.0,283.0,388.0,11.0,2076.0,2068.0,11.0,3.0,8.0,0.2727272727272727,838.0875450435994,3822.500746120206,19.0,16.0,3.0,0.8421052631578947,772.0388577639231,4342.604468647271,18.0,9.0,9.0,0.5,1719.7750769259453,24074.400240046703,5.0,3.0,2.0,0.6,926.6018133679776,2299.6121636167354,79.0,33.0,46.0,0.4177215189873418,839.9676505590857,11152.859820156744,0.0,0.0,0.0,0.0,21241.0,21252.0,21324.0,21343.0,21385.0,21402.0,21424.0,21429.0,21640.0,21712.0,0.15461245435924803,-0.154689285979663,0.06206976458031476,-0.3793705508435562,0.077149035376613
17,17,23218.72601729957,4613.94902254107,7.643896202588674,23292.378724474085,-4316.033863395327,22.931688607774987,23365.65466817543,28429.392475414006,7.683618708413017,23396.983170648116,-3688.420686281664,1.5095125991541285,23647.109494795972,10447.563012126298,36.74364195800925,0.8529300552345682,63.0,56.0,119.0,288.0,407.0,7.0,1977.0,1973.0,20.0,15.0,5.0,0.75,748.8531208851649,4871.0436224089935,20.0,12.0,8.0,0.6,797.5311469166231,2461.940444259649,17.0,8.0,9.0,0.4705882352941176,1806.8975082567952,25913.173828710795,4.0,2.0,2.0,0.5,854.8955558339786,2488.88035233702,84.0,43.0,41.0,0.5119047619047619,857.9962986782795,10815.493373540989,0.0,0.0,0.0,0.0,23217.0,23224.0,23280.0,23299.0,23358.0,23375.0,23395.0,23399.0,23617.0,23687.0,0.16230199276730287,-0.1847833386296055,0.06355737322981546,-0.2317782131017728,0.0821240606716053
18,18,24240.753390998565,6258.058117867435,23.183586210828032,24315.857994143294,-3718.132126355788,0.7707522874625241,24392.56019911231,29682.51338451827,8.881011034862837,24456.254067009097,-11263.28593843075,0.1123470771885574,24665.840786628112,11846.136717041238,48.6214274295249,0.8672098501862501,99.0,60.0,160.0,240.0,400.0,39.0,1025.0,1026.0,39.0,25.0,14.0,0.6410256410256411,846.8483429390247,4534.568230082963,2.0,1.0,1.0,0.5,984.032194470968,3811.438753902863,18.0,9.0,9.0,0.5,1930.6097571329965,27440.24955915733,2.0,1.0,1.0,0.5,841.3684962770893,1450.5530665327717,100.0,44.0,56.0,0.44,1003.9350177193774,11804.27384422792,0.0,0.0,0.0,0.0,24216.0,24255.0,24315.0,24317.0,24384.0,24402.0,24455.0,24475.0,24636.0,24715.0,0.1353212653173004,-0.2646576724629301,0.06504199061997085,-0.07470009204030847,0.08474788377844471
19,19,26213.72601729957,5585.910918669476,7.64389620259217,26311.150678199716,-3699.829410899647,5.095930801728113,26365.14956616648,29476.3345633924,7.953829759156269,26431.575339099854,-2490.4465624848112,0.9565706741242372,26642.510554901408,10654.498662602142,38.659971181560024,0.8600187710270693,97.0,90.0,124.0,251.0,375.0,7.0,1970.0,1973.0,18.0,9.0,9.0,0.5,752.3594825302848,5637.336189096783,13.0,10.0,3.0,0.7692307692307693,739.9969510113419,3512.1352684816165,18.0,8.0,10.0,0.4444444444444444,1802.0874243421576,27022.15156887886,3.0,2.0,1.0,0.6666666666666666,752.8328027647639,2772.7575870606343,99.0,51.0,48.0,0.5151515151515151,859.0267589532341,9311.095499347017,0.0,0.0,0.0,0.0,26212.0,26219.0,26309.0,26314.0,26357.0,26375.0,26430.0,26433.0,26612.0,26684.0,0.1346887720704095,-0.20000839736862489,0.061136754316129506,-0.3022882779759926,0.08062573248692252
20,20,28380.753390998565,5704.812664132499,21.27774253711917,28468.575339099854,-2632.2377758930397,0.9765133036953484,28531.327155136256,28441.021219903538,9.313580447567336,28594.976809571683,-622.7683238210253,0.0658379868081796,28817.684833895823,12236.26127592317,40.85991983549689,0.8974779895935615,97.0,71.0,130.0,263.0,393.0,26.0,2170.0,2165.0,51.0,32.0,19.0,0.6274509803921569,847.7749061275003,3772.66942522548,4.0,3.0,1.0,0.75,839.3071427512823,2062.949570919317,19.0,9.0,10.0,0.4736842105263157,1724.13105170604,29851.98796746783,2.0,1.0,1.0,0.5,784.5858262666078,549.601791382061,92.0,50.0,42.0,0.5434782608695652,886.0135968589838,12836.596127556182,0.0,0.0,0.0,0.0,28369.0,28395.0,28466.0,28470.0,28522.0,28541.0,28593.0,28596.0,28772.0,28859.0,0.14860696679097998,-0.31885688688079494,0.06062127792019866,-1.2598357948791348,0.07240884914760355
21,21,30467.485722944453,4890.874498660746,7.64389620259217,30544.150678199716,-3498.311904663064,5.095930801728113,30618.354898688096,29179.514357804543,8.113411498942533,30650.61643883884,-2495.6660213229165,1.368499533525716,30898.715365131833,11347.511884677318,37.76463931101709,0.8772191264622656,77.0,66.0,111.0,290.0,401.0,11.0,2083.0,2088.0,12.0,2.0,10.0,0.1666666666666666,742.3491622912296,5528.4414246433635,8.0,5.0,3.0,0.625,749.19693099205,3212.7036251939458,19.0,9.0,10.0,0.4736842105263157,1783.3101628694014,27065.421967133923,5.0,3.0,2.0,0.6,997.6241149152116,543.6438540788273,87.0,42.0,45.0,0.4827586206896552,837.7747545212244,13140.787633345371,0.0,0.0,0.0,0.0,30465.0,30476.0,30542.0,30547.0,30610.0,30628.0,30648.0,30653.0,30865.0,30943.0,0.15178250075615413,-0.2141595579266132,0.06111514197947663,-0.39974263639106067,0.0738289382761063
22,22,31574.876695499283,3355.178447439803,12.739827004320285,31663.849321800284,-4171.221067655938,5.095930801728113,31725.57384456107,28327.79622562916,8.301482206553635,31742.575339099854,-6420.34210447899,1.4327750209760175,32006.260172995684,11131.683143221202,37.32407379185658,0.8759099400315568,90.0,78.0,84.0,305.0,389.0,12.0,1109.0,1107.0,20.0,12.0,8.0,0.6,803.9395313023508,877.573813564366,37.0,24.0,13.0,0.6486486486486487,707.0734764530894,2294.1430807210945,17.0,9.0,8.0,0.5294117647058824,1896.1763117668231,27407.151317536685,3.0,2.0,1.0,0.6666666666666666,1656.3379915403953,18017.190689116553,84.0,37.0,47.0,0.4404761904761904,758.9707345628682,11327.44277208832,0.0,0.0,0.0,0.0,31570.0,31582.0,31660.0,31665.0,31717.0,31734.0,31741.0,31744.0,31970.0,32049.0,0.23961155685051672,-0.16951234781963662,0.06693695113675258,-0.2579828246823316,0.06818112991520553
23,23,32682.72601729957,4146.987411617992,7.64389620259217,32771.726017299574,-3895.706724125759,7.64389620259217,32830.081898963035,28018.416525956705,8.103268805099498,32860.89490225412,-2895.8886669934473,0.9281259924192272,33111.070154202476,11385.72673740432,37.274254186228085,0.8700011506116182,89.0,82.0,93.0,289.0,382.0,7.0,1107.0,1105.0,7.0,2.0,5.0,0.2857142857142857,771.610806631167,5345.863676786157,14.0,8.0,6.0,0.5714285714285714,812.2684885596392,3939.6690887204113,18.0,8.0,10.0,0.4444444444444444,1719.8186094173934,26159.48073656119,4.0,2.0,2.0,0.5,891.6375874818968,2298.7696381417236,92.0,44.0,48.0,0.4782608695652174,850.6056706398218,11320.663320949,0.0,0.0,0.0,0.0,32681.0,32688.0,32770.0,32777.0,32822.0,32839.0,32859.0,32863.0,33081.0,33152.0,0.18606538434851788,-0.2085035004122189,0.06138172040608099,-0.3078977440136218,0.07470807004751108
24,24,33722.849321800284,2502.590520537139,5.095930801727617,33819.150678199716,-7321.087716656015,5.095930801728113,33877.39972348818,25464.36029595492,8.048576178006938,33939.849321800284,-3778.301764751952,5.095930801728113,34161.57540489753,10154.498418503576,31.427531752363144,0.8276456035069422,82.0,78.0,139.0,257.0,396.0,4.0,1038.0,1046.0,6.0,3.0,3.0,0.5,860.7535030148048,2486.0834928890895,20.0,17.0,3.0,0.85,760.2549057742067,6932.6451204926925,18.0,9.0,9.0,0.5,1613.529672323556,25874.574551069152,5.0,4.0,1.0,0.8,903.622159997162,4332.415873519554,59.0,23.0,36.0,0.3898305084745763,873.2373941769237,11373.550654048347,0.0,0.0,0.0,0.0,33720.0,33724.0,33802.0,33822.0,33868.0,33886.0,33937.0,33941.0,34139.0,34198.0,0.34394500256880156,-0.10384452900961297,0.06336423352366206,-0.2391609289726718,0.08599512828577592
25,25,34660.82038059428,1982.9738560303776,5.095928664915786,34757.150678199716,-8634.346586175632,5.095930801728113,34810.20290640986,26247.106642691408,7.161132069249737,34877.150678199716,-5885.5007122117295,5.095930801728113,35095.30700863378,9140.123075036334,27.875008736870463,0.8042532150955934,82.0,77.0,139.0,237.0,376.0,5.0,939.0,934.0,5.0,2.0,3.0,0.4,912.3358981235932,2916.6936926588432,39.0,17.0,22.0,0.4358974358974359,860.6531412565038,7342.353046635974,17.0,9.0,8.0,0.5294117647058824,1707.0301139056414,24633.188516856047,19.0,16.0,3.0,0.8421052631578947,804.825328298749,6045.615904503694,65.0,31.0,34.0,0.4769230769230769,909.692452398428,8019.233450594398,0.0,0.0,0.0,0.0,34659.0,34664.0,34741.0,34760.0,34802.0,34818.0,34867.0,34880.0,35077.0,35117.0,0.4600846830880341,-0.09967785433057402,0.06503688719461082,-0.13674712953968896,0.09952737451457258
26,26,35598.150678199716,2652.5178338651463,5.095930801716557,35695.150678199716,-6778.3304624357825,5.095930801728113,35748.31050587046,28390.910689505345,7.181397052259544,35815.150678199716,-3677.763077072788,5.095930801728113,36028.38308948126,10476.088158364591,33.92265959088478,0.8418780921514053,82.0,78.0,139.0,249.0,388.0,4.0,938.0,939.0,4.0,1.0,3.0,0.25,818.5458614005386,3361.114800085002,58.0,36.0,22.0,0.6206896551724138,762.3948066400085,5027.656670423099,17.0,8.0,9.0,0.4705882352941176,1821.114083673278,23971.907972196223,5.0,2.0,3.0,0.4,840.3133953940102,4091.8612925471866,86.0,40.0,46.0,0.4651162790697674,872.1646029007354,9909.771119233734,0.0,0.0,0.0,0.0,35597.0,35601.0,35679.0,35698.0,35740.0,35757.0,35813.0,35818.0,35996.0,36067.0,0.3085920294107072,-0.1124753080223892,0.06414426446512157,-0.22848491808309576,0.08325288883755326
27,27,36576.98866065478,2861.8813939580705,5.095930801728113,36655.273982700426,-6761.351679952231,7.64389620259217,36739.27215908483,28952.92142387032,7.137107496943352,36773.15067819971,-3531.372388522858,5.095930801728113,37017.13801477525,9747.3998730422,34.46229806146455,0.8285667368696391,62.0,58.0,139.0,278.0,417.0,4.0,978.0,990.0,4.0,2.0,2.0,0.5,813.7182007553337,3905.3436581339993,80.0,38.0,42.0,0.475,764.0267460078802,5199.78112352041,19.0,9.0,10.0,0.4736842105263157,1841.6053435528484,23775.06080705445,11.0,8.0,3.0,0.7272727272727273,884.4105219599658,2765.204613023735,80.0,37.0,43.0,0.4625,770.8178698101251,10347.292537129297,0.0,0.0,0.0,0.0,36575.0,36579.0,36637.0,36657.0,36730.0,36749.0,36768.0,36776.0,36986.0,37054.0,0.2843298127145431,-0.11299911351649705,0.06360689191227975,-0.25044385713450823,0.07907933190900784
28,28,37595.84932180029,4233.850789189426,5.095930801728113,37697.30135639944,-4976.687447282805,10.191861603456228,37756.24194106974,28273.58930910701,8.478709321968802,37772.575339099865,-7211.582932200931,2.5479654008640567,38031.18173659953,10905.687571239823,40.153462415118824,0.8384963439310262,102.0,91.0,79.0,304.0,383.0,11.0,1018.0,1015.0,18.0,3.0,15.0,0.1666666666666666,780.7631651554647,2540.528288340687,20.0,8.0,12.0,0.4,789.3360001876805,5486.921555755554,18.0,9.0,9.0,0.5,1791.066245491579,25291.157232030255,3.0,2.0,1.0,0.6666666666666666,1600.614503902155,19104.80876911256,91.0,39.0,52.0,0.4285714285714285,760.2277695132453,11343.452698493404,0.0,0.0,0.0,0.0,37593.0,37604.0,37695.0,37709.0,37747.0,37765.0,37771.0,37774.0,37999.0,38078.0,0.18440970266336248,-0.15860670547406908,0.06334767849636519,-0.22195050919474862,0.06970929293060778
29,29,39502.55970674112,3091.558601333434,5.095930801728113,39577.815956810555,-6067.483801029454,31.006840446922983,39652.66658127531,27218.366001463095,7.478181412570143,39716.273982700426,-4058.764152572492,7.64389620259217,39943.78076469755,9928.861278287362,30.937281610039097,0.7933472953422855,50.0,43.0,172.0,245.0,417.0,7.0,1908.0,1899.0,7.0,2.0,5.0,0.2857142857142857,850.1496968858544,2929.9595663442897,84.0,39.0,45.0,0.4642857142857143,793.4556098159333,5687.398498084366,17.0,9.0,8.0,0.5294117647058824,1744.1302134149878,24224.83901675235,11.0,4.0,7.0,0.3636363636363636,830.2121201536004,3997.4857911577574,80.0,49.0,31.0,0.6125,843.3300960067886,9280.992076943856,0.0,0.0,0.0,0.0,39501.0,39508.0,39551.0,39622.0,39644.0,39661.0,39712.0,39723.0,39900.0,39968.0,0.2749906459865171,-0.13077177225941827,0.06407916674062043,-0.20454800745872417,0.08493724228487311
30,30,40489.15067819971,3515.629264994181,5.095930801728113,40596.87669549929,-3962.045853006973,8.370335941924195,40638.45203459914,29541.535887449427,7.477858940868935,40667.84932180029,-3005.8289108255617,2.2807669534257005,40917.85507452076,10288.81757808601,36.03772271317366,0.8403633015690947,102.0,98.0,79.0,289.0,368.0,4.0,987.0,987.0,5.0,2.0,3.0,0.4,738.7319414872934,3678.5642658227944,18.0,7.0,11.0,0.3888888888888889,874.5659071839273,130.25486884333168,19.0,10.0,9.0,0.5263157894736842,1739.1943739202009,24842.61265871508,4.0,3.0,1.0,0.75,943.6015004879878,3299.640030233451,88.0,40.0,48.0,0.4545454545454545,828.6301570921345,8696.070016578362,0.0,0.0,0.0,0.0,40488.0,40492.0,40590.0,40604.0,40629.0,40647.0,40665.0,40669.0,40887.0,40958.0,0.21012794177218685,-0.2207359378539701,0.058872848742407086,-0.3139238887115582,0.08053696654677024
31,31,41507.15067819971,6948.865876124146,5.095930801728113,41605.575339099865,-4030.4849546379223,1.1538232287259729,41659.13580043679,29786.00704244233,8.283978749470451,41725.06573740035,-2141.10594881715,0.6575367817608349,41934.98003313022,11356.859093491785,43.77428024942557,0.8199877371169569,97.0,91.0,128.0,252.0,380.0,6.0,1018.0,1021.0,11.0,1.0,10.0,0.0909090909090909,1064.2908732954793,6284.106618813043,4.0,3.0,1.0,0.75,998.2516589447514,3881.9678335600743,18.0,8.0,10.0,0.4444444444444444,1842.6223564245704,28213.57597282584,3.0,1.0,2.0,0.3333333333333333,1087.854098303485,2656.160819846361,80.0,30.0,50.0,0.375,1111.2816310637302,13124.257730868414,0.0,0.0,0.0,0.0,41506.0,41512.0,41603.0,41607.0,41651.0,41669.0,41724.0,41731.0,41905.0,41983.0,0.15316037066599802,-0.24767532199718362,0.061862013051934166,-0.5080804613636556,0.09785114193241742
32,32,42519.15067819971,2659.9503426490405,5.095930801728113,42624.84932180029,-7522.152519882669,5.095930801728113,42671.311514620815,26405.316267627142,7.258777345840818,42704.303002440094,-4527.388585607871,2.5479654008640567,42957.55832673666,8759.271551695247,28.13972874733091,0.788039138950635,103.0,98.0,85.0,278.0,363.0,5.0,1012.0,1010.0,7.0,3.0,4.0,0.4285714285714285,1329.897622975854,3616.113098230339,74.0,59.0,15.0,0.7972972972972973,1098.480371297264,1500.3133743055805,16.0,7.0,9.0,0.4375,1781.2068050103453,27651.12917205137,4.0,3.0,1.0,0.75,1095.1582382510185,7942.893797908129,53.0,28.0,25.0,0.5283018867924528,1127.267613022102,10605.05273004026,0.0,0.0,0.0,0.0,42517.0,42522.0,42620.0,42626.0,42664.0,42680.0,42701.0,42705.0,42943.0,42983.0,0.49997084594121066,-0.1460327171502763,0.06745637079129027,-0.2418962316891508,0.12869421919039986
33,33,43531.15067819971,6010.350824372083,5.095930801728113,43622.84932180016,-3497.5443627653467,5.095930801728113,43683.40985206988,29591.344227128175,7.851975424554333,43761.575339099865,-6299.06335673791,0.3599814450642773,43960.586129941854,10851.715499129756,39.464160448096806,0.8221488591936167,92.0,86.0,143.0,238.0,381.0,6.0,1012.0,1012.0,19.0,9.0,10.0,0.4736842105263157,1214.780965124662,4404.793903490964,5.0,4.0,1.0,0.8,1134.9896142984906,760.0472645638854,18.0,8.0,10.0,0.4444444444444444,1937.1939030487547,28875.039902990942,3.0,2.0,1.0,0.6666666666666666,1092.1829734785665,2349.320957664636,92.0,40.0,52.0,0.4347826086956521,1093.0339301455197,8836.068234079296,0.0,0.0,0.0,0.0,43528.0,43534.0,43620.0,43624.0,43675.0,43693.0,43760.0,43763.0,43941.0,44001.0,0.2021148183561437,-0.3245104269102413,0.06546488352066182,-0.17338815497232501,0.10072452878378305
34,34,44634.30135639943,5476.265171373978,10.191861603456228,44699.67140463251,-4244.560328234096,1.0628249766522155,44784.67279318075,29912.647717219497,8.632378549041805,44819.575339099865,-4144.467600822553,0.4213413710735668,45063.65923372013,11324.23877707341,44.5645279046275,0.8536876187227397,66.0,58.0,123.0,285.0,408.0,8.0,1104.0,1101.0,13.0,7.0,6.0,0.5384615384615384,1184.460911623442,4946.300543114774,3.0,2.0,1.0,0.6666666666666666,1049.0599079109495,4381.828575122576,20.0,10.0,10.0,0.5,1856.8179551031485,25765.768541356607,3.0,2.0,1.0,0.6666666666666666,1070.7975455924086,2591.7512303563262,92.0,38.0,54.0,0.4130434782608695,1116.5000912996268,10380.094570667725,0.0,0.0,0.0,0.0,44632.0,44640.0,44698.0,44701.0,44775.0,44795.0,44818.0,44821.0,45039.0,45106.0,0.2162899119302991,-0.24715396337584855,0.062074677329023394,-0.2583679373871537,0.09859383162778651
35,35,45739.15067819971,6031.7634037738335,5.095930801728113,45818.84932180029,-3414.108408194815,5.095930801728113,45882.29954259858,27817.71962079036,8.863117648320278,45917.25810716295,-19227.966046601072,0.1134528753683547,46167.68483389583,11585.235978750825,41.642748886422325,0.8693090268506407,77.0,71.0,109.0,285.0,394.0,6.0,1104.0,1098.0,27.0,21.0,6.0,0.7777777777777778,843.8435135841887,4220.5379372710595,6.0,5.0,1.0,0.8333333333333334,861.8799399522998,1006.7590803978568,19.0,9.0,10.0,0.4736842105263157,1635.2099042769626,26638.15390001599,3.0,1.0,2.0,0.3333333333333333,916.326758832097,2320.4125594118905,98.0,50.0,48.0,0.5102040816326531,947.8646282251564,10858.805960167894,0.0,0.0,0.0,0.0,45738.0,45744.0,45815.0,45820.0,45873.0,45892.0,45916.0,45924.0,46124.0,46209.0,0.1398999690631482,-0.2524465649314318,0.05878303205899171,-0.047655938054564854,0.0818166008844094
36,36,46760.2476590223,5416.215443241785,7.64389620259217,46835.15067819971,-4368.852302401467,5.095930801728113,46910.53157266737,28534.04054023648,8.381020969052223,46975.575339099865,-2558.887096568527,0.7356258745565214,47189.31411097939,11070.695104449136,39.5648252916812,0.8553680347608694,77.0,65.0,144.0,257.0,401.0,12.0,1019.0,1029.0,19.0,4.0,15.0,0.2105263157894736,852.1022049801317,2859.6399831425733,19.0,16.0,3.0,0.8421052631578947,840.3080282208653,3914.7059286551744,18.0,9.0,9.0,0.5,1850.187574733764,28484.499535053583,4.0,3.0,1.0,0.75,888.4426703395194,2968.9315702945805,80.0,34.0,46.0,0.425,911.480206630889,12751.355989332604,0.0,0.0,0.0,0.0,46756.0,46768.0,46833.0,46838.0,46902.0,46920.0,46973.0,46977.0,47156.0,47234.0,0.15732428185502906,-0.19234068127205067,0.06484141536578998,-0.34719885513156207,0.08233269889842595
37,37,48875.84932180029,5038.910519856171,5.095930801728113,48971.15067819971,-4072.137958627832,5.095930801728113,49027.31281608531,27700.25918616986,8.115194338812397,49091.575339099865,-3073.213652222918,1.0954121562258856,49311.8359104629,10924.040468421672,35.108794813032134,0.8649091097042154,96.0,90.0,124.0,257.0,381.0,6.0,2116.0,2117.0,19.0,4.0,15.0,0.2105263157894736,894.3901036239708,3176.647832116111,5.0,2.0,3.0,0.4,882.4464854266135,3735.4709005715167,17.0,8.0,9.0,0.4705882352941176,1829.4012612192805,28044.198287948864,4.0,3.0,1.0,0.75,829.8124518662906,4249.654175935681,86.0,40.0,46.0,0.4651162790697674,897.1845086066603,9501.130634303605,0.0,0.0,0.0,0.0,48873.0,48879.0,48969.0,48974.0,49019.0,49036.0,49089.0,49093.0,49279.0,49350.0,0.17749672277361656,-0.2167034846049192,0.06604274887552897,-0.2700145664347386,0.08212936515570117
38,38,49853.424660900135,5758.829786362468,2.5479654008640567,49929.26017299569,-6337.098603391148,76.4389620259217,50000.51804689794,28297.121130810057,9.083143865345104,50070.84932180029,-4101.940057444152,5.095930801728113,50285.51948712998,8588.614347889621,27.589510730723163,0.7048293808350894,41.0,38.0,179.0,244.0,423.0,3.0,978.0,971.0,3.0,1.0,2.0,0.3333333333333333,809.9297320603571,2047.8187885179937,79.0,36.0,43.0,0.4556962025316455,833.8382650971573,7431.584597427918,17.0,9.0,8.0,0.5294117647058824,1717.527987131357,23943.622191724917,20.0,18.0,2.0,0.9,850.4001002427378,4607.816305983652,59.0,24.0,35.0,0.4067796610169492,902.4779651392656,8855.71158328091,0.0,0.0,0.0,0.0,49852.0,49855.0,49893.0,49972.0,49992.0,50009.0,50054.0,50072.0,50262.0,50316.0,0.14064137370032334,-0.1315804467127825,0.060696209313720724,-0.20731655956294187,0.10507841295272745
39,39,50883.726017299574,3339.352426885968,7.64389620259217,50968.15067819971,-5215.720682775622,5.095930801728113,51035.25677177688,29178.183212959633,7.620738738361534,51068.575339099865,-4021.5818978744014,1.2425209794420955,51318.080752866124,10844.29771929367,35.46566854800415,0.8593998310612369,84.0,77.0,105.0,289.0,394.0,7.0,1032.0,1037.0,8.0,3.0,5.0,0.375,962.3300319089516,3186.8491782559295,6.0,3.0,3.0,0.5,821.1509634753736,4324.68320856607,19.0,9.0,10.0,0.4736842105263157,1784.1140218718515,25739.69727056708,4.0,3.0,1.0,0.75,908.0641612611432,3205.0403518097983,79.0,38.0,41.0,0.4810126582278481,936.3141069381622,11474.529485945915,0.0,0.0,0.0,0.0,50881.0,50888.0,50965.0,50971.0,51027.0,51045.0,51066.0,51070.0,51288.0,51359.0,0.28817863731931675,-0.1574376799331183,0.061145480129805634,-0.22579775429690954,0.08634160838947788
40,40,51948.726017299574,4513.192538115642,7.64389620259217,52026.15067819971,-3625.833937280107,5.095930801728113,52096.64533282495,28640.06546110467,8.491938828794822,52126.7956853706,-2939.6021807953493,0.5101655363251859,52378.294022506394,11161.796461087772,37.70161890449846,0.853056126352901,77.0,71.0,104.0,290.0,394.0,6.0,1065.0,1060.0,6.0,2.0,4.0,0.3333333333333333,877.9835415771842,6292.465180106497,5.0,2.0,3.0,0.4,832.7744402485201,3171.9957575617404,18.0,9.0,9.0,0.5,1828.238960356096,27712.719896516857,2.0,1.0,1.0,0.5,1114.0176193289649,3434.539611962388,88.0,40.0,48.0,0.4545454545454545,976.1950774735166,8616.060634296535,0.0,0.0,0.0,0.0,51947.0,51953.0,52024.0,52029.0,52088.0,52106.0,52126.0,52128.0,52347.0,52418.0,0.1945371340048705,-0.2296780422528727,0.06383501332561477,-0.37896883687423044,0.08745859870108952
41,41,53945.15067819971,3456.4256781451136,5.095930801728112,54041.72601729976,-6989.913171572048,7.64389620259217,54095.41130764532,27985.44274572394,7.131838493746369,54129.657591146424,-3189.3771166206707,5.095930801712848,54377.56505658535,10679.596467900275,35.886299762787246,0.8410604500162333,82.0,78.0,106.0,289.0,395.0,4.0,1996.0,2000.0,6.0,1.0,5.0,0.1666666666666666,871.0764395067398,3819.5821351115887,39.0,16.0,23.0,0.4102564102564102,880.4605446063758,6038.64271319434,18.0,9.0,9.0,0.5,1789.5126527283635,22784.121794220417,6.0,4.0,2.0,0.6666666666666666,1021.5529904568516,3178.676772130554,79.0,35.0,44.0,0.4430379746835443,950.0929426514988,11747.389354543911,0.0,0.0,0.0,0.0,53944.0,53948.0,54026.0,54046.0,54087.0,54104.0,54126.0,54132.0,54343.0,54421.0,0.2520165398071576,-0.1259615853580565,0.06394441099209673,-0.32029858906721137,0.08896337474053431
42,42,55003.15067819971,2635.7819082621604,5.095930801728113,55081.15067819971,-6951.512700370829,5.095930801728113,55154.3432153657,27910.52513630808,7.254307372884684,55188.50227746685,-2819.6163210864656,4.69296659227608,55436.74150843475,9834.54762109356,34.91941655972828,0.8273912547463536,63.0,57.0,125.0,290.0,415.0,6.0,1058.0,1059.0,6.0,1.0,5.0,0.1666666666666666,826.4834195242381,2139.0250239105,20.0,17.0,3.0,0.85,863.208368352566,5763.532626589067,18.0,8.0,10.0,0.4444444444444444,1745.4094831127773,23179.2365966351,7.0,5.0,2.0,0.7142857142857143,1050.319689587595,1931.878340311651,79.0,36.0,43.0,0.4556962025316455,936.2629373359248,10682.446825498037,0.0,0.0,0.0,0.0,55002.0,55008.0,55065.0,55084.0,55146.0,55164.0,55185.0,55190.0,55402.0,55480.0,0.3135629002284032,-0.12417561551840624,0.06253588832845783,-0.3725044722336128,0.09520142394021133
43,43,56101.15067819971,3400.065282750802,5.095930801545102,56179.15067819971,-5639.955499237947,5.095930801728113,56250.567667515694,28471.497774729225,7.526847722296972,56279.97173044817,-3887.383026611232,1.0414079579213418,56534.11649465068,10176.541240508055,36.23324785150893,0.847995715904933,77.0,72.0,105.0,296.0,401.0,5.0,1098.0,1094.0,7.0,1.0,6.0,0.1428571428571428,889.1885529027649,2061.673073542392,19.0,16.0,3.0,0.8421052631578947,824.328575303033,4508.0696381697235,19.0,10.0,9.0,0.5263157894736842,1764.490107236834,23732.522105681437,4.0,2.0,2.0,0.5,1174.480090860184,5347.586296987931,79.0,34.0,45.0,0.430379746835443,957.4394062783352,11680.195915204464,0.0,0.0,0.0,0.0,56100.0,56105.0,56177.0,56182.0,56241.0,56260.0,56278.0,56282.0,56506.0,56578.0,0.2615210235561631,-0.14615870203486775,0.06197391233849885,-0.30212615603356674,0.09408298788857813
44,44,57187.150678199745,4367.019184341284,5.095930801728113,57297.15067819971,-4272.339795740845,5.095930801728113,57337.94817896762,26549.12161260562,8.4652442498255,57397.88180940551,-3755.347139773353,1.057244894416948,57623.808138396555,10361.011229688766,35.48817525700019,0.8571316178389684,110.0,105.0,105.0,258.0,363.0,5.0,1086.0,1090.0,12.0,2.0,10.0,0.1666666666666666,979.2242285189584,3576.269790030854,9.0,5.0,4.0,0.5555555555555556,891.2555766208477,667.0933937899824,18.0,9.0,9.0,0.5,1614.739615478081,24920.292091560274,4.0,2.0,2.0,0.5,873.979076515507,4256.843187411967,91.0,46.0,45.0,0.5054945054945055,921.3669771829028,10158.232537905273,0.0,0.0,0.0,0.0,57185.0,57190.0,57295.0,57300.0,57329.0,57347.0,57396.0,57400.0,57598.0,57658.0,0.22423172126885524,-0.20861064878532198,0.0608208301216036,-0.23272923753415095,0.0889263563910431
45,45,58219.666047308514,4212.072963096806,5.095930801728113,58316.15067819971,-5722.760602438884,5.095930801728113,58368.24969425681,27411.667484064514,8.226300878158106,58435.88141202754,-3195.2272344042913,1.1169511165094708,58649.82321261621,10584.69045193022,37.222738374154176,0.8449027098841586,82.0,76.0,139.0,250.0,389.0,6.0,1031.0,1030.0,6.0,3.0,3.0,0.5,847.664860146576,3860.299421991059,20.0,17.0,3.0,0.85,816.5925671275879,5281.9201171309505,19.0,10.0,9.0,0.5263157894736842,1690.4267045724655,24929.569145817222,4.0,2.0,2.0,0.5,803.3126252604247,3501.36970802467,80.0,34.0,46.0,0.425,934.0660922739409,11794.465542053318,0.0,0.0,0.0,0.0,58217.0,58223.0,58299.0,58319.0,58359.0,58377.0,58434.0,58438.0,58616.0,58688.0,0.20124648066954534,-0.14269207186118854,0.06166814571040515,-0.25141017096087437,0.08824689739543634
46,46,59277.84932180029,4657.653406253091,5.095930801728113,59335.8493217997,-4107.331433970979,5.095930801728113,59425.80283515884,29186.85103123958,7.768314576882567,59454.79742386053,-3274.4449527283605,0.7432773400610005,59707.12668884301,10260.697669259434,38.583217974191264,0.8579994339531581,57.0,50.0,124.0,297.0,421.0,7.0,1058.0,1055.0,7.0,3.0,4.0,0.4285714285714285,863.619939759434,4721.673417192251,19.0,18.0,1.0,0.9473684210526316,872.8770433376272,2707.4789070662164,19.0,10.0,9.0,0.5263157894736842,1771.2442394223815,24687.82579580389,3.0,2.0,1.0,0.6666666666666666,1146.5016179946113,4715.62763067747,88.0,41.0,47.0,0.4659090909090909,917.646348648516,9928.728631768485,0.0,0.0,0.0,0.0,59275.0,59282.0,59332.0,59337.0,59416.0,59435.0,59453.0,59456.0,59675.0,59753.0,0.1854195373575863,-0.21251682689111054,0.06068637680462906,-0.3501361710293262,0.08943313390840285
47,47,60374.726017299574,6459.822950817307,7.64389620259217,60452.575339099865,-3726.746412972356,2.5479654008640567,60523.63498759976,28864.698311752458,8.02155507021902,60586.54821111137,3116.3933802162933,157.73496734094277,60807.664373772524,12053.89607207332,43.44540918586902,0.8974156109507114,78.0,67.0,557.0,-156.0,401.0,11.0,1099.0,1098.0,20.0,10.0,10.0,0.5,865.74451944786,9010.550304961813,3.0,2.0,1.0,0.6666666666666666,868.2385568187207,2761.003873463152,19.0,10.0,9.0,0.5263157894736842,1781.7192864789286,27792.109967756773,33.0,28.0,5.0,0.8484848484848485,905.3599245997914,3089.398214058914,93.0,49.0,44.0,0.5268817204301075,1197.3044139348474,16109.530382635445,0.0,0.0,0.0,0.0,60373.0,60384.0,60451.0,60454.0,60514.0,60533.0,60474.0,61008.0,60772.0,60852.0,0.13401985256241808,-0.23297494935434476,0.061726586130764774,0.29051528935572146,0.0993292464756506
48,48,61453.15067819971,5621.011844428099,5.095930801728113,61531.84932180029,-4306.8026696284805,5.095930801728113,61601.59876057598,25968.78643733427,9.438967865524337,61670.94947545092,-3003.4223642587435,0.697225207745789,61889.72013231246,10763.877808866288,35.70345144529182,0.8629002508771134,76.0,70.0,144.0,258.0,402.0,6.0,1078.0,1078.0,6.0,1.0,5.0,0.1666666666666666,914.083710210851,6495.661701754041,5.0,4.0,1.0,0.8,907.2583018150154,4128.695634618967,18.0,10.0,8.0,0.5555555555555556,1740.6305352732932,27043.41860501383,2.0,1.0,1.0,0.5,933.4329992781934,3759.9789592051407,80.0,39.0,41.0,0.4875,894.5452762478652,9308.826241230588,0.0,0.0,0.0,0.0,61452.0,61458.0,61528.0,61533.0,61592.0,61610.0,61670.0,61672.0,61871.0,61930.0,0.16261906850755853,-0.21065703989945717,0.06702779660010832,-0.31078978780547517,0.08310622734039413
49,49,62452.47275513373,5439.464984361347,5.095930801728113,62529.575339099865,-4064.79121280389,2.5479654008640567,62599.31646750516,27899.138793843133,9.167456617968575,62675.85538725656,-1892.9284404147372,0.6571819088319102,62879.78838678179,11229.806194353709,40.60380221176233,0.8444952787401094,77.0,71.0,150.0,250.0,400.0,6.0,998.0,998.0,6.0,2.0,4.0,0.3333333333333333,904.5452276058533,6757.592618247578,4.0,3.0,1.0,0.75,854.7089376541826,4728.755195336949,18.0,9.0,9.0,0.5,1799.5222916261666,30212.47499619133,2.0,1.0,1.0,0.5,993.2946766351243,384.0924040222693,100.0,51.0,49.0,0.51,931.804174617611,9763.177277469023,0.0,0.0,0.0,0.0,62450.0,62456.0,62527.0,62531.0,62590.0,62608.0,62675.0,62677.0,62849.0,62927.0,0.1662930509170392,-0.2102713012569728,0.0645009978595931,-0.5247396866294086,0.0829759800383837
50,50,63489.72601729968,7976.248079127296,7.64389620259217,63567.575339099865,-3458.237203002446,1.175728565712748,63640.59622678341,29711.74881348408,8.250418531589355,63688.013809704746,2474.2230747234375,84.08285822851387,63922.59321793075,11678.01467496216,44.89717226448034,0.8917001473226998,78.0,60.0,141.0,260.0,401.0,18.0,1039.0,1043.0,18.0,2.0,16.0,0.1111111111111111,848.8115174339347,8545.619294654498,3.0,2.0,1.0,0.6666666666666666,848.1699025720203,2960.532918620087,20.0,10.0,10.0,0.5,1790.7138739857648,29944.125143155004,24.0,13.0,11.0,0.5416666666666666,821.0791394660719,1807.696950708016,95.0,44.0,51.0,0.4631578947368421,902.5733476516284,12768.243059026549,0.0,0.0,0.0,0.0,63488.0,63506.0,63566.0,63569.0,63632.0,63651.0,63602.0,63707.0,63887.0,63967.0,0.10641739186311838,-0.24526076517702083,0.06026955482247095,0.33185331906980536,0.0772882525646041
51,51,64547.726017299574,6139.298781149518,7.64389620259217,64625.15067819971,-3025.8753214354306,5.095930801727791,64697.31797662242,29609.129691320217,8.461767474940142,64765.57533915622,-3332.122595796478,0.4058886114579352,64979.59070591195,11248.526369313657,44.08347952026793,0.870014814242792,77.0,70.0,144.0,258.0,402.0,7.0,1058.0,1057.0,7.0,2.0,5.0,0.2857142857142857,850.6047698419261,6862.386563839602,5.0,2.0,3.0,0.4,832.6630412568345,3043.51495982716,20.0,10.0,10.0,0.5,1746.9821755698647,25750.24288712425,3.0,2.0,1.0,0.6666666666666666,820.9179532374136,2464.607442715013,87.0,35.0,52.0,0.4022988505747126,866.3662744695598,13134.451177849694,0.0,0.0,0.0,0.0,64546.0,64553.0,64623.0,64628.0,64688.0,64707.0,64764.0,64767.0,64946.0,65025.0,0.13855080199935463,-0.27518088248984146,0.05900146994465645,-0.24636487093032344,0.07702042436714511
52,52,65587.40042148482,6028.849736041511,5.095930801728113,65663.15067819973,-3804.9331485437215,5.095930801728113,65737.03667514471,27832.7032815503,8.606250971347812,65823.72723577688,-2468.377271678601,0.6502574903102534,66022.30101349563,10691.7982932075,39.25196533953732,0.8705443114519079,76.0,66.0,164.0,238.0,402.0,10.0,1038.0,1039.0,10.0,2.0,8.0,0.2,820.24360475185,6346.584360348184,5.0,2.0,3.0,0.4,835.2154183793974,3679.145986877977,19.0,9.0,10.0,0.4736842105263157,1715.5135132570176,27804.258954933874,3.0,2.0,1.0,0.6666666666666666,854.6612842813431,2578.9506927850016,86.0,38.0,48.0,0.4418604651162791,847.9314032370002,10369.671413600689,0.0,0.0,0.0,0.0,65585.0,65595.0,65661.0,65666.0,65728.0,65747.0,65822.0,65825.0,65990.0,66063.0,0.13605308486099615,-0.21950856579413572,0.0616366112879231,-0.34624418806941015,0.07930671529556362
53,53,66545.42466090013,2543.7251065980977,2.5479653942426457,66662.15067819973,-7058.658567591796,5.095930801728113,66698.26412592821,25846.15311034461,7.271734484702683,66763.84932180027,-5321.326364318358,5.095930801728113,66985.82725521822,9046.85032552042,28.577008824384983,0.7974839439119388,101.0,98.0,120.0,255.0,375.0,3.0,958.0,961.0,3.0,1.0,2.0,0.3333333333333333,873.52056120387,4220.408176655587,20.0,17.0,3.0,0.85,837.9936859918068,3393.043465340879,17.0,8.0,9.0,0.4705882352941176,1875.3039601289297,27108.103927339947,80.0,19.0,61.0,0.2375,835.0459908036572,2527.169190030156,73.0,37.0,36.0,0.5068493150684932,791.4126039689703,7485.164402919099,0.0,0.0,0.0,0.0,66544.0,66547.0,66645.0,66665.0,66690.0,66706.0,66759.0,66765.0,66962.0,67020.0,0.34340210698792467,-0.11871854658606973,0.07255640528486856,-0.1569244082458422,0.08747935198358046
54,54,67476.72601729959,3699.855073578037,7.64389620259217,67561.84932179509,-5090.482030461127,5.095930801728113,67628.90047696239,28616.105341794573,7.751008253910883,67660.65238228849,-3867.6967551648618,1.2882029375290411,67910.68483389584,10540.004779668814,36.2351785547319,0.8401448332365518,84.0,77.0,105.0,289.0,394.0,7.0,933.0,931.0,8.0,4.0,4.0,0.5,900.7659537344535,3789.378141262528,20.0,4.0,16.0,0.2,850.1085062621447,3573.8001364628026,17.0,8.0,9.0,0.4705882352941176,1821.81743582175,27909.752417371245,5.0,3.0,2.0,0.6,837.8883558282671,3490.0748397401157,87.0,39.0,48.0,0.4482758620689655,865.1303533171427,10359.96905598504,0.0,0.0,0.0,0.0,67474.0,67481.0,67558.0,67563.0,67621.0,67638.0,67658.0,67663.0,67881.0,67952.0,0.24345979391656156,-0.1669996085194189,0.0636640595937749,-0.21663755171843918,0.08208064146099246
55,55,68462.84932180027,4324.433655819981,5.095930801728113,68577.72601729959,-3919.176929002764,7.643896202581417,68619.65409074133,29222.123410063337,7.614559099729861,68651.50304487794,-3381.39684873247,2.6748685296535015,68904.80813839656,10166.295914045017,34.342048357464435,0.8340068609561521,116.0,110.0,79.0,284.0,363.0,6.0,984.0,991.0,15.0,3.0,12.0,0.2,884.8076350525814,2800.182133234408,12.0,2.0,10.0,0.1666666666666666,873.5135253690372,872.2612552888584,19.0,9.0,10.0,0.4736842105263157,1874.2101409057416,24519.822625228862,6.0,3.0,3.0,0.5,938.957615430034,1709.9041690335887,91.0,46.0,45.0,0.5054945054945055,879.0788951259761,9571.516927989964,0.0,0.0,0.0,0.0,68460.0,68466.0,68576.0,68582.0,68612.0,68629.0,68649.0,68655.0,68879.0,68939.0,0.20460659255617783,-0.22288188086249605,0.06413668557228502,-0.27768335319233706,0.08646992990942794
56,56,69500.84932180027,5236.738977923709,5.095930801728113,69597.57533909987,-3636.546177933594,2.5479654008640544,69670.67915799539,28590.51152284783,9.112819275252663,69687.57533909987,-7816.547163747375,2.5479654008640567,69952.36810412616,11426.776834876257,39.71977590098322,0.8429341530820359,97.0,91.0,95.0,306.0,401.0,6.0,1038.0,1050.0,20.0,3.0,17.0,0.15,866.3745258846078,5084.253201512081,4.0,3.0,1.0,0.75,822.4759209205309,4613.183615604611,19.0,9.0,10.0,0.4736842105263157,1836.8983150473748,27392.9801008371,3.0,1.0,2.0,0.3333333333333333,1668.4663637538056,18217.64728031465,79.0,34.0,45.0,0.430379746835443,1081.9055419159856,13947.512414339535,0.0,0.0,0.0,0.0,69498.0,69504.0,69595.0,69599.0,69662.0,69681.0,69687.0,69690.0,69924.0,69996.0,0.1654416096614601,-0.22616952478461003,0.06424852922199153,-0.2134531179562303,0.09468160248074906
57,57,70558.15067819973,3455.5584618637454,5.0959308017281115,70636.84932180027,-5594.113978951724,5.095930801728113,70720.8634140559,27796.659950766625,7.798429134250812,70755.57533909987,-4681.760713174103,1.191161266011993,71007.44187071631,9875.651483240925,32.25149018334411,0.8418606385151886,76.0,71.0,124.0,284.0,408.0,5.0,1059.0,1050.0,5.0,1.0,4.0,0.2,948.4068190421928,4938.087184085612,40.0,19.0,21.0,0.475,970.8535747431894,2741.6092924597074,19.0,10.0,9.0,0.5263157894736842,1768.387903935733,25118.346626953185,4.0,3.0,1.0,0.75,950.617396955588,6458.844688947478,79.0,32.0,47.0,0.4050632911392405,1019.9732501743154,7294.235369874455,0.0,0.0,0.0,0.0,70557.0,70562.0,70633.0,70638.0,70711.0,70730.0,70753.0,70757.0,70982.0,71041.0,0.2744583341619034,-0.17354912295246383,0.06361871919388506,-0.20304698492612533,0.10328161660070931
58,58,71311.13127410799,2040.3611801794275,0.7918171169700913,71664.65746019685,-7084.122263590082,56.055238819009254,71728.11566182143,28082.85465585943,8.895962332599805,71794.84932180027,-6333.400436257462,5.095930801728113,72017.32603543109,7646.787714348562,25.125600517340256,0.7280483935949308,327.0,324.0,159.0,255.0,414.0,3.0,752.0,1009.0,3.0,1.0,2.0,0.3333333333333333,1085.339025727848,3696.160654979884,93.0,61.0,32.0,0.6559139784946236,896.2191120239929,7684.863209774572,17.0,7.0,10.0,0.4117647058823529,1712.7868690702744,26756.75938759049,80.0,19.0,61.0,0.2375,835.8047550041723,4802.016572596138,59.0,24.0,35.0,0.4067796610169492,728.0008000588626,6980.260846603648,0.0,0.0,0.0,0.0,71310.0,71313.0,71637.0,71696.0,71721.0,71737.0,71783.0,71796.0,71994.0,72051.0,0.531934755606556,-0.12651096052227198,0.06099048298542203,-0.1319677736180008,0.09520347984720821
59,59,72653.72601729959,6109.291921243898,7.64389620259217,72732.84932180027,-2395.7377516081183,5.095930801728113,72814.55868360231,29749.81064057229,9.782857507570611,72831.57533909987,-7543.592840569563,2.5479654008366865,73103.80813839656,11632.475721962825,39.203030608451265,0.8593023291707047,77.0,65.0,104.0,305.0,409.0,12.0,1344.0,1085.0,12.0,2.0,10.0,0.1666666666666666,720.2087219121146,6424.378231060124,5.0,4.0,1.0,0.8,750.222659176051,1032.932807114379,19.0,10.0,9.0,0.5263157894736842,1926.29581289972,29002.59243420029,3.0,2.0,1.0,0.6666666666666666,1623.5192858644332,17878.928216905482,98.0,53.0,45.0,0.5408163265306123,806.9870817499946,10690.202247397836,0.0,0.0,0.0,0.0,72652.0,72664.0,72729.0,72734.0,72805.0,72824.0,72830.0,72833.0,73063.0,73138.0,0.1178874297048609,-0.31314890733448203,0.06474985122334427,-0.21521830779799256,0.06937363129212071
60,60,73809.60271279886,4648.905071111891,19.614462152685,73889.57533909987,-3012.0267225356356,1.1917036582863765,73964.11549012332,30634.603280749147,8.793634868733529,73996.24126659405,-1657.7756349415895,0.871241709832663,74247.10113272049,11058.128304549818,40.64909359205284,0.8988625974140106,85.0,66.0,111.0,291.0,402.0,19.0,1158.0,1151.0,57.0,39.0,18.0,0.6842105263157895,757.9575122333057,2291.4026170300604,4.0,3.0,1.0,0.75,765.2066309487894,3200.6228898870568,19.0,9.0,10.0,0.4736842105263157,1753.976664839044,30365.56575171531,3.0,1.0,2.0,0.3333333333333333,918.3929855986784,295.64375802779193,91.0,38.0,53.0,0.4175824175824176,741.9938993003085,10577.229536089137,0.0,0.0,0.0,0.0,73802.0,73821.0,73887.0,73891.0,73956.0,73974.0,73995.0,73998.0,74210.0,74289.0,0.16304000633250681,-0.2540504123763584,0.05725475367723292,-0.5539911229489372,0.06709941129865697
61,61,74979.45203459915,3852.1539065751786,15.256460488387118,75067.57533909987,-3145.366653991563,2.5479654008625836,75131.65592500517,28277.522270249097,9.207048370366516,75207.57533909987,-2323.075041558428,0.5843524089320437,75416.94128254695,10755.350275635512,37.35449131490065,0.8877153461251612,90.0,77.0,144.0,250.0,394.0,13.0,1169.0,1165.0,26.0,11.0,15.0,0.4230769230769231,810.7869128012707,1871.7035633252049,4.0,3.0,1.0,0.75,765.0251016339258,3177.657280928544,19.0,10.0,9.0,0.5263157894736842,1715.1558559461205,27212.89647892308,3.0,2.0,1.0,0.6666666666666666,745.1232329785149,1574.9591258592186,91.0,43.0,48.0,0.4725274725274725,772.1761708206842,11145.46846887997,0.0,0.0,0.0,0.0,74975.0,74988.0,75065.0,75069.0,75123.0,75141.0,75206.0,75209.0,75379.0,75459.0,0.21047625107017445,-0.24322286899782777,0.06065438971471144,-0.3207486713294682,0.0717946092904034
62,62,76048.71149357536,2977.0590640109117,1.0518469444602452,76165.15067819973,-7028.126509975071,5.095930801728113,76203.1242891069,26006.08028592073,7.84438689932633,76266.27398270041,-4730.523625059064,7.64389620259217,76492.55622441584,8875.941519989883,28.320823734942856,0.813577041277287,61.0,58.0,160.0,257.0,417.0,3.0,1067.0,1072.0,3.0,2.0,1.0,0.6666666666666666,775.9230370488561,2815.095484462335,60.0,57.0,3.0,0.95,792.0262420504635,3025.92588052385,18.0,9.0,9.0,0.5,1720.1713347638138,25279.142969398526,6.0,4.0,2.0,0.6666666666666666,730.3668470086491,6278.479476353285,60.0,28.0,32.0,0.4666666666666667,776.4140470634487,9927.077281767097,0.0,0.0,0.0,0.0,76047.0,76050.0,76108.0,76168.0,76194.0,76212.0,76262.0,76268.0,76466.0,76525.0,0.26063407556431745,-0.1126937941322392,0.0661449674788202,-0.15439450363162066,0.08747399307609834
63,63,77099.72601729959,4728.683479465741,7.64389620259217,77184.84932180027,-4271.104346581592,5.095930801728113,77248.07120564273,29911.268059515703,8.185028974545274,77283.57533909987,-2412.1847291616164,0.798638024893804,77534.10949479598,11038.755919793131,38.026287867780894,0.8760874217219768,90.0,77.0,104.0,289.0,393.0,13.0,1052.0,1046.0,13.0,9.0,4.0,0.6923076923076923,803.4341185860334,4021.699228159322,51.0,19.0,32.0,0.3725490196078431,794.5388331466064,2121.9394247296013,19.0,9.0,10.0,0.4736842105263157,1788.665959509209,26335.012643619055,4.0,3.0,1.0,0.75,804.8958785931704,2660.3892451231054,98.0,50.0,48.0,0.5102040816326531,816.1969224101229,9535.140220082973,0.0,0.0,0.0,0.0,77091.0,77104.0,77181.0,77186.0,77239.0,77258.0,77281.0,77285.0,77495.0,77574.0,0.16990651247327881,-0.1860265562892466,0.059799068229077594,-0.33367920328096995,0.07393921274648661
64,64,78215.15067819973,3764.9361649692273,5.095930801728113,78301.15067819973,-4624.764359677008,5.095930801728113,78366.03355393723,28538.93063176176,9.169882078507174,78381.57533909987,-8237.935535631294,2.5479654008640567,78652.10949479598,10359.85230352716,36.55638555575923,0.8661688750921739,85.0,77.0,84.0,309.0,393.0,8.0,1115.0,1118.0,20.0,13.0,7.0,0.65,799.2553799288311,1944.236732851179,28.0,25.0,3.0,0.8928571428571429,772.771569778768,3013.681051492276,19.0,10.0,9.0,0.5263157894736842,1831.408549312781,25449.474377836577,2.0,1.0,1.0,0.5,1616.251380358694,18885.80926525825,92.0,44.0,48.0,0.4782608695652174,815.6848015018045,9269.499957407968,0.0,0.0,0.0,0.0,78214.0,78222.0,78299.0,78304.0,78357.0,78375.0,78381.0,78383.0,78621.0,78692.0,0.21228922481222567,-0.16709425814567083,0.06417229057891034,-0.1961961675189094,0.07873517668047188
65,65,79323.25542587865,5979.2834450719,5.095930801728113,79399.15067819973,-3103.520611599379,5.095930801728113,79473.04953902126,29120.55369951213,8.69960489925412,79539.57554315297,-6085.153610338559,0.288152552822028,79758.69705899848,11480.798404261172,39.49449914564091,0.8707672254446767,76.0,70.0,144.0,258.0,402.0,6.0,1107.0,1107.0,6.0,2.0,4.0,0.3333333333333333,914.3674859325804,6365.909962692302,5.0,2.0,3.0,0.4,871.0965451914066,3079.505400913484,19.0,9.0,10.0,0.4736842105263157,1774.5652553072664,28046.852054862135,2.0,1.0,1.0,0.5,873.8256171345813,2839.1463842362746,91.0,39.0,52.0,0.4285714285714285,758.3507542394633,10053.565210218778,0.0,0.0,0.0,0.0,79321.0,79327.0,79397.0,79402.0,79464.0,79483.0,79539.0,79541.0,79726.0,79799.0,0.1529225858470045,-0.2806801224182921,0.06093858219931431,-0.14359959880880713,0.0660538341965831
66,66,80360.15067819973,3425.5737755310174,5.09593080172806,80457.15067819973,-6571.522237806273,5.095930801728113,80510.56283462996,26349.422467942662,8.313176066090602,80570.84932180027,-3381.782439604457,5.095930801728113,80799.0377410287,9641.002521401617,31.926050871769046,0.8451835808533174,82.0,78.0,133.0,262.0,395.0,4.0,1038.0,1038.0,5.0,1.0,4.0,0.2,792.4204980967162,4927.251131661904,40.0,36.0,4.0,0.9,820.8212168432631,5383.504821834378,17.0,10.0,7.0,0.5882352941176471,1621.0420017141018,27041.76522649882,8.0,4.0,4.0,0.5,990.8372156817792,4075.6339774522967,73.0,35.0,38.0,0.4794520547945205,805.9129970566626,11053.259217688232,0.0,0.0,0.0,0.0,80359.0,80363.0,80441.0,80460.0,80501.0,80518.0,80568.0,80574.0,80770.0,80836.0,0.2313248962135923,-0.12490579612148925,0.06152096895809767,-0.2929925958801981,0.08359224004637002
67,67,81362.17805189872,3825.7417337299103,12.759764471018016,81454.72601729959,-5251.476964296691,7.64389620259217,81517.17205226507,28676.502945935736,8.089279798526986,81596.56080841605,-3279.2430930264213,5.095930801728113,81807.38347749642,11009.6155496587,35.57219462127881,0.8739122059128972,89.0,71.0,152.0,245.0,397.0,18.0,1005.0,1006.0,31.0,18.0,13.0,0.5806451612903226,771.5628871099742,2564.760099797677,20.0,16.0,4.0,0.8,781.3485497576006,4071.3202907045065,18.0,8.0,10.0,0.4444444444444444,1761.5024410000983,27580.93582637596,5.0,4.0,1.0,0.8,727.6239925487039,2707.0817337621397,91.0,51.0,40.0,0.5604395604395604,774.4515590251905,9376.186937535866,0.0,0.0,0.0,0.0,81357.0,81375.0,81446.0,81459.0,81509.0,81526.0,81593.0,81598.0,81776.0,81843.0,0.2016766788796635,-0.14878643761931523,0.06142668247662857,-0.22188778687864155,0.07034319731983726
68,68,82493.60271279886,5871.132537403478,20.383723206912453,82573.95020106767,-2396.6020824969573,1.1652866381813305,82649.72692513204,31262.11052479565,9.009508605307955,82674.63008649787,3612.605619579625,2.616467428870671,82930.21216973063,11369.815433447651,46.835643689338326,0.8834870805045009,97.0,67.0,142.0,267.0,409.0,30.0,1131.0,1133.0,58.0,39.0,19.0,0.6724137931034483,783.3948839469472,4272.5795653522955,4.0,2.0,2.0,0.5,751.5487074747751,1810.9347287272892,19.0,9.0,10.0,0.4736842105263157,1983.3575441114615,29604.18128201709,11.0,7.0,4.0,0.6363636363636364,1177.1851092415454,2933.792735293865,91.0,36.0,55.0,0.3956043956043956,762.8608949575097,12173.326532656063,0.0,0.0,0.0,0.0,82475.0,82505.0,82572.0,82576.0,82641.0,82660.0,82666.0,82714.0,82894.0,82981.0,0.133431646953316,-0.3135892741492389,0.06344285497098331,0.3258548630001098,0.06709527515401265
69,69,83651.60271297759,5184.236696977881,20.37402380785054,83764.6655944716,-2147.859746818087,1.2953885147592978,83803.47638652004,31778.598001847266,8.73250785301806,83832.6821361881,-578.848358802813,0.0370786316579264,84081.6471915735,12534.860726245322,48.6455744788314,0.8787805547541093,129.0,99.0,74.0,296.0,370.0,30.0,1158.0,1155.0,51.0,39.0,12.0,0.7647058823529411,785.8083211427439,4507.922650537639,4.0,3.0,1.0,0.75,868.7673270750706,707.3529916309894,20.0,9.0,11.0,0.45,1720.2713044885388,28053.41828367771,2.0,1.0,1.0,0.5,995.7362501347386,1591.213787693344,107.0,50.0,57.0,0.4672897196261682,796.1578785542874,13251.946390141537,0.0,0.0,0.0,0.0,83633.0,83663.0,83762.0,83766.0,83794.0,83813.0,83832.0,83836.0,84044.0,84132.0,0.15157647443081176,-0.4044804733465918,0.05413301443910586,-1.720202251577844,0.06351549458282395
70,70,84750.17805189872,5552.567342276076,22.535698365460465,84830.57533909987,-2599.700227822028,1.0557252405901858,84903.7003663302,27722.64319759251,10.63238304909182,84980.30135639943,1550.4610582319049,10.191861603453717,85189.17159234967,11825.829749547864,44.21031299677241,0.902043340292726,85.0,65.0,158.0,244.0,402.0,20.0,1099.0,1099.0,40.0,19.0,21.0,0.475,768.4549982151195,4872.346996014516,4.0,3.0,1.0,0.75,746.0979391988965,3000.4430394592864,19.0,10.0,9.0,0.5263157894736842,1616.4454953759475,31080.624482400373,3.0,2.0,1.0,0.6666666666666666,829.8809816646246,2000.5242327726996,100.0,47.0,53.0,0.47,820.1094483763261,11839.240171010437,0.0,0.0,0.0,0.0,84743.0,84763.0,84828.0,84832.0,84894.0,84913.0,84971.0,84986.0,85151.0,85230.0,0.1383963400793477,-0.2869938353715348,0.058307769712100284,0.5352478717595099,0.06934899839968366
71,71,85780.45203459915,3605.8288550375582,10.604419286248758,85888.15067819975,-5696.642029065419,5.095930801728113,85930.33285122579,27158.085939301836,8.777755684355988,86009.84932180027,-3636.9074394876825,5.095930801728113,86219.18546794006,10003.358327923184,33.346244156810045,0.8768071609608483,110.0,97.0,125.0,249.0,374.0,13.0,1029.0,1026.0,19.0,10.0,9.0,0.5263157894736842,801.0630963612324,2500.3008107871483,26.0,16.0,10.0,0.6153846153846154,830.3299990047201,2302.2050139938538,18.0,9.0,9.0,0.5,1703.0727319485793,28836.21104170339,20.0,4.0,16.0,0.2,778.6399203922298,2094.695006941184,78.0,30.0,48.0,0.3846153846153846,828.7007031367,9770.265648977347,0.0,0.0,0.0,0.0,85776.0,85789.0,85886.0,85891.0,85921.0,85939.0,86006.0,86011.0,86189.0,86260.0,0.22215782516746446,-0.14575779814989404,0.06270960095475568,-0.21409396124249835,0.08284224916980937
72,72,86789.15067819973,4183.6537375859,5.095930801728113,86872.30135639943,-5297.471051402894,10.191861603456228,86934.82682810076,28560.19883386874,8.39472441927295,86966.92827746968,-3416.114713399699,1.2294301932787437,87220.25056246486,10424.412534605151,36.51005556408156,0.8646187516858649,82.0,76.0,99.0,290.0,389.0,6.0,1007.0,1005.0,20.0,15.0,5.0,0.75,764.7092755575192,3665.079157902354,14.0,2.0,12.0,0.1428571428571428,822.6454852920608,5339.706267620627,17.0,8.0,9.0,0.4705882352941176,1676.994765071212,28872.28320623629,4.0,2.0,2.0,0.5,833.6721457238583,3670.5584394482503,87.0,41.0,46.0,0.4712643678160919,809.0143441377161,10480.511753200755,0.0,0.0,0.0,0.0,86788.0,86794.0,86870.0,86884.0,86927.0,86944.0,86965.0,86969.0,87187.0,87259.0,0.18278503038800256,-0.15529022760288705,0.05871789530689509,-0.24404102779505088,0.07760766771768586
73,73,87841.72601729959,5964.4656428537555,7.64389620259217,87905.24354116121,-2635.407174957338,5.095930801728113,87989.37092385252,29198.529090371772,9.801044171817225,88005.57533909987,-8784.498114567838,2.5479654008640567,88275.68483389584,11170.958823579804,40.95042337361973,0.8754085698981239,77.0,57.0,104.0,310.0,414.0,20.0,1053.0,1053.0,20.0,16.0,4.0,0.8,817.3111845585233,4342.265921827779,5.0,2.0,3.0,0.4,727.4323959045388,2034.308502415789,18.0,9.0,9.0,0.5,1870.2568010235368,28916.01068431489,2.0,1.0,1.0,0.5,1674.2211721737697,19247.744362744736,92.0,44.0,48.0,0.4782608695652174,899.9618392887172,11025.626512173114,0.0,0.0,0.0,0.0,87826.0,87846.0,87903.0,87908.0,87980.0,87998.0,88005.0,88007.0,88238.0,88317.0,0.13703007670733652,-0.27602277280599513,0.06405311703322257,-0.1905881417855065,0.08056263150742854
74,74,88923.17805189872,5331.707018699418,22.66171532774224,89003.88647873266,-3638.163389731149,1.1756910182778404,89078.69630548591,28809.085933854236,9.62134939116667,89095.57533909987,-7797.306913306215,2.5479654008640567,89361.25120860692,12240.7160083275,45.82531847072891,0.8944504600146156,97.0,66.0,95.0,307.0,402.0,31.0,1084.0,1091.0,52.0,32.0,20.0,0.6153846153846154,733.9676256185313,4316.339865267605,4.0,2.0,2.0,0.5,853.0449882341859,4214.1054500106475,18.0,9.0,9.0,0.5,1904.4547130839649,28595.214312498916,3.0,2.0,1.0,0.6666666666666666,1759.2545915512449,19387.596141788006,91.0,37.0,54.0,0.4065934065934066,900.5884310119834,12107.41476176934,0.0,0.0,0.0,0.0,88905.0,88936.0,89002.0,89006.0,89070.0,89088.0,89048.0,89097.0,89324.0,89404.0,0.13766090729373398,-0.23447132436160975,0.06610604437282737,-0.22562336087464402,0.07357318235300148
75,75,89984.75481791879,5984.953034097585,5.095930801728113,90061.15067819973,-3455.755826423047,5.095930801728113,90136.51357485012,28290.789728961343,8.843220380733428,90221.15067819972,-2052.8040656532726,5.095930801728113,90423.4905242559,10435.055130398512,36.08032922871488,0.8658717657867789,76.0,65.0,165.0,238.0,403.0,11.0,1058.0,1057.0,11.0,2.0,9.0,0.1818181818181818,798.1486702480237,6045.556909963958,5.0,2.0,3.0,0.4,853.4740792707587,3532.3777895054905,18.0,9.0,9.0,0.5,1706.7853088839486,29144.31625800043,5.0,2.0,3.0,0.4,754.6314081458048,2189.886514577135,86.0,41.0,45.0,0.4767441860465116,758.5801318147923,10631.51005937553,0.0,0.0,0.0,0.0,89983.0,89994.0,90059.0,90064.0,90128.0,90146.0,90219.0,90224.0,90389.0,90462.0,0.1333592203148122,-0.24697175441187494,0.0603300694408226,-0.36761005142770664,0.07269536407191193
76,76,0.0,0.0,0.0,0.0,0.0,0.0,0.0,0.0,0.0,0.0,0.0,0.0,0.0,0.0,0.0,0.0,0.0,0.0,0.0,0.0,0.0,0.0,0.0,0.0,0.0,0.0,0.0,0.0,0.0,0.0,0.0,0.0,0.0,0.0,0.0,0.0,0.0,0.0,0.0,0.0,0.0,0.0,0.0,0.0,0.0,0.0,0.0,0.0,0.0,0.0,0.0,0.0,0.0,0.0,0.0,0.0,0.0,0.0,,90705.0,91003.0,91082.0,91105.0,91121.0,91164.0,91183.0,91380.0,91432.0,,,,,
77,77,92001.15067819972,4392.388061329003,5.095930801728113,92098.15067819972,-3521.53450143868,5.095930801728113,92150.45203459916,30636.30186147741,7.886272570552731,92179.13233096532,-2556.53470415326,0.7957943633919173,92434.49431884383,10378.063528503006,37.217290946258856,0.864409016235542,96.0,92.0,85.0,296.0,381.0,4.0,2017.0,2016.0,7.0,2.0,5.0,0.2857142857142857,788.5815099915744,4089.0779501786856,19.0,16.0,3.0,0.8421052631578947,733.9777127127593,3036.148514327396,19.0,10.0,9.0,0.5263157894736842,1769.2591067440828,26652.89010882471,3.0,1.0,2.0,0.3333333333333333,1021.486459092912,4129.997149523235,88.0,43.0,45.0,0.4886363636363636,852.4168219747509,10866.69422620126,0.0,0.0,0.0,0.0,92000.0,92004.0,92096.0,92101.0,92141.0,92159.0,92178.0,92181.0,92399.0,92477.0,0.17953366118406525,-0.2084255350651546,0.05775041370018548,-0.39955900361275737,0.08213640431412049
78,78,93116.17805189872,4848.560779956103,19.8847114952293,93176.99081415718,-3092.294588972907,1.1991593120150548,93275.06703619788,30706.78523377755,9.276832608681696,93356.93715359792,-1884.3979591096047,0.0465791749203222,93558.01906941689,11640.044038562117,44.04934150786834,0.877758840684552,71.0,46.0,183.0,250.0,433.0,25.0,1118.0,1123.0,51.0,31.0,20.0,0.6078431372549019,799.8114756014621,3501.1958190753767,4.0,2.0,2.0,0.5,800.8966248087108,2578.6467334951117,21.0,10.0,11.0,0.4761904761904761,1745.0220087725977,28003.72041059207,2.0,1.0,1.0,0.5,717.9358134474439,490.46261669295654,98.0,41.0,57.0,0.4183673469387755,700.1398492194749,12683.789290261991,0.0,0.0,0.0,0.0,93104.0,93129.0,93175.0,93179.0,93265.0,93286.0,93356.0,93358.0,93517.0,93608.0,0.16495853344932251,-0.2589975184333021,0.05682854768049989,-0.38098948790343373,0.060149244014884536
79,79,94197.31680593296,4259.182799309494,5.095930801728113,94284.17805189872,-4661.983444662997,22.93168860777651,94347.64678008738,26021.90153469147,9.25074918359592,94409.2739827004,-2915.166777957976,7.64389620259217,94637.43684559964,9332.95736240612,30.601810441753745,0.8516040561146427,83.0,77.0,133.0,262.0,395.0,6.0,1078.0,1073.0,7.0,1.0,6.0,0.1428571428571428,750.5114356613511,4127.349055216293,79.0,46.0,33.0,0.5822784810126582,778.9411471535152,2966.6164622788588,18.0,10.0,8.0,0.5555555555555556,1594.0271838367044,26471.351493576854,7.0,4.0,3.0,0.5714285714285714,813.5380391586683,3008.9762146939815,68.0,30.0,38.0,0.4411764705882353,750.8244192568746,11040.787897966784,0.0,0.0,0.0,0.0,94196.0,94202.0,94279.0,94298.0,94338.0,94356.0,94405.0,94412.0,94607.0,94674.0,0.17621019595191484,-0.16708363648207314,0.06125713686648165,-0.27907083920891057,0.08044871417512889
80,80,95209.91660830712,5021.355532068768,7.64389620259217,95274.84932180028,-4101.800523449174,5.095930801728113,95358.29436385549,28979.2163842296,8.476433946157634,95433.6962036756,-2401.2631850054454,0.8740175972658477,95643.68483389584,11288.827121328,38.966118026177384,0.8796487211506536,65.0,57.0,164.0,250.0,414.0,8.0,1013.0,1010.0,20.0,9.0,11.0,0.45,812.8050702430724,4135.869368449841,5.0,4.0,1.0,0.8,725.5984729833627,3371.377872525074,19.0,9.0,10.0,0.4736842105263157,1695.650901161364,26999.354278529983,3.0,2.0,1.0,0.6666666666666666,757.4573799899911,2199.551820451761,92.0,44.0,48.0,0.4782608695652174,830.4028064374389,11369.516520441266,0.0,0.0,0.0,0.0,95206.0,95214.0,95271.0,95276.0,95349.0,95368.0,95432.0,95435.0,95606.0,95685.0,0.16186965154172256,-0.17689755238833807,0.058512655369250495,-0.3154412164063863,0.07355970620442556
81,81,96281.15067819972,4270.379555010601,5.095930801728113,96371.15067819972,-4485.42301145587,5.095930801728113,96428.67382911552,29638.070933288865,7.984435200929928,96511.76960864774,-2733.86388847987,1.1114365907114503,96722.10949479598,10592.52091063744,35.79979304728457,0.8582659182265757,96.0,85.0,145.0,248.0,393.0,11.0,1071.0,1070.0,18.0,8.0,10.0,0.4444444444444444,833.169134254393,3641.5256604537426,13.0,9.0,4.0,0.6923076923076923,783.6240251042952,3395.496031959878,18.0,9.0,9.0,0.5,1926.039379187263,26718.13916639589,4.0,2.0,2.0,0.5,711.1047738557016,2552.019584840041,90.0,49.0,41.0,0.5444444444444444,808.1025522625607,10445.789172130631,0.0,0.0,0.0,0.0,96273.0,96284.0,96369.0,96374.0,96420.0,96438.0,96510.0,96514.0,96676.0,96762.0,0.1951042345350318,-0.17470459822917525,0.06498531512130148,-0.2601097943654767,0.07628991805444833
82,82,97374.85131078576,5228.9814471946875,7.64389620259217,97450.57533909989,-2880.0218124361395,2.5479654008621044,97524.07905941266,29144.13142981408,9.08736655331122,97590.51790913127,-33547.61632427131,0.1948995688682257,97809.80798304715,11004.74818053351,38.90522812257512,0.8662986986427509,77.0,65.0,147.0,255.0,402.0,12.0,1092.0,1096.0,18.0,4.0,14.0,0.2222222222222222,846.5126711781162,2830.629598749672,4.0,3.0,1.0,0.75,869.135186642108,4283.910110399951,20.0,9.0,11.0,0.45,1722.3543451118412,28296.363283411913,3.0,2.0,1.0,0.6666666666666666,822.978737410538,2530.0359640082934,91.0,39.0,52.0,0.4285714285714285,860.8544007427147,9382.988958666272,0.0,0.0,0.0,0.0,97371.0,97383.0,97448.0,97452.0,97515.0,97534.0,97589.0,97595.0,97777.0,97850.0,0.16188863543057022,-0.3017807653015405,0.05909781011177758,-0.024531660594172305,0.07822572462543895
83,83,98392.84932180028,2305.916346894254,5.095930801728113,98488.84304381648,-7693.991976735124,7.64389620259217,98545.49899309764,25714.814418482445,7.860751166826306,98609.84932180028,-4781.724960840595,5.095930801728113,98833.88791246424,8690.291335382988,29.795556821633625,0.8157815788798929,82.0,76.0,139.0,257.0,396.0,6.0,1018.0,1021.0,6.0,3.0,3.0,0.5,815.5823631508493,1680.1255592154434,20.0,17.0,3.0,0.85,829.649055378269,8146.754909527599,17.0,8.0,9.0,0.4705882352941176,1840.9751503128853,28342.856775170076,12.0,11.0,1.0,0.9166666666666666,850.3982991302969,4378.836855265532,59.0,25.0,34.0,0.423728813559322,846.2109832965766,7377.06983277635,0.0,0.0,0.0,0.0,98390.0,98396.0,98472.0,98492.0,98537.0,98554.0,98606.0,98611.0,98809.0,98868.0,0.35369121878567905,-0.10783076690058145,0.07159200608462062,-0.1778434155235902,0.09737429398381423
84,84,99379.87669549928,3741.4491027614326,12.17165787514289,99467.85420836598,-4953.615694329096,5.095930801728113,99529.3525075338,29034.102067357315,8.393068364434253,99607.84932180028,-1847.9038514521255,5.095930801728093,99813.05076908418,10491.02208837938,37.70942215566052,0.8742292649915938,82.0,63.0,159.0,245.0,404.0,19.0,990.0,984.0,20.0,12.0,8.0,0.6,839.5231637705316,1877.4133790440376,20.0,18.0,2.0,0.9,725.554360956129,4327.710028641729,18.0,9.0,9.0,0.5,1787.998100236832,30475.28750843725,4.0,3.0,1.0,0.75,734.0326227545567,2100.2241641009364,85.0,39.0,46.0,0.4588235294117647,762.6677642917808,10720.635734254864,0.0,0.0,0.0,0.0,99368.0,99387.0,99450.0,99470.0,99521.0,99538.0,99605.0,99609.0,99787.0,99854.0,0.22438449400552019,-0.14646965080208874,0.06158268976560003,-0.3972244671592285,0.07269718411293473
85,85,100417.45203459916,4053.8239013604366,14.124832190077177,100497.15067819972,-4190.645123040661,5.095930801728113,100573.17008216944,29525.761052495774,7.831428677930449,100605.57533909989,-3532.173894950148,1.466741750953205,100858.69292194766,9791.338704865277,35.84346613054698,0.8810074530656109,82.0,69.0,112.0,290.0,402.0,13.0,1038.0,1045.0,35.0,19.0,16.0,0.5428571428571428,798.5741058444006,2281.3599407344072,11.0,8.0,3.0,0.7272727272727273,820.7510583136276,4661.8820073446805,18.0,8.0,10.0,0.4444444444444444,1786.8505022961642,27165.46134735234,4.0,3.0,1.0,0.75,802.1604314832834,2417.9716145440307,79.0,34.0,45.0,0.430379746835443,830.3265234155181,10848.84425073993,0.0,0.0,0.0,0.0,100413.0,100426.0,100495.0,100500.0,100565.0,100583.0,100603.0,100607.0,100832.0,100897.0,0.19699279625254673,-0.19585315248982585,0.060518355449642985,-0.22710105882105922,0.08480214487963042
86,86,101483.60271279886,5866.806553369678,20.383723206912453,101596.0267650043,-2367.8458810694597,1.0319740074829231,101635.35060124136,29645.1605770565,9.475462668702834,101701.027373699,2151.930638602527,17.835757805884782,101917.97088612895,11460.210420052104,46.613855666423454,0.8987104937197036,129.0,99.0,117.0,253.0,370.0,30.0,1067.0,1063.0,59.0,39.0,20.0,0.6610169491525424,716.3431003109102,4169.934113800506,4.0,2.0,2.0,0.5,824.9301205529677,214.3223983723483,20.0,10.0,10.0,0.5,1671.0371097487118,28510.518983239795,6.0,4.0,2.0,0.6666666666666666,732.8523965067452,283.9797977959943,86.0,34.0,52.0,0.3953488372093023,741.0126756949123,14579.414124839055,0.0,0.0,0.0,0.0,101465.0,101495.0,101594.0,101598.0,101625.0,101645.0,101603.0,101711.0,101884.0,101964.0,0.1221010261365221,-0.3483884348842756,0.056367956092030415,0.3405557704139864,0.06465960471357063
87,87,102497.42466090011,1439.821767593323,2.5479654008640544,102599.17805189872,-7431.24625406338,22.93168860777651,102643.4940906694,25149.2340178154,8.300249578033787,102705.54796540084,-6772.422378052292,15.28779240518434,102938.08960897964,7717.955484353792,25.826554083264487,0.7597766622161464,44.0,39.0,252.0,170.0,422.0,5.0,1010.0,1007.0,5.0,1.0,4.0,0.2,813.4558401991048,2065.5451534619333,90.0,73.0,17.0,0.8111111111111111,785.7876001455957,4711.036811506732,18.0,8.0,10.0,0.4444444444444444,1679.35797686849,23531.14188506143,140.0,21.0,119.0,0.15,740.4097219914698,5851.594891867955,60.0,29.0,31.0,0.4833333333333333,843.0128873143932,8114.544866819528,0.0,0.0,0.0,0.0,102496.0,102501.0,102540.0,102612.0,102636.0,102652.0,102697.0,102792.0,102910.0,102962.0,0.5649698167564202,-0.10574102556700092,0.06677571077031029,-0.10932716252178105,0.10922748764532125
88,88,103480.17805189872,4870.653545103884,17.46019023419156,103573.655978265,-2933.534894208246,5.095930801728113,103632.54729052656,30016.06293330982,8.666398530788822,103661.57533909989,-2581.1141039338013,0.5604536781945769,103915.3958678252,11156.091687354654,44.41077925379183,0.8894515124456442,97.0,78.0,92.0,298.0,390.0,19.0,987.0,990.0,38.0,18.0,20.0,0.4736842105263157,730.6597912475737,3613.906674971058,5.0,3.0,2.0,0.6,824.3373085525855,3386.5301535428725,19.0,10.0,9.0,0.5263157894736842,1759.8123897879148,26045.152900102017,3.0,2.0,1.0,0.6666666666666666,999.606633978146,3673.2606178649194,88.0,42.0,46.0,0.4772727272727273,739.2165616966278,13232.325950904937,0.0,0.0,0.0,0.0,103474.0,103493.0,103571.0,103576.0,103623.0,103642.0,103660.0,103663.0,103881.0,103961.0,0.15001267991685696,-0.28100477351747066,0.05862902119101678,-0.38727719648452363,0.0662612483307684
89,89,104532.75339099858,5557.498207468959,21.97800790086935,104619.74267211456,-2574.263277299464,1.1215795413601128,104684.42639456558,30350.322698524953,9.001280522944516,104719.57993547048,-2497.0363130967444,-0.2628660213068787,104966.28754669469,11746.023979483802,52.91777013836349,0.8745244970375713,98.0,71.0,142.0,259.0,401.0,27.0,1053.0,1050.0,50.0,32.0,18.0,0.64,824.6415736059495,4658.513230180841,4.0,2.0,2.0,0.5,690.7655885302144,2083.6080724320045,20.0,9.0,11.0,0.45,1698.0738398430049,27381.32253271336,2.0,1.0,1.0,0.5,823.5847066205387,807.8669113088499,114.0,54.0,60.0,0.4736842105263157,832.452893362762,12755.995863095948,0.0,0.0,0.0,0.0,104520.0,104547.0,104618.0,104622.0,104675.0,104695.0,104719.0,104760.0,104932.0,105019.0,0.1483835968669641,-0.26833525328258706,0.05594911977412129,-0.3298248817211454,0.0708710364304352
90,90,105580.15067819972,5687.065056243586,5.095930801728113,105663.30135639945,-4138.127867953831,10.191861603456228,105726.16955901645,27234.889455168923,8.958033915222003,105798.1126669424,-2338.613502413412,0.8624975010940221,106015.57856139206,10590.877526502256,37.56057739165204,0.8867851370541135,82.0,76.0,139.0,258.0,397.0,6.0,1044.0,1042.0,23.0,14.0,9.0,0.6086956521739131,766.1293124867018,5251.446619918852,14.0,2.0,12.0,0.1428571428571428,765.3545142203054,4231.008404625882,19.0,9.0,10.0,0.4736842105263157,1630.039565459634,29136.19008921198,4.0,2.0,2.0,0.5,804.0449757087368,1560.9787613927729,80.0,38.0,42.0,0.475,784.9713143437644,9796.061930360876,0.0,0.0,0.0,0.0,105579.0,105585.0,105661.0,105672.0,105718.0,105735.0,105796.0,105800.0,105985.0,106058.0,0.13471435703827603,-0.184951876462616,0.0598511540919902,-0.3438126799828083,0.07411768405209848
91,91,106540.84932180028,5658.936004906363,5.095930801728113,106636.15067819972,-3574.425083487964,5.095930801728113,106688.72626630466,28491.62585834684,8.554484925814947,106723.57533909989,-1958.86276223931,0.9386013351359828,106971.20661581676,10386.192123960594,41.84955352283283,0.8449314968647207,96.0,85.0,91.0,292.0,383.0,11.0,959.0,964.0,11.0,3.0,8.0,0.2727272727272727,811.1127289692017,4327.007762679015,5.0,2.0,3.0,0.4,812.4514928183177,3263.0560425831527,19.0,10.0,9.0,0.5263157894736842,1697.3408356617335,26110.04742698837,3.0,2.0,1.0,0.6666666666666666,946.49838606022,2312.6599422876493,80.0,34.0,46.0,0.425,914.2906681211751,11688.10563740721,0.0,0.0,0.0,0.0,106538.0,106549.0,106634.0,106639.0,106679.0,106697.0,106722.0,106725.0,106937.0,107017.0,0.14333308032922754,-0.22729571157371087,0.05957332319680467,-0.48318769660933925,0.08802943920245201
92,92,107540.2739827004,5691.316718494548,7.64389620259217,107636.84932179544,-3118.154200448123,5.095930801728113,107695.87134040492,29647.39085022917,8.160484997158179,107775.81284402253,-2798.9234801980715,0.6718885499063776,107985.68483389584,10387.184785484367,37.94158918841069,0.8563940864065889,98.0,78.0,143.0,250.0,393.0,20.0,999.0,1007.0,20.0,4.0,16.0,0.2,831.396596654335,3641.4845277385184,5.0,4.0,1.0,0.8,897.7722613472148,2087.0089063411688,19.0,9.0,10.0,0.4736842105263157,1811.1552935627583,25057.69616899253,2.0,1.0,1.0,0.5,847.1352197589841,2539.242804755643,86.0,44.0,42.0,0.5116279069767442,874.9519144091074,10465.457261877262,0.0,0.0,0.0,0.0,107536.0,107556.0,107634.0,107638.0,107688.0,107706.0,107775.0,107777.0,107956.0,108027.0,0.14608159021490089,-0.28791785256104147,0.061089871372231,-0.3026646586633497,0.08423378735225873
93,93,108559.32873009844,6869.752064263842,27.0545062302018,108674.11034303434,-3094.3285571731235,1.2828340185693985,108713.027373699,29194.48508498844,8.50587855864629,108785.46584430287,2498.4353100292196,68.79506582327986,109003.2601729957,11647.665089706014,44.34574696120944,0.9151213712716474,137.0,97.0,142.0,232.0,374.0,40.0,1025.0,1018.0,55.0,33.0,22.0,0.6,799.3256823152859,5192.478002239366,4.0,2.0,2.0,0.5,843.4735855425793,1423.3268000424916,20.0,10.0,10.0,0.5,1643.8521324570695,28590.515793509996,12.0,4.0,8.0,0.3333333333333333,804.5484550460765,885.2515535789558,97.0,48.0,49.0,0.4948453608247423,810.6385639073841,12576.29251645123,0.0,0.0,0.0,0.0,108535.0,108575.0,108672.0,108676.0,108703.0,108723.0,108747.0,108814.0,108961.0,109046.0,0.1163543712841318,-0.2725869505962059,0.056306940426304165,0.3220209271844894,0.06959665801378605
94,94,110514.84932180028,4649.8933976100125,5.095930801728113,110602.72601730062,-4401.603209333308,7.64389620259217,110663.29797663246,28963.511358656728,7.872756554236364,110696.2790813262,-2226.83561763738,2.912152524654408,110948.54222226472,9706.538341230686,35.89318497124923,0.8599930008924471,89.0,78.0,99.0,290.0,389.0,11.0,1950.0,1949.0,11.0,3.0,8.0,0.2727272727272727,804.3994003800733,3815.3531699603864,19.0,8.0,11.0,0.4210526315789473,861.4289293573293,4908.507987009327,20.0,10.0,10.0,0.5,1753.28817115192,24599.685911292487,6.0,2.0,4.0,0.3333333333333333,852.3207517271408,2666.9971522005203,80.0,38.0,42.0,0.475,748.4659568494783,8618.06346731201,0.0,0.0,0.0,0.0,110512.0,110523.0,110601.0,110614.0,110654.0,110672.0,110694.0,110700.0,110918.0,110990.0,0.17299308427017374,-0.1957079928355937,0.060534378910100294,-0.3827497391259769,0.07710946277007966
95,95,111485.7260172996,3073.824155468832,7.643896202591581,111570.20542559771,-4629.6943809395625,28.290485920949127,111634.3585497854,28399.80723170939,7.585110064948076,111669.15067819972,-2784.9641218592533,5.095930666509062,111921.80813839656,9139.37793526346,32.652400250282575,0.8268332537873134,70.0,63.0,119.0,284.0,403.0,7.0,973.0,971.0,7.0,3.0,4.0,0.4285714285714285,839.3362596424344,2756.418833447718,40.0,17.0,23.0,0.425,748.8102616159075,5098.645434480197,18.0,8.0,10.0,0.4444444444444444,1724.6282783121408,23918.61172747598,11.0,8.0,3.0,0.7272727272727273,769.795381178864,2630.515142985556,86.0,40.0,46.0,0.4651162790697674,833.6337565393883,7257.858350649802,0.0,0.0,0.0,0.0,111483.0,111490.0,111553.0,111593.0,111626.0,111644.0,111667.0,111672.0,111890.0,111956.0,0.2730592959096632,-0.16174075435708177,0.060726760017812104,-0.2764112381688226,0.09121340231733806
96,96,112491.84932180028,4970.821742088015,5.095930801728113,112589.84932180028,-3826.260909794295,5.095930801728113,112651.45053122468,28138.427444688376,8.696394775146414,112668.57533909989,-6511.2594935486395,1.4143624978031009,112940.80813839656,9994.167870792777,35.12817463654074,0.8611158918665182,97.0,85.0,84.0,305.0,389.0,12.0,1004.0,1016.0,12.0,3.0,9.0,0.25,767.7286587254667,3929.2539877725208,32.0,19.0,13.0,0.59375,751.6226011132466,1195.98283156613,19.0,9.0,10.0,0.4736842105263157,1762.5449991965409,29168.189234978658,3.0,2.0,1.0,0.6666666666666666,1593.07414372219,17227.399151571713,92.0,46.0,46.0,0.5,741.7683060908014,9342.443936322632,0.0,0.0,0.0,0.0,112489.0,112501.0,112586.0,112591.0,112642.0,112660.0,112667.0,112670.0,112908.0,112975.0,0.15444703080480596,-0.19643788513984395,0.0626383618153918,-0.2446645146458391,0.07422011674014051
97,97,114369.84932180028,3376.001681864227,5.095930801728113,114464.7260172996,-6002.792088132264,7.64389620259217,114526.2084822974,28086.17670629322,7.536766319237732,114559.2739827004,-3233.6153886891652,4.199195045725025,114817.80813839656,10058.183348051578,35.471988205315746,0.8376839060926056,96.0,90.0,99.0,290.0,389.0,6.0,1878.0,1876.0,12.0,4.0,8.0,0.3333333333333333,763.5220541210418,1062.229442578357,85.0,56.0,29.0,0.6588235294117647,746.4112317702132,4273.250720286169,18.0,8.0,10.0,0.4444444444444444,1740.453469562582,24013.16790630966,9.0,5.0,4.0,0.5555555555555556,891.2885121117141,2312.519509334876,95.0,52.0,43.0,0.5473684210526316,845.9720078979243,8230.917912430901,0.0,0.0,0.0,0.0,114367.0,114373.0,114463.0,114469.0,114518.0,114535.0,114555.0,114562.0,114778.0,114852.0,0.2261616332191592,-0.12434400872318985,0.06196833010641145,-0.2756321964663282,0.08410783325617163
98,98,115407.42466090011,3661.1533155119982,1.2167754249838991,115505.84932180028,-6981.866850038566,5.095930801728113,115567.30119590534,28373.945493595107,7.612358980202964,115584.57533909989,-6876.885357567378,2.2930203267094513,115859.78076469756,8757.831585231574,29.889390503525085,0.8211126276462926,95.0,92.0,85.0,298.0,383.0,3.0,1038.0,1039.0,3.0,1.0,2.0,0.3333333333333333,866.0535137736609,3896.628316793262,89.0,58.0,31.0,0.651685393258427,883.9568125154918,2823.085022921128,17.0,8.0,9.0,0.4705882352941176,1866.8100761779388,27707.260806653223,4.0,3.0,1.0,0.75,1576.6389733915687,21067.52622677611,60.0,29.0,31.0,0.4833333333333333,917.8852495645308,9718.302437905746,0.0,0.0,0.0,0.0,115406.0,115409.0,115501.0,115507.0,115559.0,115576.0,115582.0,115586.0,115831.0,115884.0,0.23655210234006457,-0.12660751508181642,0.06579310856149126,-0.22926643260914956,0.10480736477193403
99,99,116498.7260172996,4133.440315199245,7.64389620259217,116562.15067819972,-3197.255094008942,5.095930801728113,116650.63204439732,29569.06635045376,8.300601021033579,116682.70238942174,-2953.209410461808,0.8766592202227708,116931.92351294628,10890.16393899775,42.68102735473873,0.8414682075462295,65.0,57.0,124.0,297.0,421.0,8.0,1093.0,1085.0,13.0,9.0,4.0,0.6923076923076923,924.5641623663124,3522.667711638551,5.0,2.0,3.0,0.4,826.8251865166469,2318.7599940922955,18.0,8.0,10.0,0.4444444444444444,1756.383158829649,27610.764751248596,3.0,2.0,1.0,0.6666666666666666,927.4898386432728,1599.5448226615324,79.0,29.0,50.0,0.3670886075949367,919.9272467393304,11890.381985113952,0.0,0.0,0.0,0.0,116495.0,116503.0,116560.0,116565.0,116643.0,116661.0,116681.0,116684.0,116903.0,116981.0,0.22367908857098026,-0.25860469753131765,0.059399344504588864,-0.3140616562298698,0.08447322298290338
100,100,117557.57533909989,5433.310693980926,2.5479654008640567,117655.01380970472,-6061.138362217693,84.08285822851387,117704.01362511434,27487.60195364935,10.48889166321988,117782.2739827004,-3616.7969207965702,7.64389620259217,117995.67505596964,7113.129599640363,24.885773037787047,0.742969741062614,38.0,35.0,203.0,223.0,426.0,3.0,1058.0,1052.0,3.0,1.0,2.0,0.3333333333333333,794.5606479343538,355.8024580829058,91.0,71.0,20.0,0.7802197802197802,864.4874259628526,4214.500860447068,16.0,8.0,8.0,0.5,1705.6788917400934,27197.0197361703,60.0,24.0,36.0,0.4,742.0493292227769,5215.390473286865,59.0,34.0,25.0,0.576271186440678,814.7226180280966,8202.128316661347,0.0,0.0,0.0,0.0,117557.0,117560.0,117595.0,117674.0,117696.0,117712.0,117778.0,117798.0,117981.0,118021.0,0.14623876540220235,-0.14262789830894865,0.062052662673749225,-0.2051675406368535,0.1145378565953991
101,101,118562.15067819972,3648.766234989901,5.095930801728113,118633.32009664035,-5042.103373432433,27.080562939056843,118706.52896372812,28004.241370923657,7.899895087804362,118739.3294301238,-4150.575707319524,2.0244862116901063,118989.82161014978,10104.476302837802,37.449232343139954,0.8632784735937618,63.0,58.0,119.0,289.0,408.0,5.0,1005.0,1004.0,6.0,2.0,4.0,0.3333333333333333,755.9968024362684,3809.311611661841,71.0,30.0,41.0,0.4225352112676056,804.4409346732697,4972.271760560236,18.0,9.0,9.0,0.5,1726.0428362784903,26411.91593506695,5.0,2.0,3.0,0.4,855.0540158003681,3372.6440368329595,92.0,43.0,49.0,0.4673913043478261,864.0603505350588,9757.826703041215,0.0,0.0,0.0,0.0,118560.0,118565.0,118623.0,118657.0,118698.0,118716.0,118737.0,118742.0,118960.0,119031.0,0.20719244636354753,-0.1595447128101309,0.06163505068452282,-0.2060085337782139,0.08551263070332411
102,102,119613.30135639945,4916.709702243292,10.191861603456228,119679.84932180028,-3157.8450762519014,5.095930801728113,119763.97489703044,29638.019664072523,8.106511057030914,119797.60081122829,-2788.3101639831325,1.1578365709428635,120046.98163092292,9956.202834877417,40.91502056767247,0.8753661436895273,66.0,57.0,124.0,297.0,421.0,9.0,1052.0,1056.0,20.0,8.0,12.0,0.4,833.2071913513047,5196.732200258144,20.0,19.0,1.0,0.95,738.1839142869657,818.8504619296307,20.0,10.0,10.0,0.5,1748.1304557733458,26385.251262221,4.0,2.0,2.0,0.5,889.8486314545488,1407.0155077634554,93.0,42.0,51.0,0.4516129032258064,776.8843844155704,10224.173935881656,0.0,0.0,0.0,0.0,119610.0,119619.0,119676.0,119681.0,119754.0,119774.0,119796.0,119800.0,120018.0,120097.0,0.16946438610584363,-0.23376191562985996,0.058982701124678905,-0.31913545449455666,0.07803018854679004
103,103,120669.75339099858,5162.304756282888,20.676992689373822,120757.84932180028,-3049.5950957197847,5.095930801728113,120821.32465668667,28988.36671212128,8.055583873376785,120886.72626301006,2383.530454157498,92.58151828612635,121106.5229492705,11036.248789058956,42.03965074075713,0.9121560773623208,97.0,71.0,437.0,-37.0,400.0,26.0,1059.0,1058.0,46.0,32.0,14.0,0.6956521739130435,817.1836665681326,4237.084427934538,4.0,3.0,1.0,0.75,717.1234015649353,1281.368918838759,20.0,9.0,11.0,0.45,1716.247409657226,28056.931157840107,4.0,3.0,1.0,0.75,874.2240337769193,1013.869136101878,95.0,46.0,49.0,0.4842105263157895,856.6495669870274,11486.841807446572,0.0,0.0,0.0,0.0,120658.0,120684.0,120755.0,120759.0,120812.0,120831.0,120787.0,121192.0,121069.0,121155.0,0.1582982224312818,-0.23515364468268052,0.05920469499716896,0.36677695149732403,0.07762144396711018
104,104,121697.15067819972,2729.2509358699735,5.095930801714586,121783.75339099858,-5650.72258372431,25.47965400864057,121843.37996082104,25911.34163775574,8.628882574856112,121916.84932180028,-3353.264040450049,5.095930801728108,122133.5948314903,8914.826961350018,30.52321142461346,0.8480791687103197,82.0,78.0,140.0,249.0,389.0,4.0,1024.0,1022.0,4.0,1.0,3.0,0.25,730.1436717752357,1823.134104091409,74.0,46.0,28.0,0.6216216216216216,793.9512259384959,3968.13435391352,18.0,8.0,10.0,0.4444444444444444,1648.383905956048,28054.99180225526,6.0,5.0,1.0,0.8333333333333334,811.7144265995041,1306.8075783287368,78.0,38.0,40.0,0.4871794871794871,732.3244590015834,8795.84268056344,0.0,0.0,0.0,0.0,121696.0,121700.0,121778.0,121798.0,121836.0,121852.0,121913.0,121918.0,122108.0,122167.0,0.26752529867411984,-0.14050437164006271,0.0636163086034174,-0.24206695828538516,0.08214679456780884
105,105,122677.84174339166,6873.549604255027,5.095930801728113,122754.57533909989,-3219.2265495234697,2.5479654008081134,122827.71927465538,29262.79767326517,9.011522181386615,122914.11328655388,-1181.6780062714345,0.7372607189905014,123109.35943278969,10915.7722145864,42.835193342829015,0.862402480624288,77.0,66.0,167.0,235.0,402.0,11.0,979.0,985.0,11.0,3.0,8.0,0.2727272727272727,779.9414514213463,5270.364805366069,4.0,3.0,1.0,0.75,756.6104127233532,4046.588440560776,19.0,9.0,10.0,0.4736842105263157,1712.075440532133,29575.118115546426,3.0,1.0,2.0,0.3333333333333333,716.02350935578,775.2150476071527,95.0,43.0,52.0,0.4526315789473684,792.5081043608226,13083.132413010391,0.0,0.0,0.0,0.0,122675.0,122686.0,122752.0,122756.0,122819.0,122838.0,122913.0,122919.0,123074.0,123154.0,0.11346996767703961,-0.23502863221457695,0.058506895329980865,-0.6059379167215435,0.07260211085220514
106,106,123728.30135639945,5567.073737024971,10.191861603456228,123793.84932180028,-2541.453988224098,5.095930801728113,123876.88716738723,28300.870803010537,10.60030989104027,123892.57533909989,-9867.477960179942,2.5479654008640567,124159.86918381156,10635.105696482142,44.068491088418355,0.8804326071811022,77.0,57.0,103.0,317.0,420.0,20.0,1053.0,1047.0,24.0,14.0,10.0,0.5833333333333334,807.6439485325825,5786.22887483497,5.0,4.0,1.0,0.8,755.0428846193827,2526.8553199998364,19.0,10.0,9.0,0.5263157894736842,1832.4676288826377,26942.93867224205,2.0,1.0,1.0,0.5,1622.792750986593,17177.511576490953,99.0,47.0,52.0,0.4747474747474747,825.618509441221,11638.58863974988,0.0,0.0,0.0,0.0,123714.0,123734.0,123791.0,123795.0,123867.0,123886.0,123846.0,123894.0,124133.0,124211.0,0.1450751304336388,-0.29709091257126674,0.06474951395091726,-0.1644587155436626,0.07763143432738213
107,107,124769.54291223148,6222.709627215041,28.9640066358754,124891.92545726943,-2891.3385677326673,0.7567217618086693,124927.80927588968,29787.520442859128,9.569631843837168,125011.68317871312,-852.6873897928841,0.0169091806549103,125213.5510743198,11464.523088566517,48.886982747630434,0.8902135013597534,139.0,99.0,153.0,219.0,372.0,40.0,1045.0,1053.0,53.0,31.0,22.0,0.5849056603773585,847.1301526104661,5004.498506849172,2.0,1.0,1.0,0.5,891.0556899355241,837.764017943116,19.0,9.0,10.0,0.4736842105263157,1979.9378668336344,30241.80442951478,2.0,1.0,1.0,0.5,862.4021489950449,1171.74123827342,85.0,36.0,49.0,0.4235294117647059,826.5823549674521,14530.628850126788,0.0,0.0,0.0,0.0,124752.0,124792.0,124891.0,124893.0,124919.0,124938.0,125011.0,125044.0,125178.0,125263.0,0.1361352535084619,-0.3081810272514274,0.0664687035844999,-1.0113931076247304,0.07209914870264394
108,108,125773.84932180028,5365.864453307122,5.095930801728113,125890.57533909989,-4638.73811719188,2.5479654008640567,125927.02119988792,26683.86227107664,8.733422492387797,125990.57533909989,-3493.6442134078275,1.4106790780873582,126216.78155135438,9935.848391390826,34.48060501844727,0.8579205096958921,117.0,105.0,104.0,258.0,362.0,12.0,998.0,998.0,12.0,3.0,9.0,0.25,870.2203150928719,5064.118515769781,4.0,3.0,1.0,0.75,888.5895022651572,2191.4363405910635,17.0,9.0,8.0,0.5294117647058824,1839.9744290645112,28856.62798975178,4.0,3.0,1.0,0.75,824.6042055178956,4731.336348466244,84.0,40.0,44.0,0.4761904761904761,879.271590009215,10127.290472765444,0.0,0.0,0.0,0.0,125771.0,125783.0,125888.0,125892.0,125918.0,125935.0,125988.0,125992.0,126190.0,126250.0,0.16217709609800757,-0.19155845400539154,0.0689545767540147,-0.2360298173332157,0.0884948678133095
109,109,126754.32873009844,6178.404938131219,23.297693571222272,126869.42466090011,-2557.8122418904213,2.5479654008640567,126909.9235303449,28945.299450779796,9.391423361225897,126988.19682109958,2569.905605075743,107.513040957227,127198.2601729957,10961.74888147284,39.371822003767534,0.9309438914612116,132.0,98.0,407.0,-34.0,373.0,34.0,986.0,985.0,59.0,32.0,27.0,0.5423728813559322,802.6959118728987,4774.906972029714,3.0,1.0,2.0,0.3333333333333333,857.8057275386286,1890.8221617517347,19.0,9.0,10.0,0.4736842105263157,1732.017240062236,30799.275545851604,20.0,19.0,1.0,0.95,746.9541078963608,1749.5255388552027,98.0,49.0,49.0,0.5,846.7782808750667,11482.03580213007,0.0,0.0,0.0,0.0,126736.0,126770.0,126868.0,126871.0,126901.0,126920.0,126875.0,127275.0,127156.0,127241.0,0.12991960221300905,-0.33536696458401644,0.0598375996422996,0.2906542973489276,0.07724846555336269
110,110,127810.69403597756,6449.506887019192,7.64389620259217,127907.15067819972,-2619.3624596679897,5.095930801728113,127964.68201351224,30160.04346573917,8.551866712867877,128047.57533909989,-2652.38193543542,0.3976765124523819,128247.69156718458,10567.5300949488,43.98865609887712,0.8745600869793719,97.0,79.0,144.0,245.0,389.0,18.0,1052.0,1053.0,18.0,3.0,15.0,0.1666666666666666,737.5508194335802,5523.281424708951,5.0,2.0,3.0,0.4,783.284140906857,2465.470304468958,18.0,9.0,9.0,0.5,1952.4822118371187,27721.775001691996,3.0,2.0,1.0,0.6666666666666666,756.5765830456188,1419.029781182653,111.0,53.0,58.0,0.4774774774774775,755.5689579812869,9640.146685275797,0.0,0.0,0.0,0.0,127808.0,127826.0,127905.0,127910.0,127956.0,127974.0,128046.0,128049.0,128208.0,128294.0,0.1143577070857984,-0.2990361788288514,0.06473738056959616,-0.28524420745665263,0.07149910633729288
111,111,128896.63008649784,5350.602185148714,20.03367382190086,128984.45203461392,-2998.727293761752,15.28779240518434,129051.69017573712,28735.990785245012,8.070467748000297,129046.50653628752,3378.6187045444167,231.24665169244955,129342.54319963418,11295.583349672126,43.01573254989598,0.9385919224377904,106.0,61.0,447.0,-40.0,407.0,45.0,1092.0,1087.0,67.0,38.0,29.0,0.5671641791044776,882.9506846155006,7280.26690984818,6.0,5.0,1.0,0.8333333333333334,811.9239608052782,241.00359089017957,20.0,10.0,10.0,0.5,1741.055063543753,29308.51799424921,25.0,8.0,17.0,0.32,1489.7487583596553,28197.549788860244,99.0,50.0,49.0,0.5050505050505051,716.6025026342483,12870.1734044183,0.0,0.0,0.0,0.0,128873.0,128918.0,128979.0,128993.0,129042.0,129062.0,128993.0,129426.0,129298.0,129386.0,0.16501893694624578,-0.27075618463016704,0.06058796011438477,0.44093426593414237,0.06344094682414511
112,112,129949.2739827004,5195.578540753042,7.64389620259217,130064.15067819972,-4010.5438476099503,5.095930801670501,130102.04479376816,26041.881661009775,8.89742460069899,130184.15067819972,-3306.30632576953,5.095930801728111,130392.50769944231,10180.914784024286,35.501012130087055,0.8876157369314989,114.0,96.0,128.0,244.0,372.0,18.0,1045.0,1050.0,19.0,4.0,15.0,0.2105263157894736,718.6898148343131,3313.080565966735,13.0,10.0,3.0,0.7692307692307693,775.4017749354194,787.618777055608,18.0,9.0,9.0,0.5,1739.6742234806293,26718.092161926474,5.0,2.0,3.0,0.4,714.1050277918043,3293.087386565323,85.0,42.0,43.0,0.4941176470588235,814.9743380976664,10729.29967040955,0.0,0.0,0.0,0.0,129945.0,129963.0,130059.0,130067.0,130093.0,130111.0,130182.0,130187.0,130365.0,130431.0,0.13832719671102248,-0.19334080473836823,0.06680293867110575,-0.21598271830593288,0.08004922498482257
113,113,130946.84932180028,6164.3406288672995,5.095930801728113,131023.57533909989,-3127.1962611370914,2.5479654008640567,131099.78016297784,28901.644911421565,8.993001295958022,131183.23018727626,-2813.173621094779,0.940162017515332,131395.80813839656,10737.522438636332,37.996749151601705,0.8558538938064645,77.0,58.0,164.0,245.0,409.0,19.0,998.0,998.0,19.0,3.0,16.0,0.1578947368421052,760.8104201166035,5503.334220475639,4.0,3.0,1.0,0.75,771.7086993164602,4222.045067567849,18.0,9.0,9.0,0.5,1857.7667984395152,29140.442803009944,4.0,2.0,2.0,0.5,752.843610987425,1991.4337633604289,91.0,53.0,38.0,0.5824175824175825,809.2206036391185,9933.319204879344,0.0,0.0,0.0,0.0,130944.0,130963.0,131021.0,131025.0,131091.0,131109.0,131181.0,131185.0,131350.0,131430.0,0.12342121662676561,-0.24677335059100394,0.06427892959495013,-0.2676136322842553,0.07536381025173343
114,114,131983.7260172996,5584.903514432309,7.64389620259217,132061.15067819977,-3036.9990696604723,5.095930801728113,132131.8188193462,29066.29102804077,8.311743521562454,132162.12637288522,-2969.808749562319,0.8672238317757147,132418.45740582643,10165.231936454467,37.36115961655457,0.8825896862361045,77.0,66.0,105.0,297.0,402.0,11.0,1039.0,1032.0,20.0,10.0,10.0,0.5,770.5238310199051,5684.3156230329,5.0,2.0,3.0,0.4,690.6454741681192,2755.3821016491765,18.0,9.0,9.0,0.5,1709.1682531215229,27204.843156259692,3.0,1.0,2.0,0.3333333333333333,1024.579349073829,3426.437211055556,79.0,36.0,43.0,0.4556962025316455,844.5989436659512,10370.480398558362,0.0,0.0,0.0,0.0,131982.0,131993.0,132059.0,132064.0,132123.0,132141.0,132161.0,132164.0,132382.0,132461.0,0.1379654687012488,-0.22741049909025207,0.05880242000854728,-0.3449984276680538,0.08308703125966636
115,115,133032.87669549932,4254.479216949409,12.739827004320285,133140.15067819977,-3065.0148349363612,5.095930801728113,133180.6782552292,29561.264439952974,8.02285635525983,133212.44994817147,-2824.7359940128554,1.3998341794809106,133466.94048689556,10687.872538018966,39.33553775091573,0.8788966214639843,117.0,98.0,76.0,293.0,369.0,19.0,1050.0,1051.0,20.0,12.0,8.0,0.6,817.4997307968938,1990.356657347523,5.0,2.0,3.0,0.4,813.9958653070807,68.75411117705767,19.0,9.0,10.0,0.4736842105263157,1832.7888063103464,25322.509583623687,4.0,2.0,2.0,0.5,857.6234862293934,2550.153449312363,99.0,46.0,53.0,0.4646464646464646,1075.9340511403118,9421.451514381924,0.0,0.0,0.0,0.0,133021.0,133040.0,133138.0,133143.0,133173.0,133190.0,133210.0,133214.0,133441.0,133507.0,0.19215036414799222,-0.2655764846645454,0.06199967562393153,-0.30361190852779224,0.10066868287519266
116,116,134980.80383735136,3064.160636684297,0.812646096525058,135083.7260172996,-9377.562295843994,7.64389620259217,135131.95637964833,26105.66700960776,6.825134359773175,135166.2739827004,-4564.173375466306,5.870988946586182,135421.1028240913,7645.785665720303,26.47008993008051,0.7430815767753143,102.0,99.0,87.0,270.0,357.0,3.0,1946.0,1951.0,3.0,2.0,1.0,0.6666666666666666,795.3135732074142,2214.5008502074666,7.0,3.0,4.0,0.4285714285714285,1313.4581880783012,10934.355580875188,17.0,8.0,9.0,0.4705882352941176,1790.992902161641,25686.178939207104,13.0,5.0,8.0,0.3846153846153846,1215.1085956102484,5613.493882333238,34.0,17.0,17.0,0.5,962.290067727002,8478.58650361275,0.0,0.0,0.0,0.0,134979.0,134982.0,135081.0,135088.0,135124.0,135139.0,135161.0,135168.0,135404.0,135438.0,0.25955348544259627,-0.1400639256387993,0.0686055216096373,-0.2662275281087684,0.12585888616279248
117,117,135934.0962635854,2475.5418305316316,5.095930801728113,136036.15067819977,-7037.9555143323,5.095930801728113,136097.119122439,28643.053853242454,7.326310098417087,136156.58318021454,-4708.8561557793,1.1699878034708464,136380.9670336425,9868.584646138588,33.944885815428755,0.8136757065201148,101.0,97.0,125.0,258.0,383.0,4.0,953.0,965.0,4.0,2.0,2.0,0.5,961.021178842518,1788.993227938853,40.0,37.0,3.0,0.925,1008.2159026744011,5750.988423828345,18.0,8.0,10.0,0.4444444444444444,1860.2522467001977,23652.05422214657,3.0,2.0,1.0,0.6666666666666666,1015.2180024371198,5625.0714781287725,73.0,38.0,35.0,0.5205479452054794,1039.4102197619443,8525.807484800393,0.0,0.0,0.0,0.0,135932.0,135936.0,136033.0,136039.0,136089.0,136106.0,136155.0,136158.0,136357.0,136416.0,0.3882063986921745,-0.14325408858030442,0.06494601644892739,-0.21559758226870376,0.10532515624402615
118,118,137031.15067819977,4704.990852450363,5.095930801728113,137115.5753390999,-4307.194297062293,2.5479654008640567,137192.0082830398,29709.555579777425,7.882857928918825,137255.10800996353,-3594.208984119829,0.8696642229528742,137476.9410934514,9618.416181052777,35.82220725152349,0.8318628373861094,85.0,79.0,144.0,258.0,402.0,6.0,1098.0,1093.0,13.0,9.0,4.0,0.6923076923076923,1150.3545246241472,4822.844899869186,4.0,3.0,1.0,0.75,1015.6866440563244,5020.727136172491,18.0,9.0,9.0,0.5,2020.5796256258425,27334.62553868402,4.0,2.0,2.0,0.5,1001.9427927988291,4339.554980523855,60.0,22.0,38.0,0.3666666666666666,993.394789072789,12963.137115309995,0.0,0.0,0.0,0.0,137028.0,137034.0,137113.0,137117.0,137183.0,137201.0,137253.0,137257.0,137455.0,137515.0,0.24449665487129305,-0.23581166160743433,0.06801110236065605,-0.27876586954895466,0.10328049549671885
119,119,138129.7260172996,6071.402483394653,7.64389620259217,138193.8314123464,-3533.6326914838037,0.9610918589654168,138284.2222728562,30574.656426716043,9.218280536935511,138313.75114815313,-2933.188527603544,0.2702352155257542,138566.69886535872,10481.81560422653,41.0399988015041,0.8217975429134186,71.0,58.0,123.0,297.0,420.0,13.0,1099.0,1092.0,13.0,9.0,4.0,0.6923076923076923,1085.3030041427728,5764.96450106674,4.0,2.0,2.0,0.5,916.5996038743604,4076.955140722358,19.0,9.0,10.0,0.4736842105263157,1857.0624290121052,30477.01529136794,2.0,1.0,1.0,0.5,1246.3830842519023,2965.99953848525,79.0,33.0,46.0,0.4177215189873418,1140.3700529941627,11632.14855531074,0.0,0.0,0.0,0.0,138121.0,138134.0,138192.0,138196.0,138275.0,138294.0,138313.0,138315.0,138540.0,138612.0,0.17875655700821802,-0.25939300541434374,0.060738619695147565,-0.4249243008154729,0.10879508818437306
120,120,139189.1657607218,3179.297046658978,1.3324892922829994,139293.84932180023,-8275.279926142895,5.095930801728113,139341.75760100008,25728.814097723756,7.503736470419598,139413.27398270025,-5798.4300607850655,7.64389620259217,139634.03299556856,7627.436052894063,25.881842082230605,0.7751811905732402,101.0,98.0,126.0,244.0,370.0,3.0,1058.0,1058.0,3.0,1.0,2.0,0.3333333333333333,1126.7664570672705,1974.5743847412311,74.0,59.0,15.0,0.7972972972972973,1092.4699034342736,2403.063257452774,17.0,9.0,8.0,0.5294117647058824,1806.1088428837572,27158.35600142519,6.0,4.0,2.0,0.6666666666666666,818.1014019209072,5868.844237452107,51.0,22.0,29.0,0.4313725490196078,815.5623154582318,9945.520128179967,0.0,0.0,0.0,0.0,139188.0,139191.0,139289.0,139295.0,139333.0,139350.0,139409.0,139415.0,139612.0,139659.0,0.3544074179074753,-0.13201606630646914,0.07019790480912778,-0.14109015601546157,0.10692483159511833
121,121,140234.84932180023,5627.329534373928,5.095930801728113,140330.15067819977,-2982.140726405272,5.095930801728113,140389.46976005955,29948.5140023968,8.707959049852803,140450.80141191717,-2011.441997327081,0.4758121327662311,140670.45510476214,10551.939916709563,43.35921521764531,0.8515359415181258,96.0,79.0,124.0,265.0,389.0,17.0,1045.0,1048.0,19.0,4.0,15.0,0.2105263157894736,806.6440039732678,2850.115854625178,5.0,2.0,3.0,0.4,813.4714399767996,2358.103502084845,19.0,9.0,10.0,0.4736842105263157,1762.0065359971993,27547.912661915103,2.0,1.0,1.0,0.5,885.996935085211,2591.0205623474853,98.0,39.0,59.0,0.3979591836734694,834.5331149926909,10578.798109895037,0.0,0.0,0.0,0.0,140232.0,140249.0,140328.0,140333.0,140380.0,140399.0,140450.0,140452.0,140631.0,140717.0,0.14334401407381084,-0.27278103704964096,0.05883452300358491,-0.44047849068607214,0.07908812233390022
122,122,141351.15067851223,6314.092426060723,5.095930801728113,141449.5753390999,-3906.634835336298,1.287502122139048,141502.28871669737,29739.08058921443,8.933987375410416,141535.93020247904,-1697.5875465452827,0.7913285509085143,141786.2199255674,10572.73666887574,43.78998625938101,0.8673438600931634,97.0,86.0,90.0,292.0,382.0,11.0,1118.0,1114.0,32.0,21.0,11.0,0.65625,798.0924399090468,4784.031897476507,4.0,3.0,1.0,0.75,886.3339490052807,4014.473870514469,22.0,11.0,11.0,0.5,1730.1598203454523,25920.420378676732,2.0,1.0,1.0,0.5,1031.4611618568388,736.2766288376934,79.0,36.0,43.0,0.4556962025316455,826.4561936324128,11195.898119700878,0.0,0.0,0.0,0.0,141350.0,141361.0,141447.0,141451.0,141493.0,141513.0,141535.0,141537.0,141756.0,141829.0,0.1263985995223966,-0.22687913930122464,0.05817798620758084,-0.6076041049876568,0.078168616084552
123,123,142491.30611475924,6123.3546603758805,5.095930801728113,142569.84931535542,-3585.335876646883,5.095930801728113,142641.95569119402,29302.122296115547,7.97285337140394,142687.0675892119,3386.5867930268455,164.795656556454,142929.25657479683,11451.837233494867,44.213416728701375,0.8932238284223932,78.0,67.0,447.0,-46.0,401.0,11.0,1139.0,1140.0,11.0,2.0,9.0,0.1818181818181818,905.9100519655584,8427.302369492749,4.0,1.0,3.0,0.25,898.6549287422616,2523.6480461779893,20.0,10.0,10.0,0.5,1813.6079243369884,30742.657548880976,33.0,12.0,21.0,0.3636363636363636,923.9154466544092,3943.1769028504905,111.0,60.0,51.0,0.5405405405405406,918.0310616003478,13758.985085498236,0.0,0.0,0.0,0.0,142489.0,142500.0,142567.0,142572.0,142633.0,142652.0,142607.0,143014.0,142888.0,142968.0,0.1479434235334573,-0.2506473478804757,0.06189339823270789,0.27281611342629636,0.08016452232793247
124,124,143588.15067819977,6455.443119351181,5.095930801728113,143666.72710278712,-3899.2935212136094,1.3106061032056366,143734.60255470284,26654.289355507477,10.921544670446492,143806.75505200395,-172008.13863929774,0.0809118822223353,144020.92303914978,11354.727920953945,42.17729455737992,0.8673823970849075,78.0,71.0,143.0,258.0,401.0,7.0,1098.0,1091.0,32.0,21.0,11.0,0.65625,919.5347474274428,4415.847230105595,4.0,2.0,2.0,0.5,883.3519424177086,4416.065837444801,19.0,10.0,9.0,0.5263157894736842,1670.2208002366172,30972.289499209663,2.0,1.0,1.0,0.5,932.145478210624,1983.4035849727456,88.0,42.0,46.0,0.4772727272727273,1033.1246497237062,12816.734732282091,0.0,0.0,0.0,0.0,143587.0,143594.0,143665.0,143669.0,143725.0,143744.0,143806.0,143808.0,143993.0,144066.0,0.142443319602801,-0.22654153569408023,0.0626623646933399,-0.005419194031076283,0.09098629724250674
125,125,144608.84932180023,5349.984666223283,5.095930801728113,144705.5753390999,-3369.3149455863313,2.5479654008640567,144758.92475797783,28488.81545653745,9.127525831793,144844.95948478623,-2545.1567864049443,0.898755720412119,145044.69182089256,10855.865394200073,39.70622400449459,0.866312514236354,97.0,86.0,144.0,238.0,382.0,11.0,1019.0,1025.0,11.0,3.0,8.0,0.2727272727272727,818.5580057784736,4311.004096975443,4.0,3.0,1.0,0.75,812.3059268930452,4462.311759016828,19.0,9.0,10.0,0.4736842105263157,1655.746501941759,30065.141370941175,4.0,2.0,2.0,0.5,777.4481749193127,2292.252965019215,100.0,48.0,52.0,0.48,832.9760056957407,9157.615709586564,0.0,0.0,0.0,0.0,144606.0,144617.0,144703.0,144707.0,144750.0,144769.0,144843.0,144847.0,145012.0,145085.0,0.1530019349300899,-0.24108934308950064,0.058119176785983495,-0.3054618006529432,0.07673050240110493
126,126,145699.7260172996,5740.022838239071,7.64389620259217,145790.15067949131,-2406.5926772358657,5.095930801728026,145848.2568406016,29801.279994620963,8.647159165216104,145883.57533909997,-3694.7769265634,0.326189780104008,146135.13629693334,11351.454420978149,43.03029432588408,0.8768358030667173,96.0,83.0,98.0,298.0,396.0,13.0,1093.0,1089.0,13.0,9.0,4.0,0.6923076923076923,906.7925971742892,4920.11818484236,6.0,3.0,3.0,0.5,852.0560314657251,2543.3288266674535,20.0,9.0,11.0,0.45,1735.5775421381563,27174.962964291502,2.0,1.0,1.0,0.5,836.9870622134708,1840.7639291940636,94.0,45.0,49.0,0.4787234042553192,903.697869462692,10055.90182006487,0.0,0.0,0.0,0.0,145691.0,145704.0,145787.0,145793.0,145839.0,145858.0,145883.0,145885.0,146104.0,146183.0,0.15797717582818466,-0.35405078704235443,0.05823835561598101,-0.22653250219140358,0.0796107561153226
127,127,146821.1780519381,5088.419360634625,22.864367143843317,146902.7223525023,-2213.244336052453,0.6637366412493266,146970.15876907104,31487.483258099768,8.92590068739168,147002.3878527282,149.47007199905488,-0.0317077225932815,147250.33952242837,12834.984581798866,53.7177943575336,0.8679100347917951,92.0,67.0,142.0,259.0,401.0,25.0,1124.0,1123.0,31.0,18.0,13.0,0.5806451612903226,905.152385447882,4302.482080441307,3.0,2.0,1.0,0.6666666666666666,830.7763498741741,2249.319552648598,20.0,9.0,11.0,0.45,1814.1659709178707,30088.466473664135,3.0,1.0,2.0,0.3333333333333333,908.4342184304088,669.2145683900899,106.0,47.0,59.0,0.4433962264150943,905.7827837724044,14721.52026280332,0.0,0.0,0.0,0.0,146809.0,146834.0,146901.0,146904.0,146962.0,146980.0,147001.0,147043.0,147215.0,147302.0,0.17788478529312723,-0.37536585380173093,0.057615464406835334,6.077699744709784,0.07057139632694875
128,128,147904.84932180023,5242.177326628115,5.095930801728113,148000.15067819977,-4340.493553908861,5.095930801728113,148055.52424855364,26836.573243412247,8.882782071347076,148140.6637254506,-3692.9455482321655,1.6051663391855855,148352.80813839656,10515.165754903352,34.77526672190468,0.8723882759533061,96.0,85.0,145.0,244.0,389.0,11.0,1079.0,1084.0,18.0,3.0,15.0,0.1666666666666666,792.6194520716919,3213.47742801665,5.0,2.0,3.0,0.4,812.6373750187463,4345.214583937296,18.0,9.0,9.0,0.5,1631.257475361252,29203.631954611883,4.0,2.0,2.0,0.5,870.1891459652257,4277.909767362649,92.0,52.0,40.0,0.5652173913043478,935.3954567676776,7915.990972426389,0.0,0.0,0.0,0.0,147902.0,147913.0,147998.0,148003.0,148047.0,148065.0,148139.0,148143.0,148321.0,148387.0,0.15120042735782888,-0.18722234347910047,0.060784864765164745,-0.23563552037256286,0.08895679617142423
129,129,148941.7260172996,6631.202313156103,7.64389620259217,149019.75558393667,-3436.6480894235024,1.090319795180126,149090.50444259346,29158.107766087804,9.150874123065382,149159.62779209018,-3594.639574130004,0.265056831369979,149374.22824724205,11865.521651330468,45.87948719333136,0.8645762228138683,78.0,67.0,146.0,256.0,402.0,11.0,1039.0,1034.0,11.0,2.0,9.0,0.1818181818181818,879.5819203367117,7461.370888892012,4.0,2.0,2.0,0.5,852.9213349165203,4036.263144995005,19.0,10.0,9.0,0.5263157894736842,1734.493723073486,27481.84858686532,2.0,1.0,1.0,0.5,866.5713603263674,1811.5635418711809,95.0,43.0,52.0,0.4526315789473684,879.3921800293883,14087.545653931928,0.0,0.0,0.0,0.0,148940.0,148951.0,149018.0,149022.0,149081.0,149100.0,149159.0,149164.0,149340.0,149420.0,0.1326429022670064,-0.24818407725290192,0.0594858122134654,-0.24107322652399724,0.0741132337768549
130,130,150030.75339099858,6070.5613415340695,25.15464145035512,150118.5753390999,-3215.9406829775257,0.9939855589089914,150179.3928180508,29523.595700605307,8.322388312924065,150222.890505204,2537.806147038101,71.3430312241936,150465.550129767,12117.874655746842,51.28389913749617,0.9026055705429404,98.0,72.0,122.0,278.0,400.0,26.0,1092.0,1091.0,51.0,32.0,19.0,0.6274509803921569,985.276575978751,4201.152783207749,3.0,2.0,1.0,0.6666666666666666,871.2702196923598,1893.240141204161,20.0,9.0,11.0,0.45,1861.53326010524,27310.305174464705,19.0,4.0,15.0,0.2105263157894736,853.6416373341197,874.8391492433685,100.0,48.0,52.0,0.48,868.3444779110143,14307.047883595982,0.0,0.0,0.0,0.0,150019.0,150045.0,150117.0,150120.0,150171.0,150189.0,150146.0,150239.0,150425.0,150517.0,0.1623040309695257,-0.2709223538556319,0.06305238965411906,0.33636991475113787,0.0716581498471934
131,131,151100.84932180023,5864.303558966751,5.095930801728113,151196.15067819977,-4842.855339789799,5.095930801728113,151249.91118595802,26873.15482050663,8.323622887013391,151317.84932180023,-2748.362594990864,5.095930801728113,151542.80813839656,10140.530452434612,33.92427149596117,0.8676639548280548,96.0,85.0,125.0,258.0,383.0,11.0,1065.0,1070.0,25.0,11.0,14.0,0.44,849.8919612877347,3491.3564822397475,20.0,16.0,4.0,0.8,840.0584439956558,4441.107850601271,18.0,9.0,9.0,0.5,1636.1820092556218,26267.253493530192,5.0,4.0,1.0,0.8,870.6567911136046,3272.935378892535,86.0,40.0,46.0,0.4651162790697674,1106.0823595281763,7447.29336208408,0.0,0.0,0.0,0.0,151098.0,151109.0,151194.0,151199.0,151241.0,151258.0,151315.0,151319.0,151517.0,151577.0,0.14492632462523475,-0.17346346009833902,0.06088537130024898,-0.3167910932496514,0.10907539449897516
132,132,152100.2739827004,7072.132126037738,7.64389620259217,152195.92809287063,-3427.216071457156,0.9071686035166776,152247.90631530812,29193.77252682619,9.283573932655868,152315.60821757375,-6797.765034475483,0.2511536167995365,152529.35323669494,12116.388225032444,47.91505203921481,0.8492464989146157,98.0,79.0,123.0,259.0,382.0,19.0,999.0,999.0,28.0,12.0,16.0,0.4285714285714285,861.1844031669901,5297.47175016265,4.0,2.0,2.0,0.5,940.1526781564066,3884.466325172459,20.0,10.0,10.0,0.5,1769.1119449319783,27123.980105489016,2.0,1.0,1.0,0.5,860.0151464503159,2686.0448266204835,86.0,33.0,53.0,0.3837209302325581,1046.1220492007767,13788.906985289566,0.0,0.0,0.0,0.0,152096.0,152115.0,152194.0,152198.0,152238.0,152257.0,152315.0,152317.0,152496.0,152576.0,0.12177153760975912,-0.2743196397759305,0.060598949426845725,-0.12651439731862912,0.08633942968577796
133,133,154835.00734900177,2565.962328943486,0.7621346123739016,154911.15067819977,-5346.968211363065,5.095930801728113,154987.39913410274,27721.837649062887,7.929671722060893,155018.9522455659,-2231.0851070113017,0.8715417409704858,155269.00551118143,9891.21923347354,36.745256073224105,0.8235065523659137,62.0,59.0,125.0,292.0,417.0,3.0,2736.0,2739.0,3.0,2.0,1.0,0.6666666666666666,841.4253545677348,2215.2538824527564,20.0,16.0,4.0,0.8,845.8487948146422,4615.195508283531,18.0,8.0,10.0,0.4444444444444444,1807.500004832074,27524.94254473185,2.0,1.0,1.0,0.5,978.6566110344006,476.5343754290758,79.0,36.0,43.0,0.4556962025316455,864.2143480934103,10145.23681115035,0.0,0.0,0.0,0.0,154833.0,154836.0,154895.0,154914.0,154979.0,154997.0,155018.0,155020.0,155233.0,155312.0,0.32791804660444285,-0.15819222433697916,0.06520130547309425,-0.438646023837872,0.08737187273827321
134,134,156752.40537649769,2802.5827220081283,0.6678808681113242,156829.15067819977,-5534.321209567601,5.095930801728113,156906.23449433487,29278.21828840613,7.72360034890896,156989.5753390999,-3291.2161814115666,0.9388366991526618,157188.71482997565,8955.470393724754,37.05168972898995,0.8275938793146317,76.0,73.0,164.0,238.0,402.0,3.0,1917.0,1918.0,3.0,1.0,2.0,0.3333333333333333,846.6563848306588,1809.9011495849225,19.0,16.0,3.0,0.8421052631578947,820.5714395712956,4722.233217607495,19.0,9.0,10.0,0.4736842105263157,2000.5766528642696,27033.882791944365,4.0,3.0,1.0,0.75,852.3771330641124,3098.3128506405133,105.0,53.0,52.0,0.5047619047619047,803.949004875111,7302.311380694427,0.0,0.0,0.0,0.0,156751.0,156754.0,156827.0,156832.0,156898.0,156916.0,156987.0,156991.0,157161.0,157229.0,0.3020986243089396,-0.14826957245501246,0.06832986328462744,-0.25898545889457103,0.08977183436823724
135,135,157870.15067819977,3143.650059590642,5.095930801728113,157947.15067887696,-3290.1334348607147,5.095930801728113,158024.48043266882,29471.29051082459,8.31685787534312,158107.86449923602,-3028.7510571482208,1.009075638121717,158322.35610379744,8927.23959029739,34.100939373141465,0.8701665839294286,76.0,71.0,165.0,238.0,403.0,5.0,1119.0,1118.0,6.0,1.0,5.0,0.1666666666666666,765.7986479601605,3761.665664564409,5.0,2.0,3.0,0.4,780.2693494087968,3079.922234494871,19.0,9.0,10.0,0.4736842105263157,1925.123017662056,27522.092286520427,4.0,2.0,2.0,0.5,830.4038799625813,3379.3855896805862,60.0,34.0,26.0,0.5666666666666667,871.6320625344769,10367.093437582342,0.0,0.0,0.0,0.0,157869.0,157874.0,157945.0,157950.0,158016.0,158034.0,158106.0,158110.0,158288.0,158348.0,0.2436017474730889,-0.23715431755485286,0.0653219789257268,-0.274173698760328,0.09763735516651913
136,136,159008.43464282606,4586.528881517626,5.095930801728113,159086.5753390999,-3285.084247348076,1.1734732379942088,159157.64007961584,28628.458452803516,8.796324492180656,159200.2141085528,3718.361715062051,136.1455022830765,159445.89009798472,10757.59988750488,41.765243730870424,0.9115571034753908,79.0,72.0,432.0,-32.0,400.0,7.0,1138.0,1135.0,31.0,21.0,10.0,0.6774193548387096,809.104605665144,4872.243958125391,2.0,1.0,1.0,0.5,822.0835916352682,589.9588537117996,21.0,11.0,10.0,0.5238095238095238,1677.1813281907744,28669.962018607184,32.0,13.0,19.0,0.40625,955.0523120157264,4165.412920028919,111.0,59.0,52.0,0.5315315315315315,836.2023270056292,10192.905815202412,0.0,0.0,0.0,0.0,159007.0,159014.0,159086.0,159093.0,159148.0,159168.0,159119.0,159518.0,159407.0,159486.0,0.17640891980983694,-0.2502473391052011,0.05858440931968979,0.2568476079524686,0.07773130956254388
137,137,160108.40638645506,2124.3762558257276,4.967122005163941,160204.15067819977,-5375.712989805811,5.095930801728113,160257.74908890354,25004.76210382711,9.666440045255582,160324.86349842334,-3127.544508685075,1.0910807633074768,160547.16186613246,9725.099049009454,33.31514874032601,0.8431134615772623,96.0,92.0,125.0,257.0,382.0,4.0,1099.0,1099.0,4.0,2.0,2.0,0.5,776.064191228984,3704.504364893746,20.0,16.0,4.0,0.8,821.0179815147691,4747.559535564419,19.0,11.0,8.0,0.5789473684210527,1528.0055469162464,26967.31956109539,4.0,2.0,2.0,0.5,796.6779493104154,3591.848810638994,59.0,22.0,37.0,0.3728813559322034,817.2123234105544,12388.442279364985,0.0,0.0,0.0,0.0,160106.0,160110.0,160202.0,160207.0,160247.0,160266.0,160323.0,160327.0,160525.0,160584.0,0.36531390760029664,-0.1527272722840114,0.06110858166022612,-0.2547295320971677,0.08403125966041357
138,138,161074.84932180023,1991.5460914316536,4.9844558011708,161163.2268246582,-8636.03751613494,7.64389620259217,161224.1583155213,26480.80351160632,7.059842946503814,161284.84932180023,-5362.069617228147,5.095930801728113,161518.35610379744,8251.183183759158,28.15016323835826,0.7960774880276572,62.0,58.0,152.0,258.0,410.0,4.0,966.0,967.0,4.0,3.0,1.0,0.75,1019.3766765205056,1403.2444619977769,66.0,36.0,30.0,0.5454545454545454,875.3428877938554,7111.955179253709,17.0,8.0,9.0,0.4705882352941176,1681.2795202506252,22936.9130687376,6.0,4.0,2.0,0.6666666666666666,878.8063561879841,4885.278734568247,60.0,34.0,26.0,0.5666666666666667,1017.2642546258604,9053.443720405345,0.0,0.0,0.0,0.0,161072.0,161076.0,161134.0,161167.0,161216.0,161233.0,161281.0,161286.0,161504.0,161544.0,0.5118519128963323,-0.10135931972949734,0.06349050245071809,-0.16389312689346838,0.1232870767707771
