Unnamed: 0,cycle,p_center,p_height,p_width,q_center,q_height,q_width,r_center,r_height,r_width,s_center,s_height,s_width,t_center,t_height,t_width,r_squared,pr_interval,pr_segment,qrs_duration,st_segment,qt_interval,p_duration,pp_interval,rr_interval,fwhm_p,rise_time_p,decay_time_p,rise_decay_symmetry_p,sharpness_deriv_p,sharpness_diff_p,fwhm_q,rise_time_q,decay_time_q,rise_decay_symmetry_q,sharpness_deriv_q,sharpness_diff_q,fwhm_r,rise_time_r,decay_time_r,rise_decay_symmetry_r,sharpness_deriv_r,sharpness_diff_r,fwhm_s,rise_time_s,decay_time_s,rise_decay_symmetry_s,sharpness_deriv_s,sharpness_diff_s,fwhm_t,rise_time_t,decay_time_t,rise_decay_symmetry_t,sharpness_deriv_t,sharpness_diff_t,Average_Heart_Rate,SDNN,RMSSD,NN50,p_on,p_off,q_on,q_off,r_on,r_off,s_on,s_off,t_on,t_off,sharpness_deriv_p_norm,sharpness_deriv_q_norm,sharpness_deriv_r_norm,sharpness_deriv_s_norm,sharpness_deriv_t_norm
0,0,,,,,,,,,,,,,,,,,,,,,,,,,,,,,,,,,,,,,,,,,,,,,,,,,,,,,,,54.156686823643874,336.1404274170882,444.38528600005475,582.0,,,,,,,,,,,,,,,
1,1,1823.0056891324648,4422.441289158542,20.566718752574705,1952.3834774964,-2302.989639698818,63.69913502160101,2034.7826312493817,44196.25376363091,9.28485891954404,2056.87669549928,-7219.61208503732,5.162623632909152,2334.438756254593,11096.390525620229,30.35726207599072,0.9815787535236824,76.0,26.0,195.0,307.0,502.0,50.0,,,50.0,29.0,21.0,0.58,62.42125303037052,3598.385951076837,139.0,82.0,57.0,0.5899280575539568,27.42306723686884,2289.8462621434337,23.0,12.0,11.0,0.5217391304347826,2248.4769394171135,40579.96457556938,11.0,3.0,8.0,0.2727272727272727,1470.32145344137,20627.588022168267,77.0,39.0,38.0,0.5064935064935064,69.51719512314449,11195.168788980916,,,,,1794.0,1844.0,1870.0,1988.0,2023.0,2046.0,2054.0,2065.0,2295.0,2372.0,0.014114659516994385,-0.01190759470392372,0.05087483096287642,-0.2036565726971146,0.006264847561253154
2,2,2918.0591240130057,4797.721950371778,20.666534275264503,3062.6574601968323,-1616.354268632855,56.055238819004906,3149.822193061913,44483.57062020766,9.172515813479048,3171.87669549928,-7962.927212729421,5.112750769326615,3445.365712832519,11517.169336518951,31.016563080826995,0.9828652153634568,75.0,24.0,214.0,304.0,518.0,51.0,1097.0,1115.0,53.0,29.0,24.0,0.5471698113207547,75.04225542114378,4583.638987366169,131.0,98.0,33.0,0.7480916030534351,23.892171504288413,1510.8847293331075,23.0,12.0,11.0,0.5217391304347826,2291.9630507347892,41033.10422597302,11.0,3.0,8.0,0.2727272727272727,1546.233943857279,20976.273677065896,77.0,38.0,39.0,0.4935064935064935,76.75027700263375,11764.015410350115,,,,,2891.0,2942.0,2966.0,3094.0,3138.0,3161.0,3169.0,3180.0,3407.0,3484.0,0.015641226439837497,-0.014781519106264305,0.05152381022429916,-0.1941790879848169,0.006663987891475373
3,3,3861.8745847558544,5693.87513435578,21.648430041533828,3998.26017299568,-1530.729248225617,76.4389620259217,4096.004275009507,45530.04775756235,9.315943438001602,4118.301356399425,-7119.7063446745215,4.93815081962438,4389.612034801515,11188.19398303164,30.987099080501753,0.9866869704171756,74.0,23.0,218.0,302.0,520.0,51.0,943.0,947.0,52.0,28.0,24.0,0.5384615384615384,98.43278928395516,5419.953091266348,138.0,91.0,47.0,0.6594202898550725,28.639767734171105,1461.7751804644229,22.0,11.0,11.0,0.5,2286.092702755218,42583.04630804295,11.0,3.0,8.0,0.2727272727272727,1547.8176747103348,20840.194827232248,78.0,40.0,38.0,0.5128205128205128,80.24196172880578,11493.732763540078,,,,,3834.0,3885.0,3908.0,4041.0,4085.0,4107.0,4116.0,4126.0,4351.0,4428.0,0.017287486458919706,-0.018709884695395744,0.05021063704848645,-0.21739908920093157,0.0071720209580297956
4,4,4916.697188275799,6227.880493307265,24.730110540438364,5088.671515612096,-2324.528758252995,214.02909367258076,5162.8366350807455,45910.67658405428,9.42837737716041,5184.876695499281,-5419.903049256305,4.400867748737253,5459.122419117339,10194.128699030329,30.03976869159865,0.9804126076897568,73.0,24.0,230.0,303.0,533.0,49.0,1057.0,1066.0,50.0,27.0,23.0,0.54,86.28200165604918,4493.489787595749,176.0,127.0,49.0,0.7215909090909091,32.67123799139857,2173.042202458654,23.0,12.0,11.0,0.5217391304347826,2257.8534540835244,41470.03034435709,11.0,3.0,8.0,0.2727272727272727,1444.9627146392015,20431.01161094578,73.0,36.0,37.0,0.4931506849315068,79.65895922324022,10044.56736958689,,,,,4890.0,4939.0,4963.0,5137.0,5151.0,5174.0,5182.0,5193.0,5424.0,5496.0,0.013854151785470408,-0.014054994103816859,0.04917926770148544,-0.26660305572024445,0.007814199876720943
5,5,6415.231648348319,6477.423719807979,22.89034856069618,6557.2330450071995,-2017.1992465857625,127.39827004320286,6628.938310668741,43556.61383707436,9.466727607730675,6651.301356399425,-4962.3243794732,4.545119746961073,6931.475513735493,10029.744855469424,31.627778299191217,0.9867848700885772,72.0,23.0,199.0,311.0,510.0,49.0,1497.0,1466.0,50.0,27.0,23.0,0.54,89.75965123716159,5272.02212972181,145.0,98.0,47.0,0.6758620689655173,30.855694007048047,1439.826132039645,23.0,12.0,11.0,0.5217391304347826,2123.7137873434326,40020.92811165636,11.0,2.0,9.0,0.1818181818181818,1360.4767435201918,19078.32177474112,80.0,40.0,40.0,0.5,67.31825718292761,10220.1618389163,,,,,6388.0,6437.0,6460.0,6586.0,6617.0,6640.0,6649.0,6659.0,6892.0,6970.0,0.01385730733697046,-0.01529630454664965,0.04875755023765823,-0.2741611872750286,0.00671186138361412
6,6,7803.883392695434,6165.3934947152065,25.91996318687047,7952.72626301008,-2062.04303759096,178.35757806048397,8021.741758609,43250.7437485836,9.469205143627926,8043.876695499281,-5497.6177011462905,4.635621176571955,8323.114182378398,10023.263409733794,31.767740316867165,0.9869743096917838,76.0,26.0,199.0,310.0,509.0,50.0,1387.0,1393.0,50.0,27.0,23.0,0.54,51.55310601163921,4401.951486144336,144.0,101.0,43.0,0.7013888888888888,29.58831225575462,1757.7000373208266,23.0,12.0,11.0,0.5217391304347826,2131.5457005439916,38961.78614799957,12.0,3.0,9.0,0.25,1365.1005034176878,19504.071944222786,79.0,39.0,40.0,0.4936708860759494,68.03249964664747,10034.782332276856,,,,,7777.0,7827.0,7853.0,7996.0,8010.0,8033.0,8041.0,8052.0,8284.0,8362.0,0.008361689494081604,-0.014349027501541383,0.049283446151461775,-0.24830764480641407,0.006787460018318957
7,7,9087.929040259303,6170.733656786085,24.249803629894984,9239.602958509358,-2184.617927407858,165.61775105616368,9301.549962227957,43773.15634515738,9.400532466781108,9323.301356399426,-6080.339064200137,4.644861422230109,9600.695724563311,10601.4655444481,31.7976740803908,0.9864958057209832,74.0,25.0,197.0,308.0,505.0,49.0,1285.0,1280.0,49.0,27.0,22.0,0.5510204081632653,66.65835117307499,4408.300790513213,145.0,107.0,38.0,0.7379310344827587,36.53460619339445,1335.4194188891695,23.0,12.0,11.0,0.5217391304347826,2187.2984433658717,38661.750604462155,12.0,3.0,9.0,0.25,1480.3832227343191,20849.463694655813,78.0,39.0,39.0,0.5,69.79567143419354,10575.43715059945,,,,,9061.0,9110.0,9135.0,9277.0,9290.0,9313.0,9321.0,9332.0,9562.0,9640.0,0.010802338081756195,-0.016723567876577992,0.049968945033771875,-0.2434705050332686,0.006583587065539722
8,8,10230.543925892098,5294.4685822831225,20.821960120899217,10361.808138396544,-1505.181620199817,59.57275100812419,10452.003470836957,44153.6885849834,9.164043951777218,10473.301356399426,-8285.410966895848,5.033530776869586,10747.601886249397,11473.184359165709,33.5906415458101,0.9829385712319938,75.0,24.0,203.0,307.0,510.0,51.0,1143.0,1150.0,51.0,28.0,23.0,0.5490196078431373,90.67208475222228,4986.168940939392,120.0,84.0,36.0,0.7,30.41062809097216,1430.9738757373796,22.0,11.0,11.0,0.5,2297.3569537973776,41070.98475738014,12.0,3.0,9.0,0.25,1657.3566523650695,21694.689259394818,83.0,42.0,41.0,0.5060240963855421,73.43234735768358,11832.21535881359,,,,,10203.0,10254.0,10278.0,10396.0,10441.0,10463.0,10471.0,10481.0,10707.0,10788.0,0.017125814110152286,-0.020203959231800257,0.052030918082316344,-0.20003312557300978,0.006400345802777925
9,9,11185.500506402368,5738.651048891043,22.492698705914208,11278.218989591936,-1281.7697408892532,142.6860624404831,11411.60312503603,44543.624989801654,9.246668476211788,11433.301356399426,-7745.233345285678,4.983151767688428,11705.624676225185,10931.534932400751,31.51658471514739,0.980505795050252,70.0,21.0,212.0,303.0,515.0,49.0,954.0,960.0,49.0,27.0,22.0,0.5510204081632653,93.53424380569824,4717.5910762979365,130.0,49.0,81.0,0.3769230769230769,29.19819351830183,1350.229579959993,23.0,12.0,11.0,0.5217391304347826,2285.040815957698,40200.119086324325,12.0,3.0,9.0,0.25,1607.8723534146068,21611.79766710271,79.0,40.0,39.0,0.5063291139240507,78.58621372452423,11376.039434577651,,,,,11159.0,11208.0,11229.0,11358.0,11400.0,11423.0,11431.0,11441.0,11667.0,11744.0,0.016298994834992298,-0.02277959339096662,0.051298941576507585,-0.2075950822570474,0.007188945944964872
10,10,12155.618210309369,6019.241055506483,22.293035534712924,12321.000245710513,-2868.220981444752,186.00147426307615,12388.34795359264,45665.44112352309,9.447184499981226,12409.876695499284,-6425.296744937197,4.70681331511209,12684.129836016911,9971.836430712276,29.783246034969,0.9749916258157464,67.0,23.0,221.0,302.0,523.0,44.0,971.0,977.0,44.0,25.0,19.0,0.5681818181818182,92.59264059260386,3943.389430698103,167.0,124.0,43.0,0.7425149700598802,39.23285547789586,2365.3797244476946,22.0,11.0,11.0,0.5,2266.1766253605383,41699.565083394235,12.0,3.0,9.0,0.25,1530.1502963926234,22030.245945909453,73.0,36.0,37.0,0.4931506849315068,73.93717180347737,9831.41688496526,,,,,12131.0,12175.0,12198.0,12363.0,12377.0,12399.0,12407.0,12419.0,12648.0,12721.0,0.015382776622295076,-0.013678463316356424,0.049625637453728444,-0.23814468920805923,0.007414599338568987
11,11,13413.217727095564,4919.198925373851,24.68016298503187,13575.630332208351,-2213.7877445019726,147.78199325011528,13634.208033025645,44574.03789004627,9.398745396389872,13656.301356399426,-5110.843748935853,4.33214884410076,13935.852947803318,10049.636113806157,31.57373028332444,0.9836480910731116,76.0,27.0,203.0,310.0,513.0,49.0,1253.0,1246.0,50.0,28.0,22.0,0.56,52.937786592296305,3210.7356719327427,151.0,117.0,34.0,0.7748344370860927,41.20566222016085,1183.531596372429,22.0,11.0,11.0,0.5,2185.9675299975765,41214.3019631987,11.0,2.0,9.0,0.1818181818181818,1427.8315043106668,19841.34250922986,79.0,40.0,39.0,0.5063291139240507,69.14496070842415,10144.398963140378,,,,,13385.0,13434.0,13461.0,13609.0,13623.0,13645.0,13654.0,13664.0,13897.0,13974.0,0.010761464904221803,-0.01861319465811332,0.049041272307208235,-0.2793729517964545,0.006880344713519829
12,12,14806.287506958144,5972.488384911409,24.54892046454801,14939.356349507918,-1939.0977069832916,140.1380970475231,15016.384569778496,43513.52117655274,9.437314227524343,15038.876695499284,-5121.52014766109,4.464233698373362,15318.105984257236,10129.082028065292,31.916979671803375,0.9851941822645698,76.0,25.0,192.0,312.0,504.0,51.0,1394.0,1382.0,51.0,28.0,23.0,0.5490196078431373,57.268886692988566,4210.266550681414,138.0,86.0,52.0,0.6231884057971014,27.471445654534183,1586.792807636776,23.0,11.0,12.0,0.4782608695652174,2119.8507734901864,40912.56012128909,11.0,3.0,8.0,0.2727272727272727,1333.182083607273,18635.570149194737,80.0,40.0,40.0,0.5,58.79884062081916,10199.462980120576,,,,,14778.0,14829.0,14854.0,14971.0,15005.0,15028.0,15036.0,15046.0,15278.0,15358.0,0.009588781593559859,-0.014167128121291154,0.04871705888588184,-0.26030983871382685,0.00580495255719141
13,13,16046.382207305558,5841.442016711399,22.81981285414613,16207.657705907342,-2314.540381236286,129.9462354440669,16261.34349482543,44183.94475726815,9.38871050818272,16282.876695499284,-6933.310986298996,4.816866881622338,16560.0556621022,11019.835434572387,33.42186009683849,0.9824035023019912,72.0,22.0,201.0,309.0,510.0,50.0,1245.0,1245.0,50.0,27.0,23.0,0.54,67.1332938210721,4442.056286798724,149.0,119.0,30.0,0.7986577181208053,49.86442514547129,1299.9445746100664,22.0,11.0,11.0,0.5,2213.170634701862,40593.130313246234,12.0,3.0,9.0,0.25,1528.0783259006782,21513.628365054898,84.0,42.0,42.0,0.5,73.78872553213581,11272.194434262992,,,,,16019.0,16069.0,16091.0,16237.0,16250.0,16272.0,16280.0,16292.0,16518.0,16601.0,0.011492589266317264,-0.021543985816672922,0.05008992852178055,-0.22039662275647715,0.00669599160261862
14,14,17104.535002909342,4878.399367248849,20.173513710643572,17251.780764697556,-1813.2104448637624,43.31541181468896,17332.436484451544,44241.25671478089,9.20190841680199,17353.876695499283,-8676.196122388117,5.2384182767285825,17626.8771792976,11633.772034825584,33.93253122827719,0.9780981094275608,75.0,24.0,209.0,306.0,515.0,51.0,1059.0,1071.0,54.0,28.0,26.0,0.5185185185185185,68.07631676042018,4577.602738719359,125.0,100.0,25.0,0.8,34.88082144607271,1746.8169188836243,22.0,11.0,11.0,0.5,2289.2677124401457,42152.21114851351,11.0,3.0,8.0,0.2727272727272727,1631.6842596701847,21784.340928488786,85.0,43.0,42.0,0.5058823529411764,71.47442621258324,11999.394525606716,,,,,17078.0,17129.0,17153.0,17276.0,17321.0,17343.0,17351.0,17362.0,17585.0,17668.0,0.01395464201177353,-0.019237050803936614,0.05174508778534104,-0.18806447395302364,0.006143701801842535
15,15,18079.22182274988,5222.652135617278,19.769050916523916,18233.70928919467,-3664.767741497221,142.6860624483872,18308.014386801315,45202.387809243635,9.447346195265377,18329.45203459914,-7740.787348424609,5.002524199956506,18604.36072925662,9994.903799002876,27.79907277708372,0.9601169420293976,59.0,23.0,222.0,301.0,523.0,36.0,972.0,976.0,37.0,21.0,16.0,0.5675675675675675,98.07353529911776,2996.9179573324514,167.0,117.0,50.0,0.7005988023952096,41.37977407433498,2993.587202007078,22.0,11.0,11.0,0.5,2289.145976836422,39715.3240204047,14.0,3.0,11.0,0.2142857142857142,1647.4415126754325,23850.457740158312,71.0,35.0,36.0,0.4929577464788732,76.15420327196112,9973.383064188434,,,,,18058.0,18094.0,18117.0,18284.0,18297.0,18319.0,18326.0,18339.0,18569.0,18640.0,0.01877849275663584,-0.011291240535049433,0.05064214719135489,-0.21282609100619676,0.007619303277292025
16,16,19091.404033489052,5464.298483548664,23.056352586795462,19257.575584810365,-2699.7907270330657,183.4535088622121,19323.44183624874,46370.05822493049,9.39197204506457,19345.876695499283,-5710.041436163018,4.487511473068036,19620.16977993136,9545.122333543455,29.05053655799011,0.9767866619825836,66.0,23.0,221.0,302.0,523.0,43.0,1009.0,1015.0,43.0,24.0,19.0,0.5581395348837209,83.17582072298003,3547.2277074937824,166.0,125.0,41.0,0.7530120481927711,42.21951850007724,1904.5814517248343,23.0,11.0,12.0,0.4782608695652174,2275.26180828883,42902.79071327018,11.0,3.0,8.0,0.2727272727272727,1443.1906812498785,20876.54329452581,72.0,35.0,37.0,0.4861111111111111,87.39747480678722,9576.313335124494,,,,,19067.0,19110.0,19133.0,19299.0,19312.0,19335.0,19343.0,19354.0,19586.0,19656.0,0.015221683254199429,-0.015638070787240006,0.04906747792405301,-0.2527460960457864,0.009156244598317523
17,17,20353.136260411968,4700.471456865868,24.49534639067639,20440.342294092658,-1086.8302814020942,56.316609016872846,20571.89868116635,43939.21894564877,9.20212120718252,20594.30135639943,-5632.453702787094,4.613093103173009,20870.647336340993,10208.748156450409,32.91837679487252,0.9901522580072982,79.0,21.0,200.0,309.0,509.0,58.0,1266.0,1248.0,60.0,31.0,29.0,0.5166666666666667,48.98018013599243,3929.527176122966,111.0,39.0,72.0,0.3513513513513513,29.34669860403166,863.0270293722863,23.0,12.0,11.0,0.5217391304347826,2199.682598227277,41590.638714066066,9.0,2.0,7.0,0.2222222222222222,1405.5461329941447,18604.46856677793,83.0,43.0,40.0,0.5180722891566265,65.50833614101435,10454.067728961983,,,,,20322.0,20380.0,20401.0,20513.0,20560.0,20583.0,20592.0,20601.0,20829.0,20910.0,0.010420269665598805,-0.027002098769434518,0.05006194126819153,-0.24954419639501726,0.006416882377456127
18,18,21666.86646479528,5210.497718420364,23.20648618421857,21789.12701372507,-1454.72458675824,94.2747198319701,21882.337090899346,43542.999915996785,9.32191505518919,21904.876695499283,-5534.421721336212,4.666744221385602,22182.461823434445,10514.596018888256,33.183132101557575,0.9882717121241432,75.0,21.0,199.0,311.0,510.0,54.0,1316.0,1311.0,54.0,29.0,25.0,0.5370370370370371,46.44422041364843,4000.3261706651456,116.0,76.0,40.0,0.6551724137931034,29.55195503100064,1561.9044123412557,23.0,11.0,12.0,0.4782608695652174,2152.369127703986,41498.56589419268,10.0,3.0,7.0,0.3,1341.3646008218157,18398.0874254592,83.0,42.0,41.0,0.5060240963855421,69.51612038785103,10755.837574575758,,,,,21638.0,21692.0,21713.0,21827.0,21871.0,21894.0,21902.0,21912.0,22142.0,22223.0,0.008913586172287711,-0.02031446728817258,0.04943088744129572,-0.24236761641249868,0.006611392417071788
19,19,22842.69799074498,6070.354630156422,23.59023357429492,22998.602958509357,-2327.813614298017,165.61775105616368,23060.274285355503,43452.84455083213,9.381189791930373,23082.30135639943,-5572.774930141205,4.527587048997063,23357.55638249386,10708.339828509288,32.42107576142527,0.9797034363776228,73.0,26.0,202.0,307.0,509.0,47.0,1174.0,1178.0,48.0,27.0,21.0,0.5625,68.69177130501392,4087.747782391506,148.0,111.0,37.0,0.75,34.18011384409583,1854.852522367304,22.0,11.0,11.0,0.5,2142.2920168503188,39953.58069094606,12.0,3.0,9.0,0.25,1428.635786246243,20223.252916912228,81.0,41.0,40.0,0.5061728395061729,67.33276693651284,10716.894656846593,,,,,22816.0,22863.0,22889.0,23036.0,23049.0,23071.0,23080.0,23091.0,23318.0,23398.0,0.011315940417017094,-0.01468335507368501,0.049301536849773245,-0.2563598573700237,0.006287881036166767
20,20,23937.699657011377,5781.288699461987,22.152408721883823,24099.175771500555,-2310.8780339378845,122.30233924147473,24157.819156358943,44646.965212752264,9.342624295621684,24179.876695499283,-6624.999552326903,4.592489328474978,24454.598609260305,10871.896649261327,31.82144595292461,0.9817267324777802,73.0,26.0,204.0,306.0,510.0,47.0,1092.0,1097.0,47.0,27.0,20.0,0.574468085106383,92.65517814339236,4563.523100509058,150.0,116.0,34.0,0.7733333333333333,37.80480368775984,1597.522798749588,22.0,11.0,11.0,0.5,2238.4939347476206,40085.99578558302,11.0,3.0,8.0,0.2727272727272727,1494.4929542230104,20853.847923870708,79.0,40.0,39.0,0.5063291139240507,78.50021519194875,11200.458380635806,,,,,23911.0,23958.0,23984.0,24133.0,24147.0,24169.0,24177.0,24188.0,24415.0,24494.0,0.01602673434246848,-0.016359497616296965,0.0501376504333659,-0.22558385739031464,0.007220471066314112
21,21,24912.096799462633,5980.529350454033,22.710941595639877,25032.068311392228,-3801.3750696444927,137.59013164665905,25132.30755744233,44699.79642105635,9.202064795627166,25153.876695499283,-7500.033023042226,4.813338148945846,25424.349185134222,11073.84960729113,30.982553496336955,0.9477731427704166,63.0,27.0,210.0,300.0,510.0,36.0,973.0,975.0,36.0,22.0,14.0,0.6111111111111112,107.35772802889085,3167.5327796518027,158.0,80.0,78.0,0.5063291139240507,31.43666644987981,3923.651710176955,22.0,11.0,11.0,0.5,2274.764600309833,40075.76022476762,13.0,4.0,9.0,0.3076923076923077,1576.1234672806502,22756.314333501872,79.0,39.0,40.0,0.4936708860759494,72.23984443008393,11233.123645415086,,,,,24890.0,24926.0,24953.0,25109.0,25121.0,25143.0,25151.0,25163.0,25386.0,25463.0,0.017951208285724808,-0.0082698144418619,0.05088982014330336,-0.21014887033675084,0.006523462661306194
22,22,25799.925744781965,5929.995239558819,24.881751266933883,25886.46559859338,-1092.9154571044137,48.37640881790002,26015.46943777415,45230.34070874652,9.263378837424938,26038.30135639943,-5506.89439557615,4.419705977781989,26305.730049936406,10787.121152205937,37.06728546282944,0.9852192785622472,83.0,25.0,193.0,305.0,498.0,58.0,890.0,883.0,59.0,32.0,27.0,0.5423728813559322,100.29762923421204,5912.651249974768,104.0,36.0,68.0,0.3461538461538461,27.04613134935433,945.8974705882744,23.0,11.0,12.0,0.4782608695652174,2222.912355841184,44212.68915867263,9.0,2.0,7.0,0.2222222222222222,1423.6456086893013,18231.13198407514,85.0,42.0,43.0,0.4941176470588235,62.75825372628393,11489.856454878787,,,,,25768.0,25826.0,25851.0,25952.0,26004.0,26027.0,26036.0,26044.0,26264.0,26349.0,0.016913610413230955,-0.024746773571133075,0.04914648709270773,-0.2585205937184773,0.005817887167555363
23,23,26693.43899444053,6581.395897584775,23.16272056199411,26816.39614824297,-2498.9114177677216,161.94721614190328,26915.68662368086,45328.968326155984,9.43567498729612,26937.876695499283,-5904.7941975957365,4.606096876917469,27207.838639965063,9688.594993394638,30.21636791239195,0.9805804086359732,69.0,22.0,209.0,300.0,509.0,47.0,894.0,900.0,49.0,26.0,23.0,0.5306122448979592,90.22545632839086,4618.0896472026925,154.0,80.0,74.0,0.5194805194805194,31.90423050640872,2730.59900450359,23.0,12.0,11.0,0.5217391304347826,2244.177694861175,40616.020249416135,11.0,3.0,8.0,0.2727272727272727,1445.648377399892,20433.369848521583,76.0,38.0,38.0,0.5,62.8744218994884,9653.925765719365,,,,,26668.0,26715.0,26737.0,26890.0,26904.0,26927.0,26935.0,26946.0,27170.0,27246.0,0.013709167132994018,-0.01276725148381161,0.04950868677869791,-0.2448262088437424,0.006489529384018435
24,24,29352.08434325307,7620.628434559164,23.741262183440067,29511.78101040806,-4075.572994192143,142.6860624483872,29567.30417391364,44865.15860217906,9.514339798304054,29589.45203459914,-5455.047307426507,4.707173162609732,29863.302063427094,7658.3881167122145,29.668126727530375,0.980044471166888,68.0,20.0,205.0,296.0,501.0,48.0,2662.0,2652.0,51.0,28.0,23.0,0.5490196078431373,116.54644410543312,5913.608355664826,154.0,121.0,33.0,0.7857142857142857,43.4497154061869,2828.0958892539825,22.0,11.0,11.0,0.5,2182.1647026897513,40027.63643775218,14.0,3.0,11.0,0.2142857142857142,1445.3750836583772,22057.56314735555,67.0,35.0,32.0,0.5223880597014925,130.91066978447842,9043.41072808326,,,,,29326.0,29374.0,29394.0,29544.0,29556.0,29578.0,29586.0,29599.0,29828.0,29895.0,0.015293547652435185,-0.010661007781753511,0.04863829240054811,-0.26496105390152014,0.017093762785252917
25,25,32678.102588689377,8311.778636325802,20.800096807935084,32801.30570941954,-3502.841769550239,145.23402784925125,32892.36138375744,42575.761870631206,9.362222946080918,32913.87669549929,-6343.280054689446,4.7622725872129426,33181.061414851756,8643.747946760312,28.96844002505643,0.971165262022596,56.0,17.0,208.0,295.0,503.0,39.0,3322.0,3325.0,40.0,20.0,20.0,0.5,152.4986389513269,6264.125870277219,154.0,86.0,68.0,0.5584415584415584,34.69943663876438,3353.7043985303617,22.0,11.0,11.0,0.5,2133.785078516021,38472.343229376595,12.0,3.0,9.0,0.25,1452.706856502665,20981.649025835377,74.0,37.0,37.0,0.5,72.08251746904662,8859.367905741263,,,,,32659.0,32698.0,32715.0,32869.0,32881.0,32903.0,32911.0,32923.0,33145.0,33218.0,0.018347293115440633,-0.00990608166786242,0.05011736689526882,-0.2290150906121055,0.008339266474800813
26,26,33493.320732082444,7793.051442721416,20.419459164787582,33637.69888931108,-6239.805551397543,196.1933358665324,33704.24464626345,43242.96113111838,9.455619043678988,33725.45203459914,-7180.561778445031,4.930796233585056,33992.015185773715,7579.5779318703535,26.12300712641227,0.9246755116195928,43.0,17.0,211.0,288.0,499.0,26.0,817.0,812.0,26.0,10.0,16.0,0.3846153846153846,132.72265605663867,3359.0804907189163,159.0,114.0,45.0,0.7169811320754716,39.75754668034075,5628.402182929482,21.0,10.0,11.0,0.4761904761904761,2172.999465288737,35648.98987145808,16.0,3.0,13.0,0.1875,1578.953315061172,25393.661872528213,61.0,27.0,34.0,0.4426229508196721,70.92344488733755,6592.346861583379,,,,,33483.0,33509.0,33526.0,33682.0,33694.0,33715.0,33722.0,33737.0,33965.0,34025.0,0.017030896951232048,-0.006371600261074829,0.050250940464042576,-0.21989272758587675,0.009357176022839088
27,27,,,,,,,,,,,,,,,,,,,,,,,,,,,,,,,,,,,,,,,,,,,,,,,,,,,,,,,,,,,,34034.0,34311.0,34480.0,34490.0,34511.0,34518.0,34533.0,34767.0,34816.0,,,,,
28,28,35084.50807689386,7114.922745491977,22.49394458429538,35195.27278588407,-4959.26080069128,163.06978565529965,35304.296629947195,44015.38572317797,9.450841026687234,35325.87669549929,-6507.977001377098,4.86522050847649,35592.218879454405,6627.161233901704,23.99142304003792,0.9392527312647388,44.0,15.0,220.0,289.0,509.0,29.0,1591.0,1600.0,31.0,14.0,17.0,0.4516129032258064,112.94341158899024,3456.1751149981355,166.0,79.0,87.0,0.4759036144578313,24.96262695450808,4444.144174956537,22.0,11.0,11.0,0.5,2183.911512465877,38760.745238292926,13.0,3.0,10.0,0.2307692307692307,1492.8627593607748,22503.084990171035,64.0,31.0,33.0,0.484375,54.54496279497313,6317.0307760223595,,,,,35072.0,35101.0,35116.0,35282.0,35293.0,35315.0,35323.0,35336.0,35562.0,35625.0,0.015874158529767778,-0.005033537851251642,0.049617002704485116,-0.22938967962623144,0.008230516939280817
29,29,35898.52863438443,7115.106986413974,22.615839054694813,36009.88468037478,-3195.331777773777,168.16571645702774,36118.12246417176,44966.30313593909,9.521251886957916,36140.87669549929,-4705.117718830964,4.399661124961803,36407.320637315606,7114.481298215231,28.74995256441649,0.9779552797983838,57.0,17.0,213.0,293.0,506.0,40.0,813.0,814.0,40.0,20.0,20.0,0.5,113.68064579060032,4918.538527303383,158.0,74.0,84.0,0.4683544303797468,32.8848088843659,3225.246121040586,23.0,11.0,12.0,0.4782608695652174,2156.9200359265365,41116.95468493271,11.0,3.0,8.0,0.2727272727272727,1320.8180823984333,19286.067629858066,72.0,36.0,36.0,0.5,76.35365023665709,7406.408035515444,,,,,35879.0,35919.0,35936.0,36094.0,36107.0,36130.0,36138.0,36149.0,36372.0,36442.0,0.015977362815157832,-0.010291516240381497,0.04796747532048347,-0.2807194551397121,0.010732145751203464
30,30,36745.902093671386,6670.303225166336,21.70603751091025,36875.33831872252,-2582.3553815156583,151.50229857347352,36970.84446090114,45127.92071198157,9.563972999517953,36993.87669549929,-4525.632835410397,4.35008976223676,37263.58144615511,7088.775198060098,30.10677996881683,0.9862313705163326,64.0,17.0,217.0,297.0,514.0,47.0,850.0,852.0,48.0,26.0,22.0,0.5416666666666666,95.94976148385987,5068.320648651904,160.0,90.0,70.0,0.5625,25.972009058149492,2840.5734323035085,23.0,12.0,11.0,0.5217391304347826,2153.5291637921764,41123.48249975349,11.0,3.0,8.0,0.2727272727272727,1299.5673513359206,18410.601557505262,72.0,37.0,35.0,0.5138888888888888,68.43703025893667,7346.727349245217,,,,,36721.0,36768.0,36785.0,36945.0,36959.0,36982.0,36991.0,37002.0,37227.0,37299.0,0.014384617647043654,-0.010057488308563392,0.047720549270075484,-0.2871570449037703,0.009654281359869479
31,31,37650.0592889775,6484.666061450451,22.108450439807577,37750.34474405392,-1743.6812547365832,73.60117332124663,37880.90897195242,43714.73160707987,9.334001392011736,37903.30135639943,-5165.172680530098,4.692549756012239,38171.856454690445,7686.272552967228,32.9793160284843,0.9934403116096356,72.0,18.0,218.0,299.0,517.0,54.0,901.0,910.0,54.0,30.0,24.0,0.5555555555555556,100.05296591717732,5949.98292193624,136.0,57.0,79.0,0.4191176470588235,25.759498598643372,1832.973609464746,23.0,12.0,11.0,0.5217391304347826,2151.7676618799355,41377.447307800176,10.0,2.0,8.0,0.2,1369.112971143594,18132.65233979073,80.0,42.0,38.0,0.525,65.40951101686294,8143.51161646584,,,,,37620.0,37674.0,37692.0,37831.0,37869.0,37892.0,37901.0,37910.0,38131.0,38209.0,0.015429162422405152,-0.014773054724692125,0.04922294116364753,-0.26506625350676233,0.008509913038617409
32,32,38615.920109538696,7095.426475801475,23.165114906813876,38713.57509338935,-2337.5420745470556,137.30823776153647,38844.00075115691,43091.304739684354,9.286956833389292,38866.30135639943,-5275.771845511341,4.448185369806139,39134.26811596737,7887.244307812342,30.505248892740173,0.9821476159913392,63.0,18.0,218.0,298.0,516.0,45.0,968.0,964.0,47.0,24.0,23.0,0.5106382978723404,114.2754830068856,5730.754781300165,163.0,58.0,105.0,0.3558282208588957,27.920173208158744,2637.601217886857,22.0,11.0,11.0,0.5,2135.3979777704003,39813.43617089082,11.0,3.0,8.0,0.2727272727272727,1386.3568052476985,18990.300008577997,77.0,38.0,39.0,0.4935064935064935,61.18519597078435,8139.20237913882,,,,,38593.0,38638.0,38656.0,38819.0,38833.0,38855.0,38864.0,38874.0,39097.0,39172.0,0.016105512952127015,-0.011944244132405113,0.04955519427110394,-0.2627780059191186,0.007757487099794817
33,33,39621.89309829645,6952.252438778824,20.55300367802336,39764.27747205389,-2948.5689969228283,193.64537046566832,39848.07025253089,42847.93309926979,9.20513606928366,39869.30135639943,-6117.311899822992,4.4522867862232784,40136.36143642242,8335.337003567749,31.349883381243902,0.9692971647071144,54.0,18.0,219.0,298.0,517.0,36.0,1004.0,1004.0,36.0,17.0,19.0,0.4722222222222222,134.18420903033035,5001.283095223433,166.0,105.0,61.0,0.6325301204819277,30.3276904359184,3128.128534013911,22.0,11.0,11.0,0.5,2168.7635223998086,38208.27832575714,12.0,3.0,9.0,0.25,1517.7308529265708,21196.100858154303,79.0,38.0,41.0,0.4810126582278481,64.56152397603422,8127.394950207106,,,,,39605.0,39641.0,39659.0,39825.0,39837.0,39859.0,39867.0,39878.0,40099.0,40176.0,0.01930082519470482,-0.010285562409280176,0.05061535914405096,-0.24810421272953032,0.007745520540849176
34,34,40658.39420289208,7519.861060602305,21.232493224229938,40772.5889030941,-1744.0527166286124,104.46658143542632,40881.32997391604,41264.2265786953,9.158697761498075,40902.87669549929,-6533.159496556693,4.754828852488781,41171.28554044812,8912.66485093324,33.140017309372595,0.9865246602456448,66.0,19.0,211.0,301.0,512.0,47.0,1037.0,1033.0,47.0,24.0,23.0,0.5106382978723404,143.24001941122086,7083.758129040549,134.0,74.0,60.0,0.5522388059701493,22.61004549608824,1740.8363686261546,22.0,11.0,11.0,0.5,2108.2982286321467,38760.27147387531,11.0,3.0,8.0,0.2727272727272727,1428.7420880829209,19253.612503506745,83.0,42.0,41.0,0.5060240963855421,67.64710898713429,9326.018928155052,,,,,40634.0,40681.0,40700.0,40831.0,40870.0,40892.0,40900.0,40911.0,41130.0,41212.0,0.0190482268564345,-0.012964083757625854,0.05109263891354891,-0.21869083233555534,0.007589998066633347
35,35,45550.23290105604,8175.132028961009,20.153220912063414,45673.632151494014,-3486.014426718484,150.88063753286465,45769.118728577945,42928.09640083647,9.239755431748398,45790.45203459914,-7762.354400847241,4.937997860183042,46055.55120092723,9396.946521042506,30.38385453979504,0.9734036787152412,54.0,17.0,213.0,294.0,507.0,37.0,4891.0,4888.0,37.0,18.0,19.0,0.4864864864864865,152.6826558862496,6007.169511635342,160.0,88.0,72.0,0.55,30.29951506528943,3494.855606438709,22.0,11.0,11.0,0.5,2211.037397598752,37854.89751097534,13.0,3.0,10.0,0.2307692307692307,1604.7504465294835,23085.58748705572,76.0,38.0,38.0,0.5,76.11499088748165,9638.946313646178,,,,,45532.0,45569.0,45586.0,45746.0,45758.0,45780.0,45787.0,45799.0,46019.0,46093.0,0.018676475847161856,-0.00869173541941176,0.051505600829662435,-0.20673501410272238,0.008099970635890921
36,36,46473.02081914546,7325.580892569525,21.398195035126093,46577.69839789007,-2885.1645215911262,175.72863445450884,46700.227467720455,43061.34258378298,9.25396395312394,46720.87669549929,-7770.595482164948,4.987171992330232,46986.556394724146,9540.259716174553,30.21792414922812,0.9655835701834532,55.0,19.0,219.0,295.0,514.0,36.0,924.0,931.0,37.0,17.0,20.0,0.4594594594594595,141.45489726604052,5339.690929750272,165.0,67.0,98.0,0.406060606060606,25.914913517487683,2974.7584771114366,22.0,11.0,11.0,0.5,2224.563466607347,38709.73352141473,13.0,3.0,10.0,0.2307692307692307,1611.7809563704875,22326.38874281042,77.0,39.0,38.0,0.5064935064935064,67.22540872145058,9488.462944075203,,,,,46456.0,46492.0,46511.0,46676.0,46689.0,46711.0,46718.0,46730.0,46949.0,47025.0,0.019309717460020255,-0.008982126781177798,0.05166033693164792,-0.20742052009654127,0.007046496711979093
37,37,47364.66012516315,7238.187945990731,21.225924490763205,47493.28575456641,-3155.8669803208913,145.23402784919213,47596.66771849965,43645.2185385952,9.272384027135937,47617.87669549929,-7206.175003115283,5.025911316908051,47882.35288729615,9341.01112953224,28.941452620491184,0.9758254986525736,56.0,19.0,224.0,292.0,516.0,37.0,892.0,896.0,38.0,19.0,19.0,0.5,147.00252879414788,5627.6791906111175,171.0,91.0,80.0,0.5321637426900585,35.247649359240405,3009.187463586421,21.0,11.0,10.0,0.5238095238095238,2240.443519867584,38116.746085931234,13.0,3.0,10.0,0.2307692307692307,1547.7814847760876,22111.414767516424,74.0,37.0,37.0,0.5,73.18180960219476,9536.038645701938,,,,,47347.0,47384.0,47403.0,47573.0,47586.0,47607.0,47615.0,47627.0,47846.0,47919.0,0.020309299771025333,-0.011168927454495053,0.05133308057299275,-0.2147854422223954,0.00783446337739878
38,38,48301.78408014429,6746.125370718565,21.350741396468656,48404.36966779165,-2145.907888983015,134.5956358059527,48537.23494666146,44769.04174186292,9.385450854051404,48559.30135639943,-6004.205542221787,4.795368123510569,48823.857940487454,8944.779094340778,30.548733941512804,0.9815382309162372,62.0,17.0,227.0,295.0,522.0,45.0,935.0,941.0,45.0,24.0,21.0,0.5333333333333333,109.3118403158937,5281.476374045058,146.0,63.0,83.0,0.4315068493150685,20.813909096316852,2248.204419249932,23.0,11.0,12.0,0.4782608695652174,2210.6744042120777,42098.88933341704,11.0,2.0,9.0,0.1818181818181818,1473.5996135026176,20188.2889416876,77.0,39.0,38.0,0.5064935064935064,60.93846122867011,9054.407266624232,,,,,48278.0,48323.0,48340.0,48487.0,48526.0,48549.0,48557.0,48567.0,48785.0,48862.0,0.016203647917715815,-0.009699348794593856,0.049379533673263906,-0.24542790934457734,0.00681274077156639
39,39,49253.06388364827,6536.8448098612325,23.10951521436664,49361.21618745893,-2159.370039987939,126.30758581490424,49490.98571255213,44353.837293650664,9.3756571793342,49513.30135639943,-5672.728073544351,4.74971235388409,49778.3188793011,8817.093791289844,30.434544403493145,0.9844776587533284,68.0,19.0,226.0,294.0,520.0,49.0,954.0,953.0,50.0,27.0,23.0,0.54,95.99746712488044,5251.0186472597115,154.0,66.0,88.0,0.4285714285714285,27.32607775430829,2281.7566583599314,22.0,11.0,11.0,0.5,2189.510835370639,41257.78502649862,11.0,2.0,9.0,0.1818181818181818,1425.6015343768925,19602.099136923072,77.0,40.0,37.0,0.5194805194805194,68.15306578567366,9149.42879100502,,,,,49227.0,49276.0,49295.0,49449.0,49480.0,49502.0,49511.0,49521.0,49739.0,49815.0,0.01468559678517415,-0.01265465262936635,0.04936463153964971,-0.25130792731373935,0.007729651901060657
40,40,50399.55343876547,5082.892565945566,22.96097854131079,50537.68483389583,-1261.6088484736686,62.42394833357693,50634.499760679915,43725.3696375468,9.271522254730096,50657.30135639943,-5019.453611153605,4.4851081956747505,50925.45404621661,9261.230779236996,32.1021175563509,0.9899530429475462,77.0,18.0,217.0,299.0,516.0,59.0,1146.0,1144.0,60.0,30.0,30.0,0.5,61.88012992003881,4755.417313039574,133.0,91.0,42.0,0.6842105263157895,30.514622797027112,1254.224660736014,23.0,11.0,12.0,0.4782608695652174,2147.582439657011,42619.12395215007,9.0,2.0,7.0,0.2222222222222222,1344.9210726201948,17624.95281812305,79.0,40.0,39.0,0.5063291139240507,77.66931090253087,9964.993284384516,,,,,50370.0,50429.0,50447.0,50579.0,50623.0,50646.0,50655.0,50664.0,50886.0,50963.0,0.012174195916440209,-0.024187071003777913,0.04911524950981525,-0.26794172768758706,0.008386499889049282
41,41,51597.05515385588,5369.383423350221,24.298675165706328,51705.04504596129,-1526.919971329094,99.19978282871806,51821.440847135265,41722.77671890751,9.182032916841765,51843.30135639943,-6158.7892536345935,4.691965630882678,52109.7724189864,9640.637491237356,32.19398026118576,0.9860010604027027,76.0,22.0,207.0,299.0,506.0,54.0,1197.0,1187.0,55.0,29.0,26.0,0.5272727272727272,59.36981611948334,4134.059711457671,123.0,61.0,62.0,0.4959349593495935,23.06078133570072,1791.3824557322591,23.0,11.0,12.0,0.4782608695652174,2108.69748605582,39732.264467196146,11.0,3.0,8.0,0.2727272727272727,1427.1834418230503,19108.416197801092,83.0,42.0,41.0,0.5060240963855421,61.78225629639298,9875.475732040364,,,,,51568.0,51622.0,51644.0,51767.0,51810.0,51833.0,51841.0,51851.0,52069.0,52150.0,0.011057101242071404,-0.015102809425976442,0.0505406795013291,-0.23173117037261856,0.006408523954204127
42,42,52807.674794414896,5691.012076515423,23.6603435688174,52912.5889030941,-1752.1821140755037,81.6415998760855,53022.21405577413,41218.086251061846,9.2547143312901,53043.87669549929,-6219.1035134524045,4.8762616255374835,53312.49267876427,10151.923280600511,32.896219473702764,0.9883467930113988,75.0,21.0,199.0,301.0,500.0,54.0,1212.0,1201.0,54.0,30.0,24.0,0.5555555555555556,69.08921329102746,4494.37702407639,122.0,61.0,61.0,0.5,26.479911443283935,1636.031881101693,22.0,11.0,11.0,0.5,2082.1140276639712,38871.80307958828,11.0,3.0,8.0,0.2727272727272727,1384.5971902014708,18682.55241349948,84.0,42.0,42.0,0.5,71.45864996567191,10564.653501199527,,,,,52778.0,52832.0,52853.0,52971.0,53011.0,53033.0,53041.0,53052.0,53272.0,53353.0,0.01214005740316939,-0.015112533811735327,0.05051457301975859,-0.2226361383447758,0.007038927303777354
43,43,53967.3580683493,6299.196006282485,23.817901462466377,54095.518106279385,-1866.8378308475824,110.56898757156296,54182.26243169667,40965.376343681746,9.283907812204289,54203.87669549929,-6156.695119127679,4.794141169425819,54471.55237867765,10399.977829975143,33.74179098920618,0.9855446714386292,76.0,24.0,197.0,300.0,497.0,52.0,1157.0,1160.0,52.0,28.0,24.0,0.5384615384615384,64.17096542921516,4901.377806098893,143.0,81.0,62.0,0.5664335664335665,33.327436119037536,1842.5313565609583,22.0,11.0,11.0,0.5,2064.590836406475,38103.96999538651,11.0,3.0,8.0,0.2727272727272727,1389.121597110984,19075.776925818373,84.0,43.0,41.0,0.5119047619047619,66.70009830447931,10727.23777223794,,,,,53939.0,53991.0,54015.0,54158.0,54171.0,54193.0,54201.0,54212.0,54431.0,54512.0,0.010187167594914405,-0.017852346662541225,0.05039843449955037,-0.22562780359145085,0.00641348466265324
44,44,56852.75157046609,7419.496073655102,22.401345490585783,56974.49427726035,-2935.2808508399544,169.56834637102824,57071.77554947497,42027.78605882722,9.30125535176621,57092.87669549929,-7363.646133456142,4.955890788077856,57357.618361385976,10096.665862106878,30.81250604630695,0.9729549402603572,66.0,23.0,207.0,295.0,502.0,43.0,2885.0,2889.0,43.0,24.0,19.0,0.5581395348837209,116.15137337963048,4987.585808733231,154.0,80.0,74.0,0.5194805194805194,32.238158458446314,3091.766025911198,22.0,11.0,11.0,0.5,2162.282647805426,36679.053914858574,12.0,3.0,9.0,0.25,1524.199323846842,21836.45018535,77.0,38.0,39.0,0.4935064935064935,71.12143669175839,10100.943894067072,,,,,56829.0,56872.0,56895.0,57048.0,57061.0,57083.0,57090.0,57102.0,57321.0,57397.0,0.015654887101033303,-0.010982989395791924,0.05144888300275516,-0.20698975700662248,0.007044051735799191
45,45,57788.67956448053,6785.021380978855,22.781736419421826,57900.90789456753,-3789.5907024372023,173.26164725875586,58014.65764828464,43666.252210304665,9.261416936365448,58035.87669549929,-7841.319777121813,4.9418212847996505,58300.76461430205,9460.827604602531,28.111416403059476,0.9566056226018528,59.0,21.0,218.0,291.0,509.0,38.0,935.0,943.0,38.0,21.0,17.0,0.5526315789473685,103.82786377325382,3602.4296810168776,164.0,74.0,90.0,0.4512195121951219,31.489199853655556,3727.68464414114,21.0,11.0,10.0,0.5238095238095238,2259.86062896756,37324.19390967585,13.0,3.0,10.0,0.2307692307692307,1591.597065190096,23181.518718901207,72.0,36.0,36.0,0.5,77.87473223402554,9547.126907571446,,,,,57768.0,57806.0,57827.0,57991.0,58004.0,58025.0,58033.0,58045.0,58267.0,58336.0,0.015302510919762922,-0.0083093933688944,0.051753024694761014,-0.2029756610403533,0.008231281182646306
46,46,58691.53400434991,6310.86075431036,23.17406706214543,58788.09568509218,-2099.924359611894,103.455972655666,58923.90203085017,42878.73135882555,9.172220422110282,58944.87669549929,-8037.206865710461,5.185206983772721,59208.79915228256,10550.341519815922,32.18699731070818,0.9791803720871236,71.0,21.0,219.0,295.0,514.0,50.0,906.0,909.0,51.0,29.0,22.0,0.5686274509803921,102.04852587135964,4972.104287993608,145.0,55.0,90.0,0.3793103448275862,31.817770543130717,1891.510501528461,22.0,11.0,11.0,0.5,2235.1376410275693,39077.874418553285,12.0,3.0,9.0,0.25,1589.14532978174,21413.357266739626,82.0,42.0,40.0,0.5121951219512195,59.581756647407865,10659.35214147724,,,,,58663.0,58713.0,58734.0,58875.0,58913.0,58935.0,58942.0,58953.0,59168.0,59248.0,0.016170302252614243,-0.015151865064802261,0.05212695362470234,-0.1977235818778773,0.00564737705746301
47,47,59586.77848707169,5796.415347878727,22.77911998102499,59710.94500689151,-2872.3622567299717,150.32995865097934,59820.17909965902,44859.97933208328,9.395790014230728,59841.87669549929,-6320.236724020783,4.771104086859644,60105.20657981871,9377.522561697926,29.41590689893063,0.9735609945842842,65.0,20.0,224.0,291.0,515.0,45.0,896.0,897.0,46.0,26.0,20.0,0.5652173913043478,79.91566540854589,3735.745486764068,168.0,84.0,84.0,0.5,27.49059750302032,2868.2156465594535,22.0,11.0,11.0,0.5,2230.5445786640917,41064.38283246778,12.0,3.0,9.0,0.25,1489.9132425300572,21061.73490883954,76.0,38.0,38.0,0.5,75.18757120561558,9622.103607546607,,,,,59562.0,59607.0,59627.0,59795.0,59809.0,59831.0,59839.0,59851.0,60068.0,60142.0,0.013787084018710299,-0.009570727869929914,0.0497223719643766,-0.23573693638206167,0.008017850206270457
48,48,60526.05107942639,5201.250354659241,20.23548743082568,60658.71220759482,-2405.7650290319366,91.72675443110604,60762.44225274068,45200.7869712138,9.38573656043401,60784.87669549929,-5778.513376535111,4.856216650121354,61050.289836225085,9113.068535874148,30.42431183437998,0.980369871818792,69.0,20.0,226.0,294.0,520.0,49.0,938.0,942.0,50.0,28.0,22.0,0.56,81.81402811215337,4170.522003522786,147.0,93.0,54.0,0.6326530612244898,29.87392663131606,2229.2948634178656,23.0,11.0,12.0,0.4782608695652174,2215.720529751513,43100.79223134967,11.0,3.0,8.0,0.2727272727272727,1393.0101423330375,19484.689949229964,76.0,38.0,38.0,0.5,81.04733765943547,9442.768291189815,,,,,60498.0,60547.0,60567.0,60710.0,60751.0,60774.0,60782.0,60793.0,61012.0,61087.0,0.01572968469761602,-0.012417641070847689,0.04901951223023171,-0.24106721773625253,0.00889352881967119
49,49,61570.084556188405,5737.897146134652,22.667214763173348,61711.73330396079,-3052.891350671631,165.61775105616368,61823.5169018381,45566.8662649738,9.44556815635674,61845.30135639943,-5103.190839017746,4.351846376375076,62111.832303838455,8825.680909794803,27.58986870581314,0.9667481477935082,62.0,23.0,243.0,293.0,536.0,39.0,1042.0,1061.0,40.0,22.0,18.0,0.55,99.15266025258585,3686.265380589014,169.0,101.0,68.0,0.5976331360946746,29.362570736499645,3274.478749746945,23.0,12.0,11.0,0.5217391304347826,2243.044317954475,40339.410250293,11.0,2.0,9.0,0.1818181818181818,1471.518535269855,20386.99228295538,71.0,35.0,36.0,0.4929577464788732,72.36280983967005,8864.626979203107,,,,,61549.0,61588.0,61611.0,61780.0,61812.0,61835.0,61843.0,61854.0,62078.0,62147.0,0.017280313279818944,-0.00961795470711394,0.04922533634222399,-0.2883526369460819,0.008199119204430028
50,50,62801.11008522017,5007.015475530492,24.06680721557443,62949.146383496,-2131.785282531166,155.42588945270745,63028.11348590279,42963.710305468754,9.251533237114431,63049.87669549929,-5747.803428761032,4.461921179706432,63317.95179472304,9557.68317383835,31.158455918099683,0.9794187924742372,73.0,22.0,212.0,298.0,510.0,51.0,1232.0,1205.0,51.0,28.0,23.0,0.5490196078431373,52.37104035790441,3226.9906689710133,158.0,103.0,55.0,0.6518987341772152,28.646371335299037,2083.29259642725,22.0,11.0,11.0,0.5,2153.803497709897,39315.23214673287,11.0,3.0,8.0,0.2727272727272727,1417.6183686057625,19675.5903708433,78.0,39.0,39.0,0.5,72.10313559929008,9805.147095738726,,,,,62773.0,62824.0,62846.0,63004.0,63017.0,63039.0,63047.0,63058.0,63280.0,63356.0,0.010459532352924416,-0.013437737641797532,0.05013076110970202,-0.24663654319008912,0.007543997252038391
51,51,64033.82190665396,5736.2736616122465,23.473571148966876,64146.43822489439,-1695.3606479953091,99.37065063369774,64252.7859740161,41817.94985350123,9.26558315099034,64274.87669549929,-6033.843072805148,4.750937851373993,64544.101290606675,10006.896010121094,32.010050091731465,0.987015694803856,74.0,22.0,203.0,301.0,504.0,52.0,1233.0,1224.0,52.0,29.0,23.0,0.5576923076923077,72.74746791183249,4451.2475501521785,123.0,67.0,56.0,0.5447154471544715,25.60794638679748,1770.4456542689134,23.0,12.0,11.0,0.5217391304347826,2105.950793787379,38419.41692240354,11.0,3.0,8.0,0.2727272727272727,1368.566453425348,18665.08958358846,81.0,41.0,40.0,0.5061728395061729,64.87729436917992,10216.463870097436,,,,,64005.0,64057.0,64079.0,64202.0,64241.0,64264.0,64272.0,64282.0,64504.0,64583.0,0.012682007903260663,-0.015104719115120298,0.05035997224074956,-0.22681505582960054,0.0064832585752427375
52,52,65192.52883718672,6367.710106774461,24.070449239362834,65314.97427504884,-1654.671672076013,106.3845988342975,65411.55523217178,41641.45793516766,9.297018794299673,65433.30135639943,-6034.023998849493,4.832055054843403,65702.6505879004,10345.296541226477,33.05132886193991,0.9881764662855284,77.0,25.0,200.0,302.0,502.0,52.0,1160.0,1159.0,53.0,29.0,24.0,0.5471698113207547,76.5547603896476,5062.662405131626,125.0,74.0,51.0,0.592,29.159621589881272,1728.1106957136096,23.0,12.0,11.0,0.5217391304347826,2104.3588907090134,37544.766768841655,11.0,2.0,9.0,0.1818181818181818,1415.5170569955685,19280.341174850862,82.0,42.0,40.0,0.5121951219512195,73.02098822104253,10802.124806607544,,,,,65164.0,65216.0,65241.0,65363.0,65400.0,65423.0,65431.0,65441.0,65662.0,65743.0,0.012022337560279754,-0.017622602768860192,0.050535187648456686,-0.23458923220482136,0.007058375555504917
53,53,66315.17045393518,5862.659318470439,20.57229051255677,66449.38347749642,-1799.8165190223406,63.69913502160143,66532.65387209404,40962.35773867049,9.310678639748398,66554.30135639943,-6440.595452147534,5.005589203497138,66822.67095907277,10192.372159531433,32.8029456533918,0.9857305400437256,74.0,23.0,200.0,300.0,500.0,51.0,1121.0,1121.0,51.0,27.0,24.0,0.5294117647058824,78.84648352125772,5155.190605464997,126.0,87.0,39.0,0.6904761904761905,34.022075498315004,1684.847216947198,23.0,12.0,11.0,0.5217391304347826,2082.9833844700547,37458.99806705276,11.0,2.0,9.0,0.1818181818181818,1418.565709570304,19185.24486201334,82.0,42.0,40.0,0.5121951219512195,64.01433137529027,10587.025839436525,,,,,66288.0,66339.0,66362.0,66485.0,66521.0,66544.0,66552.0,66562.0,66782.0,66862.0,0.013448928078227252,-0.018903079918832937,0.05085115944152832,-0.22025381350373457,0.006280611654807663
54,54,67398.38499617713,6576.554020452157,23.848314584056137,67501.2312755325,-2430.4363132686744,92.11625624138364,67616.70205579593,41503.93302114943,9.193208373956978,67638.30135639943,-6631.180863058694,4.853470100546742,67905.9831742283,10360.12138163159,32.50261817692906,0.9834543189694188,74.0,25.0,202.0,300.0,502.0,49.0,1084.0,1084.0,49.0,28.0,21.0,0.5714285714285714,81.2722989252208,4937.82589400529,148.0,57.0,91.0,0.3851351351351351,28.95782246799665,2453.7527943068085,23.0,12.0,11.0,0.5217391304347826,2125.884499436025,37620.57343199937,12.0,3.0,9.0,0.25,1466.5681317557733,19723.71153769452,83.0,42.0,41.0,0.5060240963855421,70.53634451543046,10693.625003293966,,,,,67370.0,67419.0,67444.0,67592.0,67605.0,67628.0,67636.0,67646.0,67865.0,67946.0,0.012357885097951814,-0.011914660059144485,0.05122127819435147,-0.2211624387936397,0.006808447692561867
55,55,68394.67018171068,6442.94263881017,22.765750707416064,68538.93890782847,-4534.553893314255,168.16571645702774,68619.88294750817,43853.66759771194,9.30668879327745,68640.87669549929,-7911.360311750971,4.966199210799044,68906.79286456536,9494.68223460312,28.233624269150436,0.955696319408804,62.0,24.0,216.0,292.0,508.0,38.0,997.0,1003.0,39.0,23.0,16.0,0.5897435897435898,92.39356751066816,2986.0449991254873,163.0,105.0,58.0,0.6441717791411042,38.46729922170768,4388.01210658717,21.0,11.0,10.0,0.5238095238095238,2260.313106000936,37051.24424268462,14.0,4.0,10.0,0.2857142857142857,1616.8743820545264,24279.430549281707,71.0,35.0,36.0,0.4929577464788732,72.58232275941812,9339.63339504412,,,,,68373.0,68411.0,68435.0,68597.0,68609.0,68630.0,68638.0,68651.0,68873.0,68943.0,0.014340274730077474,-0.008483149638694084,0.05154216807441819,-0.20437375095316243,0.0076445236360721735
56,56,69339.94666142705,4844.067105029379,17.743045076936,69472.98619029527,-2561.1850844019677,84.08285822849821,69569.5822498906,43471.19311193018,9.149315943673548,69590.87669549929,-8282.644807281404,5.058425426400724,69854.03303333504,10310.347146635391,30.576801743154984,0.9599816434777126,61.0,22.0,220.0,293.0,513.0,39.0,942.0,950.0,39.0,22.0,17.0,0.5641025641025641,109.4260706242794,3921.0285425402594,143.0,94.0,49.0,0.6573426573426573,32.98002825849514,2247.0200479747264,22.0,12.0,10.0,0.5454545454545454,2280.84334063902,38611.80965470662,11.0,3.0,8.0,0.2727272727272727,1603.728400624585,21877.78608314617,78.0,39.0,39.0,0.5,71.96189742101693,10582.885591060714,,,,,69318.0,69357.0,69379.0,69520.0,69558.0,69580.0,69588.0,69599.0,69816.0,69892.0,0.022589709897013442,-0.012876862534983846,0.052467925938132765,-0.19362515693232699,0.006979580454233346
57,57,70253.97428845197,6275.765966932509,22.538689945211576,70351.36966779166,-2567.1467532686256,132.53940959909443,70485.76023171919,44334.66114112682,9.228504583162955,70507.87669549929,-6893.888408476987,4.749344922816687,70771.66001289747,9920.170403615812,29.159614014162297,0.976575303326045,65.0,23.0,221.0,292.0,513.0,42.0,916.0,916.0,43.0,24.0,19.0,0.5581395348837209,105.31965776395558,4221.4561321634155,139.0,56.0,83.0,0.4028776978417266,29.79708621087357,2932.263606775513,22.0,11.0,11.0,0.5,2251.5875747685127,40034.83452269113,11.0,3.0,8.0,0.2727272727272727,1488.231869666602,20640.836142873217,75.0,38.0,37.0,0.5066666666666667,73.0120570946024,10078.388398000414,,,,,70230.0,70272.0,70295.0,70434.0,70475.0,70497.0,70505.0,70516.0,70735.0,70808.0,0.016781960691155933,-0.011607083300919342,0.050786168582663174,-0.2158769886435376,0.007359959972863991
58,58,71211.61349051238,5270.638803914578,22.50610049062169,71321.49297229238,-1313.7092526160452,102.3560588099637,71452.35882354339,46147.68966579824,9.34300196682404,71474.72601729959,-5535.623793216038,4.488769091046907,71739.35476963504,9651.88546319011,31.623764920304993,0.980692589487156,73.0,18.0,227.0,296.0,523.0,55.0,957.0,967.0,56.0,30.0,26.0,0.5357142857142857,67.0366527312236,4205.577744922686,144.0,66.0,78.0,0.4583333333333333,28.69825326899827,1317.992269868951,23.0,11.0,12.0,0.4782608695652174,2264.2399040787236,44507.424243519694,10.0,3.0,7.0,0.3,1417.1683668047626,18632.46575532169,81.0,41.0,40.0,0.5061728395061729,72.07604920769796,10071.32691221242,,,,,71182.0,71237.0,71255.0,71397.0,71441.0,71464.0,71473.0,71482.0,71699.0,71778.0,0.012718885741408524,-0.02184520906117561,0.04906507607371806,-0.2560087931809088,0.00746756159535648
59,59,72293.1615559779,5525.887199530032,25.051351521981637,72433.36510988511,-2030.1041529623392,153.72125052618236,72538.06317109105,45064.55918208516,9.392629397537329,72560.30135639943,-4653.619240999436,4.204444752668798,72827.41298773402,9255.126286199871,29.91180679447581,0.9804570690947136,74.0,24.0,227.0,298.0,525.0,50.0,1084.0,1085.0,52.0,28.0,24.0,0.5384615384615384,69.0341548164113,4024.532495260573,174.0,94.0,80.0,0.5402298850574713,29.78951085403634,2069.2442600257887,22.0,11.0,11.0,0.5,2196.0088007023983,41923.47029111454,10.0,2.0,8.0,0.2,1403.4002632682607,18997.890197401437,76.0,38.0,38.0,0.5,76.00212270856154,9539.735386292165,,,,,72266.0,72316.0,72340.0,72491.0,72527.0,72549.0,72558.0,72567.0,72790.0,72865.0,0.012492863557237026,-0.01467388301756209,0.04873028474170437,-0.3015717854404562,0.008211894722807483
60,60,73745.15196841417,5519.412025448681,23.17269475450846,73875.08236680747,-1923.8772073664115,132.49420084493093,73956.7185895605,41849.08852946414,9.36378932854703,73978.87669549929,-5474.290271107831,4.567716895778787,74251.02798583399,10002.707875434022,32.17742562183405,0.9844676634859776,72.0,24.0,196.0,303.0,499.0,48.0,1452.0,1419.0,50.0,27.0,23.0,0.54,61.63773918187185,3913.192618209088,119.0,85.0,34.0,0.7142857142857143,34.6426412245455,1752.2441917461697,23.0,12.0,11.0,0.5217391304347826,2080.750942296608,37840.95541427967,11.0,3.0,8.0,0.2727272727272727,1336.3170714809978,18564.367915698986,80.0,40.0,40.0,0.5,75.68405258784593,10420.810395480356,,,,,73719.0,73767.0,73791.0,73905.0,73945.0,73968.0,73976.0,73987.0,74211.0,74290.0,0.011167446622516142,-0.018006679995948224,0.04972034076277769,-0.24410782134330766,0.007566356383726938
61,61,75025.28397008446,5888.38665664795,22.718821234268553,75148.10949479598,-1396.5553618431,71.34303122418216,75241.80789868392,41566.71196914417,9.281025441624283,75263.87669549929,-6294.5017802211905,5.014622891306694,75535.3750106564,10700.980446955944,33.589865408509645,0.9902074654646136,77.0,23.0,198.0,303.0,501.0,54.0,1280.0,1285.0,54.0,28.0,26.0,0.5185185185185185,66.14613143840191,5151.260228235258,114.0,74.0,40.0,0.6491228070175439,29.722074370215797,1461.9496602477689,23.0,12.0,11.0,0.5217391304347826,2099.024116639698,38498.99783631203,11.0,3.0,8.0,0.2727272727272727,1365.7662386828729,18702.364701552815,83.0,42.0,41.0,0.5060240963855421,72.2327867434037,11071.534837903064,,,,,74997.0,75051.0,75074.0,75188.0,75230.0,75253.0,75261.0,75272.0,75494.0,75575.0,0.011233319972920488,-0.021282417569891517,0.05049771841943734,-0.2169776554793316,0.006750109216763536
62,62,76229.87165507859,5302.460734860938,19.32738790607366,76413.60271279886,-2392.475487325374,20.383723206912453,76449.07953404525,40190.94959926896,9.361899755979849,76470.87669549929,-7746.777559440898,5.785035004267989,76742.22878001827,10491.566518397978,31.655351579465247,0.9817651733090814,75.0,23.0,200.0,302.0,502.0,52.0,1204.0,1208.0,52.0,26.0,26.0,0.5,59.61689610104757,4830.859488180431,147.0,136.0,11.0,0.9251700680272108,183.6756571928185,90.37237579835733,22.0,11.0,11.0,0.5,2081.798591356694,37908.65757331827,12.0,3.0,9.0,0.25,1400.206288135826,19906.784447753584,81.0,41.0,40.0,0.5061728395061729,71.15350025166687,10749.46499170156,,,,,76204.0,76256.0,76279.0,76425.0,76438.0,76460.0,76468.0,76479.0,76702.0,76781.0,0.011243250838067938,-0.07677222114327929,0.05179769605131599,-0.1807469334690542,0.006781971036154831
63,63,77403.80337339865,5294.898153381916,19.008807268611463,77588.45203459926,-1594.9793536129682,15.287792405182088,77622.45207298985,41182.46816144262,9.26681782494529,77643.87669549929,-7802.123799714996,5.360706683151912,77913.86567238708,10891.71122933275,33.55594203701488,0.9805474342322288,203.0,153.0,71.0,303.0,374.0,50.0,1175.0,1173.0,51.0,26.0,25.0,0.5098039215686274,69.46906611993272,4905.306703904273,148.0,138.0,10.0,0.9324324324324323,213.1626709535157,733.3156205563171,23.0,11.0,12.0,0.4782608695652174,2138.143144938515,39687.07734642477,11.0,3.0,8.0,0.2727272727272727,1481.500856970524,20240.27177302186,83.0,42.0,41.0,0.5060240963855421,69.10353906170239,11221.751859240112,,,,,77378.0,77428.0,77581.0,77597.0,77611.0,77633.0,77641.0,77652.0,77874.0,77955.0,0.01312000044336301,-0.1336460377814025,0.05191877127316926,-0.1898843052227192,0.006344598897884647
64,64,78432.18371311718,6394.621743728489,22.67121422511495,78582.84890622723,-3377.766644547403,193.64537046566832,78658.54344643913,44491.50463585878,9.187261201110108,78679.87669549929,-7772.86368613859,4.804906215243861,78947.12879158207,10970.21917123076,31.35298844395725,0.9573608680072784,61.0,24.0,216.0,297.0,513.0,37.0,1025.0,1036.0,37.0,20.0,17.0,0.5405405405405406,107.5811614852823,3933.045163540256,163.0,110.0,53.0,0.6748466257668712,31.125615072437053,3476.7222690917756,21.0,11.0,10.0,0.5238095238095238,2302.803969119223,37682.49860696943,13.0,4.0,9.0,0.3076923076923077,1614.1684917582786,23487.93928664522,77.0,37.0,40.0,0.4805194805194805,70.55604223716401,10717.844380447776,,,,,78412.0,78449.0,78473.0,78636.0,78648.0,78669.0,78677.0,78689.0,78911.0,78986.0,0.016823694316367075,-0.00921485062406011,0.051758284822384586,-0.2076671554959645,0.006431598232986648
65,65,79360.46959954893,5688.605217405317,21.175563841351973,79471.4655985934,-2209.3802799011983,117.20640843974662,79589.32132135025,43721.96921364789,9.164835847462449,79610.87669549929,-8214.160648864916,4.975516548906521,79875.87726984527,11060.61477385502,30.41073629269214,0.9705605461249248,66.0,21.0,218.0,295.0,513.0,45.0,928.0,931.0,45.0,25.0,20.0,0.5555555555555556,97.23901840479498,4286.467310847354,133.0,70.0,63.0,0.5263157894736842,31.386531636349552,2403.704461677743,22.0,11.0,11.0,0.5,2253.0873581808114,40450.33955884618,11.0,3.0,8.0,0.2727272727272727,1600.915395994479,21784.403598878096,77.0,39.0,38.0,0.5064935064935064,82.07789957332595,11410.259557710602,,,,,79335.0,79380.0,79401.0,79537.0,79578.0,79600.0,79608.0,79619.0,79838.0,79914.0,0.017093648563847357,-0.014206034118197675,0.05153215645825729,-0.1948970155843864,0.007420735759402898
66,66,80267.07454078567,5973.292577726736,23.022654174775862,80366.21898959194,-2491.8093653817486,113.05904563386224,80496.72621135181,44967.73759319212,9.253360091333697,80518.87669549929,-6657.842013665458,4.814598283038631,80784.06169218925,10500.20882652421,30.739116992266176,0.9788518811853236,68.0,20.0,219.0,294.0,513.0,48.0,910.0,907.0,48.0,27.0,21.0,0.5625,84.87408915325878,4242.454680476898,135.0,57.0,78.0,0.4222222222222222,29.833149346803474,2715.0787440661197,23.0,12.0,11.0,0.5217391304347826,2269.6767706685005,40921.70868612653,11.0,3.0,8.0,0.2727272727272727,1478.03037161161,20365.769049571943,77.0,39.0,38.0,0.5064935064935064,77.46588770616181,10816.879608815208,,,,,80240.0,80288.0,80308.0,80446.0,80485.0,80508.0,80516.0,80527.0,80745.0,80821.0,0.014208928835955231,-0.011972484637576998,0.050473448124108374,-0.22199841458807523,0.0073775568644385385
67,67,81236.25198510547,5725.285270924813,21.12644882500344,81419.32897580891,-3134.068133171231,157.9738548535715,81479.0878653308,45842.446674126666,9.45944628193246,81501.30135639943,-4962.030630455603,4.336384535992803,81768.96878420305,8953.88506921454,27.747698978189185,0.975691282393394,67.0,23.0,232.0,294.0,526.0,44.0,966.0,983.0,44.0,25.0,19.0,0.5681818181818182,90.8574607392772,3889.7198331238496,179.0,142.0,37.0,0.7932960893854749,43.076515073664055,2050.509926572673,22.0,11.0,11.0,0.5,2230.92820131517,41445.79234647754,12.0,3.0,9.0,0.25,1441.82065301782,20752.160445801943,71.0,35.0,36.0,0.4929577464788732,70.14171244223131,8858.573715626659,,,,,81211.0,81255.0,81278.0,81455.0,81468.0,81490.0,81499.0,81510.0,81735.0,81804.0,0.015869508057648432,-0.013744600705306542,0.048665120716043696,-0.2905706877680912,0.007833662359973126
68,68,82764.71869552454,5557.619759994872,19.580492899291848,82908.43847060406,-2295.052448151728,86.63082362937793,82972.69652119259,42344.13491110232,9.495612389458769,82994.87669549929,-5340.168589039074,4.754355692719924,83270.3411641608,9828.195204137795,31.129810509136973,0.98448960817239,68.0,20.0,197.0,306.0,503.0,48.0,1531.0,1493.0,49.0,28.0,21.0,0.5714285714285714,97.40956293858476,4808.669453804637,141.0,102.0,39.0,0.723404255319149,49.32245561191736,1554.4927748007462,23.0,12.0,11.0,0.5217391304347826,2085.3276909960146,38357.19611261848,11.0,3.0,8.0,0.2727272727272727,1320.1498507697645,18619.24088871036,79.0,40.0,39.0,0.5063291139240507,67.33479291158368,10037.106655907624,,,,,82738.0,82786.0,82806.0,82928.0,82961.0,82984.0,82992.0,83003.0,83231.0,83309.0,0.01752720897528165,-0.021490774928319464,0.049247143562478515,-0.2472112684755738,0.006851185951540204
69,69,84097.5155038091,5410.8515831273335,22.18008291058102,84260.80838410705,-2291.219866853862,124.8503046423388,84313.98633101668,42489.76667119431,9.42784611853772,84335.87669549929,-5729.452139290012,4.66642817306418,84609.71457213667,9912.9398373869,30.930163700859943,0.9867884053954016,74.0,25.0,200.0,303.0,503.0,49.0,1329.0,1341.0,49.0,28.0,21.0,0.5714285714285714,58.88968368709995,3723.6818654306007,147.0,118.0,29.0,0.8027210884353742,40.64914431527157,1533.159896460215,22.0,11.0,11.0,0.5,2104.3408704263716,38478.76125947661,12.0,3.0,9.0,0.25,1384.9839277789238,19685.39098325648,77.0,39.0,38.0,0.5064935064935064,75.97642060298845,10207.446905796334,,,,,84070.0,84119.0,84144.0,84289.0,84303.0,84325.0,84333.0,84344.0,84572.0,84647.0,0.010883625762483624,-0.017741267393551384,0.04952582787076111,-0.24173060427214765,0.00766436817425659
70,70,85316.81374681916,5694.193006605007,21.61641644989857,85453.2327992967,-1669.6734997646918,58.60320421987323,85536.4461213974,41390.75196800229,9.251371855441551,85558.87669549929,-6467.484607887712,5.0284139976529225,85831.19185214356,10741.03171860563,31.964475885562894,0.9887680061084184,76.0,23.0,201.0,304.0,505.0,53.0,1222.0,1223.0,54.0,29.0,25.0,0.5370370370370371,71.49456201342852,5131.550399585314,122.0,88.0,34.0,0.7213114754098361,28.32113310517267,1633.100411827,23.0,11.0,12.0,0.4782608695652174,2080.1526320040807,39689.00681029122,11.0,3.0,8.0,0.2727272727272727,1345.5105831283722,18557.419434685817,79.0,40.0,39.0,0.5063291139240507,79.72154682747642,11180.539000843291,,,,,85289.0,85342.0,85365.0,85486.0,85525.0,85548.0,85556.0,85566.0,85792.0,85870.0,0.012555696993498122,-0.016962078579533055,0.050256459066319266,-0.20804233248385226,0.007422149837746279
71,71,86372.52924766587,6341.870846478543,23.262963117334664,86530.8495672694,-1936.4380218963536,191.09740504905412,86598.28459526895,43370.12037244919,9.16558409727203,86619.87669549929,-8118.751589894344,5.017967377085469,86888.24372704737,11095.44540658066,32.025735754961644,0.9777879181114256,73.0,25.0,209.0,299.0,508.0,48.0,1055.0,1062.0,48.0,27.0,21.0,0.5625,82.53508585314889,4679.582988544924,155.0,112.0,43.0,0.7225806451612903,34.773822720034026,1950.585419635652,22.0,11.0,11.0,0.5,2236.5089101477615,39458.87680761917,13.0,4.0,9.0,0.3076923076923077,1578.7039595372082,22409.24633012349,77.0,37.0,40.0,0.4805194805194805,84.99475082235895,11338.697522359897,,,,,86346.0,86394.0,86419.0,86574.0,86587.0,86609.0,86617.0,86628.0,86852.0,86927.0,0.013014311998955044,-0.01795762235962503,0.051567966400399956,-0.19445156586663753,0.007660327973129311
72,72,87321.79753429907,6161.2629142492515,22.254234386976336,87460.0196597106,-3807.2264599968,178.35757806048397,87550.53729820544,43749.36326374879,9.331184043716148,87571.45203459915,-8309.36804742003,5.126569152740932,87838.03869214233,10272.044249246472,27.38918588475331,0.9529428456286924,58.0,22.0,221.0,292.0,513.0,36.0,948.0,952.0,36.0,20.0,16.0,0.5555555555555556,94.66976132631665,3221.7616847208415,168.0,100.0,68.0,0.5952380952380952,33.27671935583259,3767.8108392512463,21.0,11.0,10.0,0.5238095238095238,2276.4095040383536,36667.5917089896,14.0,3.0,11.0,0.2142857142857142,1680.366923584986,24354.16144494159,70.0,35.0,35.0,0.5,87.96716696006543,10165.797213777176,,,,,87302.0,87338.0,87360.0,87528.0,87540.0,87561.0,87568.0,87581.0,87805.0,87873.0,0.015365317572696399,-0.008740409772173248,0.05203297452158834,-0.20222559814361837,0.0085637449397201
73,73,88231.31708725802,5511.691977087022,19.89628768805105,88362.56152939511,-2249.6287084216783,86.63082356096787,88463.72523051614,43794.90132083113,9.267047546638922,88484.87669549929,-7718.138382473727,5.104174273403286,88750.21729419526,10518.01679095254,31.565406236337648,0.976949220954743,68.0,21.0,220.0,296.0,516.0,47.0,911.0,913.0,47.0,26.0,21.0,0.5531914893617021,88.30123062510363,4471.168476220022,138.0,90.0,48.0,0.6521739130434783,34.746505316987246,2331.4221419640007,23.0,12.0,11.0,0.5217391304347826,2260.899905731886,39572.776643986304,12.0,3.0,9.0,0.25,1577.1892906144496,21369.70372418025,81.0,41.0,40.0,0.5061728395061729,68.54590676105508,10831.063421176696,,,,,88205.0,88252.0,88273.0,88411.0,88452.0,88475.0,88482.0,88493.0,88711.0,88789.0,0.016020712150132094,-0.015445440035020321,0.05162472885071862,-0.20434840792643932,0.006516999176120099
74,74,89177.18906191614,5677.258311105118,22.011579213148444,89325.74277092489,-2599.262353706446,124.8503046423388,89418.12081272157,45743.24126396088,9.39743639592506,89440.30135639943,-5734.259837444126,4.585468098519339,89707.42450672113,9358.740750511231,28.268729244126497,0.9818150273924248,68.0,21.0,229.0,295.0,524.0,47.0,947.0,955.0,49.0,27.0,22.0,0.5510204081632653,91.71853563323478,4325.931734966733,174.0,107.0,67.0,0.6149425287356322,36.10252660861285,2388.4699193983615,22.0,11.0,11.0,0.5,2252.7891554928565,42208.35793241741,12.0,3.0,9.0,0.25,1479.7995083140672,20611.36194209987,73.0,37.0,36.0,0.5068493150684932,72.70222340731104,9561.469330025184,,,,,89151.0,89198.0,89219.0,89393.0,89407.0,89429.0,89438.0,89448.0,89671.0,89743.0,0.016155427603818353,-0.013889527756646829,0.04924856860258679,-0.25806286256006905,0.007768376680734488
75,75,90753.41275086836,5479.658704442128,17.298403834315856,90928.027373699,-2359.599003788909,17.8357578060484,90962.05312459262,42096.61265513503,9.215141370014388,90984.30135639945,-6219.172639219664,5.385742717416634,91261.6174637853,9608.499638657304,29.92225038437236,0.9758005585778932,65.0,20.0,196.0,306.0,502.0,45.0,1576.0,1544.0,47.0,23.0,24.0,0.4893617021276595,109.3614346066632,5691.254658399797,144.0,133.0,11.0,0.9236111111111112,229.8417129620365,162.3131436062057,22.0,11.0,11.0,0.5,2153.781145422621,40275.17873519158,12.0,3.0,9.0,0.25,1359.2492707556924,19348.04864518422,75.0,39.0,36.0,0.52,77.56024303143262,9828.403862550822,,,,,90731.0,90776.0,90796.0,90938.0,90951.0,90973.0,90982.0,90992.0,91224.0,91298.0,0.019957709139441202,-0.09740710713683547,0.051162813575212886,-0.21855789340593718,0.00807204516295022
76,76,92178.85744511048,5627.219059937013,25.577570904228935,92303.2330450072,-1302.3646954039,127.39827004320286,92391.32010297572,43416.085591150855,9.43296693959237,92413.30135639945,-5215.542814930709,4.636230737261887,92688.6959403844,10128.098528208737,31.305460694271503,0.9912339781068976,78.0,22.0,193.0,306.0,499.0,56.0,1427.0,1429.0,56.0,29.0,27.0,0.5178571428571429,48.02339866861696,4346.404396302831,105.0,75.0,30.0,0.7142857142857143,26.03679955919908,1286.783887688299,23.0,11.0,12.0,0.4782608695652174,2126.229406513561,41298.632803428205,11.0,2.0,9.0,0.1818181818181818,1392.7591742840473,18946.946695675328,79.0,40.0,39.0,0.5063291139240507,71.6569883425164,10293.913700447456,,,,,92150.0,92206.0,92228.0,92332.0,92380.0,92403.0,92411.0,92421.0,92649.0,92727.0,0.008534126387671587,-0.019991942081264983,0.04897330972064725,-0.2670401190642993,0.007075068251255422
77,77,93347.99102760915,5666.671208849961,21.782393898559157,93486.46324136465,-2336.9737321271978,91.72675443110604,93571.8595945534,43171.77783300936,9.39232728129753,93593.87669549928,-5931.4856803642415,4.8770196892508615,93865.86853008202,10237.497216922726,30.81451353189748,0.9850253994200154,74.0,25.0,208.0,303.0,511.0,49.0,1168.0,1180.0,49.0,28.0,21.0,0.5714285714285714,72.09640104028252,4312.248858573493,132.0,92.0,40.0,0.696969696969697,34.956137064613934,2319.573145940176,23.0,12.0,11.0,0.5217391304347826,2149.0799894305646,39534.359478025624,11.0,3.0,8.0,0.2727272727272727,1384.62031945052,19430.35807926866,79.0,40.0,39.0,0.5063291139240507,70.58600644128153,10362.471405676864,,,,,93320.0,93369.0,93394.0,93526.0,93560.0,93583.0,93591.0,93602.0,93826.0,93905.0,0.012722884103048981,-0.0149578647736,0.049779742630551745,-0.2334356675654139,0.00689484987840601
78,78,94435.78158420169,6187.911543392387,22.669039371601524,94578.39321358652,-2235.6542522433115,175.80961265961992,94668.0513476294,44429.639496702795,9.325987861949573,94689.87669549928,-6598.471980307274,4.576937114298967,94960.22271081046,10446.584766141856,29.97726594518524,0.9760640006756196,70.0,23.0,218.0,300.0,518.0,47.0,1087.0,1097.0,47.0,26.0,21.0,0.5531914893617021,72.6695295462736,4259.40185933961,163.0,98.0,65.0,0.6012269938650306,32.50267448406486,2605.9606596372305,22.0,11.0,11.0,0.5,2225.8540469606205,40390.31109565327,11.0,3.0,8.0,0.2727272727272727,1506.5817420809858,20798.6532443857,75.0,37.0,38.0,0.4933333333333333,78.73124202839645,10597.337243844971,,,,,94410.0,94457.0,94480.0,94643.0,94657.0,94679.0,94687.0,94698.0,94924.0,94998.0,0.011743789328060451,-0.014538327852551826,0.05009840440244412,-0.2283228217953012,0.00753655321723614
79,79,95440.02054980972,5865.8856656757225,22.12254186945325,95549.57509338936,-2958.8362878861403,188.5494396639402,95679.3461265495,44692.4727903301,9.28799844598337,95700.87669549928,-7745.368931024933,4.821422017922696,95969.53684292085,10519.764835032933,28.87861201674639,0.9481014811679412,60.0,22.0,230.0,298.0,528.0,38.0,1005.0,1011.0,39.0,22.0,17.0,0.5641025641025641,95.60837965623806,3269.9089915224813,175.0,70.0,105.0,0.4,26.73586604797721,3211.930424715086,22.0,11.0,11.0,0.5,2273.5304704320065,40630.42208326212,12.0,3.0,9.0,0.25,1603.322951330021,22480.55556414006,74.0,37.0,37.0,0.5,69.80269244901629,10344.99508094541,,,,,95419.0,95457.0,95479.0,95655.0,95668.0,95690.0,95698.0,95709.0,95934.0,96007.0,0.01629905271009479,-0.00903593962174836,0.050870545496509635,-0.20700407761181439,0.006635385252772884
80,80,96387.99300224302,5586.327182530111,22.054271945150628,96491.21898959194,-2223.6503985253476,108.3212887968346,96624.53831217176,44447.66464559088,9.270410418023188,96645.87669549928,-7531.375923899429,4.993118783542389,96913.15114339226,10415.612818585683,29.832371139377805,0.978318917702062,69.0,23.0,224.0,297.0,521.0,46.0,947.0,945.0,47.0,27.0,20.0,0.574468085106383,88.82742385359073,3983.261254197128,141.0,61.0,80.0,0.4326241134751773,25.627018215235633,2224.9305762198246,23.0,12.0,11.0,0.5217391304347826,2282.558266957565,39876.717484568006,11.0,3.0,8.0,0.2727272727272727,1574.3652467841591,21289.280248710143,77.0,39.0,38.0,0.5064935064935064,75.20992275529389,10597.56269804438,,,,,96361.0,96407.0,96430.0,96571.0,96613.0,96636.0,96643.0,96654.0,96875.0,96951.0,0.015900863116535144,-0.011524751477224404,0.05135384018840663,-0.20904085291881422,0.007220883117034539
81,81,97330.81452387062,5318.995449280342,23.381729089066344,97462.4108511954,-805.1912760684163,47.627296239096445,97571.27327887365,46352.75075395727,9.344088420350726,97594.30135639945,-5577.119990350902,4.525648378165703,97861.15239521857,10450.769277236472,33.37785019823031,0.9866271528193378,77.0,15.0,222.0,301.0,523.0,62.0,947.0,947.0,62.0,30.0,32.0,0.4838709677419355,57.27051419337847,5004.248304614436,130.0,84.0,46.0,0.6461538461538462,25.60764289153373,536.2471311721727,23.0,11.0,12.0,0.4782608695652174,2266.791248341579,44915.37617623702,9.0,2.0,7.0,0.2222222222222222,1434.7252567198584,18536.673769353005,81.0,41.0,40.0,0.5061728395061729,77.25697585844755,10935.799108617006,,,,,97301.0,97363.0,97378.0,97508.0,97560.0,97583.0,97592.0,97600.0,97821.0,97901.0,0.010767167360732965,-0.0318031797569524,0.04890305777911263,-0.2572519973036456,0.0073924678470058845
82,82,98418.7033115838,5716.406788785227,23.497872985491213,98584.9182781122,-2673.1718223637727,170.7136818578918,98673.85816026032,45616.18982735126,9.372500324859343,98696.30135639945,-4679.1350477005335,4.203620662524973,98966.25049883447,8875.774373225637,28.439060775010603,0.9730304340339272,70.0,24.0,241.0,298.0,539.0,46.0,1085.0,1102.0,46.0,26.0,20.0,0.5652173913043478,84.69198932643855,3930.40463725325,186.0,122.0,64.0,0.6559139784946236,31.199447742207575,2784.0076589295736,22.0,11.0,11.0,0.5,2226.0534612369606,41270.45495411325,11.0,3.0,8.0,0.2727272727272727,1405.181907195372,19715.002571314264,73.0,36.0,37.0,0.4931506849315068,77.66202451897455,9034.86570205348,,,,,98393.0,98439.0,98463.0,98649.0,98663.0,98685.0,98694.0,98704.0,98931.0,99002.0,0.014815598759100232,-0.011671321492016636,0.04879963604286452,-0.3003080468656104,0.008749887193307573
83,83,99878.50218126264,6277.319742096836,21.309871676663295,100023.13711420546,-1717.2710768605489,96.82268523283416,100094.2961681934,42805.440941354194,9.372123897272552,100116.87669549928,-5302.714882760355,4.562910980943297,100391.28757376694,9718.032181979195,31.907453957270484,0.9894000823308708,70.0,21.0,202.0,306.0,508.0,49.0,1460.0,1421.0,50.0,27.0,23.0,0.54,113.03535036409,5940.026311678984,148.0,102.0,46.0,0.6891891891891891,31.406327004112896,1223.504088634357,23.0,11.0,12.0,0.4782608695652174,2101.6973810200357,40342.90623817969,10.0,3.0,7.0,0.3,1312.3820038398032,18226.364725573058,81.0,41.0,40.0,0.5061728395061729,66.94436845796227,10030.908564686952,,,,,99852.0,99901.0,99922.0,100045.0,100083.0,100106.0,100114.0,100124.0,100351.0,100430.0,0.018006944843999992,-0.01828850868526172,0.049098837316019626,-0.2474924699622236,0.006888675320719944
84,84,101166.34926835015,5545.08701463416,23.14845571591449,101290.95881659626,-1202.5111217659085,51.87793964266911,101383.73067558344,42405.31064135411,9.272038761709378,101406.30135639945,-5800.284527756737,4.7575136609650475,101679.65296509962,10360.531732981122,33.044117573287465,0.9915437510555596,79.0,21.0,197.0,306.0,503.0,58.0,1287.0,1289.0,60.0,29.0,31.0,0.4833333333333333,47.70323317976387,5021.772499648357,113.0,75.0,38.0,0.6637168141592921,28.824018118373473,1143.018005835229,23.0,12.0,11.0,0.5217391304347826,2122.5471574532735,39609.97596447849,10.0,3.0,7.0,0.3,1370.357555932428,18225.40659938722,82.0,42.0,40.0,0.5121951219512195,77.99203738569553,10757.06405228184,,,,,101137.0,101195.0,101216.0,101328.0,101372.0,101395.0,101404.0,101413.0,101639.0,101719.0,0.00860279253578334,-0.02396985574324244,0.05005380518031963,-0.23625695418469664,0.007527802568030379
85,85,102369.95287965488,5864.368738175991,23.138989949754,102510.93144289729,-1255.041349988046,48.41134261641708,102592.04062386384,41896.88876061371,9.264062456848784,102614.30135639945,-5976.306153201109,4.737522992532179,102887.81392432252,10425.5833837524,33.70665343739645,0.9913289195821312,80.0,24.0,199.0,307.0,506.0,56.0,1207.0,1209.0,57.0,28.0,29.0,0.4912280701754385,64.61783653367226,5530.379125915869,118.0,89.0,29.0,0.7542372881355932,33.14944030096758,1120.5343348856024,22.0,11.0,11.0,0.5,2101.063552863166,39716.96957467148,10.0,2.0,8.0,0.2,1390.9339366582255,18398.066074027323,82.0,42.0,40.0,0.5121951219512195,67.2515637689692,10754.01869648181,,,,,102342.0,102398.0,102422.0,102538.0,102581.0,102603.0,102612.0,102621.0,102846.0,102928.0,0.011018719902966146,-0.02641302639254342,0.050148438583781596,-0.23274141267230677,0.006450628352728581
86,86,103422.03308806248,6483.108437307132,24.150354176280707,103558.0418993812,-2453.65254228611,178.35757786627144,103650.89936042056,43493.81489867687,9.316099801390688,103671.87669549928,-8016.153652916753,5.047648125314249,103942.30118117089,10846.832720529375,30.71571222200771,0.9720521067324484,71.0,24.0,214.0,300.0,514.0,47.0,1049.0,1058.0,47.0,26.0,21.0,0.5531914893617021,86.75873321392218,4557.588885247789,160.0,91.0,69.0,0.56875,32.33003333969937,2685.55396757639,22.0,11.0,11.0,0.5,2238.0885366862244,38417.30809514281,12.0,3.0,9.0,0.25,1608.4020057367625,22658.73881956536,77.0,38.0,39.0,0.4935064935064935,78.44129919716161,10945.49797302282,,,,,103396.0,103443.0,103467.0,103627.0,103640.0,103662.0,103669.0,103681.0,103906.0,103981.0,0.013382273958995954,-0.013176288322215714,0.05145762775466057,-0.20064510679027842,0.007231723879054467
87,87,104366.31115901956,5834.133499020632,21.84136812135337,104479.19161589297,-2509.6727200702353,124.85030464228856,104597.9032268696,43700.19273346601,9.24968831266326,104618.87669549928,-8265.8931493401,5.054766507466059,104887.23900181807,10341.0551949551,30.229569838239513,0.9667495273275593,67.0,23.0,219.0,298.0,517.0,44.0,944.0,947.0,44.0,25.0,19.0,0.5681818181818182,97.49514716456254,4048.7079503179425,144.0,72.0,72.0,0.5,37.830396253541494,2345.5758462023646,22.0,11.0,11.0,0.5,2268.379261679993,39218.4831082821,12.0,3.0,9.0,0.25,1634.9285014738173,22182.379847131797,78.0,39.0,39.0,0.5,75.5198860081801,10639.714544270006,,,,,104341.0,104385.0,104408.0,104549.0,104587.0,104609.0,104616.0,104627.0,104849.0,104925.0,0.01671116150854774,-0.015073836501072848,0.051907763325328475,-0.1977921165850469,0.00730291876258649
88,88,105273.76244783288,5814.18226971654,20.492337381812597,105421.8321777054,-2572.3469013081462,206.38519746998855,105502.8900998943,44229.94413201596,9.27656552411056,105524.87669549928,-6999.561188557717,4.73752770692152,105791.6520380661,9815.281941950356,29.82599862820917,0.9694458909004424,61.0,22.0,219.0,295.0,514.0,39.0,907.0,905.0,40.0,22.0,18.0,0.55,94.86179754660304,3678.5980031842337,166.0,109.0,57.0,0.6566265060240963,33.80644204512813,2798.1060555482686,22.0,11.0,11.0,0.5,2236.691717064741,39286.91937445676,13.0,4.0,9.0,0.3076923076923077,1512.8805084907617,21701.9005537032,73.0,36.0,37.0,0.4931506849315068,71.06830259244279,9590.463682247591,,,,,105253.0,105292.0,105314.0,105478.0,105492.0,105514.0,105522.0,105533.0,105757.0,105828.0,0.01631558715327785,-0.013142256212774464,0.050569625645213195,-0.2161393361292261,0.007240576787580397
89,89,106189.90368533634,5518.331468369391,21.5762225034328,106301.31492039368,-1741.3212444312446,63.149732203087694,106423.26793408404,45105.06174424324,9.357383394884303,106445.30135639945,-6150.941011969048,4.8197895437489,106714.30577988632,9715.002366979474,32.13108191849493,0.9893008426450408,74.0,22.0,218.0,299.0,517.0,52.0,916.0,921.0,52.0,29.0,23.0,0.5576923076923077,89.00387178049445,4960.635333140119,129.0,66.0,63.0,0.5116279069767442,27.748784104757547,1651.2743992518108,23.0,11.0,12.0,0.4782608695652174,2228.328922534182,43375.81534426601,10.0,2.0,8.0,0.2,1490.25309612396,19580.799830457403,78.0,39.0,39.0,0.5,63.47434086971007,9979.265553653671,,,,,106161.0,106213.0,106235.0,106364.0,106412.0,106435.0,106443.0,106453.0,106676.0,106752.0,0.01612876506071756,-0.015935476692481826,0.049403078864393386,-0.24228050524693587,0.006533641318035531
90,90,107183.70124616708,5666.716165423629,22.7006607122938,107348.5047794944,-3011.688181851798,157.9738548535715,107430.1148456793,45969.20704845869,9.368420045014233,107452.87669549928,-4846.60793231908,4.29717716364732,107721.76919160291,8357.930044519724,27.60454897488883,0.9752764613606272,69.0,23.0,235.0,296.0,531.0,46.0,995.0,1007.0,46.0,27.0,19.0,0.5869565217391305,87.54703805393697,3717.0315739937305,181.0,124.0,57.0,0.6850828729281768,26.573752296270293,2828.5617391920814,22.0,11.0,11.0,0.5,2243.7352591238905,41859.59314986133,11.0,3.0,8.0,0.2727272727272727,1353.362873432991,19722.930982039004,70.0,35.0,35.0,0.5,72.23905153652905,8411.721245565483,,,,,107157.0,107203.0,107226.0,107406.0,107419.0,107441.0,107450.0,107461.0,107688.0,107757.0,0.015449342352475526,-0.008823540383895545,0.04880952714191143,-0.27923919003396935,0.008643174943046578
91,91,108628.76169397798,4430.96675854921,24.04646603233016,108737.68483389584,-894.5924101253012,44.0721524049268,108839.59164601752,42633.46871892371,9.256095784887222,108862.30135639945,-4738.5349335766805,4.354030585987254,109136.22654315356,9567.06227334377,34.23349365837149,0.9925150534959084,79.0,17.0,190.0,309.0,499.0,62.0,1446.0,1409.0,63.0,30.0,33.0,0.4761904761904761,43.362079785745706,3925.882880819046,102.0,60.0,42.0,0.5882352941176471,30.642369517627852,849.0918952068346,23.0,12.0,11.0,0.5217391304347826,2110.1670160347485,39886.39261196992,9.0,2.0,7.0,0.2222222222222222,1307.6609926197852,16954.172197581895,85.0,43.0,42.0,0.5058823529411764,61.378333480742185,9940.40266501787,,,,,108599.0,108661.0,108678.0,108779.0,108828.0,108851.0,108860.0,108868.0,109095.0,109177.0,0.009786144231861344,-0.03425288340344395,0.049495550783042644,-0.2759631428173841,0.006415588372593495
92,92,109861.02737557545,5511.942667218961,23.686039314475213,109981.56152939513,-1563.873153778335,86.6308236290882,110082.8767701429,41844.53636071728,9.281869545803662,110104.87669549928,-5955.730289841132,4.859003512815796,110378.21624145204,9647.186480287926,31.77055335189122,0.9895261652340486,77.0,23.0,203.0,306.0,509.0,54.0,1231.0,1243.0,55.0,30.0,25.0,0.5454545454545454,58.73696773353196,4333.4464865924365,122.0,73.0,49.0,0.5983606557377049,41.26539679379563,1614.7401452722602,23.0,12.0,11.0,0.5217391304347826,2102.7578629867185,38863.201554079875,11.0,3.0,8.0,0.2727272727272727,1359.7276292958984,18547.569077548844,80.0,40.0,40.0,0.5,64.84180262578502,10006.001362181769,,,,,109832.0,109886.0,109909.0,110030.0,110071.0,110094.0,110102.0,110112.0,110338.0,110418.0,0.010656309631603548,-0.026386664860956255,0.050251670728528874,-0.22830577664257676,0.006721317428483022
93,93,110991.55480304196,5926.100307058729,23.052658225257876,111110.90224112888,-1377.639518862609,119.75437383962108,111215.29688525628,41847.46471007144,9.37867139644213,111237.30135639945,-6028.812170420366,4.775844597449725,111508.94817037517,10184.298342836924,31.90105670396864,0.9872277252998182,74.0,23.0,207.0,303.0,510.0,51.0,1131.0,1133.0,51.0,28.0,23.0,0.5490196078431373,68.24433239897161,4637.486237599058,122.0,73.0,49.0,0.5983606557377049,34.6059017755297,1422.9809561838538,23.0,11.0,12.0,0.4782608695652174,2077.7907345407043,39506.87717627371,10.0,2.0,8.0,0.2,1409.2693420732924,19050.262197286305,81.0,41.0,40.0,0.5061728395061729,67.51901993827542,10439.481690703258,,,,,110964.0,111015.0,111038.0,111159.0,111204.0,111227.0,111235.0,111245.0,111469.0,111548.0,0.011515892216283284,-0.02511970751543236,0.04965153203273129,-0.23375572206208398,0.006629717400783392
94,94,112000.0397016534,6836.42600504648,23.47114348490245,112130.29817363484,-2839.9723846984716,180.90554346134803,112223.60833826177,41779.054190623225,9.37583993777316,112245.30135639945,-5842.352767861082,4.604298898540907,112514.83419087184,9675.545663058392,30.16576413713233,0.9708942770107972,69.0,24.0,210.0,299.0,509.0,45.0,1008.0,1008.0,45.0,25.0,20.0,0.5555555555555556,83.47225003075995,4388.200174014727,155.0,86.0,69.0,0.5548387096774193,34.593241959395236,3084.5601119654025,23.0,12.0,11.0,0.5217391304347826,2092.77784286268,36541.726089022675,13.0,3.0,10.0,0.2307692307692307,1425.820641310143,20272.77972113829,75.0,37.0,38.0,0.4933333333333333,73.06712654521628,9726.51231491585,,,,,111975.0,112020.0,112044.0,112199.0,112212.0,112235.0,112243.0,112254.0,112480.0,112553.0,0.012209925181541174,-0.012180837442568338,0.05009155624524351,-0.24404904975160271,0.007551731870192024
95,95,112917.76748454662,7260.605910181752,21.944745830905585,113010.06831139224,-2441.602457810382,108.21975290907017,113131.03957574414,41664.78998994038,9.29771750093694,113152.87669549928,-6149.07897287355,4.76790478015576,113418.90669263362,10420.082824329744,32.49852859859625,0.9794800465563605,67.0,21.0,202.0,298.0,500.0,46.0,915.0,908.0,46.0,26.0,20.0,0.5652173913043478,116.74960012611103,5422.822202878027,123.0,50.0,73.0,0.4065040650406504,27.477245638021333,2581.834996545485,22.0,11.0,11.0,0.5,2096.0249619247725,38459.66649636683,11.0,3.0,8.0,0.2727272727272727,1393.0703637754498,19026.92965542242,82.0,41.0,41.0,0.5,68.06556989489503,10704.108602999397,,,,,112892.0,112938.0,112959.0,113087.0,113120.0,113142.0,113150.0,113161.0,113379.0,113459.0,0.01607987013348153,-0.011253775384328046,0.05030686491953615,-0.22654943446342643,0.0065321524830848215
96,96,113787.95650057036,6719.527063281728,22.434496925596665,113889.49297229238,-2742.9738982216068,121.0888843720864,114009.85891615898,44022.4710989191,9.254842459864651,114030.87669549928,-7894.745047034666,4.987186714750905,114298.21871282252,9989.077536547802,30.804373337214255,0.9792974902214632,65.0,22.0,210.0,297.0,507.0,43.0,873.0,878.0,43.0,24.0,19.0,0.5581395348837209,124.18330818693563,4899.426547235291,135.0,60.0,75.0,0.4444444444444444,32.32966009657306,2923.1880381009028,22.0,11.0,11.0,0.5,2276.6839822740467,39510.541640407886,12.0,3.0,9.0,0.25,1616.1374239407223,22058.118564082903,77.0,39.0,38.0,0.5064935064935064,88.2921212877166,10558.913714366834,,,,,113764.0,113807.0,113829.0,113965.0,113999.0,114021.0,114028.0,114039.0,114261.0,114336.0,0.01848095959989871,-0.011786353533124697,0.051716405859141945,-0.20471052761200406,0.008838866348236408
97,97,114664.6712110394,5694.081037197078,20.281446430515487,114770.31492039368,-1566.4522903769073,50.56664425499532,114892.01895186356,43623.17486786181,9.1057148259686,114913.87669549928,-6799.106026386371,4.623463096652035,115179.4931472862,9991.488963569063,33.33101063785619,0.9853052940210768,71.0,21.0,213.0,298.0,511.0,50.0,877.0,882.0,50.0,28.0,22.0,0.56,107.90310956272066,5541.760684412368,125.0,62.0,63.0,0.496,30.348644349565152,1371.9962155594094,22.0,11.0,11.0,0.5,2227.5839156608154,41252.74531947194,10.0,3.0,7.0,0.3,1499.9267356901858,19201.57763034271,83.0,41.0,42.0,0.4939759036144578,69.48583441310195,10428.206219469104,,,,,114637.0,114687.0,114708.0,114833.0,114881.0,114903.0,114911.0,114921.0,115139.0,115219.0,0.01895004810395817,-0.019374126193312215,0.05106423185401683,-0.2206064635364093,0.0069545024436759115
98,98,115535.03792123402,5698.160173654981,21.626168618611448,115629.06831139224,-2069.903313839571,99.05509408603336,115761.59502278808,45244.09625670526,9.304984436709802,115784.30135639945,-5692.822108501933,4.588173823223318,116049.22163714038,9053.72029068278,33.15884787379131,0.97725927150087,67.0,19.0,216.0,297.0,513.0,48.0,868.0,870.0,48.0,27.0,21.0,0.5625,98.872627806111,4353.992211347533,129.0,54.0,75.0,0.4186046511627907,32.29013938491115,2169.083481543352,23.0,12.0,11.0,0.5217391304347826,2244.656652698408,41577.47689704325,10.0,3.0,7.0,0.3,1428.6506509118772,19072.110890910437,82.0,42.0,40.0,0.5121951219512195,70.40268760285544,9702.743479414165,,,,,115508.0,115556.0,115575.0,115706.0,115750.0,115773.0,115782.0,115791.0,116008.0,116088.0,0.017351675767775226,-0.015599829793505908,0.04961214475282497,-0.25095648936197423,0.007776105881612791
99,99,116434.1653206996,6466.060735659177,22.87730971917956,116593.11802114543,-2869.008251282504,164.13687791658623,116672.1955043039,45837.32244605416,9.590456255073631,116694.87669549928,-4836.737774867928,4.448290706536727,116961.35992559018,8528.266968626618,29.91549221079975,0.9825292471001268,68.0,21.0,226.0,295.0,521.0,47.0,903.0,911.0,48.0,25.0,23.0,0.5208333333333334,91.38018989534991,4732.5195696814735,171.0,117.0,54.0,0.6842105263157895,32.09855264670864,2864.5477041151307,23.0,11.0,12.0,0.4782608695652174,2193.84404227959,42080.23163681748,12.0,3.0,9.0,0.25,1353.0136392635968,19625.172151695,75.0,37.0,38.0,0.4933333333333333,68.18581307544122,8568.380690272468,,,,,116409.0,116456.0,116477.0,116647.0,116661.0,116684.0,116692.0,116703.0,116926.0,116998.0,0.014132281404565903,-0.011188030788116398,0.047861522558642476,-0.27973681895552877,0.007995271879536596
100,100,117502.61132317818,6092.0700221223915,22.741687313889315,117617.94500689152,-2071.193228933491,147.32427131496542,117750.5361172846,44392.842025827566,9.358580502766282,117772.30135639945,-5520.645741540367,4.411518415393314,118042.02343019145,8667.397814197691,29.58393083419516,0.9753301675310792,69.0,23.0,234.0,299.0,533.0,46.0,1066.0,1078.0,47.0,26.0,21.0,0.5531914893617021,95.3318711490223,4393.803358364925,156.0,72.0,84.0,0.4615384615384615,29.630352366111023,2217.2784985430008,23.0,12.0,11.0,0.5217391304347826,2214.007913073549,40110.95567470176,10.0,2.0,8.0,0.2,1473.933120915993,19602.291888438995,77.0,39.0,38.0,0.5064935064935064,67.0203643289756,8854.579717574714,,,,,117477.0,117523.0,117546.0,117702.0,117739.0,117762.0,117770.0,117780.0,118004.0,118079.0,0.015648518615649466,-0.01430593338766776,0.0498730834080289,-0.26698563717380225,0.00773246662558772
101,101,118621.24090968592,5407.382799804187,24.356310486488077,118748.52034599138,-1844.1932799778156,121.753491912772,118858.9407657547,42634.154052129845,9.18326385453922,118880.87669549928,-5775.189323067691,4.483723141516963,119149.58070541915,9292.434212382304,31.42121646018042,0.9810033279988564,76.0,27.0,219.0,301.0,520.0,49.0,1119.0,1108.0,49.0,28.0,21.0,0.5714285714285714,71.60644124651324,4065.536066791651,166.0,81.0,85.0,0.4879518072289157,30.32769792963968,1817.9139727583276,22.0,11.0,11.0,0.5,2149.3138019756143,39298.805794209795,10.0,3.0,7.0,0.3,1395.9916969758922,18864.076338040173,80.0,41.0,39.0,0.5125,63.61708183778219,9515.387559116623,,,,,118593.0,118642.0,118669.0,118834.0,118848.0,118870.0,118878.0,118888.0,119110.0,119189.0,0.01324234734206468,-0.016444967162012707,0.05041295763362854,-0.24172223954631553,0.0068461159243948695
102,102,119772.60845182544,5374.871923174081,21.716764212507233,119905.10949479598,-1496.467119917167,55.828941925991174,119999.60884472531,42003.88776035326,9.229512856590844,120021.87669549928,-5614.611373412832,4.595929255147243,120291.94884108404,9636.98954104247,33.9125780149601,0.9877819192954984,77.0,25.0,207.0,304.0,511.0,52.0,1153.0,1141.0,53.0,29.0,24.0,0.5471698113207547,66.05225302752487,4964.54811019656,124.0,83.0,41.0,0.6693548387096774,35.87553301869113,1486.0246272163902,23.0,12.0,11.0,0.5217391304347826,2113.132975233727,38868.22505024966,10.0,3.0,7.0,0.3,1334.471545633208,17723.54130769315,83.0,42.0,41.0,0.5060240963855421,62.24391002099319,9976.764916357302,,,,,119745.0,119797.0,119822.0,119945.0,119988.0,120011.0,120019.0,120029.0,120251.0,120333.0,0.012289084088262018,-0.023973485645763418,0.05030803308707715,-0.23767834617234634,0.006458854163523355
103,103,120928.78342433738,6153.278760571739,24.47252771404764,121041.20976800416,-1016.9154924237056,50.20181864828011,121150.4510660569,41736.72329011267,9.208919040853605,121173.30135639945,-5344.677894308641,4.521806687243491,121443.10991489448,9930.764489726847,34.422678793698594,0.9920739409649292,100.0,42.0,180.0,305.0,485.0,58.0,1157.0,1151.0,60.0,30.0,30.0,0.5,70.87784359760262,5758.893880099878,113.0,60.0,53.0,0.5309734513274337,33.23330599217388,1093.603269547814,23.0,11.0,12.0,0.4782608695652174,2067.2682869634873,40633.80733499277,10.0,3.0,7.0,0.3,1314.9110238984747,17265.678325519846,85.0,43.0,42.0,0.5058823529411764,62.405207987453046,10378.927222214308,,,,,120899.0,120957.0,120999.0,121093.0,121139.0,121162.0,121170.0,121179.0,121401.0,121484.0,0.011518711626030237,-0.032680499254629285,0.04953115922862153,-0.24602250124346633,0.006284028591354657
104,104,122075.417897252,6488.285019545164,23.74140332728085,122196.07719339112,-1846.7704815550956,115.62200223370114,122295.76686394724,41585.85841059535,9.279263214187452,122317.87669549928,-5817.66258429784,4.663272852004558,122588.94953807496,9652.302515420386,32.2002857020637,0.9871213868812369,75.0,24.0,203.0,303.0,506.0,51.0,1143.0,1145.0,52.0,28.0,24.0,0.5384615384615384,73.7158088629736,5098.549232960023,148.0,74.0,74.0,0.5,30.975516709164033,2065.6337591318947,23.0,12.0,11.0,0.5217391304347826,2089.469748097145,37891.249798781115,11.0,3.0,8.0,0.2727272727272727,1355.27127371133,18566.61253609233,80.0,41.0,39.0,0.5125,68.17856178427647,9990.679596540413,,,,,122047.0,122098.0,122122.0,122252.0,122284.0,122307.0,122315.0,122325.0,122549.0,122628.0,0.011361370322190496,-0.016772802586210236,0.050244718468160435,-0.23295804011894303,0.007063450578279673
105,105,123209.34809784369,6301.881263538256,23.586343957802857,123314.88058529056,-1532.878191698616,65.9948192550243,123428.8376450762,40754.56057572303,9.106392299226346,123450.87669549928,-6420.541646098081,4.921239575939038,123720.8058205471,9957.692861185133,33.87845235157916,0.9907983669016656,77.0,23.0,201.0,304.0,505.0,54.0,1135.0,1133.0,54.0,29.0,25.0,0.5370370370370371,82.02958741165334,5557.5393624291055,120.0,58.0,62.0,0.4833333333333333,39.43460261883499,1538.690339800002,23.0,12.0,11.0,0.5217391304347826,2088.837911313252,37876.90729969358,10.0,3.0,7.0,0.3,1358.928062393608,18475.54314464618,83.0,42.0,41.0,0.5060240963855421,63.890682275037825,10403.661984316825,,,,,123180.0,123234.0,123257.0,123377.0,123417.0,123440.0,123448.0,123458.0,123680.0,123762.0,0.013016682476431965,-0.02572585534349382,0.0512540898933786,-0.21165318088380616,0.006416213390561813
106,106,124285.93255995706,5791.145046757186,21.082795099247367,124427.38347749642,-2081.870842191353,63.69913502160143,124511.71852610169,42678.90573100773,9.170817894910297,124532.87669549928,-8468.62874807863,5.213982884030111,124803.04436918396,10378.962291057072,32.05457761430229,0.9834273982046076,76.0,25.0,207.0,302.0,509.0,51.0,1076.0,1083.0,52.0,28.0,24.0,0.5384615384615384,77.78426706965632,5207.591440716373,132.0,93.0,39.0,0.7045454545454546,30.945318994723205,1918.1831351225096,23.0,12.0,11.0,0.5217391304347826,2243.225888749694,38508.41822023415,11.0,3.0,8.0,0.2727272727272727,1592.5442343683435,21551.33421282878,80.0,40.0,40.0,0.5,67.02500105364398,10517.110795579552,,,,,124258.0,124309.0,124334.0,124463.0,124500.0,124523.0,124530.0,124541.0,124764.0,124843.0,0.01343158674867114,-0.014864187714042108,0.05256052961826318,-0.18805219613974236,0.00645777479232152
107,107,125304.64080200045,6144.173388578424,22.721649768869344,125420.61627679312,-2140.1306118139346,122.30233924147473,125532.40016592584,43640.70749070732,9.182771312919389,125553.87669549928,-7873.950238546488,4.897287000476276,125821.74567299936,10224.099379926893,30.949981269697663,0.972301025724502,70.0,23.0,214.0,298.0,512.0,47.0,1019.0,1021.0,48.0,27.0,21.0,0.5625,97.28522098028824,4635.314335345404,141.0,73.0,68.0,0.5177304964539007,35.81539418995159,2226.387407726001,22.0,11.0,11.0,0.5,2246.8258936106845,40546.20772817329,11.0,3.0,8.0,0.2727272727272727,1583.2477891852068,21556.266217276665,80.0,41.0,39.0,0.5125,78.1880763342903,10577.205982832093,,,,,125278.0,125325.0,125348.0,125489.0,125521.0,125543.0,125551.0,125562.0,125782.0,125860.0,0.0158337362615994,-0.01673514410393632,0.05148463493835692,-0.20107414210398544,0.007647429218831535
108,108,126249.7494558191,5455.223477310645,21.646067197290087,126400.47020544743,-2722.0253215728285,211.48112827171673,126481.78091283672,44389.00369501191,9.242000746442963,126502.87669549928,-7002.0773653284,4.693691719242821,126769.32468567544,10147.44131133929,30.510137816876103,0.9617081531439996,63.0,24.0,221.0,295.0,516.0,39.0,944.0,949.0,39.0,22.0,17.0,0.5641025641025641,89.97213358623314,3231.535904364915,168.0,110.0,58.0,0.6547619047619048,39.62583372995902,2834.917782014486,22.0,11.0,11.0,0.5,2269.1733814572212,38996.446062965966,12.0,3.0,9.0,0.25,1585.8886813864224,22233.43946961892,73.0,35.0,38.0,0.4794520547945205,73.63723221819755,9940.78811138792,,,,,126228.0,126267.0,126291.0,126458.0,126471.0,126493.0,126500.0,126512.0,126735.0,126807.0,0.01649284102850141,-0.014557481672162623,0.051120169243902475,-0.22648831177432208,0.007256729056999956
109,109,127196.26373051816,4756.229442722023,19.42505173110108,127332.4108511954,-2232.3267872882616,81.53489282764981,127431.21471765016,44816.09943740594,9.264050923366414,127453.30135639945,-6338.762106065858,4.821342290457908,127720.93414296414,9528.141917070405,29.918950598758464,0.9799206169144596,69.0,22.0,223.0,297.0,520.0,47.0,947.0,950.0,47.0,27.0,20.0,0.574468085106383,85.24887106368075,3966.775254703218,141.0,94.0,47.0,0.6666666666666666,26.94728638885881,2053.971645117215,22.0,11.0,11.0,0.5,2245.663953348872,42264.65339755687,11.0,3.0,8.0,0.2727272727272727,1486.4290710579226,20300.63098672629,77.0,39.0,38.0,0.5064935064935064,67.32206967848937,9738.909333036116,,,,,127169.0,127216.0,127238.0,127378.0,127420.0,127442.0,127451.0,127461.0,127683.0,127758.0,0.01792362460438667,-0.012071389611192751,0.05010842044576774,-0.2344983209948026,0.007065603164230443
110,110,128235.58379750304,5544.2238828321815,23.15308466302357,128398.33058536833,-2738.739254373575,165.61775105616368,128481.45981387704,45655.75073687804,9.447985339004036,128503.30135639945,-5288.744732976264,4.327575092786561,128772.81656270678,8807.381980941052,27.305750269088996,0.97469889157999,71.0,23.0,232.0,297.0,529.0,48.0,1039.0,1050.0,49.0,28.0,21.0,0.5714285714285714,67.77313220924128,3384.452868414014,179.0,120.0,59.0,0.6703910614525139,39.64258191472897,2522.700067550013,23.0,11.0,12.0,0.4782608695652174,2229.2732966637755,42525.05342621975,11.0,2.0,9.0,0.1818181818181818,1481.5921940540134,20618.689008675807,70.0,35.0,35.0,0.5,75.83893840617108,8813.494599859878,,,,,128208.0,128256.0,128279.0,128438.0,128470.0,128493.0,128501.0,128511.0,128738.0,128808.0,0.012224097302257646,-0.014474755802847072,0.04882787514570643,-0.28014061348357816,0.008610837882390544
111,111,129642.37172489736,4432.360057380561,23.625168430662004,129764.81131880292,-1218.9532253805708,84.08285822851387,129851.1284803298,42781.54433741317,9.240299881040276,129873.30135639945,-5460.555817332214,4.540496944404261,130145.92600635324,9960.511006123375,32.84272636050271,0.9905301608756252,78.0,23.0,190.0,305.0,495.0,55.0,1408.0,1370.0,56.0,30.0,26.0,0.5357142857142857,52.93082451510075,3651.209850168581,114.0,75.0,39.0,0.6578947368421053,32.35237146035938,1423.1241599059824,22.0,11.0,11.0,0.5,2131.0404723546003,40446.569494783325,10.0,2.0,8.0,0.2,1392.3079423402953,18466.10364784687,82.0,42.0,40.0,0.5121951219512195,70.04088985996502,10322.320806990374,,,,,129612.0,129667.0,129690.0,129802.0,129840.0,129862.0,129871.0,129880.0,130105.0,130185.0,0.011941905402509617,-0.026541109852889235,0.04981214459083867,-0.2549754986334917,0.007031857082122225
112,112,130941.17336499372,5400.928443376775,23.107506162064404,131084.26041870617,-1798.2411066355885,109.56251223715444,131156.5452856,42551.04609360576,9.344459105913456,131178.87669549932,-5348.029121828462,4.628720109647739,131451.95502121185,10124.039674480786,31.31574471706711,0.988347302785553,75.0,24.0,199.0,304.0,503.0,51.0,1302.0,1305.0,51.0,28.0,23.0,0.5490196078431373,60.28278085779603,4139.271966280583,123.0,96.0,27.0,0.7804878048780488,37.46655350297826,1335.893420436206,23.0,12.0,11.0,0.5217391304347826,2114.53146685654,38334.544791059896,11.0,3.0,8.0,0.2727272727272727,1322.5187118738324,18565.76167691851,79.0,40.0,39.0,0.5063291139240507,64.02776220006217,10317.052191442372,,,,,130913.0,130964.0,130988.0,131109.0,131145.0,131168.0,131176.0,131187.0,131412.0,131491.0,0.011161558885624848,-0.020835111245497077,0.049693994883343084,-0.24729085832308828,0.006324329443458631
113,113,132125.8487902358,6080.391529303478,23.158680707240695,132254.95881659628,-1610.3600412950768,66.24710040465446,132345.83151224034,42240.97698028357,9.268303336632163,132367.87669549932,-6478.009963753078,4.976970474473452,132640.05196661246,10472.611968488862,31.903104263987995,0.9905573204552024,79.0,26.0,200.0,302.0,502.0,53.0,1180.0,1189.0,55.0,29.0,26.0,0.5272727272727272,73.90348303583848,5441.8579427178065,117.0,80.0,37.0,0.6837606837606838,33.927958598529194,1688.6848418749446,23.0,12.0,11.0,0.5217391304347826,2139.713009241308,39202.36826764334,11.0,3.0,8.0,0.2727272727272727,1394.6745771991025,19023.85938709796,79.0,40.0,39.0,0.5063291139240507,74.09180652246226,10847.50380471274,,,,,132097.0,132150.0,132176.0,132292.0,132334.0,132357.0,132365.0,132376.0,132601.0,132678.0,0.01215439543320071,-0.021068554688704146,0.05065491288802439,-0.21529367583607242,0.007074816363424691
114,114,133190.49687923826,6322.357388892566,23.943784508295,133301.24636329096,-1943.1565503267443,132.74739304508466,133415.00338716264,43161.955226521175,9.212331863463865,133435.87669549932,-8349.342967983795,5.128494700729821,133705.7183227696,10812.336324587315,31.816640135581306,0.9780754877683472,72.0,22.0,210.0,299.0,509.0,50.0,1066.0,1070.0,51.0,27.0,24.0,0.5294117647058824,82.21194106333708,4810.502744500572,156.0,66.0,90.0,0.4230769230769231,32.58910766031915,2012.0542960650896,22.0,11.0,11.0,0.5,2253.199520564787,39038.49949634927,12.0,3.0,9.0,0.25,1631.9639550786303,22146.3128335355,80.0,41.0,39.0,0.5125,78.48886465362563,11234.335116598451,,,,,133163.0,133213.0,133235.0,133391.0,133404.0,133426.0,133433.0,133445.0,133666.0,133744.0,0.013003368206892438,-0.016771220854459333,0.05220337004520806,-0.19546016510958084,0.007259195635187697
115,115,134160.98647825734,5774.891186963042,21.88256046474686,134279.5203459914,-2377.8292225223736,152.8779240518434,134389.3700500059,43668.54031883189,9.177613340844452,134410.87669549932,-8052.564955607795,4.943422743254005,134678.25280635143,10187.702042030252,30.223001921444908,0.9687141140356856,66.0,22.0,217.0,297.0,514.0,44.0,970.0,974.0,44.0,25.0,19.0,0.5681818181818182,86.33043468913678,3794.8378714678424,163.0,78.0,85.0,0.4785276073619632,26.13323176635367,2444.1147771265205,22.0,11.0,11.0,0.5,2249.288789564438,40048.87643626302,12.0,3.0,9.0,0.25,1592.4186040086795,22249.580095315323,77.0,38.0,39.0,0.4935064935064935,72.81351981544698,10342.81221709276,,,,,134136.0,134180.0,134202.0,134365.0,134378.0,134400.0,134408.0,134419.0,134640.0,134716.0,0.0149492746952583,-0.010990373706750833,0.05150822017731701,-0.1977529660160917,0.007147197622687477
116,116,135094.01240884047,5515.729637067641,22.5580660973163,135238.390628135,-1799.4102828189768,193.64537046562447,135322.69326164311,44451.94949887535,9.253966027548849,135344.87669549932,-6830.720795676616,4.808265742657104,135612.1275360694,9820.713537093756,31.14125850491357,0.9798132119974464,68.0,22.0,216.0,297.0,513.0,46.0,933.0,933.0,46.0,25.0,21.0,0.5434782608695652,88.2332112620983,4155.572968272729,161.0,101.0,60.0,0.6273291925465838,28.53642382812086,2000.89779814351,23.0,12.0,11.0,0.5217391304347826,2248.468886344962,39771.731616369296,11.0,3.0,8.0,0.2727272727272727,1487.1839593342097,20862.123965643375,77.0,38.0,39.0,0.4935064935064935,85.82892004110496,10068.818590292562,,,,,135069.0,135115.0,135137.0,135298.0,135311.0,135334.0,135342.0,135353.0,135575.0,135650.0,0.015996652676581555,-0.015858764452215627,0.050582008476407744,-0.2177199162166746,0.008739580858042655
117,117,136043.053837268,6255.338976502787,24.06820319668107,136140.8834942905,-2619.782458094906,134.56396293435105,136273.74275100214,45321.71252275232,9.333725429313851,136295.87669549932,-5764.299790927683,4.677925843772672,136563.8081957731,9330.896375482984,30.6445415741343,0.9784977677483192,68.0,21.0,219.0,297.0,516.0,47.0,948.0,951.0,48.0,27.0,21.0,0.5625,86.99702446718557,4036.309972069827,145.0,55.0,90.0,0.3793103448275862,28.7381421741063,2758.3190162965157,23.0,12.0,11.0,0.5217391304347826,2251.684344428369,41200.97115704753,11.0,3.0,8.0,0.2727272727272727,1434.319890845111,19930.43478616515,77.0,39.0,38.0,0.5064935064935064,76.08291818850381,9701.247242637946,,,,,136017.0,136064.0,136085.0,136249.0,136262.0,136285.0,136293.0,136304.0,136526.0,136601.0,0.01390764350165138,-0.010969667380323078,0.04968224321395584,-0.24882812186530595,0.00815387023141875
118,118,137128.97286549356,5659.034263702954,23.632780583694807,137312.93168860776,-1868.995971590175,137.59013164665905,137368.5981400048,44561.75898385052,9.317276456741467,137390.30135639946,-5843.366619429089,4.534896356238733,137661.55551693027,9550.601927389996,31.123503357345538,0.9870363680911384,75.0,20.0,222.0,301.0,523.0,55.0,1087.0,1095.0,55.0,28.0,27.0,0.509090909090909,64.58279458302997,4608.524425558839,170.0,138.0,32.0,0.8117647058823529,42.71621638846095,1128.1573843357876,23.0,12.0,11.0,0.5217391304347826,2233.6049135831904,39930.47800866712,11.0,2.0,9.0,0.1818181818181818,1494.6166944056115,20528.781429600713,77.0,39.0,38.0,0.5064935064935064,74.57316871773473,9772.384633466798,,,,,137101.0,137156.0,137176.0,137344.0,137357.0,137380.0,137388.0,137398.0,137624.0,137699.0,0.011412334962745147,-0.022855167714522805,0.050123804906190166,-0.25578006511452456,0.007808216621809742
119,119,138475.87639434237,4885.831308669935,24.529481614125952,138569.99719338532,-1124.369931589419,53.53820580516557,138688.55628939858,42605.943755129425,9.256475579657604,138710.30135639946,-5807.86867142811,4.7424731219396765,138983.3708943415,9852.53585203943,32.863746380167534,0.9928987980820158,80.0,22.0,191.0,306.0,497.0,58.0,1347.0,1320.0,59.0,31.0,28.0,0.5254237288135594,44.64169386766043,4035.9988678673153,103.0,45.0,58.0,0.4368932038834951,39.250942177980825,1197.1691789725785,23.0,12.0,11.0,0.5217391304347826,2148.533247956663,39446.776042903606,10.0,2.0,8.0,0.2,1427.267901510994,18731.33379778403,82.0,42.0,40.0,0.5121951219512195,72.65086103812564,10288.15161865683,,,,,138446.0,138504.0,138526.0,138628.0,138677.0,138700.0,138708.0,138717.0,138943.0,139023.0,0.009136969954006289,-0.03490927769875112,0.05042801681157447,-0.24574727533569382,0.007373823564731028
120,120,139758.36781237475,5545.233271046246,23.283582552570422,139899.5344014066,-1560.985817352206,117.20640843974662,139973.40041967304,42465.964619499675,9.388305803154898,139995.30135639946,-5754.507539355051,4.646228617688217,140268.24951192614,10143.436391874742,33.27827846606606,0.987662795973434,75.0,22.0,198.0,306.0,504.0,53.0,1282.0,1285.0,53.0,28.0,25.0,0.5283018867924528,59.12812829437462,4281.724740384189,143.0,95.0,48.0,0.6643356643356644,29.01779111509374,1274.9946532713636,23.0,11.0,12.0,0.4782608695652174,2100.181897860037,40127.885565495875,11.0,2.0,9.0,0.1818181818181818,1417.2250370458069,19255.566293992753,82.0,41.0,41.0,0.5,70.94372179926073,10510.34918803938,,,,,139730.0,139783.0,139805.0,139926.0,139962.0,139985.0,139993.0,140003.0,140227.0,140309.0,0.010662874833977657,-0.0185894008725298,0.049455650346764246,-0.2462808550259794,0.006994052021274487
121,121,140949.11220292185,6145.588760822783,24.08316139944041,141092.80249772454,-2047.0681842994927,133.53130422758665,141166.59330090127,41950.72747813347,9.343192301599387,141188.30135639946,-5798.996225463156,4.617243788415929,141460.34788681165,10207.160731531822,32.26538011013183,0.9853113409193028,75.0,25.0,200.0,303.0,503.0,50.0,1193.0,1193.0,51.0,28.0,23.0,0.5490196078431373,63.05772676912987,4597.389746141442,145.0,96.0,49.0,0.6620689655172414,34.47594767411375,2078.417758398624,23.0,12.0,11.0,0.5217391304347826,2105.5223535669634,37387.077702835624,12.0,3.0,9.0,0.25,1423.7356326103095,19656.690263917004,81.0,40.0,41.0,0.4938271604938271,72.94062427649843,10489.54944329496,,,,,140922.0,140972.0,140997.0,141142.0,141155.0,141178.0,141186.0,141197.0,141421.0,141500.0,0.010260648608822238,-0.01684162156323651,0.050190365701392244,-0.24551415059708856,0.0071460248540195165
122,122,142096.0698348458,6475.052239489414,24.594326120947656,142202.38968555024,-2031.7691359089697,125.81256455360882,142313.25381595118,42301.30235938304,9.2687768563875,142334.87669549932,-6467.351774957071,4.7967605536742886,142605.21767533035,10181.750730548678,32.51377433482221,0.9834425106534926,74.0,24.0,201.0,302.0,503.0,50.0,1144.0,1147.0,51.0,28.0,23.0,0.5490196078431373,77.06027201797987,4728.444507388769,145.0,59.0,86.0,0.4068965517241379,29.90984365188483,2202.359073090526,22.0,11.0,11.0,0.5,2135.21061273492,39375.916390635946,11.0,3.0,8.0,0.2727272727272727,1442.2515207917834,19819.877367509296,82.0,41.0,41.0,0.5,72.58288998073209,10556.72651540336,,,,,142068.0,142118.0,142142.0,142288.0,142302.0,142324.0,142332.0,142343.0,142566.0,142645.0,0.011901104295037533,-0.014721083770427397,0.05047623816861751,-0.22300495952245566,0.007128723920038525
123,123,143125.88230061746,6138.792532010148,23.967286074374385,143245.5203459914,-1674.631705205556,152.87792404691584,143355.5983198402,44037.10947207243,9.165024249537552,143376.87669549932,-7970.3845953089185,4.8900815018131585,143645.4778958945,10831.77132798388,31.718254825561775,0.9754675929061176,73.0,23.0,213.0,300.0,513.0,50.0,1030.0,1042.0,50.0,27.0,23.0,0.54,92.83600970593425,4769.116451867145,160.0,75.0,85.0,0.46875,29.752258920214263,1980.836824671831,22.0,12.0,10.0,0.5454545454545454,2293.2090365398058,39128.92291353557,11.0,3.0,8.0,0.2727272727272727,1614.638898755642,21845.36190591812,80.0,40.0,40.0,0.5,73.948462785346,11062.573798451856,,,,,143099.0,143149.0,143172.0,143331.0,143344.0,143366.0,143374.0,143385.0,143606.0,143685.0,0.01512284528624314,-0.01776644908115021,0.05207446773939873,-0.20257979768077444,0.006826996300623532
124,124,144102.4146801541,5560.678190970901,22.045540483720377,144230.954483781,-2305.559847402979,208.93316287085267,144333.93970132995,44358.81399513409,9.214856172068773,144355.45203459918,-7314.147514098812,4.723615902158027,144622.65599305974,10313.690570990222,30.149957662863184,0.9639385881033362,64.0,23.0,220.0,296.0,516.0,41.0,979.0,978.0,42.0,23.0,19.0,0.5476190476190477,87.85838195468277,3620.974671594295,165.0,87.0,78.0,0.5272727272727272,33.0908239347149,2706.503145768548,22.0,11.0,11.0,0.5,2267.230525511271,39732.71732125927,12.0,3.0,9.0,0.25,1618.0777182814884,22279.834969509324,75.0,37.0,38.0,0.4933333333333333,81.55190774462223,10323.919303689516,,,,,144080.0,144121.0,144144.0,144309.0,144323.0,144345.0,144352.0,144364.0,144587.0,144660.0,0.015799940032016596,-0.014352619808151567,0.05111116193863914,-0.2212257430086648,0.0079071509061952
125,125,145068.0752548863,5222.431886781373,20.272500760430063,145183.58890309412,-1917.2928223402791,104.46658143542632,145299.963482059,45138.63868466003,9.314743785586462,145321.87669549932,-6313.0871038740715,4.620265227735949,145589.04768180623,9790.786950232909,30.008191755274648,0.9739963880285848,66.0,18.0,222.0,297.0,519.0,48.0,964.0,967.0,48.0,27.0,21.0,0.5625,75.7112618218211,3866.181269401945,133.0,76.0,57.0,0.5714285714285714,33.499260984347046,1811.935597776745,22.0,11.0,11.0,0.5,2257.8265318452445,41998.78448393206,11.0,3.0,8.0,0.2727272727272727,1492.3329532915393,19744.309675864515,77.0,39.0,38.0,0.5064935064935064,75.58880033608578,10106.441039243648,,,,,145041.0,145089.0,145107.0,145242.0,145289.0,145311.0,145319.0,145329.0,145551.0,145626.0,0.014497319153832481,-0.017472167315296834,0.050019818887727045,-0.23638719516094722,0.007720400895281215
126,126,146078.52867019273,4939.58850734971,21.15011632051611,146251.3239234938,-3175.685207456314,142.6860624483872,146320.02770083098,46472.76957189299,9.461811295623162,146342.30135639946,-5059.849758591447,4.301331294897536,146612.25744840305,8812.62529314823,26.661586562686367,0.9690119703390718,67.0,24.0,230.0,296.0,526.0,43.0,1010.0,1019.0,43.0,26.0,17.0,0.6046511627906976,87.44867155534301,2975.4332082108476,177.0,132.0,45.0,0.7457627118644068,42.81238028659068,2407.49753079976,22.0,11.0,11.0,0.5,2263.024600260893,42045.80998162746,12.0,3.0,9.0,0.25,1460.201549331888,20790.49806786197,69.0,34.0,35.0,0.4927536231884058,79.42728170116764,8948.000301098926,,,,,146053.0,146096.0,146120.0,146296.0,146309.0,146331.0,146340.0,146350.0,146579.0,146646.0,0.017703634913156515,-0.013481304817640564,0.048695711942883295,-0.2885859499785575,0.009012896731570096
127,127,147325.36991350213,4688.616914556111,26.8403583457295,147490.97287201148,-2486.492827674652,203.83723206912455,147561.92471144794,44219.82470995083,9.349689775539815,147583.87669549932,-4961.43338554357,4.192069062783707,147855.5400091862,9379.722925138538,30.38311474785817,0.977275219630457,73.0,25.0,215.0,302.0,517.0,48.0,1239.0,1242.0,48.0,21.0,27.0,0.4375,43.879044521378454,3020.413233650862,161.0,114.0,47.0,0.7080745341614907,36.89244825961409,2505.15468727193,22.0,11.0,11.0,0.5,2183.41018704047,39956.43195807433,11.0,3.0,8.0,0.2727272727272727,1391.142345611433,19569.303694046535,76.0,38.0,38.0,0.5,67.06653183881447,9098.088905087776,,,,,147304.0,147352.0,147377.0,147537.0,147551.0,147573.0,147581.0,147592.0,147820.0,147894.0,0.009358632901987185,-0.014837142439745387,0.04937627413410201,-0.2803912171157813,0.007150161297309739
128,128,148659.3973347673,5111.638554069276,23.52026613101939,148775.31996639044,-1707.9040372216264,112.11047763801852,148876.63903651643,42455.40762848444,9.342369858072932,148898.30135639946,-5361.759269414818,4.563056900368746,149173.1185021714,9819.768829314868,30.748454548987297,0.9873780109651968,74.0,21.0,202.0,305.0,507.0,53.0,1344.0,1315.0,53.0,29.0,24.0,0.5471698113207547,53.92137899665672,3572.352902828672,123.0,71.0,52.0,0.5772357723577236,38.52980142642688,1825.5609747188764,23.0,12.0,11.0,0.5217391304347826,2118.96953653732,38740.74066832682,11.0,2.0,9.0,0.1818181818181818,1401.8447688357285,18862.667893445647,77.0,39.0,38.0,0.5064935064935064,75.45741950683653,10122.009028129754,,,,,148630.0,148683.0,148704.0,148826.0,148865.0,148888.0,148896.0,148906.0,149135.0,149211.0,0.010548746439384091,-0.022559699249324425,0.04991047442247729,-0.26145238873969917,0.007684235832678074
129,129,149928.58170627488,5462.998510426636,23.06851846822168,150043.68483389585,-879.9114019606693,36.83230531275109,150146.95861176588,42266.878392226325,9.278040919763283,150169.30135639946,-5300.625053593949,4.41127927704188,150442.00283488445,10319.734034260042,33.77166066600396,0.9909976170095958,79.0,21.0,197.0,306.0,503.0,58.0,1269.0,1271.0,59.0,30.0,29.0,0.5084745762711864,59.83730419779446,5011.375669134946,106.0,65.0,41.0,0.6132075471698113,31.964075986160783,687.2233558690189,23.0,12.0,11.0,0.5217391304347826,2099.409727042604,40263.15786073699,9.0,2.0,7.0,0.2222222222222222,1367.3067363516234,17469.732566479273,83.0,42.0,41.0,0.5060240963855421,75.02960103491296,10853.192819767117,,,,,149900.0,149958.0,149979.0,150085.0,150135.0,150158.0,150167.0,150176.0,150402.0,150482.0,0.010953197970599744,-0.03632647095484453,0.049670328325659485,-0.2579519816110285,0.00727049755214867
130,130,151134.61203630362,6033.896371762918,23.95634864820616,151267.19353379426,-1775.7355426933807,112.11047763801852,151351.2638892994,42781.77932937418,9.320429205508455,151373.30135639946,-6275.412020085629,4.72381095502643,151646.1945622437,10592.238549573744,32.2093596999625,0.986660078117598,76.0,24.0,199.0,304.0,503.0,52.0,1207.0,1204.0,52.0,29.0,23.0,0.5576923076923077,70.67209327857191,4736.143534194455,118.0,85.0,33.0,0.7203389830508474,32.87314300800163,1740.5876911481446,22.0,11.0,11.0,0.5,2136.8415760797843,39986.261374782334,11.0,3.0,8.0,0.2727272727272727,1454.356284735953,19876.51398155009,81.0,41.0,40.0,0.5061728395061729,70.9760136485497,10878.78022013066,,,,,151106.0,151158.0,151182.0,151299.0,151340.0,151362.0,151371.0,151381.0,151606.0,151685.0,0.011712513593919033,-0.01851240920601311,0.04994746851523818,-0.2317547087077333,0.006700756720722263
131,131,152183.38476882127,5559.378240328001,21.385959623220856,152316.41085119543,-1916.2691983141788,81.53489282682872,152406.86097250102,43372.51447372907,9.235488484077685,152427.87669549932,-8146.028735625025,5.090106264423606,152697.3229602964,11367.843311590324,33.14510233568519,0.9773754069826204,74.0,25.0,206.0,301.0,507.0,49.0,1045.0,1055.0,49.0,27.0,22.0,0.5510204081632653,90.84074928985682,4800.3100467922495,152.0,86.0,66.0,0.5657894736842105,30.790452195775934,2038.173485679652,22.0,11.0,11.0,0.5,2253.9990507578264,39418.42672419703,12.0,3.0,9.0,0.25,1612.1522978198195,21546.99348185323,82.0,41.0,41.0,0.5,85.83970334678968,11956.358745926118,,,,,152156.0,152205.0,152230.0,152362.0,152396.0,152418.0,152425.0,152436.0,152657.0,152737.0,0.016340091528742114,-0.01606791583503172,0.05196837393697993,-0.19790653214484677,0.007551098391659744
132,132,153132.06721526865,6384.236661871421,23.391931450331256,153259.3175129867,-2140.715797917733,191.097405064004,153357.59045613307,43427.94088661659,9.251587785983986,153378.87669549932,-6846.06503227334,4.731897053177369,153646.33406153877,10329.978153194726,30.51645467609175,0.9752203655550166,70.0,24.0,210.0,297.0,507.0,46.0,949.0,951.0,46.0,25.0,21.0,0.5434782608695652,98.5325374157538,4638.747714695317,157.0,83.0,74.0,0.5286624203821656,36.12271873851657,2582.1569921584833,23.0,12.0,11.0,0.5217391304347826,2220.5186660825784,38258.27305336799,12.0,3.0,9.0,0.25,1530.723405708644,21128.28770855589,76.0,37.0,39.0,0.4868421052631579,72.89936081586254,10325.312651850809,,,,,153107.0,153153.0,153177.0,153333.0,153346.0,153369.0,153376.0,153387.0,153610.0,153684.0,0.015433722562983872,-0.01687413096761981,0.05113110639714643,-0.22359171268350397,0.007057068246878831
133,133,154123.78867858922,6387.354994300639,23.154045324449793,154258.82377950757,-2593.1257783216497,180.90554346134803,154356.09378492585,43918.701471249755,9.442877964704516,154377.87669549932,-5606.327040387449,4.467602279610574,154647.6316093151,9494.65984380151,29.36131195799727,0.9722508190061044,67.0,22.0,220.0,299.0,519.0,45.0,993.0,999.0,46.0,26.0,20.0,0.5652173913043478,93.99912611977952,4361.112812989505,165.0,93.0,72.0,0.5636363636363636,36.867260256655165,2587.848212563241,22.0,11.0,11.0,0.5,2168.010571071873,40023.54527790516,11.0,3.0,8.0,0.2727272727272727,1427.258390991268,20002.287839249053,75.0,37.0,38.0,0.4933333333333333,74.51150139765441,9462.313262846832,,,,,154099.0,154144.0,154166.0,154331.0,154345.0,154367.0,154375.0,154386.0,154612.0,154685.0,0.014716439935412048,-0.014217305062817579,0.049364177410643736,-0.25457993811446133,0.007847727314454395
134,134,155308.54625873742,5792.098779121941,22.76112710983943,155457.98643600557,-1173.5973204674176,101.91861603456228,155535.4905750461,42539.45156324308,9.35853758180096,155557.87669549932,-5550.244177727485,4.6441999406267875,155830.2381134458,9936.123514159728,31.23415188515906,0.9898448209073754,77.0,23.0,208.0,303.0,511.0,54.0,1186.0,1179.0,55.0,29.0,26.0,0.5272727272727272,66.52661774483025,4883.473097592477,129.0,102.0,27.0,0.7906976744186046,31.653828344266323,963.8312941001772,23.0,11.0,12.0,0.4782608695652174,2099.2337939653344,40788.985013542006,10.0,3.0,7.0,0.3,1333.4153145172547,18274.587348744484,79.0,40.0,39.0,0.5063291139240507,74.12106421578822,10279.18394930994,,,,,155280.0,155334.0,155357.0,155481.0,155524.0,155547.0,155555.0,155565.0,155791.0,155868.0,0.011485753313570976,-0.026971626291426184,0.049347928024986866,-0.24024444183340665,0.007459756726067274
135,135,156579.78321803358,4539.083559183544,19.380243315648517,156764.60271279886,-1855.880561993875,20.383723206912453,156800.74406032253,41968.02378582195,9.28752766312124,156822.87669549932,-6768.082112288633,5.1535710982851475,157096.1009750052,10482.02388537489,31.964804554557343,0.9839667029895596,76.0,24.0,201.0,306.0,507.0,52.0,1274.0,1265.0,52.0,27.0,25.0,0.5192307692307693,53.02210834225827,4114.30539707473,148.0,137.0,11.0,0.9256756756756755,171.58472409526257,15.314773159049992,23.0,12.0,11.0,0.5217391304347826,2142.711359951526,39191.5203955301,11.0,3.0,8.0,0.2727272727272727,1387.5561028801103,19072.583416451955,80.0,40.0,40.0,0.5,77.19972881722485,10767.565687291712,,,,,156553.0,156605.0,156629.0,156776.0,156789.0,156812.0,156820.0,156830.0,157056.0,157136.0,0.011681236454654624,-0.09245461567360759,0.051055807890468215,-0.20501466735469423,0.007364964024260454
136,136,157656.40103905182,4578.249236731582,19.91743646760092,157793.83551209557,-2538.9723977425565,78.98692742678575,157887.43207472627,43805.62768167025,9.133407320503188,157908.87669549932,-7454.901205265547,4.873909482990666,158178.40976147066,10954.385474257826,31.01273481589401,0.9709063938546468,71.0,25.0,216.0,300.0,516.0,46.0,1072.0,1087.0,46.0,26.0,20.0,0.5652173913043478,62.13023064071344,3583.2942277814777,139.0,93.0,46.0,0.6690647482014388,35.883033709911764,2313.086759325376,22.0,11.0,11.0,0.5,2250.0738871187687,41177.86621606402,11.0,3.0,8.0,0.2727272727272727,1556.5831424232535,20899.38310666398,80.0,40.0,40.0,0.5,75.2971889088975,11272.638804144008,,,,,157630.0,157676.0,157701.0,157838.0,157876.0,157898.0,157906.0,157917.0,158139.0,158217.0,0.01357074012970694,-0.014132896340982666,0.05136495026323468,-0.2087999692502709,0.006873702690656774
137,137,158616.30217758092,4511.161994084991,18.1242295975676,158765.7807646976,-1687.7418549074057,43.31541181468896,158846.21486143864,44431.129744001555,9.218009147519954,158868.30135639946,-6670.2396869007825,4.7578089653460784,159135.6275413626,10415.945799399164,31.52779739927919,0.9813570983571248,70.0,23.0,214.0,299.0,513.0,47.0,962.0,959.0,49.0,25.0,24.0,0.5102040816326531,76.80398819045124,4323.489442777849,132.0,106.0,26.0,0.803030303030303,43.51095455128995,1386.0054953479516,23.0,11.0,12.0,0.4782608695652174,2238.849956327616,42471.77252148777,10.0,2.0,8.0,0.2,1513.6529430372805,19759.157447133013,79.0,40.0,39.0,0.5063291139240507,76.69391331715191,10836.182682651252,,,,,158591.0,158638.0,158661.0,158790.0,158835.0,158858.0,158866.0,158875.0,159097.0,159174.0,0.017025322586765042,-0.02578057445501764,0.050389219658090574,-0.2269263196058513,0.007363125230699256
