Unnamed: 0,cycle,p_center,p_height,p_width,q_center,q_height,q_width,r_center,r_height,r_width,s_center,s_height,s_width,t_center,t_height,t_width,r_squared,pr_interval,pr_segment,qrs_duration,st_segment,qt_interval,p_duration,pp_interval,rr_interval,fwhm_p,rise_time_p,decay_time_p,rise_decay_symmetry_p,sharpness_deriv_p,sharpness_diff_p,fwhm_q,rise_time_q,decay_time_q,rise_decay_symmetry_q,sharpness_deriv_q,sharpness_diff_q,fwhm_r,rise_time_r,decay_time_r,rise_decay_symmetry_r,sharpness_deriv_r,sharpness_diff_r,fwhm_s,rise_time_s,decay_time_s,rise_decay_symmetry_s,sharpness_deriv_s,sharpness_diff_s,fwhm_t,rise_time_t,decay_time_t,rise_decay_symmetry_t,sharpness_deriv_t,sharpness_diff_t,Average_Heart_Rate,SDNN,RMSSD,NN50,p_on,p_off,q_on,q_off,r_on,r_off,s_on,s_off,t_on,t_off,sharpness_deriv_p_norm,sharpness_deriv_q_norm,sharpness_deriv_r_norm,sharpness_deriv_s_norm,sharpness_deriv_t_norm
0,0,0.0,0.0,0.0,0.0,0.0,0.0,0.0,0.0,0.0,0.0,0.0,0.0,0.0,0.0,0.0,0.0,0.0,0.0,0.0,0.0,0.0,0.0,0.0,0.0,0.0,0.0,0.0,0.0,0.0,0.0,0.0,0.0,0.0,0.0,0.0,0.0,0.0,0.0,0.0,0.0,0.0,0.0,0.0,0.0,0.0,0.0,0.0,0.0,0.0,0.0,0.0,0.0,0.0,0.0,55.08734320625817,630.6098555953068,979.340019370625,408.0,,,,,,,,,,,,,,,
1,1,3213.87669549928,1048.8981934646245,12.704906323787569,3331.87669549928,-3126.6772950961263,12.73982700214916,3363.2032685744953,37301.788669379814,8.630025926569639,3390.750341111208,-10488.116165280417,17.758502681878262,3639.684833895824,15993.456437726432,35.597644420555376,0.9250954141930896,105.0,89.0,95.0,270.0,365.0,16.0,,,18.0,3.0,15.0,0.1666666666666666,155.3824047490599,840.7386838673624,24.0,17.0,7.0,0.7083333333333334,422.5203043680007,428.33384753495136,19.0,10.0,9.0,0.5263157894736842,2120.625773414421,30400.604312856525,30.0,10.0,20.0,0.3333333333333333,596.496671004037,15709.22663392765,91.0,49.0,42.0,0.5384615384615384,98.41895391408204,15942.62904378117,0.0,0.0,0.0,0.0,3211.0,3227.0,3316.0,3339.0,3354.0,3371.0,3381.0,3411.0,3592.0,3681.0,0.14813869040599162,-0.1351339663452575,0.05685051170629773,-0.05687357592192427,0.0061537013151156525
2,2,0.0,0.0,0.0,0.0,0.0,0.0,0.0,0.0,0.0,0.0,0.0,0.0,0.0,0.0,0.0,0.0,0.0,0.0,0.0,0.0,0.0,0.0,0.0,0.0,0.0,0.0,0.0,0.0,0.0,0.0,0.0,0.0,0.0,0.0,0.0,0.0,0.0,0.0,0.0,0.0,0.0,0.0,0.0,0.0,0.0,0.0,0.0,0.0,0.0,0.0,0.0,0.0,0.0,0.0,0.0,0.0,0.0,0.0,4588.0,4652.0,4685.0,5220.0,5232.0,5248.0,5256.0,5295.0,5480.0,,,,,,
3,3,6066.811815604171,1717.8572356641648,5.944107118012728,6180.876695499281,-3436.932579030101,12.739827004317927,6212.544137460705,38378.0916775757,8.80833168607104,6239.395410854685,-11049.047349456176,20.954151429469928,6484.298300968743,14899.36893970654,34.051509888607264,0.9283630291476774,50.0,34.0,152.0,268.0,420.0,16.0,2853.0,2849.0,16.0,8.0,8.0,0.5,163.91948289420776,1810.3745817099516,81.0,73.0,8.0,0.9012345679012346,421.1233730699239,226.29396743970096,18.0,10.0,8.0,0.5555555555555556,2104.34888438891,29527.24494513081,31.0,9.0,22.0,0.2903225806451613,679.0406929877548,17874.273995653664,90.0,44.0,46.0,0.4888888888888889,134.45322703928554,15003.576158695474,0.0,0.0,0.0,0.0,6059.0,6075.0,6109.0,6188.0,6203.0,6221.0,6230.0,6261.0,6440.0,6529.0,0.0954208996481786,-0.12252884320144694,0.054832035476596666,-0.061456944794537116,0.0090240887102923
4,4,7928.123304500719,1561.5576695829,5.9664849319524755,8041.452034599137,-3069.099914294749,15.287792395379704,8073.980979706888,37256.64005750608,8.73410591286377,8103.054747397985,-9996.202002288226,18.049529843049463,8345.482832971067,15515.636641231698,34.41408213769289,0.9338772581283508,106.0,92.0,96.0,266.0,362.0,14.0,1857.0,1862.0,16.0,8.0,8.0,0.5,167.93347696315473,1026.6477346459735,83.0,74.0,9.0,0.891566265060241,365.8527401997154,228.7262476243369,19.0,10.0,9.0,0.5263157894736842,2068.413408671208,30077.736816958743,30.0,10.0,20.0,0.3333333333333333,542.7540334405913,14807.8416587702,88.0,43.0,45.0,0.4886363636363636,114.5177373605862,15762.467705712736,0.0,0.0,0.0,0.0,7921.0,7935.0,8027.0,8050.0,8064.0,8083.0,8093.0,8123.0,8302.0,8389.0,0.1075422830896861,-0.11920522316517188,0.05551798029770227,-0.05429602496191551,0.007380795258910838
5,5,9081.178051898703,1869.3285116022207,16.260520592860203,9196.876695499284,-3136.280773673015,5.898882008420173,9228.594802336676,36765.27888206189,8.382580234945307,9257.054747397986,-9640.874461645351,17.101455300948157,9500.42418277277,16389.479378817803,37.286734005987746,0.9335371991508876,109.0,83.0,92.0,270.0,362.0,26.0,1159.0,1154.0,49.0,26.0,23.0,0.5306122448979592,121.85268983643694,1449.68077389885,20.0,13.0,7.0,0.65,403.8646559747693,1336.3674546969055,19.0,11.0,8.0,0.5789473684210527,2091.686598169773,29994.61700395476,31.0,11.0,20.0,0.3548387096774194,523.480187944086,14191.209669069283,95.0,47.0,48.0,0.4947368421052631,114.8387461894159,16512.314933849048,0.0,0.0,0.0,0.0,9076.0,9102.0,9185.0,9204.0,9219.0,9237.0,9246.0,9277.0,9455.0,9547.0,0.06518527325729159,-0.12877184318602583,0.05689298875930262,-0.05429799859200186,0.007006857480649235
6,6,11122.499099953122,1338.1919733455163,6.331797156581443,11233.45203459914,-3371.106365171924,15.28779240518416,11266.19163223136,37303.18558476374,8.751097415299295,11294.454175269477,-10108.358031504657,19.886746841339455,11536.869802162151,16147.281707997256,34.93825468108767,0.9262156181415,106.0,89.0,95.0,267.0,362.0,17.0,2036.0,2038.0,17.0,8.0,9.0,0.4705882352941176,126.2833117358804,1192.248465149226,83.0,74.0,9.0,0.891566265060241,360.0636786468726,903.7614753461216,19.0,10.0,9.0,0.5263157894736842,2049.4344220758635,29579.179825182655,32.0,10.0,22.0,0.3125,555.7698600254903,15625.502602698583,89.0,44.0,45.0,0.4943820224719101,105.7672946152826,16215.20802817162,0.0,0.0,0.0,0.0,11114.0,11131.0,11220.0,11242.0,11256.0,11275.0,11285.0,11315.0,11493.0,11582.0,0.09436860648638379,-0.10680875642691552,0.054939930463015,-0.05498122032216566,0.006550160982383759
7,7,12123.802280030495,1100.6561841159778,4.209663342821455,12235.027373698991,-3796.5108658416743,17.8357578060484,12268.286948768122,38412.06431604582,8.725279331673107,12297.054747397986,-11392.663598266574,22.69121038063287,12540.318502997434,15487.3970606582,33.12025446642799,0.9140234769697614,48.0,35.0,152.0,266.0,418.0,13.0,1001.0,1002.0,14.0,7.0,7.0,0.5,146.17755147746314,786.824542162786,83.0,73.0,10.0,0.8795180722891566,347.0154728759763,1352.2088740362003,18.0,9.0,9.0,0.5,2097.193721815327,28650.370046269483,31.0,11.0,20.0,0.3548387096774194,589.9449332423872,16787.245232773705,89.0,44.0,45.0,0.4943820224719101,114.16214195658024,15710.363845808632,0.0,0.0,0.0,0.0,12117.0,12130.0,12165.0,12245.0,12259.0,12277.0,12286.0,12317.0,12497.0,12583.0,0.13280945820049123,-0.09140378761935772,0.05459726674828223,-0.05178288010998139,0.007371293026804367
8,8,0.0,0.0,0.0,0.0,0.0,0.0,0.0,0.0,0.0,0.0,0.0,0.0,0.0,0.0,0.0,0.0,0.0,0.0,0.0,0.0,0.0,0.0,0.0,0.0,0.0,0.0,0.0,0.0,0.0,0.0,0.0,0.0,0.0,0.0,0.0,0.0,0.0,0.0,0.0,0.0,0.0,0.0,0.0,0.0,0.0,0.0,0.0,0.0,0.0,0.0,0.0,0.0,0.0,0.0,0.0,0.0,0.0,0.0,13490.0,13564.0,13994.0,14111.0,14124.0,14141.0,14149.0,14186.0,14369.0,,,,,,
9,9,14956.954220545796,1277.277627231582,4.499572073786881,15072.45203459914,-3398.2594863191607,15.287792405183994,15104.909055984155,37366.797039380945,8.580530208507886,15134.47940829813,-10944.079006809725,19.635396703063503,15376.894968244056,15047.785305780302,32.62268369021063,0.9211187327322026,108.0,93.0,95.0,266.0,361.0,15.0,2833.0,2837.0,15.0,7.0,8.0,0.4666666666666667,153.98274178574658,887.4770988957166,85.0,76.0,9.0,0.8941176470588236,351.4918711301112,797.8125143888581,18.0,10.0,8.0,0.5555555555555556,2099.5747983171423,29406.564444215357,30.0,11.0,19.0,0.3666666666666666,570.5886207410946,15870.41104668366,85.0,43.0,42.0,0.5058823529411764,97.9246448058572,15331.938768781942,0.0,0.0,0.0,0.0,14950.0,14965.0,15058.0,15081.0,15095.0,15113.0,15123.0,15153.0,15334.0,15419.0,0.12055542076587873,-0.10343291103730018,0.05618824637563653,-0.05213674173825479,0.006507578545012961
10,10,16050.55716824212,907.9451628208316,3.65375281465878,16163.45203459914,-3424.831508835115,15.28779240518434,16196.45203459914,37610.12882138728,8.939689998059317,16223.028171440528,-11155.871013087864,22.80589478191648,16469.082254350193,15507.887852824584,34.76332440845708,0.9219257407969516,47.0,39.0,155.0,268.0,423.0,8.0,1094.0,1092.0,13.0,6.0,7.0,0.4615384615384615,143.3995983052425,919.9115082296356,83.0,73.0,10.0,0.8795180722891566,351.9758173349389,1055.55295686014,19.0,10.0,9.0,0.5263157894736842,2002.6349985354425,27042.0317433217,34.0,10.0,24.0,0.2941176470588235,574.235263826026,16853.531417727787,91.0,45.0,46.0,0.4945054945054945,105.27658809911463,15449.410678232296,0.0,0.0,0.0,0.0,16045.0,16053.0,16092.0,16172.0,16186.0,16205.0,16213.0,16247.0,16425.0,16515.0,0.15793861146825683,-0.10277171779894542,0.05324722518356888,-0.051473817073749206,0.006788583274410236
11,11,17008.480120656022,1539.989704692243,12.638557247335791,17123.027373698995,-2868.502901565908,8.121567683219727,17157.45203459914,36096.328378577666,8.394411376287643,17187.47940829813,-9646.583002262943,16.389459508640225,17426.511405589194,16668.96267231828,36.51934879063568,0.9248327486519802,106.0,89.0,96.0,266.0,362.0,17.0,961.0,961.0,18.0,4.0,14.0,0.2222222222222222,145.6149435031643,1566.4809708314126,82.0,72.0,10.0,0.8780487804878049,300.57106261878647,45.22654983282655,20.0,11.0,9.0,0.55,2036.6811525689957,29602.56086979179,30.0,11.0,19.0,0.3666666666666666,453.2155173399484,13116.6656198053,91.0,45.0,46.0,0.4945054945054945,127.95991405408144,17350.094379447582,0.0,0.0,0.0,0.0,17004.0,17021.0,17110.0,17133.0,17147.0,17166.0,17176.0,17206.0,17383.0,17472.0,0.0945557902494319,-0.10478325207713945,0.05642349912180317,-0.04698197457417107,0.007676537320860475
12,12,18128.123304500717,1085.1995941362684,6.063803405657961,18238.45203459914,-2968.0481569775125,15.28779240193721,18271.297598040204,37495.98029976468,8.739192246656604,18298.71670706241,-10434.168000696733,18.23732711266845,18546.260172995684,16547.17117474539,35.853195929924105,0.9220315497658116,48.0,33.0,150.0,270.0,420.0,15.0,1116.0,1113.0,15.0,7.0,8.0,0.4666666666666667,104.28218835498184,890.2622188489751,81.0,72.0,9.0,0.8888888888888888,349.00537461361336,105.54821880836266,19.0,10.0,9.0,0.5263157894736842,2106.566803595469,30335.227768630073,30.0,10.0,20.0,0.3333333333333333,596.0930011244917,15506.875229897869,92.0,49.0,43.0,0.532608695652174,123.89171514121476,16779.08974053156,0.0,0.0,0.0,0.0,18121.0,18136.0,18169.0,18247.0,18262.0,18280.0,18290.0,18319.0,18498.0,18589.0,0.09609493858867693,-0.11758750402790638,0.05618113693132834,-0.057128944165427284,0.007487183992530439
13,13,20101.550388982658,1545.8263760031614,6.935160533954,20209.602712798853,-3664.17453818878,20.38372320691245,20244.82504818286,38474.14913003531,8.848748840750071,20274.054747397982,-10200.869190018866,20.856559185420732,20515.320094277475,15623.460010053372,33.46357066512139,0.9219733458101266,104.0,87.0,97.0,265.0,362.0,17.0,1978.0,1974.0,19.0,9.0,10.0,0.4736842105263157,151.10187158617092,1314.4081426405353,84.0,72.0,12.0,0.8571428571428571,309.37066987678105,1531.6897596507238,18.0,10.0,8.0,0.5555555555555556,2077.901820092878,29789.090364392167,30.0,10.0,20.0,0.3333333333333333,536.67261998333,15298.304948400844,87.0,42.0,45.0,0.4827586206896552,101.87755843082226,15614.343637876627,0.0,0.0,0.0,0.0,20093.0,20110.0,20197.0,20221.0,20235.0,20253.0,20264.0,20294.0,20473.0,20559.0,0.09774828139293044,-0.08443120453255061,0.054007739406269004,-0.05261047955682466,0.006520806426058387
14,14,21109.732287859028,1633.0891366389185,6.424001974457842,21221.45203459914,-2995.136661184788,15.28779240518434,21254.268425264705,39080.533838307834,8.927879747936219,21281.068845613507,-10932.402997749106,22.280387487250053,21526.86732528046,14792.523867566675,32.4366019205197,0.9387635241681314,47.0,31.0,155.0,266.0,421.0,16.0,1004.0,1009.0,17.0,9.0,8.0,0.5294117647058824,137.7260849444104,1451.5110526921949,84.0,75.0,9.0,0.8928571428571429,330.93934972675527,89.35905780489952,19.0,10.0,9.0,0.5263157894736842,2101.577039581218,30193.188865227406,32.0,9.0,23.0,0.28125,670.6047214407482,17602.210933223334,87.0,44.0,43.0,0.5057471264367817,104.7691123666397,14624.72213444289,0.0,0.0,0.0,0.0,21101.0,21117.0,21148.0,21230.0,21245.0,21263.0,21273.0,21303.0,21486.0,21569.0,0.08433470155086953,-0.11049223697053122,0.05377554585810681,-0.0613410173023095,0.007082571798065579
15,15,22069.218801117913,1651.3285139718298,12.739827004320285,22188.30135639943,-3701.765861179024,6.169944232184049,22218.45203459914,36390.43503119806,8.603999660510308,22246.801041814273,-9309.97400907337,21.61303305965539,22489.277413208212,16076.679136624996,35.602809934044274,0.9340505340239722,110.0,90.0,95.0,266.0,361.0,20.0,961.0,965.0,20.0,5.0,15.0,0.25,147.3327188679472,1824.9705108581704,20.0,14.0,6.0,0.7,476.8377352227025,784.5738168325809,19.0,10.0,9.0,0.5263157894736842,1932.0323130627196,28050.93239287806,34.0,11.0,23.0,0.3235294117647059,470.42256692277704,13503.247692223147,89.0,43.0,46.0,0.4831460674157303,132.43780294595442,16500.391363652234,0.0,0.0,0.0,0.0,22064.0,22084.0,22174.0,22194.0,22208.0,22227.0,22237.0,22269.0,22446.0,22535.0,0.08922071993632429,-0.12881358603021645,0.053091761926076446,-0.050528880796478035,0.008237883074013835
16,16,23032.925747732876,1625.747366576383,4.355163140947576,23170.45203459914,-3210.733938522837,15.287792405165712,23202.94164407942,38306.334816874376,8.82744871959094,23230.750060972587,-10452.9186133932,20.124164851587388,23474.050081136043,16057.641546133056,34.89257410879711,0.925773112002702,69.0,58.0,156.0,267.0,423.0,11.0,963.0,984.0,12.0,6.0,6.0,0.5,148.10030062860622,1876.023326548772,84.0,75.0,9.0,0.8928571428571429,348.2179318495118,342.0914851681771,18.0,10.0,8.0,0.5555555555555556,2096.158118294113,30067.606634074786,31.0,10.0,21.0,0.3225806451612903,582.1864198949193,15950.884659844902,90.0,44.0,46.0,0.4888888888888889,110.32005654223532,16229.377247777213,0.0,0.0,0.0,0.0,23027.0,23038.0,23096.0,23179.0,23193.0,23211.0,23222.0,23252.0,23431.0,23519.0,0.09109674951556994,-0.10845430936258657,0.05472092614224036,-0.05569606359978454,0.006870252784338818
17,17,24257.047886640477,802.9686566278946,3.946350148524605,24360.027373698995,-4015.484698603084,17.8357578060484,24393.527298775098,38313.063766253385,8.851799465505195,24420.298563293924,-10763.357102611555,21.684166788503298,24667.960792322658,15220.470460482366,33.45219597323782,0.9204453383948492,37.0,29.0,150.0,271.0,421.0,8.0,1226.0,1191.0,14.0,8.0,6.0,0.5714285714285714,137.67613943603388,470.2811477527799,80.0,70.0,10.0,0.875,332.9693406611358,1485.4617378720563,18.0,10.0,8.0,0.5555555555555556,2078.764512320897,28800.37507837008,31.0,9.0,22.0,0.2903225806451613,674.4114634631553,17191.449397780292,90.0,45.0,45.0,0.5,110.15254968667396,15137.988222017771,0.0,0.0,0.0,0.0,24254.0,24262.0,24291.0,24370.0,24384.0,24402.0,24412.0,24441.0,24624.0,24712.0,0.17145892096736556,-0.08292133220603977,0.05425732917115071,-0.06265809607854786,0.00723713172813339
18,18,26302.85536825789,1223.171055918611,4.009439847794898,26437.45203459914,-3107.2001893645865,15.28779240518434,26470.19904136044,38778.05986258281,8.834010001107497,26496.92620513709,-10418.064907829686,21.38849404935235,26741.874213485287,16035.093249758658,34.48331481021622,0.9310893688627334,125.0,116.0,96.0,268.0,364.0,9.0,2045.0,2076.0,9.0,6.0,3.0,0.6666666666666666,130.4816788356366,1722.925990360844,82.0,72.0,10.0,0.8780487804878049,349.7090831670795,634.6737525621809,19.0,10.0,9.0,0.5263157894736842,2095.052496051336,30272.459153491684,31.0,9.0,22.0,0.2903225806451613,676.367860976529,16852.626325462134,89.0,45.0,44.0,0.5056179775280899,110.5845447746516,16341.067277972434,0.0,0.0,0.0,0.0,26297.0,26306.0,26422.0,26446.0,26461.0,26479.0,26489.0,26518.0,26698.0,26786.0,0.1066749235148013,-0.11254797304791424,0.05402674872016651,-0.06492260001837821,0.006896407962973087
19,19,27483.22483200244,1574.3584668167275,11.558672981670412,27590.45203459914,-2872.985430091787,6.263201287807692,27623.59618910536,36701.4216354199,8.370824352731919,27652.47940829813,-9636.016398198108,17.03007192893922,27896.401696338075,16173.098670395224,35.53337780675926,0.9425456750962928,109.0,86.0,88.0,271.0,359.0,23.0,1184.0,1154.0,25.0,10.0,15.0,0.4,155.6478852405584,1542.223921725919,19.0,10.0,9.0,0.5263157894736842,334.0152639341659,238.62124371069717,19.0,11.0,8.0,0.5789473684210527,2062.4263142109107,29530.97395668398,29.0,10.0,19.0,0.3448275862068966,560.6874932854527,14556.797128327602,93.0,46.0,47.0,0.4946236559139785,115.4017411613832,16232.693181209088,0.0,0.0,0.0,0.0,27474.0,27497.0,27583.0,27599.0,27613.0,27632.0,27643.0,27671.0,27851.0,27942.0,0.09886432379994785,-0.11626068842385139,0.05619472549860301,-0.05818664789635463,0.007135413164369392
20,20,28541.32873009842,2055.6057552874177,15.472292815279564,28649.945311944357,-2702.3014387410603,5.645361297902736,28682.45203459914,34857.19303988479,8.407396905603994,28711.904069198277,-7737.628572846997,16.28672605362306,28952.2621249523,17525.05486309662,38.40747183653246,0.932128275550385,110.0,85.0,89.0,268.0,357.0,25.0,1059.0,1059.0,26.0,9.0,17.0,0.3461538461538461,121.29399609954386,2106.755362887704,17.0,9.0,8.0,0.5294117647058824,383.1553531670607,716.5091024630923,19.0,10.0,9.0,0.5263157894736842,1920.2997542464095,29163.4029571201,28.0,8.0,20.0,0.2857142857142857,396.2930198627784,10816.276834342689,94.0,46.0,48.0,0.4893617021276595,124.24571053174768,18248.702799003386,0.0,0.0,0.0,0.0,28532.0,28557.0,28642.0,28658.0,28672.0,28691.0,28705.0,28731.0,28907.0,28999.0,0.05900644896889986,-0.1417885316841499,0.055090487408126554,-0.051216340527568856,0.0070896046547265345
21,21,29488.77405240353,670.2334344318496,2.9988441442035887,29599.45203459914,-2758.8175968558157,15.28779240518434,29631.46570341391,40616.33411110561,9.129309510305369,29656.904069198277,-10361.210248697796,30.57558480775964,29902.333310190883,15492.672694251012,32.54190328248377,0.912071343014966,42.0,33.0,154.0,263.0,417.0,9.0,942.0,949.0,10.0,5.0,5.0,0.5,146.53653218619354,388.6256120710636,82.0,73.0,9.0,0.8902439024390244,387.8850538225077,1599.1870488050267,18.0,9.0,9.0,0.5,2090.907851822413,29831.086802634814,34.0,8.0,26.0,0.2352941176470588,759.0368758439084,19020.69821777693,88.0,44.0,44.0,0.5,120.17031658508157,15198.922055227027,0.0,0.0,0.0,0.0,29485.0,29494.0,29527.0,29608.0,29622.0,29640.0,29650.0,29681.0,29860.0,29944.0,0.21863506751257664,-0.14059829626452094,0.05147948227190454,-0.07325754980595096,0.0077565904190097625
22,22,30549.953804658595,1702.3391961758546,15.943224375616014,30666.30135639943,-2440.555317656462,4.716772472436519,30697.39500225504,37035.90372173187,8.47225336839546,30726.236326555176,-9633.488785828682,15.262156577073169,30968.324316833976,16821.30279619967,38.0498395327516,0.9347007225929256,109.0,87.0,90.0,272.0,362.0,22.0,1064.0,1065.0,28.0,6.0,22.0,0.2142857142857142,110.63507525143768,1817.1952566308464,18.0,12.0,6.0,0.6666666666666666,389.57252405158033,1953.220236077176,19.0,10.0,9.0,0.5263157894736842,2101.4315070168936,31827.154154239903,27.0,9.0,18.0,0.3333333333333333,571.0798453698468,14673.40780833442,95.0,47.0,48.0,0.4947368421052631,117.14364241169132,17517.684616975013,0.0,0.0,0.0,0.0,30545.0,30567.0,30654.0,30672.0,30687.0,30706.0,30717.0,30744.0,30922.0,31016.0,0.06499002989531641,-0.1596245416906454,0.056740386917676834,-0.05928068823933571,0.006964005334839869
23,23,32678.50360033492,2114.405078852365,16.87172451376918,32792.02398533743,-2232.2585606254743,5.106786549839225,32824.37388569944,37326.66715352121,8.423891683971192,32852.74471259362,-9296.5867952842,14.821972145163995,33094.65731923109,17127.714661546495,38.17737388757394,0.9401285171043005,120.0,90.0,83.0,271.0,354.0,30.0,2132.0,2127.0,32.0,12.0,20.0,0.375,116.05451949362154,2176.1233188141814,16.0,9.0,7.0,0.5625,378.7839135281078,1400.8404217673424,19.0,10.0,9.0,0.5263157894736842,2127.558446398276,31687.146522608455,28.0,10.0,18.0,0.3571428571428571,560.931840865645,13610.216950190852,95.0,47.0,48.0,0.4947368421052631,112.77208890450105,17893.442803672395,0.0,0.0,0.0,0.0,32668.0,32698.0,32788.0,32799.0,32814.0,32833.0,32844.0,32871.0,33049.0,33142.0,0.054887552368447966,-0.16968639753898998,0.05699835020490365,-0.06033739620977713,0.006584187740918299
24,24,33801.12330450071,991.1454248236296,6.000588032413136,33909.027373699,-3281.757730070846,17.8357578060484,33942.822252597376,38744.72066743888,8.71940256177165,33970.63008649785,-10935.738957640797,21.361726525648375,34215.03729617794,15877.223541404655,33.65235831462411,0.9228123616870412,44.0,28.0,154.0,267.0,421.0,16.0,1115.0,1119.0,17.0,8.0,9.0,0.4705882352941176,112.56923651696734,917.1342981178284,83.0,73.0,10.0,0.8795180722891566,337.3170267361386,821.726600344341,18.0,10.0,8.0,0.5555555555555556,2110.998313602767,29236.88897268936,32.0,11.0,21.0,0.34375,589.5335147432174,16428.56984025977,87.0,43.0,44.0,0.4942528735632184,134.21860397216557,16052.251269779994,0.0,0.0,0.0,0.0,33794.0,33810.0,33838.0,33919.0,33933.0,33951.0,33960.0,33992.0,34172.0,34259.0,0.11357489395362803,-0.10278547488295446,0.05448479888969372,-0.05390888690986086,0.008453531161928282
25,25,35585.424660900135,328.3975369140299,0.6988029204571717,35940.027373699,-2679.064266645862,17.8357578060484,35972.45203462687,41569.18297197251,9.157805543304168,35997.47940829813,-10927.638072440011,33.123550211232654,36244.23936752869,15724.289572356887,32.82944472490958,0.909105507391709,283.0,280.0,155.0,266.0,421.0,3.0,1786.0,2030.0,3.0,1.0,2.0,0.3333333333333333,109.35118635723528,3157.8874293126923,90.0,80.0,10.0,0.8888888888888888,376.4368290824262,1714.8443564045278,18.0,9.0,9.0,0.5,2111.9882850326567,29448.80765180377,35.0,8.0,27.0,0.2285714285714285,886.915046015578,20859.52507085798,87.0,43.0,44.0,0.4942528735632184,118.07478609721674,15960.292401581462,0.0,0.0,0.0,0.0,35584.0,35587.0,35867.0,35950.0,35963.0,35981.0,35990.0,36022.0,36202.0,36288.0,0.33298418552348025,-0.1405105632474125,0.05080658637088532,-0.08116255682482906,0.007509069681900975
26,26,36974.82830732947,2302.3860503884734,17.835757806011994,37091.30135639943,-2540.842691983802,4.929749476915711,37122.53580866348,36877.51872188714,8.425511551250736,37151.32041476019,-9049.2765876897,14.213454117284671,37393.297197527434,17866.381860942216,39.58075910954788,0.9270674903205712,110.0,83.0,89.0,273.0,362.0,27.0,1392.0,1149.0,28.0,5.0,23.0,0.1785714285714285,145.17874282043496,2513.2495843330653,18.0,12.0,6.0,0.6666666666666666,410.273603840263,1815.396679348221,19.0,11.0,8.0,0.5789473684210527,2111.4868357634596,31488.7019139522,27.0,9.0,18.0,0.3333333333333333,574.3511850515152,13710.446726180076,99.0,48.0,51.0,0.4848484848484848,114.89061605620736,18116.030831144075,0.0,0.0,0.0,0.0,36970.0,36997.0,37080.0,37097.0,37113.0,37131.0,37143.0,37169.0,37347.0,37442.0,0.06305577763378972,-0.1614714697350805,0.05725674906946147,-0.0634692927645555,0.006430547435425093
27,27,38061.027373699,1543.4419562791686,7.6367091430390674,38166.87669549929,-3230.779893023729,6.591420414009383,38198.59567011578,35281.67633534956,8.276199612689034,38229.599262912874,-9143.828614163054,17.856039731586446,38470.6447464898,16997.657822786437,36.10566510187065,0.9198334175518964,107.0,84.0,94.0,267.0,361.0,23.0,1087.0,1077.0,23.0,13.0,10.0,0.5652173913043478,105.07599698527532,1185.5832173312951,19.0,12.0,7.0,0.631578947368421,411.3678538805618,1035.4214955250195,19.0,11.0,8.0,0.5789473684210527,1971.7477184098288,28062.22370129369,32.0,13.0,19.0,0.40625,370.4201245851997,11672.483398279648,93.0,47.0,46.0,0.5053763440860215,122.94987698549242,16819.536082516195,0.0,0.0,0.0,0.0,38048.0,38071.0,38155.0,38174.0,38188.0,38207.0,38219.0,38249.0,38426.0,38516.0,0.06807900780317377,-0.127327725039033,0.05588588534367023,-0.04051039670750704,0.007233342279703402
28,28,39081.329678074726,2141.216232922983,17.0071616930962,39196.37607084764,-2285.295613206449,4.9820161090727755,39228.604773979954,37688.711341049144,8.562988552773035,39257.16330771549,-9324.147878615744,15.7116541073174,39499.58413999425,17167.972199501935,36.702077012675566,0.946188612429224,114.0,86.0,86.0,271.0,357.0,28.0,1019.0,1030.0,30.0,8.0,22.0,0.2666666666666666,115.75335508011182,2480.879804103001,15.0,7.0,8.0,0.4666666666666667,373.03090072878024,1427.812187371078,19.0,11.0,8.0,0.5789473684210527,2101.610156378644,31398.02526272498,27.0,8.0,19.0,0.2962962962962963,595.0683106837298,14348.223368708905,92.0,46.0,46.0,0.5,113.5299992243963,17625.786843040943,0.0,0.0,0.0,0.0,39075.0,39103.0,39189.0,39203.0,39218.0,39237.0,39249.0,39275.0,39454.0,39546.0,0.054059628962412835,-0.16323091794911757,0.05576232462184634,-0.06382012795490682,0.006612895099381041
29,29,40231.84413148585,1178.945111201717,6.813242149674674,40338.45203459914,-2822.808383484288,15.28779240518434,40370.69760413168,38072.75731641421,8.798715061748355,40397.71561631412,-10325.507363512868,18.76431354165209,40646.68483389583,16442.414832819486,34.1597635326956,0.933545401556436,38.0,26.0,152.0,269.0,421.0,12.0,1150.0,1142.0,12.0,3.0,9.0,0.25,124.18506699615033,1165.979959162125,81.0,72.0,9.0,0.8888888888888888,370.12995686070815,312.40004713179417,18.0,10.0,8.0,0.5555555555555556,2108.0792678423672,30197.411936674755,31.0,10.0,21.0,0.3225806451612903,596.7903097709238,15941.862713461294,87.0,46.0,41.0,0.5287356321839081,125.41583727955144,16453.689041486952,0.0,0.0,0.0,0.0,40229.0,40241.0,40267.0,40347.0,40361.0,40379.0,40389.0,40419.0,40601.0,40688.0,0.10533574957494549,-0.13112117670695175,0.05536975560563134,-0.05779767412493406,0.007627580167191633
30,30,41223.6619206446,2207.809950432585,17.86545112114088,41339.87669549929,-2712.140794070184,5.121286527865411,41371.45203459914,34906.82969004775,8.458996203961801,41401.47940829813,-8463.38718947225,16.215677263704023,41642.44915785326,17215.929202276555,38.36411917660667,0.9321813650388222,116.0,87.0,87.0,270.0,357.0,29.0,993.0,1001.0,31.0,8.0,23.0,0.2580645161290322,122.50165969430606,2608.052569473441,16.0,9.0,7.0,0.5625,412.12643045735626,1444.7123035715945,20.0,11.0,9.0,0.55,1910.211900378978,29006.665246215132,28.0,8.0,20.0,0.2857142857142857,417.911777718821,11909.562684905102,95.0,46.0,49.0,0.4842105263157895,119.12254036224118,17910.295641422257,0.0,0.0,0.0,0.0,41217.0,41246.0,41333.0,41347.0,41361.0,41380.0,41393.0,41420.0,41596.0,41690.0,0.05548559995859418,-0.15195613419422332,0.054723156394910204,-0.04937878515574337,0.006919320994099405
31,31,42220.68485996599,519.4491884834844,2.0328459663776095,42335.027373699,-2500.354966853904,17.8357578060484,42367.540837531895,41303.40969843269,9.140853868833483,42392.47940829813,-10646.754403384704,33.12355021123273,42641.5008341488,15642.14457880552,32.16896751725333,0.9097875456207912,44.0,37.0,156.0,267.0,423.0,7.0,994.0,996.0,7.0,4.0,3.0,0.5714285714285714,115.37780482484192,458.8704254199054,86.0,76.0,10.0,0.8837209302325582,410.5154031195945,1267.134437639838,18.0,10.0,8.0,0.5555555555555556,2131.315499496343,29318.014718559913,35.0,8.0,27.0,0.2285714285714285,884.8431471287888,21378.87657605575,85.0,43.0,42.0,0.5058823529411764,140.11866145670308,15954.060880224642,0.0,0.0,0.0,0.0,42217.0,42224.0,42261.0,42345.0,42359.0,42376.0,42385.0,42417.0,42600.0,42684.0,0.22211567056574638,-0.16418284946002268,0.05160144198887334,-0.0831091911773121,0.008957765397882733
32,32,43289.19241186071,1383.8107683613898,4.957442410897459,43402.45203459914,-3372.06732406125,15.287792404160092,43434.86986034033,36621.17288229838,8.578058436288146,43465.47940829813,-10462.910810862531,19.52527215769781,43708.97065272042,16370.487227166212,34.942996220642726,0.9200978488934178,106.0,97.0,95.0,269.0,364.0,9.0,1068.0,1067.0,9.0,6.0,3.0,0.6666666666666666,175.50433187049438,1517.7850768552246,82.0,73.0,9.0,0.8902439024390244,389.65767503884973,558.7846260080905,18.0,10.0,8.0,0.5555555555555556,2067.4000068310525,29237.25922285022,31.0,12.0,19.0,0.3870967741935484,511.4897591945339,14532.470166318148,89.0,44.0,45.0,0.4943820224719101,149.11966573305503,17035.38049198848,0.0,0.0,0.0,0.0,43283.0,43292.0,43389.0,43411.0,43425.0,43443.0,43453.0,43484.0,43665.0,43753.0,0.12682682913236332,-0.11555453601369793,0.05645368086586801,-0.04888599056617288,0.00910905482920487
33,33,44126.86459384003,917.0080094845414,1.8078744864563443,44240.60271279886,-4928.877430279923,20.383723206912453,44275.676315092125,38187.88516909113,8.984662982417854,44303.36199679483,-11653.80888960723,21.5100364443967,44545.87473182134,15136.395329220484,33.09933684241973,0.9134744818943984,44.0,38.0,157.0,264.0,421.0,6.0,839.0,841.0,6.0,3.0,3.0,0.5,183.4934923181053,860.0252870333954,86.0,74.0,12.0,0.8604651162790697,332.2594389023988,2015.7971933426288,18.0,10.0,8.0,0.5555555555555556,2042.4137055660503,27850.832918820277,32.0,10.0,22.0,0.3125,632.0789225967424,17929.00801292037,85.0,42.0,43.0,0.4941176470588235,136.677859493186,15567.884242864371,0.0,0.0,0.0,0.0,44124.0,44130.0,44168.0,44252.0,44266.0,44284.0,44293.0,44325.0,44504.0,44589.0,0.20010020678145293,-0.06741077326476122,0.05348328917724824,-0.05423796876920001,0.009029749588353599
34,34,44895.972626301,2084.022315096533,11.92369198305392,45026.027373699,-3223.579370240722,17.8357578060484,45058.458851194555,40895.014889073485,9.338775368225503,45083.47940829813,-10977.28618283801,33.12355021113766,45329.663397044795,14617.679748563774,31.044553379936765,0.9156217845582728,54.0,23.0,170.0,261.0,431.0,31.0,766.0,783.0,37.0,11.0,26.0,0.2972972972972973,165.5554568936727,2724.3271742686734,101.0,90.0,11.0,0.8910891089108911,394.35807760283257,1458.0532375556968,19.0,9.0,10.0,0.4736842105263157,2043.0433424715227,28815.957830640997,37.0,8.0,29.0,0.2162162162162162,851.5908624507632,21386.10548968882,84.0,42.0,42.0,0.5,162.52576047117242,14652.758790261552,0.0,0.0,0.0,0.0,44886.0,44917.0,44940.0,45036.0,45049.0,45067.0,45076.0,45110.0,45289.0,45371.0,0.07944034749263425,-0.122335463877033,0.04995824914144712,-0.07757754041086659,0.011118437622574199
35,35,45734.33269213595,1806.4382530969876,7.523417883814577,45859.178051898714,-4205.082473271123,22.93168860777651,45895.45203459914,37248.424172170344,9.170860738390724,45922.76021733633,-10758.075678679155,22.697939218933406,46166.121357202515,14664.603712064143,33.26595071587277,0.8972189432630903,50.0,31.0,173.0,264.0,437.0,19.0,840.0,837.0,19.0,11.0,8.0,0.5789473684210527,170.21374388676026,2211.832228234894,100.0,87.0,13.0,0.87,274.9751434501349,2634.9344794360272,19.0,10.0,9.0,0.5263157894736842,1923.708524155928,26893.32124742448,34.0,10.0,24.0,0.2941176470588235,514.8239325253261,15528.110373201103,90.0,44.0,46.0,0.4888888888888889,163.27932552792555,14598.26713594221,0.0,0.0,0.0,0.0,45723.0,45742.0,45773.0,45872.0,45885.0,45904.0,45913.0,45946.0,46123.0,46210.0,0.09422616222555241,-0.06539114160018661,0.05164536666743612,-0.04785464872176235,0.011134247384646365
36,36,46751.05995201543,536.5662215630122,0.934183181987751,47125.027373699,-3528.953201143316,17.8357578060484,47158.45203459914,37491.58824016917,8.713391204122647,47188.05474739799,-10849.150591753523,23.58967048107827,47434.2048447746,14812.358574341768,33.808725885778124,0.901385435941981,304.0,300.0,155.0,270.0,425.0,4.0,1018.0,1263.0,4.0,2.0,2.0,0.5,162.66374028848668,4097.461992547682,84.0,74.0,10.0,0.8809523809523809,339.64180290033187,1097.870749761751,18.0,9.0,9.0,0.5,2026.51070239974,28408.17882215459,32.0,12.0,20.0,0.375,537.8540953401841,15509.813079488504,91.0,46.0,45.0,0.5054945054945055,170.5488947010576,14923.160866283668,0.0,0.0,0.0,0.0,46749.0,46753.0,47053.0,47135.0,47149.0,47167.0,47176.0,47208.0,47389.0,47478.0,0.3031568774766492,-0.09624434883134583,0.05405241008777802,-0.0495756871278945,0.011513959363398442
37,37,48232.027373699,1497.670649756406,6.704478838308829,48333.45203459914,-3171.0409886444354,8.259958363322648,48367.45203459914,34871.630914382215,8.479729180049475,48397.162230081,-9072.700743187392,20.32423391921544,48641.35024032799,15873.228341885524,35.540464887797924,0.9326627458188071,94.0,79.0,97.0,269.0,366.0,15.0,1484.0,1209.0,17.0,6.0,11.0,0.3529411764705882,165.21625387811994,737.4617364377275,79.0,69.0,10.0,0.8734177215189873,301.56619386678807,694.0002363746866,19.0,10.0,9.0,0.5263157894736842,1890.4332704094852,27592.339940815353,32.0,11.0,21.0,0.34375,416.5340704127837,12982.006182206303,90.0,43.0,47.0,0.4777777777777778,128.6579783491107,16343.64342395572,0.0,0.0,0.0,0.0,48227.0,48242.0,48321.0,48342.0,48357.0,48376.0,48388.0,48418.0,48599.0,48687.0,0.11031547817605435,-0.09510006176101254,0.054211208963840234,-0.04591070313054857,0.008105344141595576
38,38,49288.753390998565,1698.5568205877323,13.259879819007256,49398.45203459914,-3138.861433163259,7.0307280632035845,49431.233585623726,36019.70912980532,8.327527254286503,49461.18089560679,-9752.41938004936,16.156710287402383,49703.78724884948,16470.217956356573,35.87629018474489,0.945290737942586,109.0,84.0,93.0,269.0,362.0,25.0,1058.0,1063.0,27.0,12.0,15.0,0.4444444444444444,106.14315090537772,1652.6701911957412,24.0,15.0,9.0,0.625,324.6119168565636,4.773736266468404,19.0,10.0,9.0,0.5263157894736842,2049.408163956848,30130.22810444963,30.0,11.0,19.0,0.3666666666666666,475.52914223943856,13588.878819887432,92.0,46.0,46.0,0.5,120.87143316448103,16910.37010034559,0.0,0.0,0.0,0.0,49278.0,49303.0,49387.0,49407.0,49421.0,49440.0,49450.0,49480.0,49659.0,49749.0,0.062490197336259976,-0.10341709048603288,0.05689685490161327,-0.048760120305350506,0.007338787712753461
39,39,50429.89695784023,1593.257500634106,9.64776429653744,50538.87669549929,-3427.869054440805,6.993137326977523,50570.86258195851,36850.405442166186,8.25795545092812,50599.47940829813,-10845.006220149631,18.24612437572673,50844.85633776739,16112.103171391112,35.07749692557429,0.9346250784340376,51.0,26.0,149.0,271.0,420.0,25.0,1140.0,1140.0,26.0,13.0,13.0,0.5,139.00048985071098,1350.2812192428569,80.0,72.0,8.0,0.9,386.8088945609466,703.7053684813404,18.0,10.0,8.0,0.5555555555555556,2096.659008239207,29119.49196503929,31.0,11.0,20.0,0.3548387096774194,564.647634245025,15653.134152173086,91.0,46.0,45.0,0.5054945054945055,141.9998700228504,16860.788454179317,0.0,0.0,0.0,0.0,50418.0,50443.0,50469.0,50546.0,50561.0,50579.0,50588.0,50618.0,50801.0,50889.0,0.08724295338034793,-0.11284237770396614,0.05689649769334963,-0.05206521995311814,0.008813242350321307
40,40,52496.73640409455,1238.9235265372797,7.812239821076327,52605.45203459914,-3021.9304406303836,15.28779240518434,52638.38224036734,38204.21810094867,8.780739145987788,52665.73322514702,-10619.627827871684,20.193503601733926,52911.73947937934,16136.833759714778,33.742448437410175,0.9370600776390148,98.0,85.0,95.0,268.0,363.0,13.0,2065.0,2067.0,13.0,3.0,10.0,0.2307692307692307,162.5088876364068,1270.4849875126745,82.0,72.0,10.0,0.8780487804878049,342.2931926527084,591.9945655147068,19.0,10.0,9.0,0.5263157894736842,2084.754900463652,29848.20479161005,32.0,10.0,22.0,0.3125,615.6357725560684,16590.02847343252,88.0,44.0,44.0,0.5,150.99469640421418,16250.941667162946,0.0,0.0,0.0,0.0,52494.0,52507.0,52592.0,52614.0,52629.0,52647.0,52657.0,52687.0,52868.0,52955.0,0.1311694258406811,-0.11326971264808632,0.054568710055916174,-0.0579715016886284,0.009357145190475275
41,41,53651.178051898714,1503.6010354079424,10.273725469559052,53762.30135639943,-3665.6535537285,6.52641234910367,53792.91163310028,37399.558480051666,8.346784381611684,53820.420884863575,-10664.059888434467,18.633993015026608,54066.536579029715,16483.397184494268,35.78254495941868,0.931687984857028,102.0,79.0,98.0,271.0,369.0,23.0,1157.0,1155.0,25.0,11.0,14.0,0.44,142.1806160417382,1369.2580931156117,79.0,73.0,6.0,0.9240506329113924,432.33581509009406,1133.951973701369,18.0,10.0,8.0,0.5555555555555556,2115.342292783098,29155.173965225975,31.0,10.0,21.0,0.3225806451612903,609.2693981817266,16416.203099997383,91.0,46.0,45.0,0.5054945054945055,148.74963253866687,16950.080709758855,0.0,0.0,0.0,0.0,53641.0,53664.0,53743.0,53768.0,53783.0,53801.0,53810.0,53841.0,54021.0,54112.0,0.0945600679259729,-0.11794235564087774,0.05656062207021476,-0.05713296854629444,0.009024209686495564
42,42,55734.036419419936,931.6291222234428,5.370463108849031,55841.027373699,-3543.8413345080908,17.8357578060484,55875.3369699675,39028.29314893079,8.888182561996969,55902.64850622315,-10590.846361412365,21.62002542103741,56148.13587772246,16070.17949336687,34.40767671470468,0.9315022973224384,45.0,32.0,150.0,269.0,419.0,13.0,2080.0,2082.0,13.0,5.0,8.0,0.3846153846153846,110.70255462632755,672.8829626768936,80.0,69.0,11.0,0.8625,319.3114340315458,1217.6312191017464,19.0,10.0,9.0,0.5263157894736842,2088.409927610018,29781.037333790973,32.0,10.0,22.0,0.3125,598.5630159346274,16545.537203988053,89.0,44.0,45.0,0.4943820224719101,116.06924845314067,16179.89953414609,0.0,0.0,0.0,0.0,55729.0,55742.0,55774.0,55851.0,55865.0,55884.0,55894.0,55924.0,56104.0,56193.0,0.11882685071299924,-0.09010319703714059,0.05351015274074909,-0.05651701436397806,0.007222647917594787
43,43,56917.12504538002,538.5621114485311,4.8167577282883105,57025.45203459914,-3146.1928467836324,15.28779240518434,57058.28478614047,38461.780642854355,8.77674140583253,57084.63973724825,-10820.309200909773,21.117227640529087,57333.494105711645,16392.336974426253,34.0088689292439,0.921968877488628,103.0,89.0,94.0,271.0,365.0,14.0,1183.0,1183.0,18.0,8.0,10.0,0.4444444444444444,106.6193487527113,441.18464025440414,82.0,72.0,10.0,0.8780487804878049,335.749057968873,550.179107380138,19.0,10.0,9.0,0.5263157894736842,2084.980167569702,29536.2927854663,32.0,10.0,22.0,0.3125,683.6186325709102,16904.404917874184,89.0,44.0,45.0,0.4943820224719101,120.90986372261298,16457.16380780893,0.0,0.0,0.0,0.0,56909.0,56923.0,57012.0,57034.0,57049.0,57067.0,57076.0,57106.0,57290.0,57377.0,0.19797038537661893,-0.1067159816068207,0.05420914301733093,-0.06317921418672874,0.00737599915809716
44,44,57750.84932180029,349.8050941603433,1.66438839071259,58113.027373699,-3455.2921105273954,17.8357578060484,58146.45203459914,37314.42405752386,8.966962950956251,58174.951718415155,-10365.56953334514,25.826959480576075,58421.28949554732,15684.771962267132,33.09688658462042,0.9148634732108558,289.0,284.0,161.0,267.0,428.0,5.0,832.0,1089.0,5.0,3.0,2.0,0.6,89.70068569938284,3374.43622417878,86.0,76.0,10.0,0.8837209302325582,313.66270954381355,1403.5926647453423,19.0,10.0,9.0,0.5263157894736842,1942.767233028388,26953.975239844753,34.0,11.0,23.0,0.3235294117647059,489.9851179957912,15322.46381432046,89.0,45.0,44.0,0.5056179775280899,148.1304886264441,16009.456957944927,0.0,0.0,0.0,0.0,57748.0,57753.0,58037.0,58123.0,58136.0,58155.0,58164.0,58198.0,58377.0,58465.0,0.2564304728457326,-0.09077747973555206,0.052064778757764586,-0.0472704482295499,0.009444223287581212
45,45,59007.90406919828,1656.4497481196076,14.211524701417105,59122.45203459914,-3381.7847240746864,7.409399653740252,59155.66843597132,37396.96737556586,8.435575601106704,59184.39704087932,-9615.942636961996,17.955689156001643,59428.41062477437,16760.135969088515,35.37499906150332,0.9415542780804934,110.0,86.0,93.0,268.0,361.0,24.0,1263.0,1009.0,24.0,7.0,17.0,0.2916666666666667,106.55213154351009,1859.9061866395991,21.0,12.0,9.0,0.5714285714285714,357.1883289991552,249.16701611049325,19.0,11.0,8.0,0.5789473684210527,2088.022245466996,30215.478384548653,31.0,10.0,21.0,0.3225806451612903,550.0426382731789,14741.056570245437,88.0,43.0,45.0,0.4886363636363636,154.74658908031307,17669.152366217233,0.0,0.0,0.0,0.0,59001.0,59025.0,59111.0,59131.0,59146.0,59164.0,59175.0,59204.0,59385.0,59472.0,0.0643256046037421,-0.1056212497668337,0.05583399917158127,-0.05720111475695701,0.009233015135779284
46,46,60162.753390998565,1595.6145329534183,13.18107473851672,60274.30135639943,-3162.8313589415657,5.661463921288013,60305.255863822225,36984.015429792096,8.417337075936926,60333.11695460214,-9880.508689887478,16.170179174661552,60578.65272440944,16781.284220866382,36.24131018810317,0.936418125319319,107.0,83.0,92.0,272.0,364.0,24.0,1154.0,1149.0,25.0,10.0,15.0,0.4,157.10576211723213,1416.9860932163333,77.0,71.0,6.0,0.922077922077922,423.8794510147461,1606.1737905498944,19.0,10.0,9.0,0.5263157894736842,2107.0201083462766,30725.17663697337,30.0,10.0,20.0,0.3333333333333333,573.7547085423747,14677.84353235185,92.0,46.0,46.0,0.5,135.48298162974055,17464.84826197465,0.0,0.0,0.0,0.0,60153.0,60177.0,60260.0,60280.0,60295.0,60314.0,60323.0,60352.0,60533.0,60624.0,0.09846097467314721,-0.1340189858104216,0.05697110180872864,-0.05806934911454532,0.00807345730199103
47,47,0.0,0.0,0.0,0.0,0.0,0.0,0.0,0.0,0.0,0.0,0.0,0.0,0.0,0.0,0.0,0.0,0.0,0.0,0.0,0.0,0.0,0.0,0.0,0.0,0.0,0.0,0.0,0.0,0.0,0.0,0.0,0.0,0.0,0.0,0.0,0.0,0.0,0.0,0.0,0.0,0.0,0.0,0.0,0.0,0.0,0.0,0.0,0.0,0.0,0.0,0.0,0.0,0.0,0.0,0.0,0.0,0.0,0.0,,61037.0,61360.0,61379.0,61393.0,61412.0,61422.0,61453.0,61631.0,61723.0,,,,,
48,48,62264.46272677512,671.3431608818702,2.559917881327734,62360.166668398495,-2668.2232510536232,6.1369672239181785,62393.56415935643,37044.216919912,8.401620010884962,62423.03669095633,-9346.308161635015,14.84506511161217,62666.254866365096,17117.535185494467,37.086909929073215,0.9512185436886208,91.0,85.0,89.0,270.0,359.0,6.0,2097.0,2089.0,6.0,2.0,4.0,0.3333333333333333,107.61295479986904,539.9490510633078,17.0,8.0,9.0,0.4705882352941176,345.01080170370403,322.79729784468554,19.0,11.0,8.0,0.5789473684210527,2098.5180275949174,31053.5356198031,29.0,10.0,19.0,0.3448275862068966,506.9403126404285,13187.053691256304,92.0,45.0,47.0,0.4891304347826087,104.2342632992232,17219.616695624023,0.0,0.0,0.0,0.0,62262.0,62268.0,62353.0,62369.0,62383.0,62402.0,62413.0,62442.0,62621.0,62712.0,0.1602950042099329,-0.12930357366740838,0.056649004948108976,-0.054239631721253435,0.006089326656535932
49,49,63123.85481723572,284.61009089309334,0.7374766823093785,63451.60271279886,-2460.4469007623024,20.38372320688921,63488.07672353058,37407.94503451611,8.759661750841705,63515.910192891686,-9866.704564115333,15.582608903066234,63764.26017299569,17253.29493596503,36.96062173536308,0.9409122751924874,263.0,260.0,150.0,272.0,422.0,3.0,860.0,1094.0,3.0,2.0,1.0,0.6666666666666666,91.13857735074453,3065.0727862480344,81.0,69.0,12.0,0.8518518518518519,233.13906272637465,303.77425004421525,19.0,10.0,9.0,0.5263157894736842,2111.819463758498,31429.569407113155,29.0,9.0,20.0,0.3103448275862069,612.5832980461873,14740.415557606102,93.0,49.0,44.0,0.5268817204301075,131.85849816067372,17653.84156620013,0.0,0.0,0.0,0.0,63122.0,63125.0,63385.0,63463.0,63478.0,63497.0,63507.0,63535.0,63715.0,63807.0,0.3202225791248507,-0.0947547629067479,0.05645376835883215,-0.06208590660291172,0.007642511105853212
50,50,64182.32280211068,244.21361473578693,0.8873345427638774,64478.45203459914,-3002.465981546843,15.287792404285351,64510.46495954656,35447.365766293384,8.609368472440048,64541.05474739799,-9373.97903008613,19.160037143169045,64784.92673831739,16552.328362528155,34.96129895238017,0.9402849635072488,282.0,279.0,98.0,268.0,366.0,3.0,1058.0,1023.0,3.0,1.0,2.0,0.3333333333333333,98.16400802963882,182.89660081463444,82.0,73.0,9.0,0.8902439024390244,357.34498217492643,181.1889171859426,19.0,10.0,9.0,0.5263157894736842,1959.727892359555,28503.306417237294,32.0,12.0,20.0,0.375,387.1444925097118,12382.824985547632,90.0,45.0,45.0,0.5,131.07659839635727,16579.233683853203,0.0,0.0,0.0,0.0,64181.0,64184.0,64463.0,64487.0,64500.0,64519.0,64530.0,64561.0,64740.0,64829.0,0.4019596046512059,-0.11901716268266445,0.055285572002166786,-0.04129991023738771,0.007918922070993583
51,51,65159.424660900135,300.37404681223506,0.8473930837507995,65508.45203459914,-2806.742893779697,15.28779240511151,65541.3564601414,36288.98991348968,8.498200543202291,65571.90406919828,-9990.198367893738,15.881074621743185,65814.71168064084,15884.11396829518,34.443196860045624,0.9309570378085772,279.0,276.0,152.0,270.0,422.0,3.0,977.0,1030.0,3.0,1.0,2.0,0.3333333333333333,77.89265193271208,360.4740360413043,82.0,72.0,10.0,0.8780487804878049,339.3334122571984,201.73840456124253,19.0,10.0,9.0,0.5263157894736842,2084.7737513647457,30891.105643348947,28.0,11.0,17.0,0.3928571428571428,475.3895940141174,12841.663099640937,89.0,44.0,45.0,0.4943820224719101,147.04942823987827,16363.61380354589,0.0,0.0,0.0,0.0,65158.0,65161.0,65437.0,65517.0,65532.0,65550.0,65561.0,65589.0,65771.0,65859.0,0.25931884848028525,-0.12089935740435258,0.05744920859838467,-0.04758560105692327,0.009257641221499047
52,52,0.0,0.0,0.0,0.0,0.0,0.0,0.0,0.0,0.0,0.0,0.0,0.0,0.0,0.0,0.0,0.0,0.0,0.0,0.0,0.0,0.0,0.0,0.0,0.0,0.0,0.0,0.0,0.0,0.0,0.0,0.0,0.0,0.0,0.0,0.0,0.0,0.0,0.0,0.0,0.0,0.0,0.0,0.0,0.0,0.0,0.0,0.0,0.0,0.0,0.0,0.0,0.0,0.0,0.0,0.0,0.0,0.0,0.0,,66196.0,66494.0,66578.0,66592.0,66610.0,66620.0,66649.0,66832.0,66919.0,,,,,
53,53,0.0,0.0,0.0,0.0,0.0,0.0,0.0,0.0,0.0,0.0,0.0,0.0,0.0,0.0,0.0,0.0,0.0,0.0,0.0,0.0,0.0,0.0,0.0,0.0,0.0,0.0,0.0,0.0,0.0,0.0,0.0,0.0,0.0,0.0,0.0,0.0,0.0,0.0,0.0,0.0,0.0,0.0,0.0,0.0,0.0,0.0,0.0,0.0,0.0,0.0,0.0,0.0,0.0,0.0,0.0,0.0,0.0,0.0,,67239.0,67584.0,67604.0,67618.0,67637.0,67647.0,67679.0,67860.0,67947.0,,,,,
54,54,68682.23424232549,1389.22814279738,12.363816113629335,68789.60271279886,-2618.869045967003,20.383723206912453,68824.90827536603,36421.254961855695,8.451543196816925,68855.90406919828,-9965.414400925729,16.558690059815515,69099.75677569023,16620.924873047592,36.3439245714245,0.9370248723966068,105.0,80.0,95.0,273.0,368.0,25.0,3524.0,3284.0,26.0,9.0,17.0,0.3461538461538461,135.25352060295364,1563.5826017932814,79.0,67.0,12.0,0.8481012658227848,293.79989438051985,557.088722318636,19.0,10.0,9.0,0.5263157894736842,2077.8710022592336,30000.29601327773,29.0,12.0,17.0,0.4137931034482758,462.29115431610745,12308.943562566425,93.0,47.0,46.0,0.5053763440860215,119.66352037601769,17100.797822190114,0.0,0.0,0.0,0.0,68673.0,68698.0,68778.0,68801.0,68815.0,68833.0,68844.0,68873.0,69053.0,69146.0,0.09735875371096658,-0.11218579059268535,0.05705105451295971,-0.04638955649181667,0.007199570498634733
55,55,69841.42466090013,331.09904561299066,2.5479654008640567,69948.027373699,-3962.2707001916706,17.8357578060484,69981.45203459915,37691.0919694294,8.825976959038549,70009.28226723066,-10425.805766458509,23.491519791509152,70257.73786802636,15672.509444035555,33.59026903414653,0.9181800928446467,37.0,32.0,155.0,270.0,425.0,5.0,1158.0,1157.0,5.0,1.0,4.0,0.2,119.57902686115334,520.1887156395511,83.0,72.0,11.0,0.8674698795180723,337.13831737300734,1624.2251275637648,19.0,10.0,9.0,0.5263157894736842,2027.8429391821633,27906.078637048267,34.0,11.0,23.0,0.3235294117647059,570.0941708729814,15540.782031242266,89.0,45.0,44.0,0.5056179775280899,133.29640180088052,15606.50572732638,0.0,0.0,0.0,0.0,69840.0,69845.0,69877.0,69958.0,69972.0,69990.0,69999.0,70032.0,70215.0,70302.0,0.36115787238156166,-0.08508714898169341,0.05380165002454458,-0.05468106577498939,0.008505109043121921
56,56,70835.75339099858,2033.1497189191527,15.90786489730817,70947.30135639943,-2955.8757849104577,5.284253222841183,70978.45203459915,35922.74326631109,8.50638529603306,71008.2295984241,-9043.709912584494,17.245571445627643,71251.23999903402,16866.043763767884,35.890979302334266,0.9387252066552804,105.0,83.0,93.0,268.0,361.0,22.0,999.0,997.0,29.0,11.0,18.0,0.3793103448275862,138.99187479554422,2189.623753894689,18.0,12.0,6.0,0.6666666666666666,412.47796671597473,1435.3355705432684,19.0,10.0,9.0,0.5263157894736842,1979.3509827219211,29449.414005149756,29.0,9.0,20.0,0.3103448275862069,452.623590471739,13038.890743031538,91.0,45.0,46.0,0.4945054945054945,109.03819787223595,17387.993071049383,0.0,0.0,0.0,0.0,70830.0,70852.0,70935.0,70953.0,70968.0,70987.0,71000.0,71028.0,71206.0,71296.0,0.06836283304774722,-0.13954509483167268,0.0551002179329157,-0.05004844193884467,0.00646495404609793
57,57,71893.03072213462,822.0381260172287,4.184929433889927,71999.60271279886,-4071.338362700323,20.383723206912453,72034.28343790171,39664.91172453722,8.912847923015798,72061.63008649785,-11528.777608648468,24.10374709516302,72309.28997723096,15229.889374858289,32.13463665468932,0.9127530830280708,42.0,27.0,155.0,269.0,424.0,15.0,1053.0,1055.0,15.0,7.0,8.0,0.4666666666666667,116.84416552785912,574.4475774329419,85.0,74.0,11.0,0.8705882352941177,304.4727114045043,1847.9015023662248,18.0,9.0,9.0,0.5,2096.1571017354468,28935.76756273614,32.0,10.0,22.0,0.3125,631.6769334727168,17778.122407592487,87.0,44.0,43.0,0.5057471264367817,109.87903736466264,15166.51695773855,0.0,0.0,0.0,0.0,71886.0,71901.0,71928.0,72011.0,72025.0,72043.0,72052.0,72083.0,72268.0,72352.0,0.1421395940526124,-0.07478442818556652,0.052846634735827167,-0.054791319159357865,0.007214697011920025
58,58,73985.75339099858,1933.1537273230304,15.08199644774811,74099.87898273529,-2759.599849474465,5.164980680155011,74131.66036778949,36601.26332114169,8.516083854161645,74161.62704434575,-8939.984044783188,15.729126760308384,74403.75410881656,17428.566118515268,37.49954699688964,0.9421595299464384,114.0,92.0,88.0,271.0,359.0,22.0,2097.0,2098.0,30.0,11.0,19.0,0.3666666666666666,143.81658790702312,1936.0923947780336,15.0,8.0,7.0,0.5333333333333333,431.94743899616657,1280.7309700059138,20.0,11.0,9.0,0.55,2021.9073945477744,30203.096661153104,30.0,11.0,19.0,0.3666666666666666,452.1736063865044,11987.225909117296,93.0,46.0,47.0,0.4946236559139785,130.8257754508022,17814.00583297122,0.0,0.0,0.0,0.0,73978.0,74000.0,74092.0,74107.0,74121.0,74140.0,74152.0,74180.0,74359.0,74451.0,0.07439480154854304,-0.15652538866402177,0.05524146466769295,-0.05057879344319014,0.007506399239110051
59,59,74895.42466090013,249.1131569349747,2.547965400863424,75255.60271279886,-3508.5188377660174,20.383723206912453,75289.45203459915,40381.975693053835,8.976365250417045,75319.054747398,-10874.116620159792,35.67151561209544,75566.76920436612,14708.151645797776,30.942654914573584,0.8969567314960305,289.0,284.0,156.0,269.0,425.0,5.0,905.0,1158.0,5.0,1.0,4.0,0.2,101.64049661361656,3496.3610492484013,84.0,73.0,11.0,0.8690476190476191,324.08271917500485,2392.775666471477,18.0,9.0,9.0,0.5,2087.454505635003,28194.879871090183,32.0,12.0,20.0,0.375,562.7781411592251,17267.465334022494,83.0,41.0,42.0,0.4939759036144578,128.13901648801917,15193.691632005632,0.0,0.0,0.0,0.0,74894.0,74899.0,75183.0,75267.0,75281.0,75298.0,75307.0,75339.0,75526.0,75608.0,0.4080093474956342,-0.09237023774435778,0.051692728496047044,-0.05175391811743833,0.008712108739008644
60,60,75994.42466090013,245.67375569919844,0.9538638529489156,76348.60271279886,-3699.913780030883,20.383723206912453,76383.7236400307,37698.1167950218,8.901044406372657,76412.0724712092,-10520.349539216892,23.24530206880583,76660.68483389584,15621.465408128774,33.03017003251928,0.9158251181389878,287.0,283.0,154.0,268.0,422.0,4.0,1099.0,1094.0,4.0,1.0,3.0,0.25,100.01498067179428,228.94423559403964,83.0,71.0,12.0,0.8554216867469879,283.4578003032924,1543.2085548953355,18.0,10.0,8.0,0.5555555555555556,2020.637657623093,27438.012404453413,33.0,11.0,22.0,0.3333333333333333,498.4244513889316,15549.718324818105,88.0,47.0,41.0,0.5340909090909091,118.93687718816406,15286.043216222492,0.0,0.0,0.0,0.0,75993.0,75997.0,76280.0,76360.0,76374.0,76392.0,76401.0,76434.0,76615.0,76702.0,0.4071048630617755,-0.07661200156424358,0.05360049332464074,-0.047377175970336916,0.007613682460691182
61,61,0.0,0.0,0.0,0.0,0.0,0.0,0.0,0.0,0.0,0.0,0.0,0.0,0.0,0.0,0.0,0.0,0.0,0.0,0.0,0.0,0.0,0.0,0.0,0.0,0.0,0.0,0.0,0.0,0.0,0.0,0.0,0.0,0.0,0.0,0.0,0.0,0.0,0.0,0.0,0.0,0.0,0.0,0.0,0.0,0.0,0.0,0.0,0.0,0.0,0.0,0.0,0.0,0.0,0.0,0.0,0.0,0.0,0.0,,76937.0,77300.0,77315.0,77330.0,77349.0,77360.0,77390.0,77569.0,77657.0,,,,,
62,62,0.0,0.0,0.0,0.0,0.0,0.0,0.0,0.0,0.0,0.0,0.0,0.0,0.0,0.0,0.0,0.0,0.0,0.0,0.0,0.0,0.0,0.0,0.0,0.0,0.0,0.0,0.0,0.0,0.0,0.0,0.0,0.0,0.0,0.0,0.0,0.0,0.0,0.0,0.0,0.0,0.0,0.0,0.0,0.0,0.0,0.0,0.0,0.0,0.0,0.0,0.0,0.0,0.0,0.0,0.0,0.0,0.0,0.0,,77974.0,78304.0,78323.0,78339.0,78357.0,78367.0,78396.0,78576.0,78667.0,,,,,
63,63,0.0,0.0,0.0,0.0,0.0,0.0,0.0,0.0,0.0,0.0,0.0,0.0,0.0,0.0,0.0,0.0,0.0,0.0,0.0,0.0,0.0,0.0,0.0,0.0,0.0,0.0,0.0,0.0,0.0,0.0,0.0,0.0,0.0,0.0,0.0,0.0,0.0,0.0,0.0,0.0,0.0,0.0,0.0,0.0,0.0,0.0,0.0,0.0,0.0,0.0,0.0,0.0,0.0,0.0,0.0,0.0,0.0,0.0,,78928.0,79241.0,79324.0,79339.0,79356.0,79365.0,79397.0,79581.0,79666.0,,,,,
64,64,79949.42466090013,156.96627175049332,2.547960110873197,80291.45203459915,-2905.716079028454,6.435573166050803,80324.45203459915,35832.18390526151,8.616991364958698,80353.4808399749,-8641.169057571899,17.909535563544065,80596.94263085199,16667.20690942671,36.99584695434402,0.9353253000626184,335.0,329.0,91.0,269.0,360.0,6.0,3955.0,3941.0,6.0,1.0,5.0,0.1666666666666666,74.74221727003041,3271.7805716316116,19.0,10.0,9.0,0.5263157894736842,363.4175921649657,365.01925779733256,20.0,11.0,9.0,0.55,1923.0931180677512,28731.761812096913,30.0,8.0,22.0,0.2666666666666666,451.5908298225653,12846.022771608245,93.0,46.0,47.0,0.4946236559139785,125.55592825334269,16862.143267132873,0.0,0.0,0.0,0.0,79948.0,79954.0,80283.0,80300.0,80314.0,80333.0,80345.0,80374.0,80552.0,80643.0,0.4761673730063319,-0.1250698906159052,0.05366943648068766,-0.05226038592855153,0.007533111512663242
65,65,81194.64018115708,422.94778488271294,0.8355008543474409,81294.87669549929,-3260.5442792157905,5.951758208317641,81326.92725759574,37209.907746188605,8.391227142933046,81355.94942701749,-9847.240751333806,16.326832645479517,81600.41085119541,16315.991148701432,36.49833218696715,0.9545485249759617,91.0,88.0,90.0,272.0,362.0,3.0,1246.0,1002.0,3.0,2.0,1.0,0.6666666666666666,154.87586537886,83.45175744674668,20.0,13.0,7.0,0.65,424.6814430467672,1002.7569764507348,18.0,10.0,8.0,0.5555555555555556,2117.435928273618,31223.76284915911,27.0,9.0,18.0,0.3333333333333333,559.500875512438,14220.156827118908,92.0,46.0,46.0,0.5,109.54088870307484,16832.338880674106,0.0,0.0,0.0,0.0,81193.0,81196.0,81284.0,81302.0,81317.0,81335.0,81347.0,81374.0,81554.0,81646.0,0.36618199908957655,-0.13024863540540826,0.05690516468669574,-0.05681803559404738,0.006713713418004217
66,66,82467.84244851022,811.2159381457965,3.465028926511108,82569.027373699,-903.6923639059012,17.8357578060484,82602.45203459915,39701.44581297038,8.899291263476417,82628.63008649785,-9482.07338561774,38.21948101296075,82880.86910390828,15186.762410423196,33.37712378708371,0.9230486722896396,35.0,25.0,153.0,271.0,424.0,10.0,1272.0,1276.0,10.0,4.0,6.0,0.4,157.83434376430574,11.726035591646903,81.0,71.0,10.0,0.8765432098765432,342.81934977418916,1496.83728337052,18.0,9.0,9.0,0.5,2058.347422651452,28063.151737177584,33.0,9.0,24.0,0.2727272727272727,644.4790771373824,17600.6616250228,87.0,45.0,42.0,0.5172413793103449,114.0069304325316,15157.01990449803,0.0,0.0,0.0,0.0,82464.0,82474.0,82499.0,82579.0,82593.0,82611.0,82620.0,82652.0,82837.0,82923.0,0.1945651414653774,-0.37935404067427303,0.05184565399326072,-0.06796815959206962,0.007506993745703477
67,67,83514.2943528724,1813.6485512271165,9.679070153653624,83619.87669549929,-3137.5028413394566,5.769417140264793,83652.45203459915,35323.24504819376,8.50173541733444,83683.054747398,-8791.051712125882,18.605236924863792,83926.21117065914,16710.26396252554,36.12468048133229,0.9356517710269724,105.0,82.0,95.0,269.0,364.0,23.0,1050.0,1050.0,24.0,11.0,13.0,0.4583333333333333,122.3008232966142,1304.9631161670886,19.0,12.0,7.0,0.631578947368421,416.92881413227985,733.0154619842181,20.0,11.0,9.0,0.55,1902.1845773952425,28462.643208026868,30.0,10.0,20.0,0.3333333333333333,364.14188996383933,11441.26340600023,93.0,46.0,47.0,0.4946236559139785,105.3462002940111,17060.583632546935,0.0,0.0,0.0,0.0,83503.0,83526.0,83608.0,83627.0,83641.0,83661.0,83673.0,83703.0,83881.0,83972.0,0.06743358475591389,-0.1328855574691003,0.05385078791033979,-0.04142188009900596,0.006304281041296572
68,68,84563.12849316499,927.0277534915972,6.341765200269493,84670.027373699,-3769.325333845028,17.8357578060484,84703.13962964472,39500.390633201365,8.903526449908508,84730.04040335913,-11140.604956862431,23.07095994220671,84977.52190567498,15843.712585367686,33.50481078830359,0.924974798163498,46.0,27.0,153.0,269.0,422.0,19.0,1046.0,1050.0,19.0,10.0,9.0,0.5263157894736842,111.05083118394438,744.9743708172695,82.0,72.0,10.0,0.8780487804878049,337.6312615768132,1407.8691286155693,19.0,10.0,9.0,0.5263157894736842,2103.2789390428793,29723.239498142844,33.0,10.0,23.0,0.303030303030303,671.2273168540097,17498.888834476176,89.0,46.0,43.0,0.5168539325842697,138.96329391422296,16021.622802367689,0.0,0.0,0.0,0.0,84553.0,84572.0,84599.0,84680.0,84694.0,84712.0,84721.0,84752.0,84933.0,85021.0,0.11979234792666968,-0.08957339355804583,0.053247041493179686,-0.060250526740071204,0.008770879499705215
69,69,85627.90406919828,2425.467487899647,18.010491610177287,85736.45203459916,-2600.9805224473107,6.40773054616916,85770.45203459915,36484.07206133504,8.272981173436198,85800.90406919828,-9741.55605105303,15.508568462512338,86044.50654193129,16821.21063274564,37.42586054965381,0.9497884229412916,117.0,83.0,90.0,273.0,363.0,34.0,1070.0,1068.0,48.0,31.0,17.0,0.6458333333333334,97.2264246738764,2489.15318911395,21.0,11.0,10.0,0.5238095238095238,310.22890688124824,315.35540064611257,19.0,10.0,9.0,0.5263157894736842,2077.362517487456,30848.36731000879,30.0,12.0,18.0,0.4,459.9542256998889,12168.225336744288,95.0,47.0,48.0,0.4947368421052631,127.49910386311822,17131.426571528093,0.0,0.0,0.0,0.0,85611.0,85645.0,85728.0,85745.0,85760.0,85779.0,85790.0,85818.0,85999.0,86091.0,0.04008564334872631,-0.11927382931316538,0.05693888867435375,-0.047215683335330126,0.00757966276309015
70,70,86596.3646522209,1453.3340075925173,7.427542408040845,86707.87669549929,-3495.545482365227,6.459380538477081,86739.45203459915,34652.96939282259,8.208678844016063,86771.47940829814,-9039.526595379908,18.05261712911938,87012.53199560317,16069.846478288104,35.135961243616734,0.9172410630828164,105.0,90.0,95.0,267.0,362.0,15.0,963.0,969.0,15.0,6.0,9.0,0.4,140.167087077599,1354.5925875772182,20.0,13.0,7.0,0.65,406.7918285502186,477.8117437201621,19.0,10.0,9.0,0.5263157894736842,1936.6026424641611,28218.31669852776,30.0,11.0,19.0,0.3666666666666666,346.85000444509967,11085.872780114914,91.0,47.0,44.0,0.5164835164835165,123.52649038236522,16606.633566661658,0.0,0.0,0.0,0.0,86590.0,86605.0,86695.0,86715.0,86729.0,86748.0,86760.0,86790.0,86970.0,87057.0,0.09644519865725096,-0.11637434861095466,0.05588561893530761,-0.03837037269433715,0.00768684943874612
71,71,0.0,0.0,0.0,0.0,0.0,0.0,0.0,0.0,0.0,0.0,0.0,0.0,0.0,0.0,0.0,0.0,0.0,0.0,0.0,0.0,0.0,0.0,0.0,0.0,0.0,0.0,0.0,0.0,0.0,0.0,0.0,0.0,0.0,0.0,0.0,0.0,0.0,0.0,0.0,0.0,0.0,0.0,0.0,0.0,0.0,0.0,0.0,0.0,0.0,0.0,0.0,0.0,0.0,0.0,0.0,0.0,0.0,0.0,,87355.0,87642.0,87729.0,87742.0,87760.0,87769.0,87801.0,87984.0,88068.0,,,,,
72,72,88777.96330192326,309.0366235782201,0.7434992999817382,88878.87669549929,-2925.2492276039284,5.632734148922534,88910.6709856365,35841.71604000981,8.141151051929528,88942.32873009844,-9885.433605327056,15.200383288153851,89184.959361766,15185.168615486184,35.11595754089018,0.9308617764039484,95.0,87.0,92.0,273.0,365.0,8.0,2182.0,2171.0,3.0,2.0,1.0,0.6666666666666666,136.16978210420024,329.00084131425047,20.0,13.0,7.0,0.65,393.1257173374878,1164.5004500196692,18.0,10.0,8.0,0.5555555555555556,2082.4250840037544,30213.37206362516,29.0,13.0,16.0,0.4482758620689655,456.2082242731511,11857.51917569968,93.0,46.0,47.0,0.4946236559139785,126.57430197073614,15365.857238161889,0.0,0.0,0.0,0.0,88771.0,88779.0,88866.0,88886.0,88901.0,88919.0,88930.0,88958.0,89139.0,89231.0,0.4406266821308782,-0.13439050376555337,0.05810059656962743,-0.04614954108106192,0.00833538995685914
73,73,89885.027373699,1891.398049875694,8.129343453911705,89988.87669549929,-2968.6029591574024,6.678572559796228,90020.45203459915,34553.35209027573,8.478444492916115,90051.08167188635,-8635.012383971187,18.120119152969604,90294.85851345696,16096.029505888731,36.73879174066515,0.9317133929497842,46.0,26.0,150.0,271.0,421.0,20.0,1110.0,1110.0,22.0,11.0,11.0,0.5,129.08553225857258,1412.2057343866277,75.0,68.0,7.0,0.9066666666666666,381.6993422547315,1299.425051785595,19.0,10.0,9.0,0.5263157894736842,1898.4533012073448,28149.430030211806,29.0,9.0,20.0,0.3103448275862069,385.81523802749376,11880.856324374863,94.0,47.0,47.0,0.5,125.2368865428068,16633.310706357115,0.0,0.0,0.0,0.0,89875.0,89895.0,89921.0,89996.0,90010.0,90029.0,90042.0,90071.0,90248.0,90342.0,0.0682487392154477,-0.12857877847129537,0.054942666524722565,-0.04468033407151407,0.0077806074160704595
74,74,90882.94883608798,803.4081180924867,4.15702784977073,90991.027373699,-3552.1570225773708,17.8357578060484,91024.54299224829,39096.663482256394,8.864324086287917,91052.63008649784,-10997.83900629263,22.767288712764596,91298.92468367152,15771.804912166088,33.603178115150726,0.9237268235878788,42.0,28.0,156.0,268.0,424.0,14.0,995.0,1004.0,14.0,7.0,7.0,0.5,124.88177781396904,476.5769461913403,84.0,74.0,10.0,0.8809523809523809,329.00670827706745,1131.2332851890933,18.0,10.0,8.0,0.5555555555555556,2103.579499156772,29149.707390318155,32.0,11.0,21.0,0.34375,573.1206480131909,16519.552471928488,89.0,45.0,44.0,0.5056179775280899,125.61343017030086,16197.83912952843,0.0,0.0,0.0,0.0,90876.0,90890.0,90918.0,91001.0,91015.0,91033.0,91042.0,91074.0,91255.0,91342.0,0.15544002481636973,-0.09262166795721971,0.053804578493289054,-0.05211211472410795,0.007964429617906629
75,75,92061.84932180028,678.7939729529709,4.7214562165644445,92168.60271279886,-3836.009798614926,20.383723206912453,92203.0701835694,37724.08890831067,8.682517162541242,92232.054747398,-11186.955446828912,21.39662589138199,92480.19704624431,15477.072239269644,33.787074862839454,0.9253658312255094,41.0,36.0,153.0,272.0,425.0,5.0,1178.0,1178.0,17.0,5.0,12.0,0.2941176470588235,128.77160109352283,540.9309082959726,83.0,72.0,11.0,0.8674698795180723,316.5693754739493,1625.847546836845,19.0,10.0,9.0,0.5263157894736842,2065.668830769597,27776.311053609526,32.0,12.0,20.0,0.375,508.6978682541814,15550.664675491464,89.0,44.0,45.0,0.4943820224719101,113.07920955496124,15473.179383457373,0.0,0.0,0.0,0.0,92058.0,92063.0,92099.0,92180.0,92194.0,92212.0,92220.0,92252.0,92436.0,92524.0,0.18970645913858838,-0.08252569521283641,0.05475728879205689,-0.04547241389062459,0.007306240340989543
76,76,93148.17805189872,2769.785378966054,22.93168860777651,93253.7260172996,-1864.3191430254951,3.329691479835851,93284.45203459916,35202.73142335355,8.661708156111459,93315.90406919828,-7805.100454616458,14.925025878738444,93556.95659456382,17530.689877993347,40.35812603092846,0.9354465812173712,137.0,87.0,85.0,273.0,358.0,50.0,1091.0,1082.0,63.0,38.0,25.0,0.6031746031746031,122.22188962314134,2615.7937013550036,10.0,6.0,4.0,0.6,442.04200501808623,3036.2311327630227,20.0,11.0,9.0,0.55,1912.4150830106596,30396.22460097735,26.0,9.0,17.0,0.3461538461538461,373.74500050440486,9776.038863870672,98.0,48.0,50.0,0.4897959183673469,111.6131525091154,18221.72041982791,0.0,0.0,0.0,0.0,93111.0,93161.0,93248.0,93258.0,93273.0,93293.0,93307.0,93333.0,93510.0,93606.0,0.04412684482751011,-0.23710640244819992,0.054325758419471966,-0.04788471367890558,0.006366729049792033
77,77,94238.82179779014,301.56584751955353,3.143512651574534,94344.027373699,-3950.728758218881,17.8357578060484,94377.51385724402,37469.14088299406,8.570726911396816,94407.47940829814,-11400.096477570112,20.547754666541913,94652.09802047152,15829.249502469796,33.63528022859328,0.910871968421316,37.0,32.0,154.0,269.0,423.0,5.0,1086.0,1092.0,5.0,4.0,1.0,0.8,173.69270456775448,8.972440992046586,83.0,73.0,10.0,0.8795180722891566,367.6626318355585,1149.8462003766551,18.0,10.0,8.0,0.5555555555555556,2090.5878744103957,28311.47557283572,31.0,12.0,19.0,0.3870967741935484,544.9311148297222,15770.318839951738,89.0,45.0,44.0,0.5056179775280899,120.56146650192764,15845.453681816469,0.0,0.0,0.0,0.0,94235.0,94240.0,94272.0,94354.0,94368.0,94386.0,94395.0,94426.0,94608.0,94695.0,0.5759694142967972,-0.09306197776060762,0.05579492417343469,-0.04780057045147676,0.007616372872454676
78,78,95161.29612184102,318.0548131529965,0.9809751070998752,95516.027373699,-3318.1470184111067,17.8357578060484,95549.5649983385,36759.65190819757,8.700267758045175,95580.054747398,-10056.355395094975,22.445860878643572,95825.444284376,16165.878380253993,34.606226297859195,0.9236449583652157,285.0,281.0,156.0,270.0,426.0,4.0,923.0,1173.0,4.0,2.0,2.0,0.5,109.36580138507334,3402.0906765217055,85.0,74.0,11.0,0.8705882352941177,324.52602614187293,810.0358124626773,18.0,10.0,8.0,0.5555555555555556,2007.1902615823933,27550.997955041377,34.0,13.0,21.0,0.3823529411764705,424.842464102244,13273.452465240694,89.0,44.0,45.0,0.4943820224719101,134.83024484689105,16402.406909158228,0.0,0.0,0.0,0.0,95159.0,95163.0,95444.0,95526.0,95540.0,95558.0,95568.0,95600.0,95781.0,95870.0,0.34385834410392724,-0.09780338976579528,0.05460308129671872,-0.04224616646995814,0.008340421824005621
79,79,96428.25097528212,1645.0491748823415,13.407018893553271,96540.45203459916,-2674.254509713679,15.28779240518434,96573.45203459916,35863.40877993171,8.525212607395105,96604.47940829814,-9652.169957755452,17.997975257882672,96847.02973827024,16624.897364732133,35.49885684453895,0.9394539183321766,107.0,83.0,95.0,269.0,364.0,24.0,1269.0,1024.0,27.0,10.0,17.0,0.3703703703703703,103.2801013444976,1981.7365542528112,22.0,13.0,9.0,0.5909090909090909,341.5353187516617,161.12434479701653,19.0,10.0,9.0,0.5263157894736842,2001.2542138523245,29384.356781736064,32.0,13.0,19.0,0.40625,417.0218085834896,12715.71147543567,92.0,46.0,46.0,0.5,108.01820116132058,16915.320059520152,0.0,0.0,0.0,0.0,96421.0,96445.0,96528.0,96549.0,96563.0,96582.0,96592.0,96623.0,96802.0,96892.0,0.06278237934855928,-0.12771234656653097,0.05580211926123926,-0.04320497985516878,0.006497375520072031
80,80,97293.57533909989,314.13405595568213,1.4185955198572746,97651.87669549928,-3505.023671560089,12.739827004320285,97683.30939851118,38899.78400507564,8.795124065095585,97709.80799593948,-11254.013763701429,22.498248480489515,97958.96460215602,15314.44316808544,32.19645002315209,0.9161649081686544,288.0,284.0,153.0,270.0,423.0,4.0,864.0,1109.0,4.0,3.0,1.0,0.75,73.26591603325605,29.283858028786423,82.0,74.0,8.0,0.902439024390244,417.5226982708788,76.94422869457071,19.0,10.0,9.0,0.5263157894736842,2102.4141964126143,29251.57708570776,33.0,10.0,23.0,0.303030303030303,645.6991413263825,17504.78333646053,87.0,44.0,43.0,0.5057471264367817,98.9698079398079,15130.307490194646,0.0,0.0,0.0,0.0,97291.0,97295.0,97579.0,97659.0,97674.0,97692.0,97700.0,97732.0,97915.0,98002.0,0.23323136936032293,-0.1191212206806692,0.05404693753924935,-0.05737500903091245,0.0064625142980096195
81,81,98297.36113487808,221.71744621895,0.9010512819288126,98653.027373699,-3450.4703565993545,17.8357578060484,98687.09048290493,37298.0402871972,8.714843676054564,98715.84655159916,-9897.543076410177,21.052695326820896,98965.10949479598,16235.685795541352,33.203336365901066,0.9152844417021506,285.0,282.0,156.0,268.0,424.0,3.0,1003.0,1004.0,3.0,1.0,2.0,0.3333333333333333,95.065095242712,3213.32745266555,84.0,73.0,11.0,0.8690476190476191,298.1754694466718,1192.3238999974458,19.0,10.0,9.0,0.5263157894736842,2019.3404524081172,29020.90294978609,32.0,11.0,21.0,0.34375,474.950521973881,14463.25304153818,88.0,48.0,40.0,0.5454545454545454,129.92415951239357,16017.525844676384,0.0,0.0,0.0,0.0,98296.0,98299.0,98581.0,98663.0,98677.0,98696.0,98705.0,98737.0,98917.0,99005.0,0.42876686911156964,-0.08641589077164008,0.05414065824528774,-0.04798670925776307,0.008002381984262924
82,82,99549.84932180028,431.3550206316374,2.381478787620383,99649.87669549928,-3171.7094890411104,5.956613902267424,99681.87486050092,36425.84602015725,8.362281896265172,99711.77053505562,-9576.11623338058,17.11360824117435,99956.03771922276,16626.105609342936,36.156808737994965,0.9504412334546424,95.0,90.0,89.0,270.0,359.0,5.0,1252.0,995.0,5.0,3.0,2.0,0.6,116.74943503389514,89.78193268303431,19.0,12.0,7.0,0.631578947368421,398.9823016720146,674.5593028163917,20.0,11.0,9.0,0.55,2061.2351468590264,29821.873810212674,29.0,10.0,19.0,0.3448275862068966,448.6982623414459,13320.67500614364,92.0,45.0,47.0,0.4891304347826087,94.40145767599408,17050.873910108523,0.0,0.0,0.0,0.0,99547.0,99552.0,99642.0,99657.0,99672.0,99690.0,99702.0,99731.0,99912.0,100001.0,0.2706574154693686,-0.1257940877153403,0.05658715917588804,-0.04685597494915175,0.005677905571762143
83,83,100837.60271279886,1874.6846570392624,11.191904930513406,100942.027373699,-2849.4748592091614,7.789864072633773,100976.44319784592,37450.58237484924,8.445909063882668,101003.30614416458,-10005.955299139636,18.809826972479794,101253.4108511954,16608.848924658916,36.51236364131066,0.9352046348761832,102.0,84.0,91.0,275.0,366.0,18.0,1292.0,1294.0,28.0,16.0,12.0,0.5714285714285714,155.36158311313267,1470.561340011741,23.0,13.0,10.0,0.5652173913043478,302.2213018656053,161.05316934078667,19.0,10.0,9.0,0.5263157894736842,2062.2430899581946,29473.570781417788,31.0,9.0,22.0,0.2903225806451613,642.2719996878739,15966.888836199025,95.0,48.0,47.0,0.5052631578947369,125.76873762565296,17115.56409484635,0.0,0.0,0.0,0.0,100831.0,100849.0,100933.0,100952.0,100966.0,100985.0,100994.0,101024.0,101206.0,101299.0,0.08287344889166544,-0.10606210505380044,0.05506571484835278,-0.06418897351491264,0.007572393378744384
84,84,101996.17805189872,1760.37128214923,13.933808032812728,102102.49764439905,-2372.4377775675293,5.606897929905096,102135.45203459916,34545.823499606995,8.672517916769008,102163.90406919828,-8380.30408318771,17.043770118345876,102410.98619029528,17601.828329407188,38.67695653038165,0.9212383079887074,107.0,87.0,89.0,273.0,362.0,20.0,1159.0,1160.0,45.0,31.0,14.0,0.6888888888888889,156.55656068645786,1266.545035402232,18.0,9.0,9.0,0.5,340.54384076105487,716.7386968796509,20.0,11.0,9.0,0.55,1870.9161075874304,27847.17881893261,29.0,8.0,21.0,0.2758620689655172,447.708761861731,11978.996830403554,99.0,51.0,48.0,0.5151515151515151,147.19430103531886,18126.01506839082,0.0,0.0,0.0,0.0,101989.0,102009.0,102096.0,102110.0,102124.0,102144.0,102157.0,102185.0,102361.0,102458.0,0.08893383019479766,-0.14354173752460472,0.05415751943527166,-0.05342392798847354,0.00836244384848379
85,85,103152.02742007766,671.0403898274893,4.008531462742604,103258.87669549928,-2885.0065253769544,12.739827004320285,103290.22331059143,39792.0076351151,8.987004274601476,103314.90406919828,-10849.951280275684,26.276895444697093,103566.15172530209,16483.359359736864,33.57438756720003,0.9194402466842644,38.0,30.0,153.0,270.0,423.0,8.0,1152.0,1154.0,8.0,4.0,4.0,0.5,140.56180638472307,312.77820043962856,81.0,73.0,8.0,0.9012345679012346,396.4344033045077,481.32298531145693,19.0,10.0,9.0,0.5263157894736842,2090.898554349616,29283.37892188019,34.0,8.0,26.0,0.2352941176470588,798.6864621700089,19112.428471822823,90.0,45.0,45.0,0.5,114.56436016802078,16583.43334552887,0.0,0.0,0.0,0.0,103148.0,103156.0,103186.0,103266.0,103281.0,103299.0,103308.0,103339.0,103522.0,103609.0,0.20946847390342424,-0.13741196070698997,0.052545691424336904,-0.07361198603923273,0.006950304101714959
86,86,0.0,0.0,0.0,0.0,0.0,0.0,0.0,0.0,0.0,0.0,0.0,0.0,0.0,0.0,0.0,0.0,0.0,0.0,0.0,0.0,0.0,0.0,0.0,0.0,0.0,0.0,0.0,0.0,0.0,0.0,0.0,0.0,0.0,0.0,0.0,0.0,0.0,0.0,0.0,0.0,0.0,0.0,0.0,0.0,0.0,0.0,0.0,0.0,0.0,0.0,0.0,0.0,0.0,0.0,0.0,0.0,0.0,0.0,,104026.0,104377.0,104402.0,104417.0,104435.0,104444.0,104475.0,104659.0,104746.0,,,,,
87,87,106313.71908037912,1081.228656789401,4.068559441252877,106425.45203459916,-1812.5498257415425,15.28779240518434,106457.76814457624,40927.57076828822,9.116444381949302,106483.47940829814,-10528.753278448208,33.12355020135699,106732.83811403289,15635.646751494016,32.1034556513473,0.922373711997676,45.0,32.0,156.0,268.0,424.0,13.0,3163.0,3168.0,13.0,8.0,5.0,0.6153846153846154,132.79341025622224,922.0417793211834,87.0,77.0,10.0,0.8850574712643678,350.0308960316743,1049.2304662382037,19.0,10.0,9.0,0.5263157894736842,2093.5021120881956,29057.994105961166,35.0,8.0,27.0,0.2285714285714285,813.1785488090987,20107.154003331423,85.0,43.0,42.0,0.5058823529411764,126.87265645394648,16109.885217415169,0.0,0.0,0.0,0.0,106306.0,106319.0,106351.0,106434.0,106449.0,106467.0,106476.0,106507.0,106690.0,106775.0,0.12281713902269187,-0.19311518561343335,0.051151389461655934,-0.07723407770164313,0.00811432097887627
88,88,107603.41836016202,730.1118371972605,3.237771434070936,107706.87669549928,-2358.58993701455,4.668806993879805,107737.8650164981,39041.7490642392,8.591473369389934,107768.054747398,-9177.602611629463,35.67151561202844,108016.77128542653,15854.688325836338,34.46738229977739,0.9154473409879168,36.0,27.0,153.0,273.0,426.0,9.0,1289.0,1280.0,9.0,4.0,5.0,0.4444444444444444,131.25377617149908,378.4630577580598,79.0,72.0,7.0,0.9113924050632912,426.674519565912,280.80099621213935,19.0,10.0,9.0,0.5263157894736842,2058.343549232407,28282.263294361554,33.0,13.0,20.0,0.3939393939393939,477.51462758947224,14887.240819809887,92.0,47.0,45.0,0.5108695652173914,110.83319015871342,16051.042991366645,0.0,0.0,0.0,0.0,107599.0,107608.0,107635.0,107714.0,107729.0,107747.0,107755.0,107788.0,107971.0,108061.0,0.17977215199708801,-0.18090237428299513,0.05272160183821717,-0.052030431889084655,0.006990562531469186
89,89,108676.027373699,1758.545592161074,11.331666720544012,108778.87669549928,-3382.1590240722003,6.582133122596173,108810.71486278226,34576.04897749194,8.313695026544469,108842.47940844536,-8839.665059823,16.88752455033775,109084.33279745336,17427.258710492984,37.32885125662239,0.9345068381008848,110.0,85.0,90.0,271.0,361.0,25.0,1075.0,1073.0,29.0,19.0,10.0,0.6551724137931034,128.16464062296598,1210.381917599159,21.0,13.0,8.0,0.6190476190476191,418.16378348346376,476.29439417313097,20.0,11.0,9.0,0.55,1938.1434405499904,28720.34686133884,29.0,10.0,19.0,0.3448275862068966,392.3926052245397,11465.497520135928,94.0,46.0,48.0,0.4893617021276595,94.55251195431774,17746.21404210634,0.0,0.0,0.0,0.0,108661.0,108686.0,108771.0,108786.0,108801.0,108819.0,108833.0,108861.0,109038.0,109132.0,0.07288104510583922,-0.12363812006094987,0.05605450876737445,-0.044389985657714126,0.005425552780563675
90,90,109836.28060999096,990.175823957938,5.144953077769623,109944.45203459916,-3331.0730675302684,15.28779240518434,109976.59728975048,39310.24802051813,8.880040026696717,110003.11234791816,-11184.806248944038,23.206236548427935,110252.58526193487,15885.78628206082,33.067270385115954,0.9257816030698318,43.0,28.0,153.0,271.0,424.0,15.0,1159.0,1165.0,17.0,8.0,9.0,0.4705882352941176,134.7179456418642,854.4862762399528,82.0,73.0,9.0,0.8902439024390244,357.6597734176966,876.1562102795042,18.0,10.0,8.0,0.5555555555555556,2108.047784114915,29221.974020600355,32.0,9.0,23.0,0.28125,703.6561714594462,17848.151642165038,88.0,45.0,43.0,0.5113636363636364,104.50964594902736,16049.050867137988,0.0,0.0,0.0,0.0,109829.0,109844.0,109872.0,109953.0,109967.0,109985.0,109994.0,110025.0,110209.0,110296.0,0.13605456968578433,-0.10737073794747874,0.05362590902541779,-0.06291178906437281,0.006578814802956647
91,91,111047.94587425754,888.4380598399789,5.089417951562695,111149.60271279886,-3133.47060119666,20.383723206912453,111184.86387723128,36836.83970539345,8.8491822599931,111213.47760555512,-10122.050850338468,21.251423529778908,111463.2601729957,16530.28190427422,34.39835466165295,0.917304800462679,39.0,29.0,154.0,271.0,425.0,10.0,1210.0,1209.0,10.0,6.0,4.0,0.6,167.04508853178862,654.7690755165917,81.0,70.0,11.0,0.8641975308641975,281.58065679212626,1104.272400797497,19.0,10.0,9.0,0.5263157894736842,1989.2603870307792,27762.591726029463,33.0,11.0,22.0,0.3333333333333333,537.4554208335419,15082.89471749742,89.0,46.0,43.0,0.5168539325842697,96.5302436906557,16388.09190040484,0.0,0.0,0.0,0.0,111042.0,111052.0,111081.0,111161.0,111175.0,111193.0,111203.0,111235.0,111417.0,111506.0,0.18802108563637623,-0.08986223029652543,0.05400192858399637,-0.05309748279080915,0.005839600573641516
92,92,112102.32873009844,2190.1094824659726,17.745382827708113,112216.1968878667,-2490.257659234913,5.2594531543225544,112248.84910921328,36386.41576837328,8.464343943547574,112279.90406919828,-8859.5491582389,15.349443872494565,112523.44516067904,17452.31962982234,37.27356801771426,0.9483299382048324,113.0,86.0,88.0,273.0,361.0,27.0,1059.0,1064.0,50.0,28.0,22.0,0.56,98.95952796597574,1971.677639130378,16.0,8.0,8.0,0.5,358.28949598813807,905.2649746799854,20.0,11.0,9.0,0.55,2030.3808984595228,30988.491461113357,28.0,10.0,18.0,0.3571428571428571,436.86278523202856,11479.516425615911,93.0,46.0,47.0,0.4946236559139785,127.90377055405764,17881.098380453637,0.0,0.0,0.0,0.0,112096.0,112123.0,112209.0,112224.0,112239.0,112258.0,112270.0,112297.0,112477.0,112570.0,0.04518474019597934,-0.1438764758576091,0.05580051938570741,-0.04930982123687071,0.007328754759653669
93,93,113257.47991697313,1237.769016269399,7.1286744187432385,113366.45203459916,-3136.6845878057197,15.28779240518434,113398.83703048334,37566.82498802526,8.615290732377137,113429.47940829814,-10565.817039622276,20.95755129906434,113675.0475128375,16583.930564062684,34.56286030636584,0.9327755305661356,104.0,85.0,95.0,271.0,366.0,19.0,1153.0,1150.0,20.0,8.0,12.0,0.4,118.77633548833288,1183.196111948547,79.0,70.0,9.0,0.8860759493670886,368.1860313736891,237.71295233238027,18.0,10.0,8.0,0.5555555555555556,2101.502983470402,29511.590693683866,31.0,12.0,19.0,0.3870967741935484,496.56900458512666,14777.339135169514,90.0,46.0,44.0,0.5111111111111111,95.34885183476696,16694.081116295914,0.0,0.0,0.0,0.0,113249.0,113268.0,113353.0,113375.0,113389.0,113407.0,113417.0,113448.0,113630.0,113719.0,0.09596001671323251,-0.11738063584877532,0.05594039379533068,-0.04699769101840125,0.005749472446621766
94,94,0.0,0.0,0.0,0.0,0.0,0.0,0.0,0.0,0.0,0.0,0.0,0.0,0.0,0.0,0.0,0.0,0.0,0.0,0.0,0.0,0.0,0.0,0.0,0.0,0.0,0.0,0.0,0.0,0.0,0.0,0.0,0.0,0.0,0.0,0.0,0.0,0.0,0.0,0.0,0.0,0.0,0.0,0.0,0.0,0.0,0.0,0.0,0.0,0.0,0.0,0.0,0.0,0.0,0.0,0.0,0.0,0.0,0.0,,114034.0,114357.0,114375.0,114389.0,114408.0,114419.0,114449.0,114630.0,114720.0,,,,,
95,95,115315.61352720416,490.9109548783951,1.273243655888832,115410.027373699,-3044.5458644566215,8.413241365239092,115444.420308626,37560.51836286265,8.435472671566973,115473.4139340651,-9746.58015100544,18.03547152771342,115720.03646609672,16736.477338881206,35.719593142700425,0.9530797472224052,89.0,84.0,91.0,272.0,363.0,5.0,2056.0,2045.0,5.0,3.0,2.0,0.6,129.81490702500142,241.7606299304356,23.0,13.0,10.0,0.5652173913043478,317.8633672435138,121.91087216233268,19.0,10.0,9.0,0.5263157894736842,2090.027724480311,30836.328610232427,29.0,9.0,20.0,0.3103448275862069,542.5895741263938,14841.872555859964,91.0,46.0,45.0,0.5054945054945055,137.24044706714085,17211.455298752444,0.0,0.0,0.0,0.0,115313.0,115318.0,115402.0,115420.0,115434.0,115453.0,115464.0,115493.0,115675.0,115765.0,0.2644367695097744,-0.10440419734003409,0.055644272645256995,-0.05566973910027521,0.008200079639716768
96,96,116551.87669549928,1451.7626514560632,6.861131965702969,116655.87669549928,-3217.2581689610583,7.724513139665934,116688.47023399956,37590.406988135226,8.499704143600242,116716.01091899852,-10415.630436324744,18.153214488672894,116965.44810438964,16436.44090580067,36.12472571141611,0.9298583613860142,99.0,82.0,95.0,276.0,371.0,17.0,1238.0,1244.0,17.0,10.0,7.0,0.5882352941176471,114.36922352011511,1080.4263189871604,80.0,72.0,8.0,0.9,364.60985043714305,400.997664159748,19.0,10.0,9.0,0.5263157894736842,2100.0900000824895,30328.738839599813,31.0,10.0,21.0,0.3225806451612903,622.418094157942,15837.406688472183,94.0,46.0,48.0,0.4893617021276595,110.0654221730356,16794.29079600938,0.0,0.0,0.0,0.0,116542.0,116559.0,116641.0,116663.0,116679.0,116697.0,116707.0,116736.0,116920.0,117012.0,0.07877956042291562,-0.11332937280407486,0.05586771116219485,-0.05975808166035203,0.006696426726676079
97,97,118625.15067819972,651.2712085141113,3.4829920064679234,118732.027373699,-3461.3505833621607,17.8357578060484,118765.50831168334,40456.67977169776,9.072053082570958,118792.28951251232,-11264.989803853585,26.132369989306927,119041.68185649824,15762.133790507503,32.71878992769854,0.9149310729732876,43.0,32.0,155.0,269.0,424.0,11.0,2072.0,2077.0,11.0,8.0,3.0,0.7272727272727273,143.13678317329862,496.1351749373974,84.0,74.0,10.0,0.8809523809523809,344.6643103089223,1269.3402978960626,18.0,10.0,8.0,0.5555555555555556,2094.3890998416696,29085.731887868,33.0,9.0,24.0,0.2727272727272727,708.9243063365815,18401.007014818897,88.0,45.0,43.0,0.5113636363636364,102.72805338380458,15744.921341674652,0.0,0.0,0.0,0.0,118617.0,118628.0,118660.0,118742.0,118756.0,118774.0,118783.0,118815.0,118998.0,119084.0,0.21978060952497522,-0.099575094174406,0.051768684718087994,-0.06293164207694792,0.006517395090610824
98,98,119708.027373699,1638.9851111655205,10.47161044179919,119818.45203459916,-3585.1721373615665,6.650527881705051,119851.1084590334,36873.76416375888,8.21210384446729,119880.47940829814,-10381.095110660046,17.444979104601188,120127.83551209555,16168.880542251149,35.21957115559866,0.9378405799378732,110.0,90.0,91.0,273.0,364.0,20.0,1085.0,1086.0,20.0,10.0,10.0,0.5,103.90655803983536,1728.939433849815,22.0,13.0,9.0,0.5909090909090909,363.01539586069055,302.28575433372316,18.0,10.0,8.0,0.5555555555555556,2114.400226519529,29922.029418865925,30.0,11.0,19.0,0.3666666666666666,543.2324059195578,14872.90720186938,93.0,48.0,45.0,0.5161290322580645,100.34212322394288,15894.749463510809,0.0,0.0,0.0,0.0,119698.0,119718.0,119808.0,119827.0,119841.0,119859.0,119869.0,119899.0,120081.0,120172.0,0.06339688953363645,-0.10125466280340008,0.0573415889175115,-0.05232900769416207,0.006205879433751603
99,99,120753.60271294396,1387.723712085005,10.19082275359858,120863.027373699,-3421.441851269397,8.1309499460581,120897.45203459916,34852.6862862998,8.295465831520374,120928.47940829814,-9292.239630884053,18.83168442756868,121172.8365785522,16429.089277409374,35.43144049632085,0.9217475123433952,104.0,85.0,97.0,271.0,368.0,19.0,1046.0,1047.0,22.0,9.0,13.0,0.4090909090909091,103.68449002910116,1325.7157297661006,81.0,71.0,10.0,0.8765432098765432,300.37102232513894,487.0337505218581,20.0,11.0,9.0,0.55,1918.3464609619757,27567.427197118064,31.0,11.0,20.0,0.3548387096774194,363.148269965818,11486.274086422569,92.0,46.0,46.0,0.5,148.94004479990406,16412.929675335643,0.0,0.0,0.0,0.0,120746.0,120765.0,120850.0,120873.0,120886.0,120906.0,120918.0,120947.0,121128.0,121218.0,0.07471551370504359,-0.08779077224816713,0.055041566816502636,-0.039080811988408494,0.00906563001058752
100,100,121820.15067819972,566.4628834871068,3.728138906956161,121927.027373699,-3516.0517708328057,17.8357578060484,121960.86507371122,38848.13581471861,8.84747363562524,121988.06330602676,-11055.584703287928,21.164687332099444,122236.78412364426,16582.369985730806,34.57888836244875,0.9194592391218166,102.0,91.0,95.0,272.0,367.0,11.0,1064.0,1063.0,11.0,8.0,3.0,0.7272727272727273,112.53118807034872,527.9300470204277,88.0,78.0,10.0,0.8863636363636364,341.4222710734739,822.6682852451652,18.0,10.0,8.0,0.5555555555555556,2101.757777839425,29480.040549800186,33.0,10.0,23.0,0.303030303030303,658.3658948788946,16889.013340441026,91.0,46.0,45.0,0.5054945054945055,108.67847225056406,16427.739936507656,0.0,0.0,0.0,0.0,121812.0,121823.0,121914.0,121937.0,121951.0,121969.0,121979.0,122009.0,122192.0,122281.0,0.19865588964561,-0.09710388052466168,0.05410189533581481,-0.05955052695522261,0.006553856435725551
101,101,122705.34154970586,343.78705644052826,1.2626755246858616,123074.027373699,-3062.224433552368,17.835757802478344,123108.26879693974,37919.55633355654,8.769928086811545,123136.054747398,-10431.714216522969,19.11175705110115,123384.39417985005,16134.733557578498,34.44373522121181,0.9207390713444036,358.0,353.0,95.0,272.0,367.0,5.0,884.0,1147.0,5.0,2.0,3.0,0.4,95.02192508913932,3479.8555752036623,83.0,73.0,10.0,0.8795180722891566,323.85599927946095,773.0394551405473,19.0,10.0,9.0,0.5263157894736842,2093.421845978576,29940.99610561247,31.0,10.0,21.0,0.3225806451612903,613.6280716977604,15897.75234070806,90.0,45.0,45.0,0.5,113.8242170354572,16578.545248386443,0.0,0.0,0.0,0.0,122703.0,122708.0,123061.0,123084.0,123098.0,123117.0,123126.0,123156.0,123340.0,123428.0,0.2763976226242164,-0.10575841395915196,0.055206918234062326,-0.0588233207851711,0.007054607789416756
102,102,124148.90406951224,1918.025612135752,13.321465671232918,124258.30135639945,-2852.19689455487,4.591519204496621,124289.45203459916,34298.82078649069,8.227654691180808,124321.90406919828,-8448.018837383048,17.314816093755052,124565.8560890144,16700.363370761268,36.41528828332023,0.9180946454376396,110.0,81.0,92.0,273.0,365.0,29.0,1449.0,1182.0,30.0,13.0,17.0,0.4333333333333333,121.33416347070178,1832.759332126874,17.0,11.0,6.0,0.6470588235294118,399.92990243363784,1342.6208027246762,20.0,11.0,9.0,0.55,1905.8596118161408,28059.63801165778,29.0,11.0,18.0,0.3793103448275862,316.6968919775124,9692.768832311862,93.0,46.0,47.0,0.4946236559139785,130.99631818856264,17092.971123695846,0.0,0.0,0.0,0.0,124137.0,124166.0,124247.0,124264.0,124279.0,124298.0,124311.0,124339.0,124521.0,124612.0,0.06325992870115757,-0.14021819573436325,0.055566330506814504,-0.037487711388154994,0.007843920235766182
103,103,125246.87669549928,854.1946805019121,5.700324355510004,125353.45203459916,-1072.0569631332585,15.28779240518434,125385.45203459916,40271.41155157203,8.929895404969773,125412.63008649784,-9397.682114740524,38.21948101296085,125662.85697690974,16262.751552875538,33.68650482246338,0.9140769806451232,44.0,29.0,152.0,271.0,423.0,15.0,1095.0,1096.0,15.0,8.0,7.0,0.5333333333333333,92.57773972247928,557.8016718144272,80.0,71.0,9.0,0.8875,356.7122759192747,1130.338735166663,19.0,9.0,10.0,0.4736842105263157,2069.40725297152,29242.837922512037,33.0,10.0,23.0,0.303030303030303,623.8454238236646,17691.494740647304,88.0,44.0,44.0,0.5,104.84762945281528,16529.99475233723,0.0,0.0,0.0,0.0,125239.0,125254.0,125283.0,125362.0,125376.0,125394.0,125404.0,125435.0,125619.0,125706.0,0.1083801407754986,-0.3327363080378918,0.05138650902070848,-0.06638290338052037,0.006447102700420729
104,104,126346.84584746308,452.8103655301024,3.0829654536112066,126450.17805189872,-4345.385522567901,22.93168860777651,126485.5660398274,38816.18098363022,8.796014271407444,126516.054747398,-10674.64436842141,26.82335033933829,126763.6267804874,15784.609012202573,33.0810835139399,0.9136424722949849,36.0,30.0,155.0,272.0,427.0,6.0,1099.0,1100.0,7.0,2.0,5.0,0.2857142857142857,133.94524241888794,163.86944014844903,84.0,71.0,13.0,0.8452380952380952,267.27239057633966,2822.784217331113,18.0,10.0,8.0,0.5555555555555556,2090.456190675531,27643.937241632542,33.0,13.0,20.0,0.3939393939393939,440.7548338977005,14999.776651916289,90.0,46.0,44.0,0.5111111111111111,105.3794777929863,15428.502956982558,0.0,0.0,0.0,0.0,126345.0,126351.0,126381.0,126463.0,126477.0,126494.0,126503.0,126536.0,126719.0,126808.0,0.2958086930321903,-0.061507175643737894,0.05385527730193576,-0.041289884579347375,0.006676090469616372
105,105,127345.60271279886,1998.5767932080785,14.78084222847776,127450.52567008056,-2907.7135566431957,6.005362852912439,127483.45203459916,36090.876489741015,8.714619885837191,127511.24606265828,-8764.605671443462,18.601243782838345,127759.093900581,16280.865011762844,35.57947682649017,0.927240587404815,115.0,85.0,91.0,270.0,361.0,30.0,1001.0,998.0,31.0,20.0,11.0,0.6451612903225806,99.06496326418277,1705.506961527652,17.0,9.0,8.0,0.5294117647058824,387.22336915819665,849.4102587242329,20.0,11.0,9.0,0.55,1921.3795398340835,28865.341599614658,31.0,8.0,23.0,0.2580645161290322,474.73063345580334,13564.291102959842,91.0,46.0,45.0,0.5054945054945055,109.13662773748322,17048.845724081468,0.0,0.0,0.0,0.0,127327.0,127357.0,127442.0,127459.0,127473.0,127492.0,127504.0,127533.0,127714.0,127803.0,0.04956775421432044,-0.13317108498308408,0.05323726455854415,-0.05416451706464724,0.00670336788976707
106,106,128355.45203459916,1431.8779254302715,11.419728184714248,128466.027373699,-2689.847111446252,17.8357578035332,128500.16684535824,38166.42892858792,8.718551705958339,128529.47940829814,-10393.161115859542,18.612969490156228,128775.88528028224,16645.046824611734,35.09933677550833,0.934318073698339,109.0,93.0,91.0,273.0,364.0,16.0,1009.0,1016.0,24.0,10.0,14.0,0.4166666666666667,145.77807635512983,1064.750703101271,22.0,12.0,10.0,0.5454545454545454,321.6677624753032,550.8714317182765,19.0,10.0,9.0,0.5263157894736842,2112.707906237056,30617.667766973176,30.0,10.0,20.0,0.3333333333333333,592.859255329119,15580.955264246764,91.0,46.0,45.0,0.5054945054945055,112.89200024461896,16778.474756702322,0.0,0.0,0.0,0.0,128348.0,128364.0,128457.0,128476.0,128490.0,128509.0,128519.0,128548.0,128732.0,128821.0,0.10180901162459384,-0.11958589062794424,0.05535513710727512,-0.05704320838675731,0.006782317973278053
107,107,0.0,0.0,0.0,0.0,0.0,0.0,0.0,0.0,0.0,0.0,0.0,0.0,0.0,0.0,0.0,0.0,0.0,0.0,0.0,0.0,0.0,0.0,0.0,0.0,0.0,0.0,0.0,0.0,0.0,0.0,0.0,0.0,0.0,0.0,0.0,0.0,0.0,0.0,0.0,0.0,0.0,0.0,0.0,0.0,0.0,0.0,0.0,0.0,0.0,0.0,0.0,0.0,0.0,0.0,0.0,0.0,0.0,0.0,,129253.0,129545.0,129628.0,129642.0,129660.0,129670.0,129703.0,129885.0,129973.0,,,,,
108,108,130559.17805189872,1785.9863948551515,11.79044455414103,130666.027373699,-2768.9604538739527,17.8357578060484,130700.45203459916,36864.16090150528,8.995563380993026,130727.88273459324,-10237.290390018088,20.85374646448586,130976.11237165245,16447.34695808015,36.38218558312895,0.9362543015788022,109.0,84.0,95.0,271.0,366.0,25.0,2205.0,2201.0,29.0,16.0,13.0,0.5517241379310345,105.92077160929844,1403.112137186204,41.0,31.0,10.0,0.7560975609756098,321.4374122622724,926.881602113099,19.0,10.0,9.0,0.5263157894736842,1953.376189080774,27866.05139503027,34.0,10.0,24.0,0.2941176470588235,521.6615403815964,15106.447593026453,94.0,47.0,47.0,0.5,97.52651942576134,16537.96072147358,0.0,0.0,0.0,0.0,130547.0,130572.0,130656.0,130676.0,130690.0,130709.0,130720.0,130751.0,130930.0,131022.0,0.059306594895919634,-0.11608595269483207,0.05298848912633222,-0.050956993550778304,0.005929620118936514
109,109,131685.6330984944,1104.082823126456,5.8337306792555585,131793.45203459918,-3622.904096103467,15.28779240518434,131825.96471707892,38705.671434265576,8.817999278435297,131852.58210045242,-11063.853239655573,21.627260417544793,132102.50112518913,16076.953273820438,35.04006655180676,0.9220599002266188,44.0,29.0,151.0,274.0,425.0,15.0,1125.0,1125.0,16.0,8.0,8.0,0.5,107.98549783721997,1074.7287765338683,81.0,72.0,9.0,0.8888888888888888,377.5733431265765,623.3891168015293,18.0,10.0,8.0,0.5555555555555556,2106.711902184921,29377.317515738057,32.0,10.0,22.0,0.3125,622.9971580579694,16759.774818310936,92.0,46.0,46.0,0.5,105.17670379082465,16211.397081236524,0.0,0.0,0.0,0.0,131679.0,131694.0,131723.0,131802.0,131817.0,131834.0,131843.0,131874.0,132058.0,132148.0,0.09780561346968066,-0.10421842066773641,0.05442902355441067,-0.05630923915593839,0.0065420793355226966
110,110,132561.84932180023,328.6456357906282,2.925706677512854,132921.45203459918,-1930.865583992704,4.193671970252518,132953.45203459918,38853.294378797546,8.942890859701153,132980.7807646976,-10404.75280910966,43.31541181468896,133232.73431299033,15278.86924987216,31.487223202270773,0.8890992060901417,288.0,279.0,158.0,269.0,427.0,9.0,873.0,1128.0,10.0,4.0,6.0,0.4,89.99145113213471,3282.6612464140085,84.0,74.0,10.0,0.8809523809523809,388.4265701411049,2399.3502595862883,19.0,10.0,9.0,0.5263157894736842,1947.7949741474984,26220.63115824748,36.0,11.0,25.0,0.3055555555555556,535.391573163088,16808.877696265186,85.0,44.0,41.0,0.5176470588235295,88.6538021923417,14634.31839101344,0.0,0.0,0.0,0.0,132559.0,132568.0,132847.0,132930.0,132944.0,132962.0,132971.0,133005.0,133190.0,133274.0,0.27382518229898534,-0.20116706898773573,0.050132041704304506,-0.051456443318320576,0.005802379792803285
111,111,133854.61362370776,1063.540444884929,4.996317377207027,133961.45203459918,-3581.3043215975786,15.28779240518434,133994.45203459918,39113.708191848,8.966350851120758,134021.35426035346,-11142.58408049158,23.5667215020384,134269.91445294436,16059.506662488251,32.94428903731158,0.9199526635912958,43.0,30.0,152.0,270.0,422.0,13.0,1295.0,1041.0,15.0,8.0,7.0,0.5333333333333333,114.9830171246153,709.3769440932206,81.0,71.0,10.0,0.8765432098765432,346.55071896722535,1293.5111995302275,19.0,10.0,9.0,0.5263157894736842,2073.7344580807653,29063.220876146304,34.0,10.0,24.0,0.2941176470588235,640.1432375885126,17578.953184402824,86.0,43.0,43.0,0.5,99.89623399109333,16362.913249887162,0.0,0.0,0.0,0.0,133848.0,133861.0,133891.0,133970.0,133985.0,134003.0,134012.0,134043.0,134227.0,134313.0,0.10811344098630497,-0.09676662127742137,0.05301809912548687,-0.05745015994173869,0.006220379996132177
112,112,135008.27953569763,1317.4755567570194,7.090816153521307,135115.45203459918,-3150.398229998742,15.28779240518434,135148.3587813481,36466.19801320505,8.610276564614354,135177.47940829815,-10656.867387479024,17.160140296325352,135424.7375021459,16088.845322593985,35.881690945763054,0.9240293383995074,96.0,77.0,100.0,275.0,375.0,19.0,1155.0,1153.0,20.0,9.0,11.0,0.45,128.00201619484247,1149.156698407015,81.0,72.0,9.0,0.8888888888888888,351.452825387327,298.50619042884114,19.0,10.0,9.0,0.5263157894736842,2083.1089644807075,30193.52329521405,31.0,11.0,20.0,0.3548387096774194,563.1824433468961,15207.66783435578,94.0,47.0,47.0,0.5,120.60210419229756,15712.743909119628,0.0,0.0,0.0,0.0,135000.0,135019.0,135096.0,135124.0,135139.0,135157.0,135166.0,135196.0,135380.0,135471.0,0.09715703303818467,-0.11155822208148819,0.05712438032959666,-0.052846903585249724,0.007496007437086419
113,113,137024.32364304637,1457.1903604066713,5.906206374607561,137133.45203459918,-3254.0397323402926,7.626791518245954,137166.7504338334,37486.51396038501,8.792541387964107,137194.7758693669,-9446.004368096956,22.929916273869157,137442.57953962922,15472.49403416242,32.100874239079495,0.9330880268204016,104.0,87.0,96.0,268.0,364.0,17.0,2014.0,2019.0,17.0,7.0,10.0,0.4117647058823529,137.89790893834527,1434.6364830013538,22.0,12.0,10.0,0.5454545454545454,352.91823153881495,480.04615940966016,19.0,11.0,8.0,0.5789473684210527,1967.0702435679536,27871.4062425382,30.0,8.0,22.0,0.2666666666666666,532.8704812888856,15026.73926775352,87.0,45.0,42.0,0.5172413793103449,158.1840742195344,15316.836269451918,0.0,0.0,0.0,0.0,137017.0,137034.0,137121.0,137142.0,137156.0,137175.0,137187.0,137217.0,137402.0,137485.0,0.09463273480608315,-0.10845541559659984,0.052474077628202866,-0.05641226284931738,0.010223566664189537
114,114,137934.52140120888,1285.405537742132,2.8875878692874855,138045.87669549932,-3153.593137293555,12.739827003146614,138077.45203459918,37512.47635906344,9.20330787971571,138104.17805189872,-9875.906401565366,22.93168860777651,138352.18789598523,15989.20645866989,33.532653533819726,0.91722762678672,41.0,33.0,154.0,266.0,420.0,8.0,909.0,911.0,10.0,5.0,5.0,0.5,197.99591507320577,1075.5159142083676,81.0,74.0,7.0,0.9135802469135802,476.7698174807134,118.69753292263728,20.0,11.0,9.0,0.55,1914.086109458702,28320.29229165522,30.0,6.0,24.0,0.2,649.6658916824307,14831.44322466416,82.0,42.0,40.0,0.5121951219512195,180.1847934495384,16758.268317108374,0.0,0.0,0.0,0.0,137931.0,137939.0,137972.0,138053.0,138066.0,138086.0,138099.0,138126.0,138310.0,138392.0,0.1540338121002604,-0.1511830463614853,0.05102531997987483,-0.06578291300730194,0.01126915171902331
115,115,0.0,0.0,0.0,0.0,0.0,0.0,0.0,0.0,0.0,0.0,0.0,0.0,0.0,0.0,0.0,0.0,0.0,0.0,0.0,0.0,0.0,0.0,0.0,0.0,0.0,0.0,0.0,0.0,0.0,0.0,0.0,0.0,0.0,0.0,0.0,0.0,0.0,0.0,0.0,0.0,0.0,0.0,0.0,0.0,0.0,0.0,0.0,0.0,0.0,0.0,0.0,0.0,0.0,0.0,0.0,0.0,0.0,0.0,139164.0,139217.0,139251.0,139804.0,139814.0,139830.0,139837.0,139932.0,140071.0,,,,,,
116,116,140807.4246609001,182.6243675448403,0.9913262043392012,141147.60271279886,-2661.6210406455984,20.383723206912453,141181.45203459918,40488.982749775496,9.090166172562316,141209.20542559773,-10462.824023335785,40.76744641382459,141462.50609746738,14729.11738401244,32.61267967030254,0.8910097631559403,271.0,266.0,155.0,273.0,428.0,5.0,2873.0,3104.0,5.0,1.0,4.0,0.2,70.31728044738566,39.594310567039656,84.0,73.0,11.0,0.8690476190476191,338.0863969341775,2914.25927128307,18.0,9.0,9.0,0.5,2068.407133105922,28438.443884691675,34.0,10.0,24.0,0.2941176470588235,605.9477873579591,17996.74290424677,89.0,45.0,44.0,0.5056179775280899,109.98601246920995,14352.274233192356,0.0,0.0,0.0,0.0,140806.0,140811.0,141077.0,141159.0,141172.0,141190.0,141200.0,141232.0,141419.0,141505.0,0.38503777668180256,-0.12702273981579731,0.05108567794574664,-0.05791436289155605,0.007467250725328123
117,117,141964.89618798034,395.4284981691761,0.8123164395126773,142319.17805189872,-4032.828984781104,22.93168860777651,142355.87669549932,37143.75205735232,9.086894095965777,142382.91196821458,-11242.118564254071,23.350645710993422,142632.2777202141,14897.077610547403,32.45646874118569,0.8992189602580488,286.0,283.0,157.0,268.0,425.0,3.0,1158.0,1174.0,3.0,2.0,1.0,0.6666666666666666,141.19175427333653,3326.8469879183003,85.0,72.0,13.0,0.8470588235294118,257.60791243568394,2867.476039363457,18.0,11.0,7.0,0.6111111111111112,1959.887814192127,25541.96859934394,34.0,11.0,23.0,0.3235294117647059,478.2847064501254,15326.222474664872,87.0,44.0,43.0,0.5057471264367817,176.9425594702449,15280.94573142928,0.0,0.0,0.0,0.0,141963.0,141966.0,142249.0,142332.0,142345.0,142363.0,142372.0,142406.0,142588.0,142674.0,0.3570601383740695,-0.06387771795130225,0.05276493907147386,-0.042544001267777076,0.011877669170828936
118,118,143215.35610379744,3138.593854343992,33.918481573466586,143328.90389527523,-1614.683092931748,3.272821002764423,143360.45203459918,36391.16135051799,8.904060672293298,143388.75339099858,-7437.020976659967,15.202138394472865,143636.41085119543,17808.742013044928,39.30198016895537,0.9430418289735304,142.0,83.0,84.0,274.0,358.0,59.0,1258.0,1005.0,69.0,34.0,35.0,0.4927536231884058,122.81632364037796,4037.789342875531,10.0,5.0,5.0,0.5,420.73679970078786,2910.5758809661065,20.0,11.0,9.0,0.55,1982.1991490987232,31004.667579307938,25.0,6.0,19.0,0.24,470.8078135006893,11342.335166511024,97.0,50.0,47.0,0.5154639175257731,105.4411965306436,18246.182985785475,0.0,0.0,0.0,0.0,143182.0,143241.0,143324.0,143334.0,143349.0,143369.0,143383.0,143408.0,143587.0,143682.0,0.03913100239790287,-0.26056927303107164,0.05446924680436198,-0.06330596820665864,0.005920754899667128
119,119,144408.5429735099,1362.4194423841366,5.880750575903001,144512.45203459918,-3187.1830483388862,7.470945905925514,144545.10517458414,37843.73583892283,8.611181485772667,144574.054747398,-9010.820832817166,23.192315487887026,144822.07279115534,16060.606861389122,35.95396426845723,0.9214312178186256,99.0,82.0,95.0,275.0,370.0,17.0,1186.0,1184.0,17.0,9.0,8.0,0.5294117647058824,153.40869385170183,944.6379236725048,79.0,70.0,9.0,0.8860759493670886,343.8732614353029,40.78818779425728,19.0,10.0,9.0,0.5263157894736842,2015.5739725241856,29667.68459314151,30.0,9.0,21.0,0.3,494.1124773936178,14238.358701506217,94.0,47.0,47.0,0.5,103.79393896092375,16509.25023841193,0.0,0.0,0.0,0.0,144400.0,144417.0,144499.0,144521.0,144535.0,144554.0,144565.0,144594.0,144776.0,144869.0,0.1126001942421253,-0.10789253589138052,0.05326043869197339,-0.05483545689800795,0.0064626411602448225
120,120,145577.87669549932,1389.4881134128698,6.471418252480448,145679.45203459918,-3517.8871964608857,7.561158061985148,145712.05207350603,35647.15007348939,8.145848716762409,145744.32873009844,-9739.139474478849,17.50560141705076,145989.15506731285,16606.42667853038,36.17553420638463,0.9300432774783134,50.0,35.0,140.0,275.0,415.0,15.0,1171.0,1167.0,23.0,15.0,8.0,0.6521739130434783,134.02946774528013,652.7881529274966,79.0,70.0,9.0,0.8860759493670886,356.04828406512877,146.69980194769357,19.0,10.0,9.0,0.5263157894736842,2061.449620796452,29700.01414524373,30.0,13.0,17.0,0.4333333333333333,404.08039519496737,11537.691745081584,95.0,48.0,47.0,0.5052631578947369,152.85717020303642,16531.402638604108,0.0,0.0,0.0,0.0,145570.0,145585.0,145620.0,145688.0,145702.0,145721.0,145731.0,145760.0,145944.0,146035.0,0.09645960008688097,-0.10121083030272417,0.05782929677538351,-0.04149035921026176,0.009204699672124998
121,121,146758.58505212105,1112.5118829824553,6.2570890832198165,146862.45203459918,-3038.22240345881,15.28779240518434,146895.8618666944,37944.42422669128,8.774088726942187,146923.9940742891,-10253.66067871403,21.248190667435537,147172.38720738192,16266.24921795672,34.813867484500626,0.9276563348383354,42.0,25.0,153.0,272.0,425.0,17.0,1179.0,1184.0,17.0,9.0,8.0,0.5294117647058824,157.67112951162406,715.3096325685849,80.0,70.0,10.0,0.875,335.7677625030804,788.4033839736603,18.0,10.0,8.0,0.5555555555555556,2070.8343949960968,29417.719145780313,33.0,11.0,22.0,0.3333333333333333,551.2378699910837,15417.568569036655,91.0,45.0,46.0,0.4945054945054945,140.70685660584175,16315.420791331951,0.0,0.0,0.0,0.0,146750.0,146767.0,146792.0,146871.0,146886.0,146904.0,146914.0,146945.0,147128.0,147217.0,0.14172534417244564,-0.11051454367554911,0.05457545969400711,-0.053760104538608314,0.008650233666069245
122,122,147894.02737369903,1704.6153995178452,10.393684661114207,147998.02737369903,-2549.214272457784,17.8357578060484,148032.45203459918,37789.112395037926,8.81196596468425,148059.89173258533,-9844.069827135709,19.40384925097839,148308.84251306657,16956.080401955347,36.37552685977387,0.934634244140474,103.0,80.0,97.0,273.0,370.0,23.0,1138.0,1137.0,25.0,14.0,11.0,0.56,152.8940776684767,1249.107379356386,79.0,69.0,10.0,0.8734177215189873,316.8607775049005,362.26989989277854,19.0,10.0,9.0,0.5263157894736842,2034.5765111759,29765.767954152987,32.0,10.0,22.0,0.3125,586.7023864922008,15150.513974702128,95.0,48.0,47.0,0.5052631578947369,121.74598811936151,17583.1376116608,0.0,0.0,0.0,0.0,147881.0,147904.0,147984.0,148008.0,148022.0,148041.0,148051.0,148081.0,148262.0,148354.0,0.08969417835350027,-0.12429742800686751,0.05384028314576289,-0.059599575865961874,0.007180078487084902
123,123,148987.92726763192,657.7277253196715,1.4537695695024948,149082.02737369903,-2720.560817877796,8.554824761733794,149117.45203459918,36157.5169510357,8.398601662273846,149146.4011286824,-9135.973546328123,18.081158530199332,149393.5684691169,16848.336641151374,37.22185368982733,0.9399159335021574,90.0,85.0,92.0,274.0,366.0,5.0,1091.0,1085.0,5.0,3.0,2.0,0.6,153.96809532261707,549.7204792959228,24.0,13.0,11.0,0.5416666666666666,300.1445930806845,403.5497936979858,19.0,10.0,9.0,0.5263157894736842,1997.7240443838357,29551.614814990695,31.0,10.0,21.0,0.3225806451612903,473.68433269561535,13236.797859737557,96.0,48.0,48.0,0.5,161.10077219845297,17350.049726909667,0.0,0.0,0.0,0.0,148985.0,148990.0,149075.0,149092.0,149107.0,149126.0,149137.0,149167.0,149348.0,149441.0,0.2340909306321014,-0.11032452982058885,0.05525058723167141,-0.051848260099876906,0.00956182058975311
124,124,149747.11259300672,485.0183741508776,0.980033873641308,150069.45203459918,-2645.1782872190597,5.95669003186017,150102.45203459918,35631.61911085536,8.522617614837781,150132.20754110458,-8788.070296866508,16.12059748378186,150377.5316524787,16689.33330294326,38.310301914115904,0.9488634776899572,320.0,316.0,87.0,273.0,360.0,4.0,759.0,985.0,4.0,2.0,2.0,0.5,154.9282702332231,2654.012328087652,18.0,9.0,9.0,0.5,373.7400781933257,451.8075195750131,19.0,10.0,9.0,0.5263157894736842,1972.4093263418963,30014.727515219805,30.0,10.0,20.0,0.3333333333333333,451.4469376624395,12306.054236558815,96.0,48.0,48.0,0.5,137.8048121836268,17380.28004687056,0.0,0.0,0.0,0.0,149745.0,149749.0,150065.0,150078.0,150092.0,150111.0,150124.0,150152.0,150331.0,150425.0,0.31942763097265386,-0.1412910728925753,0.05535559078035248,-0.051370428593795876,0.0082570591456355
125,125,151004.96974294866,782.0791029360685,1.526510320583963,151099.02737371324,-2560.7859865943897,7.796485751236098,151133.9854261222,36312.37296709015,8.352166400817504,151163.47940829815,-9732.510324451732,14.9318047861683,151409.20047400994,17517.81710029231,39.44851778009031,0.9417735211269628,90.0,85.0,90.0,276.0,366.0,5.0,1258.0,1031.0,5.0,3.0,2.0,0.6,165.11498171137967,553.7386580604469,24.0,13.0,11.0,0.5416666666666666,301.3296084635166,95.94553098510642,19.0,10.0,9.0,0.5263157894736842,2067.0258143294823,30533.472137921544,29.0,10.0,19.0,0.3448275862068966,522.2069773547727,13561.343522518746,100.0,50.0,50.0,0.5,176.11543537402693,17911.653216093793,0.0,0.0,0.0,0.0,151002.0,151007.0,151092.0,151109.0,151124.0,151143.0,151153.0,151182.0,151362.0,151458.0,0.21112312180635914,-0.11767075032469125,0.05692345736266877,-0.053655938698856764,0.010053503491087835
126,126,151779.4246609001,274.69091809408076,2.547962368722106,152117.45203459918,-3871.1639916499753,15.28779240518434,152149.4967753154,37056.97911128942,8.488620099250634,152180.47940829815,-10659.25607974612,20.23535811962276,152426.2085268428,15407.814647376908,33.90655570519633,0.9331395299131814,266.0,263.0,156.0,271.0,427.0,3.0,774.0,1016.0,3.0,2.0,1.0,0.6666666666666666,80.90103950747914,2912.7536651148016,87.0,78.0,9.0,0.896551724137931,367.9222861907413,838.8964470601595,18.0,9.0,9.0,0.5,2082.801263971414,29623.135407251822,32.0,13.0,19.0,0.40625,471.0014030909495,14358.19170896371,91.0,46.0,45.0,0.5054945054945055,117.33112741259762,15603.966297761252,0.0,0.0,0.0,0.0,151777.0,151780.0,152043.0,152126.0,152140.0,152158.0,152167.0,152199.0,152381.0,152470.0,0.2945166155066357,-0.09504177218643861,0.05620537113174688,-0.04418708018338253,0.0076150401661648085
127,127,152849.24936658985,268.89543641312383,1.0844083105551985,153220.02737369903,-4002.495015716052,17.83575780341729,153253.67681531177,36566.517514570114,8.505133578010442,153284.47940829815,-10732.069204993184,19.664840083594697,153529.94387057368,14985.497945805304,33.29409332684227,0.8982614974416163,283.0,279.0,173.0,271.0,444.0,4.0,1070.0,1104.0,4.0,2.0,2.0,0.5,107.16889313552588,3762.132742783933,101.0,91.0,10.0,0.900990099009901,326.77151509014436,1399.0425498763186,18.0,10.0,8.0,0.5555555555555556,2073.489709053048,28711.625285838814,32.0,13.0,19.0,0.40625,451.4872640469734,14159.258713178147,89.0,44.0,45.0,0.4943820224719101,118.26354645312549,15012.909523224464,0.0,0.0,0.0,0.0,152847.0,152851.0,153130.0,153230.0,153244.0,153262.0,153271.0,153303.0,153486.0,153574.0,0.39855229439771683,-0.08164195428277991,0.05670459890600344,-0.04206898552582154,0.007891866315074934
128,128,155446.32873009844,2429.095198890352,18.14302843197218,155555.04696242054,-2394.135081316919,5.925439510762164,155588.1614897525,36464.15092897575,8.457484473004701,155617.46381809455,-9323.32951000383,16.034159909142087,155863.99779959966,17013.99652755471,37.47591803052383,0.9454928321083116,131.0,85.0,89.0,275.0,364.0,46.0,2602.0,2334.0,48.0,31.0,17.0,0.6458333333333334,128.60582052765136,2435.6465771581907,16.0,8.0,8.0,0.5,343.57493057579524,405.8943228211712,19.0,10.0,9.0,0.5263157894736842,2059.427445951824,30289.079023223858,28.0,9.0,19.0,0.3214285714285714,514.7035228360126,13597.80639882099,96.0,48.0,48.0,0.5,136.28872360626198,17589.701650210183,0.0,0.0,0.0,0.0,155416.0,155462.0,155547.0,155563.0,155578.0,155597.0,155608.0,155636.0,155817.0,155911.0,0.05294391944226824,-0.14350691122524645,0.056478140680229785,-0.0552059778948863,0.008010388587157522
129,129,156613.87669549932,1192.9977842563924,6.673455387297971,156717.02737369903,-2955.4621813093854,17.835757799056196,156751.45203459918,36955.45435634214,8.494811049639821,156781.47940829815,-11028.196462127737,19.27125417404244,157030.2601729957,16184.533692796353,34.27143932050233,0.9305917318136578,103.0,84.0,95.0,273.0,368.0,19.0,1165.0,1164.0,20.0,12.0,8.0,0.6,132.0009016427818,684.2925070654428,82.0,71.0,11.0,0.8658536585365854,341.1199841072029,1029.2934144169544,19.0,10.0,9.0,0.5263157894736842,2056.067627626185,28907.706542264063,31.0,12.0,19.0,0.3870967741935484,510.7226389843517,14687.19153345588,89.0,46.0,43.0,0.5168539325842697,135.8221402868625,16650.48606258961,0.0,0.0,0.0,0.0,156602.0,156621.0,156705.0,156727.0,156741.0,156760.0,156769.0,156800.0,156985.0,157073.0,0.11064639296464351,-0.11542018242171294,0.0556363779971584,-0.046310622116521025,0.008392094753234453
130,130,157769.15067819977,873.1572694262978,4.8618344847962485,157869.02737369903,-3395.525594874032,17.835757806042952,157902.45203459918,36406.08939994888,8.605055133462663,157932.054747398,-10330.573909478704,20.15027717891989,158180.83551209557,16905.4712087996,35.49632490516375,0.9214020234266036,103.0,84.0,96.0,273.0,369.0,19.0,1154.0,1151.0,19.0,16.0,3.0,0.8421052631578947,135.12120995652404,82.8363610330839,82.0,72.0,10.0,0.8780487804878049,371.76562684744835,1005.5715013486748,19.0,10.0,9.0,0.5263157894736842,2018.189570230307,28314.530249096424,32.0,12.0,20.0,0.375,486.0798387048044,14202.81480880134,93.0,48.0,45.0,0.5161290322580645,137.60696228240522,16974.782966665698,0.0,0.0,0.0,0.0,157753.0,157772.0,157856.0,157879.0,157893.0,157911.0,157920.0,157952.0,158133.0,158225.0,0.15475014031012366,-0.10948691637273322,0.055435494542106487,-0.04705254935147477,0.008139788627174044
131,131,158805.78431012246,1382.244878749708,6.967213016668586,158912.87669549932,-3187.647185696573,7.223443831770564,158945.08756803305,35643.53810914332,8.297367299864478,158976.47940829815,-8886.605589572933,17.138829689661915,159220.32508414253,17140.598752290032,36.80217194702296,0.9200695865737564,102.0,84.0,95.0,272.0,367.0,18.0,1037.0,1042.0,19.0,9.0,10.0,0.4736842105263157,142.9038124893358,1174.3294897356684,81.0,73.0,8.0,0.9012345679012346,370.4642242997573,847.7803443201013,19.0,10.0,9.0,0.5263157894736842,2018.9308349553423,29770.039298690695,29.0,10.0,19.0,0.3448275862068966,411.77261412458824,11913.755231371564,94.0,47.0,47.0,0.5,123.16549948252438,17596.644286129078,0.0,0.0,0.0,0.0,158798.0,158816.0,158900.0,158920.0,158935.0,158954.0,158966.0,158995.0,159175.0,159267.0,0.10338530797712024,-0.11621870386474482,0.05664226791328114,-0.04633632155428842,0.007185600763571292
132,132,159955.87669549932,1176.9355216111926,6.5907215568030795,160060.45203459918,-3025.679282507159,15.28779240500493,160093.45641132924,37485.30578746471,8.609509108028528,160122.054747398,-10022.80745278506,19.012615637461856,160369.8305883369,16253.131415770216,35.382346714543246,0.9197386522085532,98.0,83.0,96.0,273.0,369.0,15.0,1151.0,1148.0,23.0,13.0,10.0,0.5652173913043478,101.684045970332,710.1164657958686,82.0,73.0,9.0,0.8902439024390244,337.23497738657784,683.1129285177934,19.0,10.0,9.0,0.5263157894736842,2092.858325001998,30178.091333483713,30.0,10.0,20.0,0.3333333333333333,557.2466185536476,14813.041801280178,93.0,47.0,46.0,0.5053763440860215,108.46586047119024,16674.91992172148,0.0,0.0,0.0,0.0,159948.0,159963.0,160046.0,160069.0,160084.0,160102.0,160112.0,160142.0,160324.0,160415.0,0.08639729543648178,-0.11145760865544742,0.055831432638382285,-0.05559785730482174,0.006673536175677945
133,133,161160.7807646976,3281.401313057556,30.8821825957333,161274.2311899538,-1210.164435001764,2.016094044292888,161304.4542628939,36938.945619065846,8.577372660780792,161334.9040691983,-7921.509191964809,13.125644445496452,161579.40227308823,17996.749700653694,42.20022030673078,0.943731128460134,142.0,86.0,81.0,280.0,361.0,56.0,1210.0,1212.0,58.0,33.0,25.0,0.5689655172413793,104.87941873144176,3779.4218634997032,6.0,3.0,3.0,0.5,433.67201424140825,3434.890771641733,20.0,10.0,10.0,0.5,2061.679998878421,32715.814606970267,27.0,9.0,18.0,0.3333333333333333,446.7074550295816,10784.883325744944,104.0,51.0,53.0,0.4903846153846153,122.3472417698174,18608.2881185659,0.0,0.0,0.0,0.0,161129.0,161185.0,161271.0,161277.0,161294.0,161314.0,161326.0,161352.0,161531.0,161632.0,0.03196177752294395,-0.35835792368231023,0.055813179405269635,-0.05639171074657083,0.006798296570484246
134,134,162254.11312222612,1254.836086470664,5.880283123384506,162356.60271279886,-2762.5877746546325,20.383723206912453,162392.45203459918,36869.16843941901,8.982645703912675,162421.659016329,-9159.436145360063,22.936278980314075,162669.49633678433,16586.38218859912,35.09656128875722,0.9115982903448202,102.0,85.0,96.0,271.0,367.0,17.0,1087.0,1088.0,19.0,9.0,10.0,0.4736842105263157,167.65132401569326,1271.0356597377172,83.0,71.0,12.0,0.8554216867469879,251.62866804608785,1213.5747275655058,19.0,10.0,9.0,0.5263157894736842,1908.852527178417,28497.637043090275,33.0,10.0,23.0,0.303030303030303,429.90188089546103,13064.34244664764,92.0,45.0,47.0,0.4891304347826087,125.17546630180745,16693.144484911256,0.0,0.0,0.0,0.0,162246.0,162263.0,162348.0,162368.0,162382.0,162401.0,162414.0,162444.0,162625.0,162715.0,0.13360416218761068,-0.09108440656787654,0.051773679960124885,-0.04693540891305174,0.007546881826215758
135,135,163282.0019623036,985.3918603116936,4.4098716415701205,163395.30135639946,-3110.3492460394145,10.191861603456228,163423.99986900834,39015.86232782062,8.739431085564583,163450.63008649787,-10778.72364992112,22.610145899528575,163700.3206609609,16004.141366836744,34.172755077416156,0.9231732521512632,113.0,99.0,85.0,270.0,355.0,14.0,1027.0,1031.0,14.0,7.0,7.0,0.5,130.2053035939872,824.7050763147579,84.0,78.0,6.0,0.9285714285714286,567.6221041951773,2132.71575644158,18.0,10.0,8.0,0.5555555555555556,2125.4660917201377,29535.06764298981,32.0,10.0,22.0,0.3125,633.1115605794549,17161.857371225204,90.0,45.0,45.0,0.5,147.51340742223044,16369.044542980995,0.0,0.0,0.0,0.0,163275.0,163289.0,163388.0,163401.0,163414.0,163432.0,163442.0,163473.0,163656.0,163743.0,0.13213555828723955,-0.18249465230245862,0.05447697333616421,-0.058737154893482045,0.00921720222541291
136,136,164446.23046239835,562.8509543512896,1.720106664982108,164551.02737369903,-2631.807579923318,17.8357578060484,164583.66876218648,39383.67514975207,8.85558648044547,164614.054747398,-9735.641220921922,35.67151561205723,164862.04444423947,15318.701969565112,33.30817384277028,0.9065976877461353,34.0,30.0,156.0,272.0,428.0,4.0,1164.0,1160.0,4.0,2.0,2.0,0.5,136.84685204469918,350.4762325404819,83.0,73.0,10.0,0.8795180722891566,356.2351725972382,1509.837217745846,18.0,9.0,9.0,0.5,2078.6450926775724,28728.820124840306,33.0,13.0,20.0,0.3939393939393939,486.83021793880454,15721.588979987302,90.0,45.0,45.0,0.5,132.11451683099773,15277.351742476363,0.0,0.0,0.0,0.0,164444.0,164448.0,164478.0,164561.0,164575.0,164593.0,164601.0,164634.0,164818.0,164906.0,0.2431315981375943,-0.13535760566797125,0.052779358065842115,-0.05000494645310111,0.008624393704732959
137,137,166459.8179639046,1792.9462288310067,7.002275051358488,166570.45203459967,-3312.332875383509,7.0738086565319485,166603.61305412863,36940.6935124083,8.433881794894068,166633.2678726993,-9697.960924314451,16.65047560794459,166876.92568052813,16915.702557032586,36.25557245876964,0.9269945898840268,107.0,88.0,94.0,271.0,365.0,19.0,2015.0,2019.0,19.0,9.0,10.0,0.4736842105263157,140.44281656206326,1830.62773641302,22.0,13.0,9.0,0.5909090909090909,356.4845257784398,12.69246865721675,19.0,11.0,8.0,0.5789473684210527,2079.2865913391406,30572.97186257224,29.0,10.0,19.0,0.3448275862068966,535.7591971048909,14204.07940701001,93.0,47.0,46.0,0.5053763440860215,127.80009838217931,17222.515021933636,0.0,0.0,0.0,0.0,166451.0,166470.0,166558.0,166579.0,166593.0,166612.0,166623.0,166652.0,166831.0,166923.0,0.07833074651303479,-0.10762339993898265,0.056287156348072145,-0.05524452008892412,0.007555116197585734
138,138,167629.31407998188,845.8046757994407,4.46973615444447,167735.60271279886,-3327.1266547457967,20.383723206912453,167770.70206095828,38788.62110371226,8.880290652316749,167797.63251231966,-11101.38243751828,22.500966545811757,168048.3757513242,15264.136005073042,34.1258485547306,0.9222807127901363,44.0,29.0,154.0,274.0,428.0,15.0,1166.0,1168.0,15.0,8.0,7.0,0.5333333333333333,109.67580351568962,516.8088948712863,83.0,72.0,11.0,0.8674698795180723,267.74373163427424,1523.7075480596718,18.0,10.0,8.0,0.5555555555555556,2081.427885391185,28552.696014374676,32.0,10.0,22.0,0.3125,631.4181368030447,16799.1108964827,91.0,45.0,46.0,0.4945054945054945,129.08970305812358,15497.944168155189,0.0,0.0,0.0,0.0,167621.0,167636.0,167665.0,167747.0,167761.0,167779.0,167788.0,167819.0,168004.0,168093.0,0.12967036793929504,-0.08047296043039598,0.05366078571924234,-0.05687743309059431,0.008457059280343189
139,139,168643.32873009844,1634.2884334048103,12.902067417712674,168757.87669549932,-3343.298858046034,6.059512100446535,168789.85252153588,35142.91353824912,8.497784177711143,168820.54804045628,-8919.699867880945,17.884175970118047,169065.30660604982,16425.541523357533,35.96889347936868,0.9310546029759098,110.0,88.0,93.0,271.0,364.0,22.0,1021.0,1019.0,24.0,7.0,17.0,0.2916666666666667,118.6452727106288,1645.5534161613584,18.0,11.0,7.0,0.6111111111111112,392.78795186987895,584.3466327790629,20.0,11.0,9.0,0.55,1932.2021678112565,28276.87963616296,30.0,11.0,19.0,0.3666666666666666,382.274523562758,11871.891190829989,93.0,46.0,47.0,0.4946236559139785,122.59367087971174,16958.007168674845,0.0,0.0,0.0,0.0,168637.0,168659.0,168747.0,168765.0,168779.0,168799.0,168811.0,168840.0,169020.0,169111.0,0.07259751111586102,-0.11748514522552761,0.05498127426766341,-0.04285733031660571,0.007463599949224228
140,140,169639.2739827004,711.0524815575121,3.413308073550438,169751.02737369903,-3374.470962784426,17.8357578060484,169784.59162930926,39981.002867349554,8.925243525793359,169812.0175226651,-10468.253396506228,23.88627437771738,170060.76999735192,15303.467160382635,33.111165982237445,0.9253144445371524,103.0,92.0,96.0,271.0,367.0,11.0,990.0,994.0,11.0,4.0,7.0,0.3636363636363636,135.51352842334703,534.808895606393,84.0,74.0,10.0,0.8809523809523809,352.08022426345565,1086.234070875885,18.0,10.0,8.0,0.5555555555555556,2128.572179565763,30341.60535330984,33.0,10.0,23.0,0.303030303030303,663.7617953447334,16832.783400640717,90.0,46.0,44.0,0.5111111111111111,118.14217066236569,15180.051072672532,0.0,0.0,0.0,0.0,169635.0,169646.0,169738.0,169761.0,169775.0,169793.0,169803.0,169834.0,170016.0,170105.0,0.19058161238185098,-0.10433642136690328,0.05323958947773316,-0.06340711962190974,0.0077199610666143816
141,141,170911.02737369903,1327.2898384349196,8.407106781029547,171017.87669549932,-3252.1352456404225,6.5651406864738,171049.93057319277,37251.38872077332,8.395898717610951,171077.94270378706,-9988.918331384515,18.736273569985148,171327.82258085287,15851.965989190148,36.493666370471736,0.9313147318000308,104.0,83.0,94.0,278.0,372.0,21.0,1276.0,1265.0,21.0,11.0,10.0,0.5238095238095238,116.51192254325308,927.2601091951784,22.0,15.0,7.0,0.6818181818181818,397.9252787545139,460.09662880694214,18.0,10.0,8.0,0.5555555555555556,2074.323201850951,29828.54171189111,30.0,10.0,20.0,0.3333333333333333,575.7513307146057,15165.65740285133,95.0,47.0,48.0,0.4947368421052631,123.20100947719,16076.613150604906,0.0,0.0,0.0,0.0,170900.0,170921.0,171004.0,171025.0,171040.0,171058.0,171068.0,171098.0,171281.0,171376.0,0.08778182366003698,-0.12235815816330019,0.05568445293139367,-0.05763900670862764,0.0077719703386446735
142,142,171984.75339099858,2279.778215453652,17.984569615074005,172091.22984603303,-2118.592842372727,5.024019359355963,172124.45203459918,34931.46331510169,8.646148929148024,172153.47940829815,-8471.712819545703,16.430508212864154,172399.48563728807,17384.554407671312,38.80964539964931,0.9332774253230544,118.0,85.0,89.0,275.0,364.0,33.0,1075.0,1076.0,47.0,33.0,14.0,0.7021276595744681,169.4544748851962,1956.204306552676,15.0,7.0,8.0,0.4666666666666667,352.45016174996067,810.0716810340873,20.0,11.0,9.0,0.55,1901.4772747041156,28587.76443969632,27.0,7.0,20.0,0.2592592592592592,435.85260651841514,11855.89292864356,97.0,48.0,49.0,0.4948453608247423,130.06920837377226,17921.392506626602,0.0,0.0,0.0,0.0,171966.0,171999.0,172084.0,172099.0,172113.0,172133.0,172146.0,172173.0,172352.0,172448.0,0.07432936841686441,-0.16636049867667477,0.0544345153122189,-0.05144799119167826,0.007481883361725762
