Unnamed: 0,cycle,p_center,p_height,p_width,q_center,q_height,q_width,r_center,r_height,r_width,s_center,s_height,s_width,t_center,t_height,t_width,r_squared,pr_interval,pr_segment,qrs_duration,st_segment,qt_interval,p_duration,pp_interval,rr_interval,fwhm_p,rise_time_p,decay_time_p,rise_decay_symmetry_p,sharpness_deriv_p,sharpness_diff_p,fwhm_q,rise_time_q,decay_time_q,rise_decay_symmetry_q,sharpness_deriv_q,sharpness_diff_q,fwhm_r,rise_time_r,decay_time_r,rise_decay_symmetry_r,sharpness_deriv_r,sharpness_diff_r,fwhm_s,rise_time_s,decay_time_s,rise_decay_symmetry_s,sharpness_deriv_s,sharpness_diff_s,fwhm_t,rise_time_t,decay_time_t,rise_decay_symmetry_t,sharpness_deriv_t,sharpness_diff_t,Average_Heart_Rate,SDNN,RMSSD,NN50,p_on,p_off,q_on,q_off,r_on,r_off,s_on,s_off,t_on,t_off,sharpness_deriv_p_norm,sharpness_deriv_q_norm,sharpness_deriv_r_norm,sharpness_deriv_s_norm,sharpness_deriv_t_norm
0,0,0.0,0.0,0.0,0.0,0.0,0.0,0.0,0.0,0.0,0.0,0.0,0.0,0.0,0.0,0.0,0.0,0.0,0.0,0.0,0.0,0.0,0.0,0.0,0.0,0.0,0.0,0.0,0.0,0.0,0.0,0.0,0.0,0.0,0.0,0.0,0.0,0.0,0.0,0.0,0.0,0.0,0.0,0.0,0.0,0.0,0.0,0.0,0.0,0.0,0.0,0.0,0.0,0.0,0.0,79.37832880306195,358.9627927595492,587.1798301296362,352.0,,,,,,,,,,,,,,,
1,1,1299.1233045007198,752.7560389223797,12.739827004320285,1415.4567900937718,-4351.581732276912,5.361615206613308,1442.390888825142,42072.939531987,8.655240352042206,1465.1506781997125,-1779.3692807688246,4.485614440375059,1691.896938705421,4613.164161937376,33.56271701542159,0.9959966207906552,116.0,103.0,60.0,263.0,323.0,13.0,,,15.0,8.0,7.0,0.5333333333333333,78.16483167262234,1110.5815221893345,12.0,7.0,5.0,0.5833333333333334,809.3633692507212,4123.46828265495,21.0,10.0,11.0,0.4761904761904761,2301.6536229245203,42964.81227791974,4.0,1.0,3.0,0.25,1114.6036398973563,15240.903059446217,83.0,44.0,39.0,0.5301204819277109,35.27054272309021,4579.355014870656,0.0,0.0,0.0,0.0,1292.0,1305.0,1408.0,1420.0,1432.0,1453.0,1464.0,1468.0,1649.0,1731.0,0.103838199404578,-0.18599291454126768,0.05470627078896236,-0.6264037779812416,0.007645629222151451
2,2,1821.8493218002875,159.4751815484006,3.0129149974378517,2157.5867709492863,-5008.92710691383,6.451696010842755,2184.907502788439,40840.57927908447,8.630947235083982,2206.7260172995684,-3312.682635490985,5.558612032989438,2435.4020617162473,4317.2200525930275,26.6997105964948,0.9896155523445184,330.0,325.0,64.0,257.0,321.0,5.0,524.0,743.0,5.0,3.0,2.0,0.6,31.31841124440344,160.7742965162713,14.0,9.0,5.0,0.6428571428571429,835.9618736186749,3908.6558213544654,21.0,11.0,10.0,0.5238095238095238,2265.7033531818024,40216.6721212823,8.0,2.0,6.0,0.25,1186.4817243788575,17452.8748145216,72.0,36.0,36.0,0.5,50.846009180731095,4083.257127975408,0.0,0.0,0.0,0.0,1819.0,1824.0,2149.0,2163.0,2174.0,2195.0,2205.0,2213.0,2400.0,2470.0,0.1963842332099702,-0.16689439789706567,0.05547676828232768,-0.3581634146498929,0.011777488421094436
3,3,2765.606867346498,1049.9020306486595,21.361292493898716,2883.766041874992,-4202.27939151913,4.9325823400664035,2911.109233594482,43578.20777975703,8.572514128582911,2995.2739827004316,-510.4195685975487,4.239520003265231,3159.9271405158147,4489.471531352105,32.42822562028812,0.9946699275976424,120.0,102.0,128.0,192.0,320.0,18.0,944.0,726.0,18.0,10.0,8.0,0.5555555555555556,84.84706205196584,1456.906403719055,13.0,8.0,5.0,0.6153846153846154,841.3409476174942,4787.3030462607785,21.0,10.0,11.0,0.4761904761904761,2323.2337187504477,43423.99346494017,13.0,4.0,9.0,0.3076923076923077,66.30682919896704,754.9465489956101,76.0,39.0,37.0,0.5131578947368421,68.12256775392719,4304.587196061839,0.0,0.0,0.0,0.0,2756.0,2774.0,2876.0,2889.0,2901.0,2922.0,2991.0,3004.0,3122.0,3196.0,0.08081426606970642,-0.2002106164848188,0.05331182343459378,-0.1299065186335912,0.015173850035175645
4,4,3487.8219481012957,1159.7486746657305,22.93168860777651,3622.455326883167,-3986.019666992941,4.923809231321347,3649.6956493941993,43179.109295582704,8.537562957307335,3739.671269901584,-486.1457856233437,24.24811105812344,3896.9076888613617,5051.1074827650855,33.61143163611962,0.9895314898848936,140.0,119.0,131.0,188.0,319.0,21.0,719.0,739.0,38.0,14.0,24.0,0.3684210526315789,77.698734798565,1555.8568727849165,12.0,7.0,5.0,0.5833333333333334,773.1954310970928,4473.468403689598,21.0,11.0,10.0,0.5238095238095238,2296.002858067156,42104.69379002877,23.0,17.0,6.0,0.7391304347826086,39.80050583484898,619.2362534206472,82.0,43.0,39.0,0.524390243902439,51.09958499916232,5082.942328649963,0.0,0.0,0.0,0.0,3475.0,3496.0,3615.0,3627.0,3639.0,3660.0,3724.0,3746.0,3857.0,3934.0,0.06699618330752546,-0.19397682291928894,0.05317392821491204,-0.0818694865035519,0.010116511116328355
5,5,5661.671269901583,1698.168440674457,20.162785738776403,5788.863369955954,-4465.060874346758,5.145094467406456,5816.086891939047,42804.354111666915,8.479127464258799,5913.301356399425,-892.063520321559,10.191861603456228,6065.401073462583,4540.794801465681,32.23336924788974,0.9938504398410364,135.0,104.0,144.0,180.0,324.0,31.0,2173.0,2166.0,51.0,21.0,30.0,0.4117647058823529,105.46234220075304,1724.8761317212884,13.0,8.0,5.0,0.6153846153846154,827.3647887485625,4512.39568290823,21.0,10.0,11.0,0.4761904761904761,2308.5619117150827,42826.29317771388,28.0,16.0,12.0,0.5714285714285714,62.01683968877216,715.2744888570392,82.0,40.0,42.0,0.4878048780487805,56.429702696370015,4534.075814410029,0.0,0.0,0.0,0.0,5646.0,5677.0,5781.0,5794.0,5806.0,5827.0,5911.0,5925.0,6025.0,6105.0,0.06210358152626299,-0.18529753838341714,0.05393287574653188,-0.06952065438839733,0.012427274334915021
6,6,6365.86178824252,1497.00111138595,10.90589652896574,6493.3783393413,-4025.481213583752,5.249286508667221,6520.641620842424,42272.822341425075,8.515897991042765,6586.314920393665,-1611.3944218354025,112.1104776380185,6764.760395428948,4419.345687532503,30.28452584930425,0.9933017370715076,131.0,106.0,201.0,117.0,318.0,25.0,707.0,704.0,26.0,14.0,12.0,0.5384615384615384,93.61501461065431,1123.0612011861413,15.0,9.0,6.0,0.6,760.9633301863744,3002.31323280164,21.0,11.0,10.0,0.5238095238095238,2266.3746487125263,40154.903951167864,128.0,26.0,102.0,0.203125,49.62052669155314,1726.7230408873118,69.0,31.0,38.0,0.4492753623188406,60.8064706483885,4227.613515587655,0.0,0.0,0.0,0.0,6353.0,6378.0,6484.0,6499.0,6510.0,6531.0,6561.0,6685.0,6735.0,6802.0,0.0625350334736785,-0.18903661197537028,0.05361304316063141,-0.03079353261942822,0.013759156886036489
7,7,7068.182486664896,2561.43811719051,30.57558481036868,7203.493388936051,-3952.7728324910977,4.887634444082682,7230.4453327509345,42130.60959812336,8.436178786530421,7315.972626301007,-669.8483062841113,17.8357578060484,7479.068005349431,5336.7105483398345,35.96585244429876,0.9901206317850516,138.0,104.0,124.0,197.0,321.0,34.0,706.0,710.0,58.0,20.0,38.0,0.3448275862068966,114.97191708266662,3259.9566733524384,12.0,7.0,5.0,0.5833333333333334,773.5345132891267,4463.570121536552,21.0,10.0,11.0,0.4761904761904761,2301.4704973401144,42704.6305766749,36.0,28.0,8.0,0.7777777777777778,69.69158839783167,642.8976553275409,80.0,42.0,38.0,0.525,45.6687037744422,5495.810225519904,0.0,0.0,0.0,0.0,7058.0,7092.0,7196.0,7208.0,7220.0,7241.0,7305.0,7320.0,7437.0,7517.0,0.04488568992202416,-0.19569414840407953,0.05462704003795449,-0.10404085185261704,0.008557463134036566
8,8,8501.246609001439,1254.5849112898215,18.60484285924751,8626.109631344281,-4692.094292911781,5.218592909165694,8653.646092032026,43916.77546242185,8.512794903607466,8739.72601729957,-775.5689398103272,7.64389620259217,8904.48910435787,4266.1629060108535,33.78622138146858,0.9935082026789408,131.0,102.0,126.0,201.0,327.0,29.0,1427.0,1423.0,38.0,21.0,17.0,0.5526315789473685,83.69290155765636,1174.2609971346856,13.0,8.0,5.0,0.6153846153846154,829.2316941040534,3578.908196695035,21.0,11.0,10.0,0.5238095238095238,2327.4124145219744,43070.29179734958,14.0,10.0,4.0,0.7142857142857143,85.82296207055606,924.6111766866268,84.0,43.0,41.0,0.5119047619047619,46.908530746052946,4221.216036873346,0.0,0.0,0.0,0.0,8487.0,8516.0,8618.0,8631.0,8643.0,8664.0,8730.0,8744.0,8861.0,8945.0,0.06670963503906072,-0.1767295459847751,0.05299597682242097,-0.11065807005054237,0.010995485118479816
9,9,9206.738771980068,1909.2581536969765,17.268251476478977,9335.867256393536,-4460.871395865631,5.403430920424931,9363.68210678559,42467.54271002449,8.488786754431214,9435.095930801726,-952.1834524544008,30.57558481036868,9612.45603113618,4664.436734176727,31.553810870304225,0.9930349149834108,137.0,104.0,188.0,133.0,321.0,33.0,708.0,711.0,36.0,19.0,17.0,0.5277777777777778,71.20154277722082,2132.743792787306,14.0,8.0,6.0,0.5714285714285714,779.6916929677999,3770.495489027046,21.0,11.0,10.0,0.5238095238095238,2270.489201784869,41232.59676636051,105.0,19.0,86.0,0.1809523809523809,47.86699810405267,954.8814470152408,76.0,39.0,37.0,0.5131578947368421,50.044415545414736,4717.24840404811,0.0,0.0,0.0,0.0,9191.0,9224.0,9328.0,9342.0,9353.0,9374.0,9418.0,9516.0,9573.0,9649.0,0.03729277920817062,-0.17478461577942464,0.05346410592409714,-0.05027077290690995,0.010728930071820894
10,10,10633.621575619323,1191.5271449217355,11.860318542677083,10761.407230252358,-4660.997587369945,6.001045220254494,10788.126398065904,41297.643011472624,8.610348721206668,10810.150678199714,-2566.6943665030944,5.09593080172337,11036.707507768622,4667.620922446213,31.00269722507676,0.9939006675540554,133.0,108.0,63.0,257.0,320.0,25.0,1426.0,1424.0,26.0,14.0,12.0,0.5384615384615384,69.26748707908969,1200.5687965652044,14.0,8.0,6.0,0.5714285714285714,822.7682876087259,3959.804151611604,21.0,10.0,11.0,0.4761904761904761,2293.923854146528,41451.48031437097,7.0,1.0,6.0,0.1428571428571428,1187.114680284745,16774.806268411092,77.0,40.0,37.0,0.5194805194805194,69.7026080090644,4416.1553718617815,0.0,0.0,0.0,0.0,10620.0,10645.0,10753.0,10766.0,10778.0,10799.0,10809.0,10816.0,10998.0,11073.0,0.05813336890754551,-0.17652192951959633,0.05554612047736642,-0.4625072216533864,0.014933219549571856
11,11,11357.301356399426,734.9751592288388,10.19186160345618,11477.63940696831,-4352.9937327292955,5.099298392839449,11504.727720552846,42829.129494271314,8.639397033214795,11573.73958129381,-929.314843767176,109.56251223715444,11753.359040044365,4399.950412671502,34.635911216989584,0.9958250848539688,115.0,106.0,185.0,138.0,323.0,9.0,728.0,716.0,12.0,5.0,7.0,0.4166666666666667,81.49184020447089,581.4461008285016,14.0,9.0,5.0,0.6428571428571429,866.6004445993057,4358.49744032878,21.0,11.0,10.0,0.5238095238095238,2253.803316113105,41204.07098957501,110.0,29.0,81.0,0.2636363636363636,39.59170137895786,1125.9556891932402,79.0,39.0,40.0,0.4936708860759494,38.82826974341354,4270.350647367155,0.0,0.0,0.0,0.0,11354.0,11363.0,11469.0,11483.0,11494.0,11515.0,11549.0,11654.0,11714.0,11792.0,0.11087699928522064,-0.19908148226438024,0.05262314090260851,-0.04260310877900589,0.00882470621295896
12,12,11892.27398270043,214.82503645241584,7.64389620259217,12209.8900537415,-4790.749259105789,6.270067368221535,12237.117739925074,40805.44615512922,8.648378941063516,12258.72601729957,-3043.155545037983,5.295131874626103,12485.80306191286,4545.811435459612,28.741329540493194,0.9917220480059538,313.0,305.0,64.0,256.0,320.0,8.0,532.0,733.0,8.0,4.0,4.0,0.5,48.0235020214253,329.62953438013704,15.0,9.0,6.0,0.6,809.4710608838351,3905.411185528788,21.0,10.0,11.0,0.4761904761904761,2264.315216013892,40810.03511914624,8.0,2.0,6.0,0.25,1189.007520837901,17152.37398051431,74.0,39.0,35.0,0.527027027027027,45.236489870804235,4496.791841669996,0.0,0.0,0.0,0.0,11888.0,11896.0,12201.0,12216.0,12227.0,12248.0,12257.0,12265.0,12447.0,12521.0,0.2235470446763434,-0.168965440916214,0.05549051485445575,-0.3907153292826708,0.009951246441490489
13,13,12826.442186473509,438.9557543399069,2.8307314911549835,12944.318797896196,-4650.303577900983,5.94138031777186,12971.29390470644,41172.827646257785,8.585016740749271,12993.72601729957,-2762.774605826921,5.307705876455004,13219.88424627626,4801.076143319477,30.21715905591205,0.992582900718183,113.0,106.0,62.0,259.0,321.0,7.0,935.0,734.0,7.0,3.0,4.0,0.4285714285714285,56.41066883195832,388.6292682294983,14.0,8.0,6.0,0.5714285714285714,800.6052415289116,3800.849541922344,21.0,10.0,11.0,0.4761904761904761,2296.4779692454745,41445.19034432637,8.0,3.0,5.0,0.375,1133.5682114704214,16426.986552049533,75.0,38.0,37.0,0.5066666666666667,40.06041879687073,4637.037945409483,0.0,0.0,0.0,0.0,12823.0,12830.0,12936.0,12950.0,12961.0,12982.0,12992.0,12998.0,13182.0,13257.0,0.1285110589717353,-0.17216193053148637,0.055776542456009874,-0.41030064815263323,0.008344049875695753
14,14,13567.45203459914,621.1116995633331,11.414396663854632,13686.74481704352,-4561.669178033267,5.181267733719867,13713.23592310716,42355.408266140475,8.47420337992679,13800.342539803169,-703.6690041014209,56.055238819009254,13961.92095768902,4807.61863331215,32.586039467976455,0.9945181996003616,118.0,103.0,171.0,147.0,318.0,15.0,744.0,742.0,31.0,22.0,9.0,0.7096774193548387,59.468860181951555,445.0110522617993,13.0,8.0,5.0,0.6153846153846154,894.4094044631306,5027.805445645154,21.0,10.0,11.0,0.4761904761904761,2311.6451144299263,42238.878485550886,97.0,31.0,66.0,0.3195876288659793,38.64521953787498,931.5860000202696,75.0,40.0,35.0,0.5333333333333333,70.61661126133347,5319.573850233673,0.0,0.0,0.0,0.0,13561.0,13576.0,13679.0,13692.0,13703.0,13724.0,13769.0,13850.0,13922.0,13997.0,0.0957458380252064,-0.19607064202949265,0.05457733047701228,-0.054919599005536106,0.014688480232610093
15,15,14280.19965029591,826.8570354207096,2.781797648800804,14418.511883995969,-4374.897392593088,5.285303584770629,14445.81007949969,43881.832157255005,8.67223978898476,14523.314920393665,-1040.0542915842143,112.11047763801852,14692.74596210272,4305.988875637321,32.54131437336227,0.9949672342652804,134.0,126.0,192.0,129.0,321.0,8.0,710.0,733.0,8.0,4.0,4.0,0.5,92.42683672732072,922.1960168119822,15.0,10.0,5.0,0.6666666666666666,867.7723060380546,4729.417193860803,22.0,11.0,11.0,0.5,2290.495087613542,42246.819013411194,114.0,27.0,87.0,0.2368421052631578,90.5939265453229,938.4186420844992,75.0,37.0,38.0,0.4933333333333333,84.13460683928801,4103.30305636343,0.0,0.0,0.0,0.0,14276.0,14284.0,14410.0,14424.0,14435.0,14457.0,14498.0,14602.0,14656.0,14731.0,0.11178091588746465,-0.19835260765366405,0.052196888211169495,-0.08710499757404964,0.019538974500215217
16,16,15035.186432911429,842.2756661157072,5.095930801728113,15149.213599620274,-4391.888915441851,5.575835959764148,15176.762507427951,47476.84274979465,8.595769701627814,15271.123304500716,-886.6015313007857,12.739827004320285,15422.23279929669,5205.967772107556,31.108384923616526,0.9925834716601292,109.0,103.0,133.0,181.0,314.0,6.0,756.0,730.0,6.0,3.0,3.0,0.5,141.17974676072382,1348.5933466254703,14.0,8.0,6.0,0.5714285714285714,852.4585378210564,4188.77170707308,21.0,11.0,10.0,0.5238095238095238,2446.1930332758484,45942.92624102335,12.0,8.0,4.0,0.6666666666666666,181.1330135013631,858.1770776341276,86.0,41.0,45.0,0.4767441860465116,122.90508412163533,5165.953443792988,0.0,0.0,0.0,0.0,15032.0,15038.0,15141.0,15155.0,15166.0,15187.0,15264.0,15274.0,15394.0,15455.0,0.16761703138332068,-0.19409838323182949,0.051523919696332986,-0.20430036166936472,0.0236084988424504
17,17,15741.150678199714,1503.5972254690837,2.968410137172764,15854.452034599171,-4583.6049427289045,7.773323693283188,15884.310474443291,47879.696247264335,8.376715162457101,15971.24660900144,-2177.278241268587,25.47965400864057,16126.983290670574,5063.167957129997,20.383723206912453,0.9724241693751272,107.0,102.0,133.0,168.0,301.0,5.0,706.0,708.0,8.0,5.0,3.0,0.625,274.08929495938304,858.1473588862277,21.0,12.0,9.0,0.5714285714285714,638.126107461323,1733.719287095083,21.0,10.0,11.0,0.4761904761904761,2533.0658619406445,47714.40770718571,27.0,14.0,13.0,0.5185185185185185,309.9326206765744,1502.494071587343,55.0,25.0,30.0,0.4545454545454545,310.11930557291697,4307.997429958629,0.0,0.0,0.0,0.0,15739.0,15744.0,15846.0,15863.0,15874.0,15895.0,15957.0,15979.0,16122.0,16147.0,0.1822890401210166,-0.1392192641893363,0.0529048022539486,-0.14234865108282752,0.061250052970532855
18,18,16303.465596845248,4381.624024564017,1.717856226377259,16547.123304361812,-2345.477889028775,4.652567169700464,16576.087933032264,49059.36308212518,8.848329085559474,16658.838741163592,-1045.6362239568411,1.043791883727741,16817.03256898947,5726.732603631792,41.97669305553828,0.9698946565143206,239.0,234.0,121.0,198.0,319.0,5.0,562.0,692.0,5.0,2.0,3.0,0.4,668.3223099232423,4336.812129547188,15.0,7.0,8.0,0.4666666666666667,841.7625448144437,6450.855452791141,22.0,11.0,11.0,0.5,2487.213342505663,48658.48953298182,4.0,2.0,2.0,0.5,324.20077698691034,1058.9785420343628,76.0,33.0,43.0,0.4342105263157895,292.8275042933853,7171.478533640717,0.0,0.0,0.0,0.0,16301.0,16306.0,16540.0,16554.0,16565.0,16587.0,16657.0,16661.0,16785.0,16859.0,0.15252844748352,-0.3588874355848241,0.0506980357315703,-0.31005121050616147,0.051133434116983095
19,19,17142.54796540086,1902.5348471731868,14.09033212607439,17270.69864360057,-3145.123588111107,7.3967550301038205,17302.347710977047,45602.05648720877,8.638918587400083,17395.30135639943,-845.9401777499072,10.191861603456228,17547.525867028475,5091.945000950096,32.81191660261028,0.9933499953582904,131.0,119.0,136.0,187.0,323.0,12.0,836.0,726.0,29.0,9.0,20.0,0.3103448275862069,172.79584581049832,2350.1917543902096,16.0,6.0,10.0,0.375,489.6942001356103,1221.8880259439115,22.0,11.0,11.0,0.5,2325.8406218841887,45667.04904096742,30.0,21.0,9.0,0.7,100.31985686551548,468.6725040284973,85.0,43.0,42.0,0.5058823529411764,97.0321056531259,5047.74622166707,0.0,0.0,0.0,0.0,17134.0,17146.0,17265.0,17280.0,17291.0,17313.0,17375.0,17401.0,17505.0,17588.0,0.09082401095950533,-0.15569950954763911,0.05100297664287529,-0.11858977680000196,0.019056000336810562
20,20,17727.849321800284,183.9012516006263,1.6166475550251995,18066.154052418275,-4036.0827274454327,5.122219526453103,18092.95994064036,43899.3498138929,8.730022414867996,18158.314920393663,-2023.684088424997,112.11047763801852,18337.44593180124,4742.605142075085,28.97822032089478,0.9925991304632428,331.0,322.0,207.0,110.0,317.0,9.0,587.0,790.0,9.0,3.0,6.0,0.3333333333333333,80.30879194886096,45.41429839575284,16.0,10.0,6.0,0.625,838.1912944363401,3725.5035510311063,20.0,10.0,10.0,0.5,2290.158271837046,42330.91270175384,136.0,26.0,110.0,0.1911764705882352,51.78791254698989,2020.963393876948,71.0,33.0,38.0,0.4647887323943662,53.7657223024158,4296.311868356692,0.0,0.0,0.0,0.0,17725.0,17734.0,18056.0,18072.0,18083.0,18103.0,18133.0,18263.0,18307.0,18373.0,0.43669518967312704,-0.20767445838922594,0.05216838703866807,-0.025590907614090913,0.011336748620588534
21,21,18723.849321800284,540.7879702933442,2.8893577823455607,18862.289311297427,-4736.225077196827,5.823789897868972,18889.258014476854,42623.52324878869,8.581495229505423,18977.6165225036,-774.8301795659233,63.69913502155924,19136.109923333017,5178.807053611489,31.601483728511543,0.9945971100819174,133.0,127.0,189.0,132.0,321.0,6.0,996.0,797.0,6.0,3.0,3.0,0.5,69.60380214724835,1031.5971116843002,14.0,8.0,6.0,0.5714285714285714,820.5029516096776,3866.1929969065977,21.0,10.0,11.0,0.4761904761904761,2293.5050375896317,43130.231926993045,121.0,45.0,76.0,0.371900826446281,40.81056881674883,816.5692672733658,79.0,39.0,40.0,0.4936708860759494,53.38689462381026,5059.426850765644,0.0,0.0,0.0,0.0,18721.0,18727.0,18854.0,18868.0,18879.0,18900.0,18942.0,19043.0,19099.0,19175.0,0.1287081184692266,-0.1732398562644533,0.05380843400022804,-0.052670339763497324,0.010308724397558007
22,22,19304.28030648103,90.95470240920322,5.095930801728113,19633.30237715143,-4173.271020440681,5.0420469655453415,19659.87599177032,42582.97933510787,8.620544632844503,19736.671024191073,-1376.1322737928815,157.9738548535715,19907.004587432213,5470.867091424759,34.3711051842815,0.9936453638184264,323.0,318.0,205.0,116.0,321.0,5.0,581.0,771.0,5.0,3.0,2.0,0.6,22.567120906229636,98.10030695193376,14.0,9.0,5.0,0.6428571428571429,838.6663722891202,3918.09679444512,22.0,11.0,11.0,0.5,2261.7249724714484,40693.46379289949,131.0,37.0,94.0,0.2824427480916031,33.86660524873303,1110.3191710094864,75.0,36.0,39.0,0.48,40.505490119142614,4882.522710457913,0.0,0.0,0.0,0.0,19301.0,19306.0,19624.0,19638.0,19649.0,19671.0,19701.0,19829.0,19871.0,19945.0,0.24811384467732797,-0.20096139651159303,0.05311335673985478,-0.024609992726491507,0.00740385197487843
23,23,20055.397553987143,115.4200382294158,3.1822260256713446,20377.355121705416,-4312.759619993066,5.478359636139653,20403.791393127292,42365.54725220268,8.640827984367727,20470.46559859338,-1725.7920488910793,117.20640843974662,20651.10881106219,5120.443719767592,31.724039569292223,0.9936702080887728,316.0,309.0,207.0,115.0,322.0,7.0,751.0,743.0,7.0,3.0,4.0,0.4285714285714285,20.970954931869944,160.9629157563421,15.0,9.0,6.0,0.6,844.2357825948783,3629.826667400967,22.0,11.0,11.0,0.5,2238.9153994616395,39740.06536221842,133.0,27.0,106.0,0.2030075187969924,34.71185979105041,1796.4914409877,76.0,35.0,41.0,0.4605263157894737,48.21116136905109,4456.192264750784,0.0,0.0,0.0,0.0,20052.0,20059.0,20368.0,20383.0,20393.0,20415.0,20444.0,20575.0,20618.0,20690.0,0.1816924968451909,-0.19575303447963457,0.052847550537547534,-0.020113581942479558,0.00941542647621158
24,24,20967.54796540086,1649.8478887345411,10.9644964533863,21096.67872722739,-4319.933274948091,5.357729601790872,21123.336335376127,42343.26031663194,8.601590018596896,21190.040937693237,-1905.1267006760377,119.75437384061068,21370.160391921017,5041.988496586846,32.025020395087736,0.9932918239830166,128.0,107.0,208.0,113.0,321.0,21.0,910.0,720.0,22.0,9.0,13.0,0.4090909090909091,93.74460756230012,1547.2544647919756,15.0,10.0,5.0,0.6666666666666666,880.4597497356403,3912.911488553632,21.0,10.0,11.0,0.4761904761904761,2271.715683460726,40935.422127955535,133.0,27.0,106.0,0.2030075187969924,35.57917162758249,2137.953016854663,75.0,36.0,39.0,0.48,46.74145439578121,4533.196016434006,0.0,0.0,0.0,0.0,20959.0,20980.0,21087.0,21102.0,21113.0,21134.0,21163.0,21295.0,21337.0,21408.0,0.05682015184697038,-0.20381327527477147,0.05364999450853392,-0.018675488414999986,0.009270440507236907
25,25,21650.972626301005,1561.8529694288502,8.33280725014533,21780.31187114782,-4860.28648271153,5.512374251050242,21806.612986057004,42508.98718097427,8.571087995824906,21872.040937693237,-2418.96088506113,119.75437384061068,22050.770426880707,4740.422627203758,31.340167699467283,0.98783241067099,129.0,114.0,204.0,115.0,319.0,15.0,683.0,683.0,15.0,10.0,5.0,0.6666666666666666,103.65870133184744,1228.26815371562,16.0,10.0,6.0,0.625,885.1941691594118,2731.724664089611,21.0,11.0,10.0,0.5238095238095238,2283.291321550657,38743.448269472094,132.0,28.0,104.0,0.2121212121212121,37.40944807090136,2489.638312048417,73.0,33.0,40.0,0.4520547945205479,49.84798265153889,4085.909537784457,0.0,0.0,0.0,0.0,21641.0,21656.0,21770.0,21786.0,21796.0,21817.0,21845.0,21974.0,22021.0,22089.0,0.06636905224808332,-0.18212798202495387,0.05371314333672454,-0.015465090114491861,0.010515514453390166
26,26,0.0,0.0,0.0,0.0,0.0,0.0,0.0,0.0,0.0,0.0,0.0,0.0,0.0,0.0,0.0,0.0,0.0,0.0,0.0,0.0,0.0,0.0,0.0,0.0,0.0,0.0,0.0,0.0,0.0,0.0,0.0,0.0,0.0,0.0,0.0,0.0,0.0,0.0,0.0,0.0,0.0,0.0,0.0,0.0,0.0,0.0,0.0,0.0,0.0,0.0,0.0,0.0,0.0,0.0,0.0,0.0,0.0,0.0,,22102.0,22445.0,22464.0,22474.0,22495.0,22504.0,22662.0,22709.0,22762.0,,,,,
27,27,23007.972626301005,1525.3720462715132,10.24941895223844,23136.076411486763,-4732.039094048281,5.84903039779475,23163.812158879788,42222.08408841881,8.582198514917396,23236.342539803165,-1456.5017817852777,56.055238819009254,23410.90933812862,3857.639627062018,27.88688985971109,0.992566526830269,130.0,104.0,191.0,126.0,317.0,26.0,1357.0,1357.0,29.0,12.0,17.0,0.4137931034482758,91.37009145279444,1698.9447698624358,14.0,8.0,6.0,0.5714285714285714,781.7272526678622,3029.1002742076616,22.0,11.0,11.0,0.5,2239.2756994009387,40731.64420583761,127.0,33.0,94.0,0.2598425196850393,46.43599043938986,1201.575264959463,72.0,37.0,35.0,0.5138888888888888,41.817105789076805,3607.001886731835,0.0,0.0,0.0,0.0,22998.0,23024.0,23128.0,23142.0,23153.0,23175.0,23205.0,23319.0,23375.0,23445.0,0.059900200528868706,-0.1651988153798389,0.05303565060198331,-0.03188186311895334,0.010840075754023907
28,28,25914.45203459914,1052.9664757531468,15.28779240518434,26036.402088839877,-4340.685009662387,4.975187579023408,26062.96612455685,42687.14262857648,8.610038634817148,26140.981065903332,-199.07909849699607,8.286147581184752,26310.48777389198,4676.488193760483,35.6453049998833,0.9960017208742792,119.0,105.0,120.0,202.0,322.0,14.0,2912.0,2899.0,18.0,4.0,14.0,0.2222222222222222,81.4972948012805,920.1714252815152,11.0,6.0,5.0,0.5454545454545454,849.5412194688648,4533.252946321373,22.0,11.0,11.0,0.5,2256.360512205685,42310.82000526247,12.0,3.0,9.0,0.25,27.59582872873823,133.34018100431115,85.0,43.0,42.0,0.5058823529411764,31.336805000980835,4759.065954363558,0.0,0.0,0.0,0.0,25911.0,25925.0,26030.0,26041.0,26052.0,26074.0,26138.0,26150.0,26268.0,26352.0,0.07739780579717753,-0.1957159336781595,0.05285808262779311,-0.13861740854304014,0.006700926785785834
29,29,26672.270572299338,450.4340517032164,3.3605613757223347,26791.40712380396,-4159.102981144951,5.188390309981428,26818.074625216745,42155.06207574232,8.568975838319847,26884.040937693237,-1723.176461649672,119.75437384061068,27063.878899983967,5021.7103919821,32.329800963706475,0.993676583576662,112.0,108.0,203.0,116.0,319.0,4.0,755.0,756.0,4.0,2.0,2.0,0.5,58.18473959763499,37.03566849408139,15.0,9.0,6.0,0.6,812.3241262374715,3402.752014094269,21.0,10.0,11.0,0.4761904761904761,2258.9255831247287,40338.626420329296,129.0,27.0,102.0,0.2093023255813953,36.80513536736022,1943.713759205653,74.0,35.0,39.0,0.4729729729729729,42.366227508090894,4588.284888777412,0.0,0.0,0.0,0.0,26670.0,26674.0,26782.0,26797.0,26808.0,26829.0,26857.0,26985.0,27032.0,27101.0,0.12917482454450835,-0.19531233776131424,0.05358610501073378,-0.021358889345624566,0.008436613066284111
30,30,0.0,0.0,0.0,0.0,0.0,0.0,0.0,0.0,0.0,0.0,0.0,0.0,0.0,0.0,0.0,0.0,0.0,0.0,0.0,0.0,0.0,0.0,0.0,0.0,0.0,0.0,0.0,0.0,0.0,0.0,0.0,0.0,0.0,0.0,0.0,0.0,0.0,0.0,0.0,0.0,0.0,0.0,0.0,0.0,0.0,0.0,0.0,0.0,0.0,0.0,0.0,0.0,0.0,0.0,0.0,0.0,0.0,0.0,,27084.0,27426.0,27546.0,27555.0,27575.0,27583.0,27769.0,27814.0,27824.0,,,,,
31,31,0.0,0.0,0.0,0.0,0.0,0.0,0.0,0.0,0.0,0.0,0.0,0.0,0.0,0.0,0.0,0.0,0.0,0.0,0.0,0.0,0.0,0.0,0.0,0.0,0.0,0.0,0.0,0.0,0.0,0.0,0.0,0.0,0.0,0.0,0.0,0.0,0.0,0.0,0.0,0.0,0.0,0.0,0.0,0.0,0.0,0.0,0.0,0.0,0.0,0.0,0.0,0.0,0.0,0.0,0.0,0.0,0.0,0.0,,,,,,,,,,,,,,,
32,32,28909.72119029093,545.0917435531869,12.649306513518878,29028.65281878323,-4768.093856100305,5.777419653339829,29055.122190708375,41474.97279605477,8.63971042988385,29077.72601729957,-2334.644990125618,5.290404516997026,29304.63693738007,4847.985299140679,30.82998580612698,0.9949739616579132,115.0,101.0,63.0,257.0,320.0,14.0,2238.0,2237.0,14.0,5.0,9.0,0.3571428571428571,61.03851179413182,811.4607621231708,14.0,9.0,5.0,0.6428571428571429,899.0850497961161,5090.6959365336725,21.0,10.0,11.0,0.4761904761904761,2272.733321163563,41372.737133235656,7.0,2.0,5.0,0.2857142857142857,1111.5641353843953,15843.929056110235,80.0,42.0,38.0,0.525,51.34227678224306,4790.729702309169,0.0,0.0,0.0,0.0,28905.0,28919.0,29020.0,29034.0,29045.0,29066.0,29076.0,29083.0,29267.0,29340.0,0.11197841925884176,-0.18856278356304282,0.054797704927723366,-0.47611698570264704,0.010590435740666055
33,33,29616.813662143737,1798.7114483991188,16.190212939749372,29743.276998059515,-4691.300864253224,5.431115239554537,29770.07214100155,42216.17528561846,8.552682698147155,29839.69864360057,-357.3236310151847,10.191861602917063,30018.69864942045,4762.361417769714,34.53488608530876,0.9955091135174504,134.0,103.0,108.0,215.0,323.0,31.0,703.0,715.0,33.0,17.0,16.0,0.5151515151515151,79.63194816132194,1655.5965489052253,13.0,8.0,5.0,0.6153846153846154,834.9346115670504,4225.493815309659,21.0,10.0,11.0,0.4761904761904761,2272.992001762184,42220.67949068742,10.0,6.0,4.0,0.6,44.80919642495828,678.729148169504,81.0,42.0,39.0,0.5185185185185185,35.542758397168534,4849.876460953485,0.0,0.0,0.0,0.0,29601.0,29632.0,29735.0,29748.0,29760.0,29781.0,29834.0,29843.0,29977.0,30058.0,0.04427166360240583,-0.17797507252819478,0.05384173214138872,-0.12540227551604077,0.0074632635533599945
34,34,30319.972626301005,1410.7509368477529,8.592910722139878,30448.212337692796,-5288.767424607132,6.999644212666971,30475.314324753705,40780.62471605676,8.686809123808068,30496.72601729957,-3698.668725153166,5.762525014798041,30723.74284047293,4569.185006414894,27.869575512757216,0.9890340451158468,129.0,105.0,65.0,256.0,321.0,24.0,704.0,705.0,24.0,10.0,14.0,0.4166666666666667,78.72796288449261,1432.3484861490315,15.0,9.0,6.0,0.6,817.8640104461997,3180.698220610104,21.0,10.0,11.0,0.4761904761904761,2295.764869327501,41122.58057234985,10.0,2.0,8.0,0.2,1213.0485749210486,18028.02183755992,75.0,38.0,37.0,0.5066666666666667,49.199115403525504,4283.524276904127,0.0,0.0,0.0,0.0,30310.0,30334.0,30439.0,30454.0,30465.0,30486.0,30495.0,30504.0,30687.0,30760.0,0.055805713700538814,-0.1546417047270619,0.056295480643374696,-0.3279689707465799,0.010767591011187455
35,35,31016.972626301005,1552.2520012797825,9.985200028576417,31146.66690597142,-5251.932406376959,6.757685373603784,31173.704894807823,40952.966892722456,8.607964573015728,31195.72601729957,-3242.654281809775,5.849371537691814,31421.95884001952,4604.148217000529,28.337888226052392,0.9904868675846312,131.0,106.0,65.0,254.0,319.0,25.0,697.0,698.0,27.0,11.0,16.0,0.4074074074074074,91.31557445367484,1726.0599658778249,14.0,9.0,5.0,0.6428571428571429,860.694400882508,3788.4201589733902,21.0,11.0,10.0,0.5238095238095238,2282.68175954028,39810.690616353335,9.0,2.0,7.0,0.2222222222222222,1160.3703793864076,17232.715720825112,72.0,37.0,35.0,0.5138888888888888,41.40373298157984,4552.237848813911,0.0,0.0,0.0,0.0,31007.0,31032.0,31138.0,31152.0,31163.0,31184.0,31194.0,31203.0,31385.0,31457.0,0.05882780268821561,-0.16388146957821517,0.05573910592411618,-0.3578458505107079,0.008992702022211002
36,36,32435.241315149815,1635.5864451515183,10.522184643245888,32565.231061611717,-5188.992782965716,6.246570971485382,32591.85790149894,41213.27090942081,8.634567173126067,32613.72601729957,-2996.7424307599576,5.490879243335099,32840.14979211085,4888.13889948847,30.724535955621615,0.9921197693982408,133.0,109.0,63.0,257.0,320.0,24.0,1419.0,1418.0,25.0,12.0,13.0,0.48,85.7860337483678,1733.0881847467226,14.0,8.0,6.0,0.5714285714285714,858.254065696296,3747.1131283782142,22.0,11.0,11.0,0.5,2285.5817995311445,40403.66140965498,8.0,2.0,6.0,0.25,1170.6954909088763,17093.678962629907,76.0,39.0,37.0,0.5131578947368421,42.38085564609786,4780.041947491904,0.0,0.0,0.0,0.0,32424.0,32448.0,32557.0,32571.0,32581.0,32603.0,32612.0,32620.0,32801.0,32877.0,0.05244970940097312,-0.16539897078171875,0.0554574230362456,-0.39065602665491483,0.00867014144187533
37,37,33145.821948101286,1619.3449532910174,11.590927369017804,33276.01435110527,-5051.219558910889,6.580039635828065,33302.67247122868,41193.95981651514,8.646417918833157,33324.726017299574,-3003.936992903966,5.656204050675194,33551.31052758425,4861.942691500161,30.358344672962108,0.9906650077439196,134.0,106.0,65.0,257.0,322.0,28.0,709.0,711.0,29.0,14.0,15.0,0.4827586206896552,80.10465236172426,1579.2892446344188,14.0,9.0,5.0,0.6428571428571429,862.3986064278193,4135.925855189638,21.0,11.0,10.0,0.5238095238095238,2289.1112635317972,39999.03335387157,9.0,2.0,7.0,0.2222222222222222,1159.490582270996,16949.956640649492,77.0,39.0,38.0,0.5064935064935064,35.26802075518708,4839.198596678467,0.0,0.0,0.0,0.0,33133.0,33161.0,33267.0,33281.0,33292.0,33313.0,33323.0,33332.0,33513.0,33589.0,0.049467318373967485,-0.17073077033574127,0.055569099783751935,-0.38599031371496684,0.007253894789184582
38,38,33854.972626301,1411.8350144768776,8.620269916524167,33985.68275763043,-5396.84518963901,7.407059415120861,34012.7696402171,40961.41154694121,8.681358974503986,34034.726017299574,-3505.703206763322,6.001179991051816,34261.7757135527,4532.304464427711,28.441189237317435,0.9885485834260318,132.0,109.0,65.0,255.0,320.0,23.0,710.0,710.0,26.0,12.0,14.0,0.4615384615384615,87.1931444507223,1393.663421252036,15.0,9.0,6.0,0.6,866.1196707808424,3671.1014765937857,21.0,11.0,10.0,0.5238095238095238,2286.7261568704757,39906.426414454494,9.0,2.0,7.0,0.2222222222222222,1178.7727527107056,17632.46082596352,73.0,38.0,35.0,0.5205479452054794,45.376336786034045,4520.442585007072,0.0,0.0,0.0,0.0,33845.0,33868.0,33977.0,33992.0,34002.0,34023.0,34033.0,34042.0,34224.0,34297.0,0.061758734948948464,-0.16048629159191732,0.05582635144909298,-0.3362443091122423,0.01001175828812367
39,39,34557.77367710081,1314.722438613043,8.432175996997184,34688.31013057387,-5495.711321742335,7.115155442186148,34715.20671380016,40912.10575698192,8.651509390401532,34737.30135639943,-3571.0400800383813,6.343394378940886,34963.730880489005,4440.08264629232,27.68788194853346,0.987921991360027,133.0,111.0,66.0,253.0,319.0,22.0,703.0,703.0,24.0,12.0,12.0,0.5,80.49577884503921,1257.2961769642984,14.0,8.0,6.0,0.5714285714285714,831.5780522398068,3150.2099890254412,21.0,10.0,11.0,0.4761904761904761,2312.989507979091,41064.00300240454,11.0,2.0,9.0,0.1818181818181818,1201.574056608257,17977.130793058088,74.0,39.0,35.0,0.527027027027027,44.655502313627494,4405.1064468776085,0.0,0.0,0.0,0.0,34547.0,34569.0,34680.0,34694.0,34705.0,34726.0,34735.0,34746.0,34925.0,34999.0,0.06122644330156687,-0.15131399805333426,0.05653557706655967,-0.33647733704387395,0.010057358358164114
40,40,35257.39728720114,1536.2240586482196,9.487091387964693,35386.22356097654,-5337.119532880911,7.190815231074284,35413.24641040368,40871.778820679414,8.67617713744284,35435.30135639943,-3467.0667537122663,6.081687680303213,35661.001177416976,4466.886199340507,27.98469052827609,0.988632975698458,131.0,106.0,66.0,253.0,319.0,25.0,699.0,698.0,26.0,12.0,14.0,0.4615384615384615,95.70440338203396,1584.997987195111,15.0,9.0,6.0,0.6,829.8690523399093,3258.7131501592485,21.0,10.0,11.0,0.4761904761904761,2304.0649386741766,41145.646159069394,10.0,2.0,8.0,0.2,1205.2378064659429,17837.73307876296,75.0,39.0,36.0,0.52,40.976411142135746,4342.486676175657,0.0,0.0,0.0,0.0,35246.0,35271.0,35377.0,35392.0,35403.0,35424.0,35433.0,35443.0,35624.0,35696.0,0.06229846671340885,-0.15549006298758242,0.05637300369976596,-0.347624632602031,0.009173372526970917
41,41,35959.39728720114,1420.8783569647908,9.365255603040575,36089.881346195,-5376.538556498889,7.810167159671232,36116.78220269232,40710.12306453123,8.707677114081442,36138.726017299574,-3583.094931690456,6.3518306576529895,36365.83833583454,4441.699443668501,27.66204771284055,0.9865238503044562,133.0,109.0,66.0,253.0,319.0,24.0,702.0,703.0,26.0,11.0,15.0,0.4230769230769231,76.18969325975534,1668.6844669073596,15.0,9.0,6.0,0.6,854.0466937610431,3592.137053479759,21.0,11.0,10.0,0.5238095238095238,2280.027560107445,39855.38942946256,10.0,2.0,8.0,0.2,1174.3006416613273,17666.92883183116,71.0,37.0,34.0,0.5211267605633803,41.43984277273382,4399.8002751115,0.0,0.0,0.0,0.0,35948.0,35972.0,36081.0,36096.0,36106.0,36127.0,36137.0,36147.0,36329.0,36400.0,0.05362154535347273,-0.15884693930609212,0.0560064030387057,-0.3277336113188907,0.009329726898069381
42,42,36689.45203460034,482.78393761804904,10.607177020759943,36810.56449980402,-5008.032165264724,6.212629566893,36836.952922229546,41236.843010776094,8.649530439847943,36858.726017299574,-2894.202355989144,5.26926463574591,37084.964187945625,4908.215255661997,30.4883719966422,0.9928393464741196,116.0,103.0,63.0,259.0,322.0,13.0,736.0,721.0,14.0,4.0,10.0,0.2857142857142857,53.774021940435865,487.96539069503626,14.0,9.0,5.0,0.6428571428571429,918.9832004571108,5007.528889314531,22.0,11.0,11.0,0.5,2277.645402640203,40818.9078393696,8.0,2.0,6.0,0.25,1176.0729494443897,16887.82083726039,78.0,39.0,39.0,0.5,40.07303262690436,4931.7844455700715,0.0,0.0,0.0,0.0,36686.0,36699.0,36802.0,36816.0,36826.0,36848.0,36857.0,36865.0,37046.0,37124.0,0.11138320426678898,-0.18350185664363308,0.055233263177906326,-0.4063547757850008,0.00816448149470973
43,43,37086.40995038945,1053.5471989367868,9.358616373580505,37532.027373699,-8081.061284987717,17.8357578060484,37560.89433321731,40360.42965593183,8.834478863748325,37586.12330450071,-6603.790993605891,12.739827004320285,37813.45203459914,1056.4387680752577,8.397844743594513,0.882471806307727,368.0,338.0,317.0,66.0,383.0,30.0,394.0,724.0,30.0,15.0,15.0,0.5,38.72478154040879,1028.8855206136473,107.0,97.0,10.0,0.9065420560747663,676.2941896008944,1932.5966527804003,20.0,10.0,10.0,0.5,2272.6417126033207,36979.99200159417,178.0,7.0,171.0,0.0393258426966292,867.5621665463624,16279.876595476,23.0,14.0,9.0,0.6086956521739131,48.70268349754321,914.3377833242066,0.0,0.0,0.0,0.0,37071.0,37101.0,37439.0,37542.0,37551.0,37571.0,37579.0,37756.0,37799.0,37822.0,0.03675657016552164,-0.0836887836573216,0.056308660040969294,-0.1313733531824944,0.0461008105432134
44,44,37962.15067819976,244.41324780427425,5.095930801728038,38264.32422565917,-4888.607175417473,6.037685733796464,38291.18325485768,41974.12395761448,8.486831426678307,38365.34253980316,-1408.3646734846582,56.055238819009254,38538.831879555655,4809.592728698243,29.432297657674926,0.9922916337974358,295.0,289.0,188.0,132.0,320.0,6.0,877.0,730.0,9.0,2.0,7.0,0.2222222222222222,33.07458318368117,180.080285559108,14.0,8.0,6.0,0.5714285714285714,820.6481176151867,3600.0409153299015,21.0,10.0,11.0,0.4761904761904761,2292.9451329527947,41360.92480250313,128.0,33.0,95.0,0.2578125,46.2852390141255,1310.231878452293,75.0,38.0,37.0,0.5066666666666667,43.98761929209486,4655.241762390887,0.0,0.0,0.0,0.0,37961.0,37967.0,38256.0,38270.0,38281.0,38302.0,38334.0,38444.0,38501.0,38576.0,0.13532238322108975,-0.16786951541982012,0.05462758758868234,-0.032864527125353024,0.009145809587915043
45,45,38873.87669549929,595.3332539409405,11.338943507849171,38996.98867156517,-4595.556106152078,5.597202592723025,39023.12883338501,41786.58202298449,8.646028796738038,39046.15067819971,-2027.429121185877,4.997456272304773,39271.12930813061,5112.515422431092,32.32575310606141,0.9946988999668904,118.0,106.0,60.0,261.0,321.0,12.0,913.0,732.0,29.0,19.0,10.0,0.6551724137931034,54.113005799009144,426.9375333069756,13.0,8.0,5.0,0.6153846153846154,895.3135862196096,5418.233389446784,21.0,10.0,11.0,0.4761904761904761,2285.739596085562,41767.848354402304,5.0,2.0,3.0,0.4,1123.7860633135265,15807.09505861312,80.0,41.0,39.0,0.5125,62.46551639754298,5009.744105885825,0.0,0.0,0.0,0.0,38871.0,38883.0,38989.0,39002.0,39013.0,39034.0,39044.0,39049.0,39230.0,39310.0,0.09089531861490367,-0.19482159841788285,0.054700324492400525,-0.5542911717950492,0.012218157058945266
46,46,39608.077234463504,685.584418051658,12.57190527824823,39726.29958914753,-4911.2980349205745,5.272871820026112,39753.24441579843,43068.46609417099,8.592172808092265,39839.6986435993,-722.6614553548457,10.191861603456228,40001.79467582692,4656.8691520661705,31.69920775991718,0.9945336938129096,122.0,102.0,124.0,199.0,323.0,20.0,733.0,730.0,21.0,13.0,8.0,0.6190476190476191,54.73062664544917,953.6947923172062,13.0,8.0,5.0,0.6153846153846154,858.074907336628,4137.579463448651,21.0,10.0,11.0,0.4761904761904761,2317.8904711443233,43646.264757734825,34.0,32.0,2.0,0.9411764705882352,65.51215735785058,876.6912683254541,79.0,40.0,39.0,0.5063291139240507,52.94788668693742,4791.738919753963,0.0,0.0,0.0,0.0,39596.0,39616.0,39718.0,39731.0,39743.0,39764.0,39829.0,39842.0,39962.0,40041.0,0.07983061633895723,-0.17471448509854173,0.053818737497550055,-0.0906540080039033,0.01136984634052803
47,47,40329.08757118033,1325.2689000850614,18.357339273645067,40453.19310528978,-4337.497423506858,4.925359007611209,40480.295569932045,42942.178643821106,8.612699388261433,40574.191861603445,-417.3860142864896,25.557775365379825,40726.86929078396,4949.5286038324375,33.70723781469691,0.9954679354426988,140.0,102.0,163.0,158.0,321.0,38.0,714.0,727.0,53.0,24.0,29.0,0.4528301886792453,58.0743335490631,1049.8000862194333,12.0,7.0,5.0,0.5833333333333334,818.0673910792221,4502.274529251923,21.0,10.0,11.0,0.4761904761904761,2284.558250448145,43206.22878194021,73.0,37.0,36.0,0.5068493150684932,25.60505716304899,337.76737143317735,82.0,41.0,41.0,0.5,41.062330310075566,4860.147726013713,0.0,0.0,0.0,0.0,40306.0,40344.0,40446.0,40458.0,40470.0,40491.0,40540.0,40609.0,40687.0,40767.0,0.043820792554126665,-0.18860354513313263,0.053200799833588955,-0.061346226961677575,0.00829621032562189
48,48,40908.54796540086,421.09247663991414,15.28779240518434,41183.494929539454,-4764.925609057831,5.994630063213948,41210.531073794395,40924.842453138626,8.682465742939554,41232.15067819971,-2776.911724307763,5.034179208900018,41458.00671471516,5029.958357970492,30.50531975181035,0.9934483365537696,281.0,263.0,63.0,257.0,320.0,18.0,583.0,730.0,79.0,31.0,48.0,0.3924050632911392,27.392390799501676,299.55829877807554,14.0,8.0,6.0,0.5714285714285714,791.4522679470738,3648.563136318627,21.0,11.0,10.0,0.5238095238095238,2231.1640373463624,39260.29806034338,7.0,1.0,6.0,0.1428571428571428,1205.4584432994102,17111.71688395137,75.0,38.0,37.0,0.5066666666666667,46.93579726047919,4853.40341721136,0.0,0.0,0.0,0.0,40894.0,40912.0,41175.0,41189.0,41200.0,41221.0,41231.0,41238.0,41420.0,41495.0,0.06505077226284796,-0.16609960634906273,0.05451857364878503,-0.4341003830793039,0.00933124966851953
49,49,41799.724645580725,431.94110579790737,2.9910725167888503,41918.64957599023,-4712.78181203072,6.25405051472386,41945.496602962434,41284.374140630185,8.661874588447827,41967.726017299574,-2703.6854856613863,5.38927856348332,42193.658804982384,4996.962186446859,30.09199767781999,0.9927957790142838,114.0,107.0,63.0,257.0,320.0,7.0,893.0,735.0,8.0,4.0,4.0,0.5,54.28192729076796,254.82031783412572,14.0,9.0,5.0,0.6428571428571429,852.7117811337677,4920.501867370029,21.0,10.0,11.0,0.4761904761904761,2284.8709389767614,41949.50814707667,7.0,2.0,5.0,0.2857142857142857,1147.401982064676,16674.45794369854,76.0,39.0,37.0,0.5131578947368421,35.36423034981623,4795.880238223363,0.0,0.0,0.0,0.0,41796.0,41803.0,41910.0,41924.0,41935.0,41956.0,41966.0,41973.0,42155.0,42230.0,0.12566974192117036,-0.18093597691218752,0.05534469121885262,-0.42438441458881226,0.007077145879897548
50,50,42537.84932180029,413.35665897895075,3.0207466289948486,42655.833435329,-4919.036217218238,6.274963639209141,42682.638822511915,41206.90313535767,8.647191294214055,42704.726017299574,-2931.504979806955,5.3453213620599405,42931.509243245266,4861.590795997588,29.565153367723244,0.992042290533962,112.0,104.0,64.0,257.0,321.0,8.0,738.0,737.0,9.0,4.0,5.0,0.4444444444444444,45.95235306922528,359.1951436281795,14.0,9.0,5.0,0.6428571428571429,862.8366001282392,4321.184066055079,21.0,11.0,10.0,0.5238095238095238,2264.092480231014,39744.62653024575,8.0,2.0,6.0,0.25,1173.5116295452797,16907.718788011818,77.0,40.0,37.0,0.5194805194805194,49.240695213982384,4675.746171027599,0.0,0.0,0.0,0.0,42535.0,42543.0,42647.0,42661.0,42672.0,42693.0,42703.0,42711.0,42893.0,42968.0,0.11116877415918272,-0.17540765345618486,0.05494449492585879,-0.40031029714387784,0.010128514982075593
51,51,43274.72664537249,494.8844833043985,5.0707645895699205,43390.73307419026,-4303.245115223883,5.524572852758111,43417.576490748594,42414.41586709527,8.564428378203113,43488.4108511954,-994.4069494392955,81.53489282764981,43665.22206012714,5044.433675515958,32.04148280434323,0.994364223254822,113.0,101.0,190.0,133.0,323.0,12.0,737.0,735.0,12.0,6.0,6.0,0.5,49.16166448872113,418.39547566684195,14.0,9.0,5.0,0.6428571428571429,859.4609126506723,4569.186944246065,21.0,11.0,10.0,0.5238095238095238,2271.5034030900733,39919.990796812875,123.0,28.0,95.0,0.2276422764227642,47.76221070327438,1102.0288120902906,78.0,38.0,40.0,0.4871794871794871,40.49385790960672,5078.11931348511,0.0,0.0,0.0,0.0,43269.0,43281.0,43382.0,43396.0,43407.0,43428.0,43470.0,43572.0,43628.0,43705.0,0.09933967652504126,-0.19972390362103684,0.053554984942095735,-0.04803084967397451,0.008027433903264651
52,52,43997.273982700426,446.52590815025184,7.64389620259217,44125.91835472082,-5083.78615747291,6.49369052717258,44152.661312166645,41130.073739299405,8.65904425885302,44174.726017299574,-2882.9827466655256,5.510911578281681,44401.49019585199,4997.60989867581,30.12918713843553,0.9917218588484912,126.0,118.0,64.0,257.0,321.0,8.0,722.0,735.0,8.0,6.0,2.0,0.75,60.22934187303143,625.5013441924141,14.0,9.0,5.0,0.6428571428571429,862.0814082433833,4174.00084365592,21.0,11.0,10.0,0.5238095238095238,2265.8394796032862,39803.59362492245,8.0,2.0,6.0,0.25,1153.578816677788,16776.013710812935,77.0,40.0,37.0,0.5194805194805194,41.344482537766936,4971.012476110218,0.0,0.0,0.0,0.0,43991.0,43999.0,44117.0,44131.0,44142.0,44163.0,44173.0,44181.0,44362.0,44438.0,0.1348843163939433,-0.16957467948886223,0.05508960411705505,-0.400133791300702,0.00827285109802623
53,53,44743.61375867911,394.51351451134303,7.64389620259217,44860.859473083896,-4839.072541276588,6.065714502602974,44887.490338833064,41423.00953919205,8.659838135447327,44909.726017299574,-2647.8335895776327,5.123430822344678,45136.95421286021,4989.440393188724,30.447785564455025,0.9932967313796612,113.0,102.0,61.0,261.0,322.0,11.0,747.0,735.0,13.0,5.0,8.0,0.3846153846153846,47.3614423844614,315.13355717091883,13.0,8.0,5.0,0.6153846153846154,877.8750475298816,4658.658365227895,21.0,10.0,11.0,0.4761904761904761,2291.931537216749,42175.42446917622,7.0,2.0,5.0,0.2857142857142857,1159.0236015297075,16446.65360371632,78.0,40.0,38.0,0.5128205128205128,42.0349836779651,4967.2522428769325,0.0,0.0,0.0,0.0,44740.0,44751.0,44853.0,44866.0,44877.0,44898.0,44908.0,44914.0,45098.0,45175.0,0.12005024072020647,-0.1814139052559627,0.05532991356043931,-0.43772524304089233,0.008424789227935997
54,54,45475.722900106055,655.8568041166003,12.739827004279032,45594.64637980955,-4225.065527136641,5.1744426882597585,45620.91899865489,42487.408851455504,8.597423858837589,45702.06831139223,-994.0393261736688,137.590131646659,45867.91291160029,5334.486848536582,34.25870201487399,0.9952387738015082,116.0,103.0,194.0,128.0,322.0,13.0,732.0,734.0,14.0,6.0,8.0,0.4285714285714285,51.0055096978484,397.6025013943565,14.0,9.0,5.0,0.6428571428571429,905.0915112395534,5306.677308211484,22.0,11.0,11.0,0.5,2271.905065513247,41023.83866478759,123.0,38.0,85.0,0.3089430894308943,27.784159355269836,965.2472907090096,78.0,37.0,41.0,0.4743589743589743,40.56087433459188,4995.615213843287,0.0,0.0,0.0,0.0,45470.0,45483.0,45586.0,45600.0,45610.0,45632.0,45671.0,45780.0,45832.0,45908.0,0.07776927734484627,-0.2142195204846777,0.05347243164336715,-0.02795076474712396,0.007603519417377326
55,55,46197.972626301,727.1091173631451,10.84815233488127,46324.69038047861,-4520.078489294498,5.413815500348362,46351.48600247502,42514.45017018778,8.556649800192211,46424.835512095546,-905.6080802559884,78.98692742678575,46598.42265549952,5024.577656646952,32.40164278729567,0.9944174595844752,128.0,106.0,183.0,137.0,320.0,22.0,720.0,730.0,26.0,13.0,13.0,0.5,52.535397445073734,617.2333950790969,14.0,9.0,5.0,0.6428571428571429,881.6728700410774,4616.877373311325,21.0,10.0,11.0,0.4761904761904761,2301.6237222891423,42341.20997643097,103.0,18.0,85.0,0.174757281553398,37.54548167697323,987.6762794688634,76.0,37.0,39.0,0.4868421052631579,42.600829427087774,4892.954634017776,0.0,0.0,0.0,0.0,46188.0,46210.0,46316.0,46330.0,46341.0,46362.0,46407.0,46499.0,46561.0,46636.0,0.0722524256546155,-0.19505698233543078,0.054137445340951384,-0.04145886338200543,0.008478489604142481
56,56,46921.54316135936,1048.6945745035548,7.669026625771168,47051.63233105694,-5035.3694222392605,5.428658563126587,47078.50754699041,42718.33290062927,8.618483824546917,47149.95881659676,-1110.092361184121,66.24710042246546,47325.10354937328,4051.820615908229,28.88253219760143,0.9941655742848408,130.0,116.0,183.0,137.0,320.0,14.0,724.0,727.0,22.0,10.0,12.0,0.4545454545454545,84.49036313479037,1015.703172668524,14.0,9.0,5.0,0.6428571428571429,900.8677923618768,4316.001971653466,21.0,11.0,10.0,0.5238095238095238,2283.3024507961973,40635.69373128116,95.0,16.0,79.0,0.1684210526315789,70.70579115463039,1063.6220218931544,73.0,34.0,39.0,0.4657534246575342,41.339374197445885,3936.326250989799,0.0,0.0,0.0,0.0,46913.0,46927.0,47043.0,47057.0,47068.0,47089.0,47135.0,47226.0,47291.0,47363.0,0.08056717865140817,-0.17890798406629224,0.05345017690900018,-0.06369361111467288,0.010202666434723081
57,57,47638.89233951338,2349.61151223737,43.31541181468896,47771.45116331245,-3820.2571022913176,4.632852716220812,47798.085386325605,42782.67567251435,8.611604744014922,47868.28754669468,469.34441684921535,94.2747198319701,48047.12521746552,5312.93157271083,38.29342647359612,0.991116097265949,145.0,89.0,156.0,169.0,325.0,56.0,718.0,720.0,58.0,20.0,38.0,0.3448275862068966,82.00732428165053,3472.2598328837416,11.0,6.0,5.0,0.5454545454545454,815.7659413772943,5388.429924470934,22.0,11.0,11.0,0.5,2284.880589903716,43096.473841884814,18.0,7.0,11.0,0.3888888888888889,37.79368745649312,186.47628425520145,87.0,44.0,43.0,0.5057471264367817,38.607557176572726,5479.782947792687,0.0,0.0,0.0,0.0,47620.0,47676.0,47765.0,47776.0,47787.0,47809.0,47438.0,47921.0,48003.0,48090.0,0.034902503607313666,-0.2135369216087612,0.05340667814686573,0.08052442108549672,0.007266714552635185
58,58,48370.69864360057,917.4060341420322,6.468508722255838,48500.56528858075,-4006.190042554792,5.214649399327435,48527.36470838651,42444.73683719166,8.606993244009477,48594.465598593386,-1524.7564197140453,117.20640843974662,48771.348837001155,4977.645008758915,32.07942277885041,0.9932788490844848,126.0,117.0,197.0,124.0,321.0,9.0,732.0,729.0,10.0,7.0,3.0,0.7,86.08547836697936,733.600698209457,15.0,10.0,5.0,0.6666666666666666,856.1471839521727,4619.779245545988,21.0,10.0,11.0,0.4761904761904761,2283.471521779913,41387.25164845025,128.0,27.0,101.0,0.2109375,33.33361677097029,1594.2918104761052,75.0,34.0,41.0,0.4533333333333333,40.50011995984755,4560.870717327332,0.0,0.0,0.0,0.0,48365.0,48374.0,48491.0,48506.0,48517.0,48538.0,48568.0,48688.0,48738.0,48812.0,0.0938357446574759,-0.21370608355019477,0.053798696656756045,-0.021861601197404185,0.00813640183029957
59,59,49110.87669549929,659.1408387326554,9.866209342009013,49229.41795467488,-4751.289995797821,5.595060496589208,49256.845923691646,42229.55350471622,8.748873953440105,49279.726017299574,-2117.1827682488833,4.937077010049377,49503.53781937111,5018.696850358693,35.198864198317224,0.9956780148434344,123.0,103.0,63.0,260.0,323.0,20.0,744.0,730.0,20.0,13.0,7.0,0.65,54.8439806633339,679.1314516267405,14.0,8.0,6.0,0.5714285714285714,797.1434024598105,3617.9399373136025,22.0,11.0,11.0,0.5,2256.9752532706025,41645.05545473712,6.0,2.0,4.0,0.3333333333333333,1090.4341646407515,15187.291355655052,85.0,43.0,42.0,0.5058823529411764,54.86462163232973,5114.187289428587,0.0,0.0,0.0,0.0,49098.0,49118.0,49221.0,49235.0,49246.0,49268.0,49278.0,49284.0,49464.0,49544.0,0.08320525362801617,-0.16777409991072476,0.053445397025534316,-0.5150401661084021,0.010932045363211863
60,60,49831.09593080172,1752.4038828836733,20.691894174399497,49958.08846173255,-3948.358414120296,4.9383463619476435,49985.28864524693,43398.80586770246,8.562492966243662,50055.12330450071,-316.27105231495665,8.01555976780453,50232.481718516116,4947.998809127781,35.19979170219238,0.9949877342207551,137.0,106.0,107.0,213.0,320.0,31.0,713.0,728.0,54.0,23.0,31.0,0.4259259259259259,89.26775980503152,1440.4157002779878,12.0,7.0,5.0,0.5833333333333334,796.1821583843796,4833.238636424061,21.0,10.0,11.0,0.4761904761904761,2319.2155606288584,43615.78550930839,13.0,9.0,4.0,0.6923076923076923,46.98556217814715,608.1142073920419,80.0,40.0,40.0,0.5,38.56950200019525,5032.01738955389,0.0,0.0,0.0,0.0,49814.0,49845.0,49951.0,49963.0,49975.0,49996.0,50046.0,50058.0,50192.0,50271.0,0.050940174623521545,-0.20164890693231835,0.0534396169262995,-0.14856105809948378,0.007794969944019484
61,61,50398.12330450071,232.56247826982133,12.739827004320285,50695.387247092454,-4753.664391524014,6.618154065361137,50722.889531593326,40873.72669106501,8.673514934968226,50744.726017299574,-3038.5469805693747,5.31639604494252,50970.31859638789,4796.548469598925,28.44129975648121,0.9908839257793226,296.0,277.0,64.0,256.0,320.0,19.0,570.0,738.0,20.0,8.0,12.0,0.4,33.04645431810034,268.35882604494043,15.0,9.0,6.0,0.6,754.673430561267,3323.5799066013487,22.0,11.0,11.0,0.5,2241.62424447636,40149.97512539974,8.0,2.0,6.0,0.25,1184.5898392003317,17189.51480751957,75.0,38.0,37.0,0.5066666666666667,36.89885421922593,4611.243736139961,0.0,0.0,0.0,0.0,50391.0,50410.0,50687.0,50701.0,50712.0,50734.0,50743.0,50751.0,50932.0,51007.0,0.14209710252467944,-0.15875614439817878,0.05484266852932642,-0.38985404760085646,0.00769279294332062
62,62,51322.30135639943,343.9435867701156,10.191861598101026,51441.67712741533,-4477.735217136949,6.1439307203850415,51468.57256720441,41253.73024955097,8.707701054066217,51490.15067819971,-2815.0800109523575,4.992454137266723,51716.92685953776,4719.614888124539,30.23561197416343,0.9927319539298876,116.0,105.0,62.0,258.0,320.0,11.0,928.0,745.0,12.0,5.0,7.0,0.4166666666666667,53.63762662394434,279.7596456657767,14.0,9.0,5.0,0.6428571428571429,839.3194509508182,5134.369820419145,21.0,11.0,10.0,0.5238095238095238,2244.270585097422,39574.129855938474,7.0,1.0,6.0,0.1428571428571428,1216.51287793647,17181.671535188692,76.0,39.0,37.0,0.5131578947368421,51.19637979753373,4616.564030460751,0.0,0.0,0.0,0.0,51317.0,51328.0,51433.0,51447.0,51458.0,51479.0,51489.0,51495.0,51678.0,51753.0,0.15594890757417892,-0.1874428500681817,0.05440164008251957,-0.4321414926764077,0.010847575705033412
63,63,52070.19256929344,543.4294928175109,13.832467447837352,52189.25625466984,-4720.128832370315,5.240768022401286,52216.3837439258,43702.8917414587,8.563750148225934,52286.972626301,-613.1940649183485,17.8357578060484,52463.5441465099,4698.012879713232,32.48947889293424,0.9947656215385624,121.0,104.0,115.0,204.0,319.0,17.0,745.0,748.0,17.0,10.0,7.0,0.5882352941176471,48.46398575537355,591.6183509656541,13.0,8.0,5.0,0.6153846153846154,858.7115924753325,3922.9747784820056,21.0,10.0,11.0,0.4761904761904761,2331.3329477316574,44134.70169646457,24.0,13.0,11.0,0.5416666666666666,65.47435376649118,662.1248873105645,79.0,42.0,37.0,0.5316455696202531,57.95081818125728,4452.695424060683,0.0,0.0,0.0,0.0,52060.0,52077.0,52181.0,52194.0,52206.0,52227.0,52277.0,52296.0,52423.0,52500.0,0.0891817363538792,-0.1819254564804139,0.053345050060384015,-0.10677590914910369,0.012335176523567687
64,64,52816.69864360057,1091.3975495405325,10.191861603456228,52945.31229171427,-4058.5357634734414,4.80138253325618,52972.467225275104,43184.471651411135,8.592502476539785,53057.12330450071,-521.6646540063393,12.739827004320285,53219.623925273336,5012.852215961878,33.307396447065635,0.9944525209708532,140.0,119.0,124.0,198.0,322.0,21.0,746.0,756.0,22.0,19.0,3.0,0.8636363636363636,64.38347160671687,957.903573894446,12.0,7.0,5.0,0.5833333333333334,805.457352298595,4532.008223682837,21.0,10.0,11.0,0.4761904761904761,2308.506056399878,43844.70367694237,13.0,8.0,5.0,0.6153846153846154,47.85692435639769,605.7959668561595,81.0,41.0,40.0,0.5061728395061729,35.37198525465173,5109.601659957086,0.0,0.0,0.0,0.0,52798.0,52819.0,52938.0,52950.0,52962.0,52983.0,53050.0,53062.0,53180.0,53260.0,0.05899176852084895,-0.19846008492709585,0.053456855395484344,-0.09173886708417114,0.0070562593371535235
65,65,53582.7965954159,584.3135768524389,5.095930801728113,53699.61626806025,-4084.206668264235,5.233755002217798,53726.33821444075,42363.773419576086,8.598019452394272,53801.643650492086,-1171.0928374786276,140.1380970475231,53971.42599733256,5387.388579982113,33.65571570989565,0.9939742204693884,111.0,105.0,194.0,126.0,320.0,6.0,768.0,754.0,6.0,4.0,2.0,0.6666666666666666,63.65459937641843,70.05688249046057,15.0,10.0,5.0,0.6666666666666666,870.7490076903699,4787.745964599604,21.0,10.0,11.0,0.4761904761904761,2277.8915059166966,41524.41694427731,126.0,35.0,91.0,0.2777777777777778,32.223963024097046,956.193923757536,77.0,37.0,40.0,0.4805194805194805,49.66929824807109,4934.009307344116,0.0,0.0,0.0,0.0,53579.0,53585.0,53690.0,53705.0,53716.0,53737.0,53770.0,53884.0,53935.0,54010.0,0.10893910718164539,-0.21319905636911204,0.05376979721225906,-0.027516147305174796,0.00921954997503373
66,66,54333.53750925144,387.3209776471261,10.191861603456228,54453.39691009673,-4740.6987743536265,5.7014640105882615,54480.220222460666,41869.06368591491,8.67973955743757,54502.15067819971,-2532.345962071394,4.819119037413053,54728.72350443371,4871.719038538348,30.74347884936763,0.9948541262739332,116.0,104.0,61.0,262.0,323.0,12.0,750.0,754.0,12.0,5.0,7.0,0.4166666666666667,45.79904568239119,459.2480207491352,13.0,8.0,5.0,0.6153846153846154,829.8492993200978,4010.805810313865,21.0,10.0,11.0,0.4761904761904761,2302.8292752447137,42104.17729058984,6.0,1.0,5.0,0.1666666666666666,1208.0475363301591,16978.846919293934,77.0,38.0,39.0,0.4935064935064935,44.466124371306584,4772.981371488178,0.0,0.0,0.0,0.0,54329.0,54341.0,54445.0,54458.0,54470.0,54491.0,54501.0,54506.0,54692.0,54768.0,0.11824571434423316,-0.1750478861490718,0.05500073497032617,-0.4770467994594259,0.009127399182824727
67,67,55094.817932948354,600.3569904325409,2.966864149182096,55209.80301974441,-5031.644440531508,5.578336436426874,55237.135616790714,43293.85384845768,8.504174984846362,55323.246609001435,-1127.7111011466384,25.47965400864057,55486.38129316743,4490.075563520354,29.13346053511821,0.9942149803687456,111.0,104.0,188.0,132.0,320.0,7.0,762.0,757.0,7.0,4.0,3.0,0.5714285714285714,70.5614068368062,841.5495653707968,13.0,8.0,5.0,0.6153846153846154,858.3827581608207,4047.520635974136,21.0,10.0,11.0,0.4761904761904761,2321.370617673817,43309.22350600989,81.0,14.0,67.0,0.1728395061728395,42.771934069649966,1287.8814804494584,76.0,38.0,38.0,0.5,54.27273809734482,4323.157179116462,0.0,0.0,0.0,0.0,55091.0,55098.0,55202.0,55215.0,55227.0,55248.0,55309.0,55390.0,55449.0,55522.0,0.11753241481533949,-0.1705968631738508,0.05361894151995236,-0.03792809525964598,0.012087266089302374
68,68,55668.15067819971,235.0172764676293,5.095930799469179,55969.843824358155,-4867.043467356415,6.017205759046733,55997.81424893287,41767.37678946303,8.472979245822787,56066.52059170187,-1275.9914188835007,33.12355021123273,56246.113581595586,4834.969640247579,29.24193635517908,0.99222185473858,296.0,291.0,190.0,131.0,321.0,5.0,574.0,761.0,5.0,2.0,3.0,0.4,46.07354415672273,255.3146512497858,15.0,9.0,6.0,0.6,777.2232711326234,3315.0461812369167,21.0,11.0,10.0,0.5238095238095238,2244.1566600719048,40499.46969415188,123.0,28.0,95.0,0.2276422764227642,44.78605282103684,1206.766921007193,76.0,39.0,37.0,0.5131578947368421,40.47527163594523,4803.921628340605,0.0,0.0,0.0,0.0,55666.0,55671.0,55962.0,55976.0,55987.0,56008.0,56048.0,56152.0,56207.0,56283.0,0.19604322222272366,-0.15969104782924412,0.053729892384289143,-0.035099023518688606,0.008371360038958312
69,69,0.0,0.0,0.0,0.0,0.0,0.0,0.0,0.0,0.0,0.0,0.0,0.0,0.0,0.0,0.0,0.0,0.0,0.0,0.0,0.0,0.0,0.0,0.0,0.0,0.0,0.0,0.0,0.0,0.0,0.0,0.0,0.0,0.0,0.0,0.0,0.0,0.0,0.0,0.0,0.0,0.0,0.0,0.0,0.0,0.0,0.0,0.0,0.0,0.0,0.0,0.0,0.0,0.0,0.0,0.0,0.0,0.0,0.0,,56262.0,56611.0,56735.0,56745.0,56765.0,56772.0,56958.0,57007.0,57011.0,,,,,
70,70,0.0,0.0,0.0,0.0,0.0,0.0,0.0,0.0,0.0,0.0,0.0,0.0,0.0,0.0,0.0,0.0,0.0,0.0,0.0,0.0,0.0,0.0,0.0,0.0,0.0,0.0,0.0,0.0,0.0,0.0,0.0,0.0,0.0,0.0,0.0,0.0,0.0,0.0,0.0,0.0,0.0,0.0,0.0,0.0,0.0,0.0,0.0,0.0,0.0,0.0,0.0,0.0,0.0,0.0,0.0,0.0,0.0,0.0,,,,,,,,,,,,,,,
71,71,58109.30135639943,422.5478362513403,10.191861603456228,58229.49843937371,-4552.151989271303,5.8444219327626765,58256.71116737081,41779.5774703918,8.681745632524615,58278.726017299574,-2706.235860503181,5.014896990513823,58505.29501560444,5157.604092462317,31.993080137779742,0.9941525863740852,114.0,102.0,62.0,261.0,323.0,12.0,2442.0,2258.0,13.0,3.0,10.0,0.2307692307692307,49.939693995632624,293.0473815796641,14.0,8.0,6.0,0.5714285714285714,776.5190069588941,3892.235863192954,21.0,11.0,10.0,0.5238095238095238,2259.732913943568,40515.16741715401,6.0,2.0,4.0,0.3333333333333333,1182.5627266387894,16955.959824030884,79.0,40.0,39.0,0.5063291139240507,42.563352062706024,5083.611656999305,0.0,0.0,0.0,0.0,58107.0,58119.0,58221.0,58235.0,58246.0,58267.0,58277.0,58283.0,58465.0,58544.0,0.11818707779615145,-0.17058283835623803,0.054087021716411256,-0.43697696268754305,0.008252543487180623
72,72,58694.30135639943,225.03489763027093,10.191861603456209,58988.99322261189,-4705.770062899189,5.9460631902278545,59016.08985696772,41570.41769525526,8.715649309282501,59037.726017299574,-2892.9298678664886,5.0031968522535895,59265.19368389429,5151.301088406673,30.81631801834317,0.9936051797702076,290.0,281.0,62.0,260.0,322.0,9.0,585.0,760.0,10.0,4.0,6.0,0.4,40.670641315051384,308.96670769099535,13.0,8.0,5.0,0.6153846153846154,829.3258049391945,4316.1062214363865,22.0,11.0,11.0,0.5,2284.4882591375867,41443.026740873785,7.0,2.0,5.0,0.2857142857142857,1204.1085106849964,17162.366438446155,78.0,40.0,38.0,0.5128205128205128,44.80767666251031,5036.371989135601,0.0,0.0,0.0,0.0,58691.0,58700.0,58981.0,58994.0,59005.0,59027.0,59036.0,59043.0,59225.0,59303.0,0.18073037445895462,-0.1762359388270351,0.05495466213220976,-0.4162245770489474,0.008698322208995472
73,73,0.0,0.0,0.0,0.0,0.0,0.0,0.0,0.0,0.0,0.0,0.0,0.0,0.0,0.0,0.0,0.0,0.0,0.0,0.0,0.0,0.0,0.0,0.0,0.0,0.0,0.0,0.0,0.0,0.0,0.0,0.0,0.0,0.0,0.0,0.0,0.0,0.0,0.0,0.0,0.0,0.0,0.0,0.0,0.0,0.0,0.0,0.0,0.0,0.0,0.0,0.0,0.0,0.0,0.0,0.0,0.0,0.0,0.0,,,,,,,,,,,,,,,
74,74,60381.726017299574,478.2580360184228,7.64389620259217,60501.97721091361,-4152.282556668669,4.988485826242595,60528.947459629555,42638.64082968077,8.607173159338378,60603.48242995965,-699.3333011918081,73.89099662505764,60776.359947262245,5339.694479833842,33.207356335670305,0.994651080543184,114.0,106.0,185.0,137.0,322.0,8.0,1687.0,1513.0,10.0,3.0,7.0,0.3,56.91045532686486,519.7578288282484,13.0,8.0,5.0,0.6153846153846154,821.7627096943241,4763.5466769172235,22.0,11.0,11.0,0.5,2262.3204308473128,41636.21183962325,98.0,20.0,78.0,0.2040816326530612,38.936525825371554,653.7046640708069,79.0,39.0,40.0,0.4936708860759494,50.19984323221785,5377.212189899508,0.0,0.0,0.0,0.0,60380.0,60388.0,60494.0,60507.0,60518.0,60540.0,60584.0,60679.0,60738.0,60816.0,0.11899529342079396,-0.19790625962449324,0.05305798653113987,-0.05567663624628726,0.009401257585392779
75,75,61149.273982700426,394.49155429957005,3.0846865452663206,61268.41745285942,-4505.16720865044,5.840941863241187,61295.23388116774,41749.90894535573,8.673892961544736,61317.15067819971,-2529.1211754914707,4.977431454310339,61543.6375121044,5139.33353243371,31.30541567940066,0.994623530639191,115.0,105.0,61.0,260.0,321.0,10.0,765.0,766.0,10.0,4.0,6.0,0.4,56.50561820668373,200.084228184228,14.0,8.0,6.0,0.5714285714285714,808.5011723717408,4466.031170346259,21.0,10.0,11.0,0.4761904761904761,2291.513975322674,41882.51568436633,5.0,1.0,4.0,0.2,1203.8419165651858,17067.006168722877,80.0,42.0,38.0,0.525,75.46492785826518,4946.129571334561,0.0,0.0,0.0,0.0,61145.0,61155.0,61260.0,61274.0,61285.0,61306.0,61316.0,61321.0,61506.0,61581.0,0.14323657272463264,-0.1794608579276093,0.054886681988262936,-0.4759921858355599,0.0146837965238129
76,76,61700.726017299574,246.95145944613265,3.578053769003196,62016.99600946259,-4634.943010911539,6.174193737089026,62044.960785855175,43614.41181797363,8.622088419345594,62126.18146231203,-1625.4641599016545,66.24710042246546,62292.32274827219,4136.137831889163,27.58976419514841,0.9931540792935398,309.0,302.0,203.0,117.0,320.0,7.0,554.0,750.0,11.0,6.0,5.0,0.5454545454545454,46.91696703961552,182.95712217629165,15.0,9.0,6.0,0.6,779.4240189869826,3218.9486127360515,21.0,10.0,11.0,0.4761904761904761,2317.0138375714696,42485.05593511876,110.0,25.0,85.0,0.2272727272727272,46.37351407261357,1757.6347163066075,70.0,34.0,36.0,0.4857142857142857,52.41691534292957,4336.269557466855,0.0,0.0,0.0,0.0,61699.0,61706.0,62008.0,62023.0,62035.0,62056.0,62101.0,62211.0,62258.0,62328.0,0.18998457083364387,-0.16816258951880744,0.05312495895259606,-0.028529398073851905,0.012672913107198938
77,77,62643.2327992967,678.5252031965329,58.603204219820384,62771.014011095256,-3952.367415496435,4.955675494870439,62798.26391018284,42850.60050796932,8.612224352634179,62861.19787900752,-245.5390432597653,1.6640081482195836,63045.813549427425,5692.529567466096,36.205085121424894,0.9944151563361332,138.0,88.0,100.0,222.0,322.0,50.0,951.0,753.0,57.0,21.0,36.0,0.3684210526315789,57.33494553009806,936.2285685867032,12.0,7.0,5.0,0.5833333333333334,802.8892329420624,4964.409017745009,21.0,10.0,11.0,0.4761904761904761,2292.856065548983,43234.567318489295,5.0,2.0,3.0,0.4,33.068701169363734,385.925912551794,85.0,43.0,42.0,0.5058823529411764,48.412909343795825,5702.267949132409,0.0,0.0,0.0,0.0,62626.0,62676.0,62764.0,62776.0,62788.0,62809.0,62859.0,62864.0,63005.0,63086.0,0.08449936017113746,-0.20314134505666043,0.05350814313845052,-0.13467797516168975,0.008504639065993603
78,78,63414.321403821,431.4417496472245,10.191861603456228,63532.725813224366,-4433.027652889031,5.299440636532677,63559.61031232814,42323.89686627544,8.567904532343062,63649.39728720114,-835.6566097513285,20.383723206912453,63808.512425465655,5114.367539477882,30.985465568096544,0.994185034764122,115.0,102.0,129.0,193.0,322.0,13.0,761.0,761.0,13.0,4.0,9.0,0.3076923076923077,58.13378826640909,536.6447131245766,13.0,8.0,5.0,0.6153846153846154,868.0713945904497,5120.221109829782,21.0,11.0,10.0,0.5238095238095238,2251.934190335506,40822.23273604632,75.0,13.0,62.0,0.1733333333333333,58.31433610525806,799.6585604580767,76.0,38.0,38.0,0.5,56.72206446419331,5167.814563066138,0.0,0.0,0.0,0.0,63410.0,63423.0,63525.0,63538.0,63549.0,63570.0,63637.0,63654.0,63771.0,63847.0,0.13474307554598772,-0.1958190795459447,0.05320715617114864,-0.06978265405285435,0.011090729015143089
79,79,64186.15067819971,476.8167482636551,2.243353199335772,64285.221632512264,-4921.605548926221,5.791572835438263,64313.47622575721,43623.00076675085,8.469094720037521,64378.246609001435,-1306.744228170459,25.479654008638672,64562.58437410311,4384.171036733388,27.20710950133571,0.992163655807096,98.0,88.0,202.0,119.0,321.0,10.0,773.0,754.0,10.0,7.0,3.0,0.7,69.69809226112199,53.7761552153857,14.0,8.0,6.0,0.5714285714285714,754.3451746239296,2611.4313208778367,21.0,10.0,11.0,0.4761904761904761,2346.6399608968486,44074.915704858955,119.0,14.0,105.0,0.1176470588235294,62.41740283698784,1581.6601142813715,70.0,34.0,36.0,0.4857142857142857,47.21598183304551,4060.5229022929807,0.0,0.0,0.0,0.0,64179.0,64189.0,64277.0,64291.0,64303.0,64324.0,64364.0,64479.0,64530.0,64598.0,0.14617375021940826,-0.15327217249023747,0.05379363912730739,-0.0477655852548719,0.010769648683283528
80,80,0.0,0.0,0.0,0.0,0.0,0.0,0.0,0.0,0.0,0.0,0.0,0.0,0.0,0.0,0.0,0.0,0.0,0.0,0.0,0.0,0.0,0.0,0.0,0.0,0.0,0.0,0.0,0.0,0.0,0.0,0.0,0.0,0.0,0.0,0.0,0.0,0.0,0.0,0.0,0.0,0.0,0.0,0.0,0.0,0.0,0.0,0.0,0.0,0.0,0.0,0.0,0.0,0.0,0.0,0.0,0.0,0.0,0.0,,64577.0,64962.0,65066.0,65077.0,65096.0,65104.0,65290.0,65333.0,65345.0,,,,,
81,81,65538.09742677321,244.82036100414447,2.305937246972698,65837.75297337848,-4786.606970388996,6.195284118359314,65864.81615647551,41712.29817352448,8.69401354963709,65886.72601729959,-2791.411605500797,5.14318042539796,66113.80806756674,4926.525770223188,28.89641774892933,0.9931320141258292,295.0,287.0,63.0,257.0,320.0,8.0,1351.0,1552.0,8.0,4.0,4.0,0.5,34.79614747290163,279.44133155059234,14.0,9.0,5.0,0.6428571428571429,845.1572613925777,4586.860242116777,21.0,11.0,10.0,0.5238095238095238,2272.58665353155,40874.5252408036,7.0,2.0,5.0,0.2857142857142857,1191.1931657052337,17114.451167055628,75.0,39.0,36.0,0.52,37.03372423900364,4685.9724685628935,0.0,0.0,0.0,0.0,65534.0,65542.0,65829.0,65843.0,65854.0,65875.0,65885.0,65892.0,66075.0,66149.0,0.14212930382989092,-0.17656708951056696,0.05448241293437051,-0.4267350480874446,0.007517209077204499
82,82,66343.39588989482,234.47774714638945,1.5624636908655116,66602.5082806169,-5045.114114972229,5.786543243895239,66630.08714661576,43833.19965473539,8.52934176830329,66713.91787890301,-1214.752194786105,53.50727341814519,66879.46516771243,4395.200196439615,29.129818520612694,0.9942377367421672,252.0,248.0,205.0,116.0,321.0,4.0,806.0,765.0,6.0,3.0,3.0,0.5,47.50750640187278,285.4767666781806,14.0,9.0,5.0,0.6428571428571429,864.4644393959953,3841.6618525439103,21.0,10.0,11.0,0.4761904761904761,2339.3637499163015,43123.97672043496,127.0,41.0,86.0,0.3228346456692913,43.50006924293872,1110.5054819054458,75.0,38.0,37.0,0.5066666666666667,47.9677584722396,4356.039329624764,0.0,0.0,0.0,0.0,66342.0,66346.0,66594.0,66608.0,66620.0,66641.0,66684.0,66799.0,66841.0,66915.0,0.2026098722801735,-0.1713468555310872,0.05336967796882186,-0.035809829716420695,0.010913668622215766
83,83,67255.57194603441,525.6797204926822,3.4534927940364764,67372.50423948065,-4097.249986328442,5.38174692689285,67399.83167140708,42660.337184372496,8.57473956557695,67493.13686849497,-698.4321335800515,89.17878902994696,67646.60573196474,5386.548474473314,33.352331339651634,0.9944699280764028,113.0,104.0,179.0,143.0,322.0,9.0,911.0,770.0,9.0,5.0,4.0,0.5555555555555556,63.13607019151373,397.7414927298657,14.0,9.0,5.0,0.6428571428571429,829.3979710854354,4918.812464135209,22.0,11.0,11.0,0.5,2266.291791914052,41300.62057943517,104.0,48.0,56.0,0.4615384615384615,35.908790765291926,837.2478726637288,80.0,39.0,41.0,0.4875,41.51420378894272,5253.185131576318,0.0,0.0,0.0,0.0,67251.0,67260.0,67364.0,67378.0,67389.0,67411.0,67455.0,67543.0,67609.0,67686.0,0.1201036823949396,-0.20242796359825274,0.053124094685877185,-0.05141342879118291,0.00770701386716879
84,84,67823.8493217988,96.24149162900451,2.254831915500819,68141.23434867323,-4850.660613570851,6.491051802640557,68168.33993621697,41518.59833111567,8.671908005444102,68190.15067819973,-3012.828907495897,5.095930800622164,68417.64290091654,5151.8696148497,29.6134964330712,0.9926533128898396,312.0,308.0,63.0,258.0,321.0,4.0,568.0,768.0,4.0,3.0,1.0,0.75,28.490842698121135,110.97858742570544,15.0,9.0,6.0,0.6,802.8481962799746,3871.5288429359766,21.0,10.0,11.0,0.4761904761904761,2300.260642086131,41922.80515021917,8.0,2.0,6.0,0.25,1220.340445609192,17524.367239132258,74.0,38.0,36.0,0.5135135135135135,40.304150245748254,4923.780270319841,0.0,0.0,0.0,0.0,67821.0,67825.0,68133.0,68147.0,68158.0,68179.0,68189.0,68196.0,68380.0,68454.0,0.2960349243956937,-0.16551316619303771,0.05540313822112404,-0.4050480405883632,0.007823208516297841
85,85,68789.46132380259,426.26741782783387,2.08235316996926,68908.10462299523,-4851.298142323169,6.267587938991035,68935.06730153199,41858.76103243637,8.694714808762836,68956.72601729959,-3025.2561252573146,5.001606317941716,69184.83796580923,4853.706852523395,28.90408321385813,0.9937066538617122,112.0,107.0,63.0,259.0,322.0,5.0,966.0,767.0,5.0,2.0,3.0,0.4,72.90302404957781,412.3493295348256,14.0,9.0,5.0,0.6428571428571429,834.7389745665411,4302.809218443272,22.0,11.0,11.0,0.5,2308.283176892141,41779.22600831802,7.0,2.0,5.0,0.2857142857142857,1215.7178603321809,17259.191383715843,76.0,39.0,37.0,0.5131578947368421,42.90724741520107,4596.458263813787,0.0,0.0,0.0,0.0,68787.0,68792.0,68899.0,68913.0,68924.0,68946.0,68955.0,68962.0,69147.0,69221.0,0.17102649886091642,-0.17206507414669114,0.055144565198751376,-0.4018561767985107,0.008840098654267513
86,86,69541.0121467517,453.9168477916912,11.769133505758507,69658.12888750204,-4867.212813915537,5.386367918667031,69685.35192678725,43871.31394975053,8.5170060491776,69774.82194810128,-741.8202295932433,22.93168860777651,69934.93102700499,5046.8260739750085,33.574236372019065,0.9952605227481416,113.0,102.0,130.0,193.0,323.0,11.0,754.0,750.0,12.0,4.0,8.0,0.3333333333333333,55.729131001992634,473.69205822145346,14.0,8.0,6.0,0.5714285714285714,843.8770848844698,4024.4336846175606,21.0,10.0,11.0,0.4761904761904761,2361.6577690423965,44328.24269951538,23.0,17.0,6.0,0.7391304347826086,48.62654247818241,794.8653391508703,79.0,40.0,39.0,0.5063291139240507,50.519145062755435,5164.431853853119,0.0,0.0,0.0,0.0,69537.0,69548.0,69650.0,69664.0,69675.0,69696.0,69760.0,69780.0,69896.0,69973.0,0.1227738764778511,-0.1733799439530967,0.05383148021842701,-0.06555030523344643,0.010010082440381242
87,87,70113.30135639943,239.1176825903221,9.435819793958393,70422.01408880153,-4132.632149360928,5.326985380638468,70449.1758599983,42890.71420410115,8.602053364952924,70513.5889030941,-1805.4236770645905,104.46658143542632,70695.73848227736,5148.490769613641,30.320032333113502,0.9919817607863364,301.0,290.0,203.0,119.0,322.0,11.0,572.0,764.0,29.0,19.0,10.0,0.6551724137931034,26.639329728611127,186.37541275719968,16.0,10.0,6.0,0.625,817.8208579103533,3452.6567993808726,21.0,10.0,11.0,0.4761904761904761,2290.736735467672,41245.67114014865,130.0,25.0,105.0,0.1923076923076923,35.86868177343749,1970.973958463659,73.0,34.0,39.0,0.4657534246575342,40.20566230477569,4769.598758117843,0.0,0.0,0.0,0.0,70111.0,70122.0,70412.0,70428.0,70439.0,70460.0,70490.0,70615.0,70663.0,70734.0,0.1114067744385597,-0.19789345587819168,0.05340868712437144,-0.019867182550610946,0.0078092132440188596
88,88,70840.08602722915,214.01800770359196,1.818528109240842,71181.24574049974,-4919.216624496119,6.2746256402450875,71208.25616798458,41687.07293654261,8.6910071149288,71230.15067819973,-2917.2964378080833,5.095930801328654,71457.80813842059,4999.00809186818,28.587306317729617,0.9932675078471234,336.0,330.0,63.0,256.0,319.0,6.0,725.0,759.0,6.0,3.0,3.0,0.5,43.73294656170468,332.5621596684568,15.0,9.0,6.0,0.6,831.7461451812025,4006.135169120454,21.0,10.0,11.0,0.4761904761904761,2302.593127319907,41927.48415348642,8.0,2.0,6.0,0.25,1207.5805951647503,17248.70722029483,72.0,37.0,35.0,0.5138888888888888,42.20716273084982,4878.314421407396,0.0,0.0,0.0,0.0,70837.0,70843.0,71173.0,71187.0,71198.0,71219.0,71229.0,71236.0,71421.0,71492.0,0.2043423683406744,-0.16908101607873371,0.05523518359816214,-0.4139382544449506,0.008443107503568088
89,89,71824.54676896163,570.1147605388887,12.64117212352846,71942.24728568025,-4957.215439136547,5.133995971639477,71968.95349194901,43885.035100749934,8.644889874112538,71992.15067819973,-1877.4162158592944,4.87298085260895,72217.85141131231,4837.815871618188,30.435223180834733,0.9963010840882744,119.0,105.0,62.0,256.0,318.0,14.0,984.0,761.0,18.0,9.0,9.0,0.5,73.72386937168777,818.9671255385572,12.0,7.0,5.0,0.5833333333333334,885.4089052065228,4453.969345348809,22.0,11.0,11.0,0.5,2356.6949836186222,43785.75244113752,6.0,1.0,5.0,0.1666666666666666,1111.9320031578543,15531.934410130443,72.0,37.0,35.0,0.5138888888888888,56.47496430477771,5171.987712802255,0.0,0.0,0.0,0.0,71816.0,71830.0,71935.0,71947.0,71958.0,71980.0,71991.0,71997.0,72181.0,72253.0,0.12931408634640834,-0.1786101322561733,0.05370156314580114,-0.5922671774990089,0.011673648977857347
90,90,72585.87669549929,472.57886622839055,10.864152298553616,72705.72941690733,-4430.037606683071,5.197761478287681,72733.091469581,43202.46013460637,8.558051472917082,72805.53415569612,-564.0269893153554,68.79506582332952,72981.21320296927,5247.728620174536,32.73381423386433,0.995039844770026,116.0,105.0,167.0,155.0,322.0,11.0,764.0,764.0,14.0,5.0,9.0,0.3571428571428571,63.223914333546155,277.2575904708568,13.0,8.0,5.0,0.6153846153846154,842.4305649121369,4342.157175524402,21.0,10.0,11.0,0.4761904761904761,2312.316328263642,42686.36116414545,93.0,18.0,75.0,0.1935483870967742,39.717729024943665,671.3630307088969,80.0,39.0,41.0,0.4875,45.786279500808966,5123.97625576173,0.0,0.0,0.0,0.0,72582.0,72593.0,72698.0,72711.0,72723.0,72744.0,72790.0,72865.0,72943.0,73020.0,0.13378489571091176,-0.19016329875874236,0.05352279293954865,-0.07041813561644464,0.008724970899750174
91,91,73137.15067819973,98.63968378106136,2.3264418256280557,73473.25229308043,-4990.163045162497,7.056599966090119,73500.77474103228,41200.08950595056,8.665112057649306,73522.72601729959,-3321.616034620533,5.8411009964581915,73750.72143027146,4921.921167890643,27.262258597997505,0.9899699891047984,331.0,324.0,65.0,255.0,320.0,7.0,550.0,767.0,7.0,4.0,3.0,0.5714285714285714,17.436734237853877,110.3821219387238,15.0,9.0,6.0,0.6,774.8607717432435,3176.9593134154875,21.0,11.0,10.0,0.5238095238095238,2273.8759190455107,40084.08645258633,9.0,2.0,7.0,0.2222222222222222,1183.0343373238095,17575.743198796572,72.0,38.0,34.0,0.5277777777777778,48.710853598373646,4816.976536713022,0.0,0.0,0.0,0.0,73133.0,73140.0,73464.0,73479.0,73490.0,73511.0,73521.0,73529.0,73714.0,73784.0,0.17677200057287387,-0.15527764618721218,0.05519104318249341,-0.35616227914162313,0.00989671551754035
92,92,73916.69864360057,209.94524854546088,4.925332699038336,74235.60204151679,-4838.173405861455,5.953422157677031,74262.8183325877,42013.407346996406,8.441894454645581,74328.972626301,-1227.9324232221045,17.8357578060484,74513.0844347401,4865.908722762661,29.038600521576186,0.992093617617145,316.0,303.0,167.0,154.0,321.0,13.0,777.0,763.0,14.0,6.0,8.0,0.4285714285714285,33.224600849905514,192.55884361969527,14.0,9.0,5.0,0.6428571428571429,849.0043199454789,4100.111090744713,22.0,11.0,11.0,0.5,2277.2492519633374,41112.592141642024,122.0,23.0,99.0,0.1885245901639344,52.340162451100696,1308.0738443739108,74.0,38.0,36.0,0.5135135135135135,59.96350297931528,4593.990144298328,0.0,0.0,0.0,0.0,73911.0,73924.0,74227.0,74241.0,74252.0,74274.0,74319.0,74394.0,74476.0,74548.0,0.15825364508171358,-0.17548034117936095,0.054202917491436006,-0.042624627757413304,0.0123231869720052
93,93,74892.05406917527,484.7594539108146,2.9459375399233947,74993.16180931464,-4864.7986702158905,5.617984438916469,75020.77644137718,43954.9781193215,8.438637318877984,75104.972626301,-1250.542179310673,17.8357578060484,75271.05044928529,4753.012627921988,30.2613914137403,0.9944919092506151,97.0,89.0,183.0,139.0,322.0,8.0,978.0,758.0,8.0,4.0,4.0,0.5,63.91441485656153,28.8291684712093,14.0,8.0,6.0,0.5714285714285714,802.1069526506225,3444.9983714667974,22.0,11.0,11.0,0.5,2369.3158671409797,43109.66997667201,75.0,11.0,64.0,0.1466666666666666,52.04984525260067,1201.3013832058173,74.0,37.0,37.0,0.5,48.23449308137715,4767.188319987392,0.0,0.0,0.0,0.0,74888.0,74896.0,74985.0,74999.0,75010.0,75032.0,75095.0,75168.0,75234.0,75307.0,0.13184769134656302,-0.16487978373317277,0.05390324301172813,-0.041621823009034144,0.010148193757790462
94,94,75433.54796540085,167.7889703222489,12.7219998409935,75756.93978574409,-4156.75046177792,5.204268850532372,75784.02504225193,43081.845010771234,8.586331452217033,75850.31492039368,-1407.2685858919135,112.11047763801852,76030.59546389311,5304.4762946256415,31.842988359744925,0.9931952496229416,322.0,307.0,202.0,121.0,323.0,15.0,538.0,763.0,15.0,9.0,6.0,0.6,31.62641156467835,171.46195013232824,16.0,10.0,6.0,0.625,823.105111346675,3946.566167939177,21.0,10.0,11.0,0.4761904761904761,2297.0237916893425,41424.05171207046,126.0,26.0,100.0,0.2063492063492063,37.877236373162674,1534.027497729027,74.0,35.0,39.0,0.4729729729729729,46.95451037676527,5039.649714236482,0.0,0.0,0.0,0.0,75425.0,75440.0,75747.0,75763.0,75774.0,75795.0,75825.0,75949.0,75997.0,76070.0,0.18848921656732207,-0.19801648400963132,0.05331767455908737,-0.02691542805182171,0.008851865437562303
95,95,0.0,0.0,0.0,0.0,0.0,0.0,0.0,0.0,0.0,0.0,0.0,0.0,0.0,0.0,0.0,0.0,0.0,0.0,0.0,0.0,0.0,0.0,0.0,0.0,0.0,0.0,0.0,0.0,0.0,0.0,0.0,0.0,0.0,0.0,0.0,0.0,0.0,0.0,0.0,0.0,0.0,0.0,0.0,0.0,0.0,0.0,0.0,0.0,0.0,0.0,0.0,0.0,0.0,0.0,0.0,0.0,0.0,0.0,,76047.0,76394.0,76518.0,76527.0,76547.0,76554.0,76743.0,76788.0,76790.0,,,,,
96,96,76933.22923799149,161.5013275071073,3.782846208326017,77269.47489367527,-4362.556950517191,5.281338749259296,77296.14793923605,43144.86413498437,8.58876725463606,77362.73958129382,-1497.97631397001,109.56251223715444,77543.81753197106,5311.688099890975,32.114040525893664,0.9930382081066548,333.0,322.0,203.0,120.0,323.0,11.0,1503.0,1512.0,12.0,6.0,6.0,0.5,24.540602779657352,193.3029743265679,15.0,9.0,6.0,0.6,835.9159402967022,3678.1548650826226,21.0,10.0,11.0,0.4761904761904761,2318.9804745335528,41683.67673397428,128.0,26.0,102.0,0.203125,41.39450883928089,1671.7654402676333,75.0,35.0,40.0,0.4666666666666667,40.77464590040257,5057.112631691145,0.0,0.0,0.0,0.0,76927.0,76938.0,77260.0,77275.0,77286.0,77307.0,77338.0,77463.0,77509.0,77583.0,0.15195294774637302,-0.19161146771908674,0.05374870267938075,-0.02763362040723804,0.007676400634525113
97,97,0.0,0.0,0.0,0.0,0.0,0.0,0.0,0.0,0.0,0.0,0.0,0.0,0.0,0.0,0.0,0.0,0.0,0.0,0.0,0.0,0.0,0.0,0.0,0.0,0.0,0.0,0.0,0.0,0.0,0.0,0.0,0.0,0.0,0.0,0.0,0.0,0.0,0.0,0.0,0.0,0.0,0.0,0.0,0.0,0.0,0.0,0.0,0.0,0.0,0.0,0.0,0.0,0.0,0.0,0.0,0.0,0.0,0.0,,,,,,,,,,,,,,,
98,98,78500.57410199419,591.176818100884,2.9111536963693396,78783.78615865379,-5360.747408028626,5.923545822190757,78810.81356842024,43651.41284102049,8.511400307984035,78897.945252602,-1505.8605637800094,35.6715156120968,79060.9316088174,4661.112868599192,28.285984651373475,0.9934474735898872,279.0,271.0,130.0,188.0,318.0,8.0,1567.0,1514.0,8.0,4.0,4.0,0.5,66.60388168078919,536.5310726667029,14.0,8.0,6.0,0.5714285714285714,892.7259853921101,4078.602042664593,22.0,11.0,11.0,0.5,2319.0195657144345,42762.89865850469,88.0,24.0,64.0,0.2727272727272727,77.6401309680669,1665.795896031363,69.0,36.0,33.0,0.5217391304347826,88.38087196360036,4875.768687995077,0.0,0.0,0.0,0.0,78497.0,78505.0,78776.0,78790.0,78800.0,78822.0,78875.0,78906.0,79025.0,79094.0,0.1126632162180339,-0.16653013422253435,0.05312587645582883,-0.051558645491834074,0.018961324141923544
99,99,79205.86600645415,433.6044191578639,2.6743644814404512,79538.3381079524,-4791.859518460351,5.621906450408551,79566.31056253127,44997.975863134314,8.551860292042239,79655.24660900142,-807.743645874906,25.47965400864057,79814.20374499126,5150.756613933686,30.964235638626807,0.9947150199127348,328.0,320.0,173.0,149.0,322.0,8.0,705.0,756.0,8.0,4.0,4.0,0.5,75.3161009174242,345.48478594865685,14.0,8.0,6.0,0.5714285714285714,785.0356585369557,3240.817834012718,21.0,10.0,11.0,0.4761904761904761,2364.585543054293,45125.93646343832,83.0,34.0,49.0,0.4096385542168674,36.788776968190845,791.5316724016782,80.0,41.0,39.0,0.5125,44.50755505864269,4979.562320664608,0.0,0.0,0.0,0.0,79202.0,79210.0,79530.0,79544.0,79556.0,79577.0,79641.0,79703.0,79774.0,79852.0,0.17369772444593926,-0.16382693514128555,0.052548709085191034,-0.04554511466115361,0.008640974209156393
100,100,79989.15067819973,211.80776330540075,5.095930234391644,80311.55887927892,-3930.4860480813554,5.19136402348295,80338.93148340409,42388.90147365287,8.632955262065442,80408.16424219396,-1209.2582967508254,107.01454683629038,80586.22382417752,5364.827427144767,31.351583594961248,0.993771642327186,315.0,310.0,203.0,118.0,321.0,5.0,784.0,773.0,17.0,13.0,4.0,0.7647058823529411,46.42809100598854,189.5193025231431,14.0,9.0,5.0,0.6428571428571429,814.4900132768562,4369.491941870618,22.0,11.0,11.0,0.5,2246.555873421565,40803.67488612514,125.0,26.0,99.0,0.208,34.99234327829541,1476.3469972377134,76.0,36.0,40.0,0.4736842105263157,43.51280200671545,5028.941103746967,0.0,0.0,0.0,0.0,79988.0,79993.0,80303.0,80317.0,80328.0,80350.0,80384.0,80506.0,80551.0,80624.0,0.21919919403069726,-0.2072237385690365,0.05299868114812856,-0.0289370297250115,0.008110755210233023
101,101,80756.84932180027,155.3587050390572,2.848014882802627,81087.97494973154,-4249.726967108938,5.356425079377042,81114.72844675842,42757.893914214124,8.621927790362594,81181.16424219396,-1553.5401064452049,107.01454683629038,81362.13357491596,5384.784809947703,31.57289800503263,0.9920399848211688,325.0,318.0,201.0,120.0,321.0,7.0,766.0,776.0,7.0,3.0,4.0,0.4285714285714285,27.5466192698006,258.05512514590293,14.0,9.0,5.0,0.6428571428571429,853.7251570171464,4171.651056090015,21.0,11.0,10.0,0.5238095238095238,2267.634194445535,40184.06617324194,126.0,25.0,101.0,0.1984126984126984,33.04055194930893,1616.4635615306183,72.0,34.0,38.0,0.4722222222222222,47.554284543347286,5240.22617650654,0.0,0.0,0.0,0.0,80754.0,80761.0,81079.0,81093.0,81104.0,81125.0,81157.0,81280.0,81328.0,81400.0,0.17730978938628109,-0.20088941327869123,0.053034281786542785,-0.021267910504680815,0.008831232114512136
102,102,81530.53105980884,145.303355577181,3.0036766372219557,81869.1603591572,-4643.646919749695,5.7926567430849305,81896.35189961523,42808.22979484494,8.553287084412199,81966.2601729962,-1546.7570574919466,76.4389620259217,82145.71630827962,5293.612722500552,30.622720030401663,0.9899864028537184,333.0,324.0,201.0,122.0,323.0,9.0,775.0,781.0,9.0,4.0,5.0,0.4444444444444444,30.606307405196933,164.83458177085987,15.0,9.0,6.0,0.6,820.9006926975713,3313.6018253430384,21.0,10.0,11.0,0.4761904761904761,2314.5598510791115,41923.678144133126,126.0,29.0,97.0,0.2301587301587301,34.19358956428982,1704.6924881103766,76.0,38.0,38.0,0.5,44.07952002479833,5095.046309375568,0.0,0.0,0.0,0.0,81527.0,81536.0,81860.0,81875.0,81886.0,81907.0,81949.0,82061.0,82109.0,82183.0,0.2106373062316495,-0.1767793087812585,0.05406810471190836,-0.022106632323846926,0.00832692573777411
103,103,0.0,0.0,0.0,0.0,0.0,0.0,0.0,0.0,0.0,0.0,0.0,0.0,0.0,0.0,0.0,0.0,0.0,0.0,0.0,0.0,0.0,0.0,0.0,0.0,0.0,0.0,0.0,0.0,0.0,0.0,0.0,0.0,0.0,0.0,0.0,0.0,0.0,0.0,0.0,0.0,0.0,0.0,0.0,0.0,0.0,0.0,0.0,0.0,0.0,0.0,0.0,0.0,0.0,0.0,0.0,0.0,0.0,0.0,,82311.0,82653.0,82669.0,82679.0,82700.0,82728.0,82866.0,82908.0,82976.0,,,,,
104,104,0.0,0.0,0.0,0.0,0.0,0.0,0.0,0.0,0.0,0.0,0.0,0.0,0.0,0.0,0.0,0.0,0.0,0.0,0.0,0.0,0.0,0.0,0.0,0.0,0.0,0.0,0.0,0.0,0.0,0.0,0.0,0.0,0.0,0.0,0.0,0.0,0.0,0.0,0.0,0.0,0.0,0.0,0.0,0.0,0.0,0.0,0.0,0.0,0.0,0.0,0.0,0.0,0.0,0.0,0.0,0.0,0.0,0.0,,83086.0,83430.0,83443.0,83454.0,83476.0,83509.0,83620.0,83677.0,83751.0,,,,,
105,105,0.0,0.0,0.0,0.0,0.0,0.0,0.0,0.0,0.0,0.0,0.0,0.0,0.0,0.0,0.0,0.0,0.0,0.0,0.0,0.0,0.0,0.0,0.0,0.0,0.0,0.0,0.0,0.0,0.0,0.0,0.0,0.0,0.0,0.0,0.0,0.0,0.0,0.0,0.0,0.0,0.0,0.0,0.0,0.0,0.0,0.0,0.0,0.0,0.0,0.0,0.0,0.0,0.0,0.0,0.0,0.0,0.0,0.0,,,,,,,,,,,,,,,
106,106,84727.19356302325,461.9473927083082,1.321100294494165,84948.08301999605,-5043.550923793532,5.544254226961748,84976.12704660335,43779.56562356713,8.53962090305592,85049.52059170186,-1225.7492057089585,33.12355021123273,85227.15533766727,4816.289491523764,30.19532496586224,0.9944891079594104,215.0,210.0,182.0,141.0,323.0,5.0,3196.0,3080.0,5.0,2.0,3.0,0.4,90.05234948682597,305.4273535307816,14.0,8.0,6.0,0.5714285714285714,791.7108649896184,2901.313647610728,21.0,10.0,11.0,0.4761904761904761,2330.933273999457,43462.70818213596,93.0,20.0,73.0,0.2150537634408602,48.1258667822038,1267.7364976188428,76.0,40.0,36.0,0.5263157894736842,41.57097515292183,4774.324008748621,0.0,0.0,0.0,0.0,84725.0,84730.0,84940.0,84954.0,84966.0,84987.0,85031.0,85122.0,85187.0,85263.0,0.19494070300703825,-0.156974892680201,0.05324249431896338,-0.03926240911114308,0.008631328167894187
107,107,85586.21733625645,218.41560704573615,1.9570417378453064,85703.70510554315,-4250.024192426411,5.55087183273947,85731.51971865688,42170.749999482345,8.58712163102101,85822.61652250358,-898.153023606049,63.69913502121266,85980.21743166253,5131.2573684554245,30.93788283653141,0.9937571270139548,113.0,106.0,202.0,121.0,323.0,7.0,859.0,755.0,7.0,3.0,4.0,0.4285714285714285,50.41587370081102,137.79492832881397,13.0,8.0,5.0,0.6153846153846154,782.4709765649927,4075.339585675616,21.0,11.0,10.0,0.5238095238095238,2233.57978008506,40034.67995860573,113.0,37.0,76.0,0.3274336283185841,30.62287589836409,973.9784231780916,76.0,37.0,39.0,0.4868421052631579,47.93455085786873,5132.569320319037,0.0,0.0,0.0,0.0,85583.0,85590.0,85696.0,85709.0,85721.0,85742.0,85787.0,85898.0,85943.0,86019.0,0.23082541757308558,-0.1841097700006895,0.05296514242958633,-0.03409538808366357,0.009341677373765732
108,108,86135.26211603792,196.41685628105583,1.8864418927475983,86466.7342715569,-4954.263404662596,6.993538941082199,86494.22065029579,41076.610084641565,8.675893105681258,86516.30135639943,-3151.310831593285,5.522204368725809,86744.40219945191,5191.8427791345075,28.967130039476135,0.9906316440258364,326.0,320.0,64.0,259.0,323.0,6.0,549.0,763.0,6.0,3.0,3.0,0.5,39.29207850281383,157.52087973874336,15.0,9.0,6.0,0.6,816.3508040919867,3731.658275656331,21.0,10.0,11.0,0.4761904761904761,2283.309498878131,41212.732697357584,9.0,2.0,7.0,0.2222222222222222,1211.9441112352315,17580.21216406625,75.0,38.0,37.0,0.5066666666666667,37.265730953333694,4987.828973024567,0.0,0.0,0.0,0.0,86132.0,86138.0,86458.0,86473.0,86484.0,86505.0,86514.0,86522.0,86706.0,86781.0,0.2000443304447873,-0.16477743256922836,0.05558660985347119,-0.38458412260858427,0.007177746426201677
109,109,86922.0633128658,210.9519988028512,1.7307898778421076,87228.48155379412,-4873.202780550002,6.2939552776889816,87255.70501862113,41570.332413871576,8.699027419877035,87277.72601729959,-2677.8932615159333,5.378868502586682,87506.046949613,5298.438638885046,29.746841094643973,0.992971341506666,300.0,295.0,63.0,260.0,323.0,5.0,787.0,761.0,5.0,2.0,3.0,0.4,35.24658686804891,153.12414855162535,14.0,8.0,6.0,0.5714285714285714,786.7045839594897,3626.767220974016,21.0,11.0,10.0,0.5238095238095238,2263.5500150748317,40211.46248927817,8.0,2.0,6.0,0.25,1168.6489133079729,16759.054853693193,76.0,39.0,37.0,0.5131578947368421,38.239422015163505,5268.732150242969,0.0,0.0,0.0,0.0,86920.0,86925.0,87220.0,87234.0,87245.0,87266.0,87276.0,87283.0,87468.0,87543.0,0.1670834458458448,-0.16143481389680653,0.05445109248920774,-0.4364060846272903,0.00721711142118846
110,110,87717.37520266845,162.27161627958617,2.645082652988841,87997.60965838883,-4429.343024183731,5.062440067378189,88023.97372577168,43045.48925287792,8.617199090824835,88104.91763319253,-1227.4184373783692,132.49420084493093,88271.70910632123,5628.715649240283,33.17426144905198,0.993482933797791,277.0,267.0,202.0,118.0,320.0,10.0,796.0,769.0,10.0,5.0,5.0,0.5,37.102444749674106,84.28560698520891,14.0,9.0,5.0,0.6428571428571429,926.7260303140612,5124.981565729321,22.0,11.0,11.0,0.5,2304.2730177654203,41498.54725844063,126.0,38.0,88.0,0.3015873015873015,28.865604673384063,1017.7840726573332,74.0,36.0,38.0,0.4864864864864865,41.55108533973259,5198.784120068519,0.0,0.0,0.0,0.0,87712.0,87722.0,87989.0,88003.0,88013.0,88035.0,88075.0,88191.0,88237.0,88309.0,0.22864408206638173,-0.2092242631140189,0.05353111458969797,-0.023517330190214365,0.007381983374011939
111,111,88457.69864360057,202.17692299690495,4.14672689714636,88778.2072048273,-5069.467180030039,6.330845757137876,88805.01587695074,41744.52281796439,8.703365377289252,88826.72601729959,-3041.447839027464,5.0911133299373486,89055.77982273746,5241.468557674044,29.537031669617857,0.9929329520203825,318.0,308.0,62.0,261.0,323.0,10.0,738.0,781.0,10.0,6.0,4.0,0.6,32.82014255642217,225.06594329489224,14.0,8.0,6.0,0.5714285714285714,852.118600479313,4088.8599553738095,22.0,11.0,11.0,0.5,2300.0569379629296,41543.794522318625,7.0,2.0,5.0,0.2857142857142857,1208.0815073399708,17317.166785690955,78.0,40.0,38.0,0.5128205128205128,44.30148532625323,5048.200503213836,0.0,0.0,0.0,0.0,88452.0,88462.0,88770.0,88784.0,88794.0,88816.0,88825.0,88832.0,89017.0,89093.0,0.16233377217302195,-0.16808839474018722,0.05509841250294806,-0.39720605819308347,0.008452113150882368
112,112,89243.79081533759,107.6465575533364,2.3367564100373093,89561.56851153733,-5073.994740032157,6.257401984595584,89588.48941558748,41819.76538031476,8.665523962074126,89610.72601729959,-2817.8000052519683,5.432244834905665,89839.17973119023,5191.820484502514,29.25372214852852,0.9931670918118104,312.0,306.0,64.0,259.0,323.0,6.0,787.0,783.0,6.0,3.0,3.0,0.5,34.169833606544216,133.00540963666714,14.0,9.0,5.0,0.6428571428571429,891.1513773417828,4620.194806601528,21.0,10.0,11.0,0.4761904761904761,2317.751959292048,42519.943032902054,8.0,2.0,6.0,0.25,1157.44680997695,16770.43672298273,76.0,39.0,37.0,0.5131578947368421,34.90392166574911,5054.509114359813,0.0,0.0,0.0,0.0,89241.0,89247.0,89553.0,89567.0,89578.0,89599.0,89609.0,89617.0,89800.0,89876.0,0.31742616190595646,-0.175631119660194,0.05542240465038695,-0.41076258351183115,0.006722867589497105
113,113,90036.15067821184,140.19464415704607,1.800097647998098,90347.90236981896,-5049.588720748189,6.462232520643837,90374.90788746276,41821.81501988695,8.687376158995109,90396.7260172996,-3123.727748521956,5.477603418832517,90625.61603306368,5155.749279593706,29.21764276938214,0.9924816250560204,306.0,300.0,64.0,259.0,323.0,6.0,794.0,787.0,6.0,3.0,3.0,0.5,25.652578945316677,4.92526949186356,14.0,9.0,5.0,0.6428571428571429,855.3075232350164,4213.541960630459,22.0,11.0,11.0,0.5,2305.0915980616455,41035.8624041675,9.0,2.0,7.0,0.2222222222222222,1193.3962500418284,17340.901997097204,76.0,39.0,37.0,0.5131578947368421,43.35170987676941,5051.604666272991,0.0,0.0,0.0,0.0,90033.0,90039.0,90339.0,90353.0,90364.0,90386.0,90395.0,90403.0,90587.0,90662.0,0.1829783091897623,-0.16938162106562352,0.055116966993554374,-0.38204233727043074,0.008408420876545359
114,114,0.0,0.0,0.0,0.0,0.0,0.0,0.0,0.0,0.0,0.0,0.0,0.0,0.0,0.0,0.0,0.0,0.0,0.0,0.0,0.0,0.0,0.0,0.0,0.0,0.0,0.0,0.0,0.0,0.0,0.0,0.0,0.0,0.0,0.0,0.0,0.0,0.0,0.0,0.0,0.0,0.0,0.0,0.0,0.0,0.0,0.0,0.0,0.0,0.0,0.0,0.0,0.0,0.0,0.0,0.0,0.0,0.0,0.0,,,,,,,,,,,,,,,
115,115,91771.83007424705,670.2214705958569,15.287792275658596,91891.7790533331,-4313.498189134784,5.39249396152476,91918.01893092482,43001.20351787204,8.732057927950017,91940.15067819972,-2172.9785225693417,4.542284910943014,92168.03027132637,5500.853248257691,33.59049961340913,0.9959658936364574,118.0,101.0,59.0,266.0,325.0,17.0,1735.0,1543.0,17.0,6.0,11.0,0.3529411764705882,45.03621484824277,756.5976936731416,12.0,8.0,4.0,0.6666666666666666,914.4253370980202,6334.734856976977,22.0,11.0,11.0,0.5,2324.5303006742784,42521.06626150523,4.0,1.0,3.0,0.25,1209.0080499439198,16602.67700069959,81.0,40.0,41.0,0.4938271604938271,49.15621317231183,5637.752799450819,0.0,0.0,0.0,0.0,91766.0,91783.0,91884.0,91896.0,91907.0,91929.0,91939.0,91943.0,92129.0,92209.0,0.0671960192624142,-0.21199158942534266,0.054057331202559566,-0.5563828806344492,0.008936106991743742
116,116,92524.7694696083,621.688233190834,14.537880872195757,92641.23299519968,-4236.66115117998,5.435534629097597,92668.47615328016,43670.8774946791,8.600230084014997,92731.4108294674,-398.70178571945326,2.359608210779656,92918.47819572577,4991.13879874654,33.3162922830608,0.995803921668028,115.0,102.0,102.0,225.0,327.0,13.0,753.0,750.0,13.0,7.0,6.0,0.5384615384615384,61.79064169280544,894.7401838348826,13.0,8.0,5.0,0.6153846153846154,814.1650257447155,4568.424123051433,21.0,10.0,11.0,0.4761904761904761,2347.5778168749143,44640.25400662093,7.0,3.0,4.0,0.4285714285714285,63.192563964386146,453.662950260083,84.0,40.0,44.0,0.4761904761904761,82.94178888386114,4946.436516802745,0.0,0.0,0.0,0.0,92518.0,92531.0,92633.0,92646.0,92658.0,92679.0,92728.0,92735.0,92879.0,92960.0,0.09939168604762401,-0.19217138135249667,0.053756140282753544,-0.15849581373295285,0.016617808525920156
117,117,93146.29443532144,434.4095736078541,1.1818327933996686,93379.68840854756,-5395.342436599894,6.769792273488923,93408.54622783244,42863.66524111219,8.446335990250278,93473.82194810128,-1885.8581686555435,22.93168860777651,93658.17382275026,4597.433588539093,28.35096333008347,0.9898832430916084,227.0,222.0,189.0,132.0,321.0,5.0,621.0,740.0,5.0,2.0,3.0,0.4,89.92692275798487,129.12638441243712,16.0,9.0,7.0,0.5625,750.7608928315664,2225.27766017415,21.0,11.0,10.0,0.5238095238095238,2299.7330280785795,41346.364086190275,100.0,13.0,87.0,0.13,66.53076310756829,2108.9441785411395,72.0,37.0,35.0,0.5138888888888888,57.324882817450394,4483.672490675053,0.0,0.0,0.0,0.0,93144.0,93149.0,93371.0,93387.0,93398.0,93419.0,93461.0,93560.0,93622.0,93692.0,0.2070095325273904,-0.13914981331651868,0.05365227203838875,-0.03527877345887526,0.012468887633386409
118,118,93995.24660900142,1438.8413888881598,13.486796288055103,94123.4318120042,-4128.323471419312,5.107531502319302,94150.50599445372,42661.68064903795,8.604473160644348,94216.16424219396,-918.9851991845728,107.01454683629038,94397.43166194829,5366.330831277642,33.06252243667928,0.9948919713070694,133.0,107.0,177.0,146.0,323.0,26.0,845.0,742.0,29.0,15.0,14.0,0.5172413793103449,71.86150663376561,1184.902428647989,15.0,9.0,6.0,0.6,794.5690632464269,3764.1896861198024,21.0,11.0,10.0,0.5238095238095238,2253.915839424624,40202.17308363539,111.0,25.0,86.0,0.2252252252252252,35.58812931429449,1201.917892730423,78.0,38.0,40.0,0.4871794871794871,38.915336229661534,5233.887037242469,0.0,0.0,0.0,0.0,93981.0,94007.0,94114.0,94129.0,94140.0,94161.0,94192.0,94291.0,94360.0,94437.0,0.04994400855350385,-0.19246773387484947,0.05283232646099355,-0.038725465160779834,0.007251758688235102
119,119,94724.39728720114,1570.9233672885966,10.43806706957286,94854.44286276934,-5033.781099791218,6.565970904424976,94881.49554725514,41059.70135328162,8.704987919510714,94902.7260172996,-3458.4295565648445,5.437349770190163,95130.41762969572,5186.13466363453,29.852880040659688,0.9913137739308976,133.0,108.0,64.0,256.0,320.0,25.0,730.0,731.0,27.0,12.0,15.0,0.4444444444444444,90.84257151943982,1601.615634972388,14.0,8.0,6.0,0.5714285714285714,801.8264987267377,3441.3349659828673,21.0,10.0,11.0,0.4761904761904761,2298.90985555473,41669.425098987434,9.0,2.0,7.0,0.2222222222222222,1229.391074372491,17837.155667009185,75.0,38.0,37.0,0.5066666666666667,43.19158325563661,5150.498846923366,0.0,0.0,0.0,0.0,94713.0,94738.0,94846.0,94860.0,94871.0,94892.0,94901.0,94910.0,95093.0,95166.0,0.05782750031672996,-0.1592891074981378,0.055989444145603695,-0.3554766850863976,0.0083282803199266
120,120,95479.73572065208,377.7842692785218,3.740980328626582,95598.82851752112,-5137.468069699942,6.177147232253904,95626.13528357146,41543.09606917926,8.668375577073235,95648.30135639945,-2758.7142229610326,5.186389929376367,95876.30189040516,4698.144042009089,29.931555591710016,0.9931651896268592,114.0,106.0,64.0,259.0,323.0,8.0,759.0,745.0,8.0,4.0,4.0,0.5,51.04577801241048,380.6095085937071,14.0,9.0,5.0,0.6428571428571429,841.4229167538189,3641.5901734013137,21.0,10.0,11.0,0.4761904761904761,2292.548646282087,41801.31717654076,8.0,2.0,6.0,0.25,1192.1895309628728,17081.576108256108,79.0,41.0,38.0,0.5189873417721519,60.79393525842767,4681.158749799315,0.0,0.0,0.0,0.0,95476.0,95484.0,95590.0,95604.0,95616.0,95637.0,95646.0,95654.0,95836.0,95913.0,0.13511885529245513,-0.1637816343261405,0.055184828845313824,-0.43215405243506905,0.012939989645875156
121,121,96218.27595269104,686.6113684360256,2.485817011606394,96336.41772545553,-4586.482944495761,5.4284620025219255,96363.77949708466,43759.49429250496,8.646207982100158,96430.86288579454,-1137.389726141927,96.82268523278714,96610.28182456708,4649.98003803929,32.397300446771034,0.9946414318341684,112.0,105.0,186.0,137.0,323.0,7.0,739.0,738.0,7.0,3.0,4.0,0.4285714285714285,83.51451062465397,549.6001738705341,15.0,9.0,6.0,0.6,803.9144216571608,3220.0910614720165,22.0,11.0,11.0,0.5,2306.4272237027376,42073.065693151446,111.0,26.0,85.0,0.2342342342342342,49.80580967312656,1132.6871722450194,79.0,37.0,42.0,0.4683544303797468,39.02413738275306,4494.5007560252025,0.0,0.0,0.0,0.0,96215.0,96222.0,96327.0,96342.0,96353.0,96375.0,96409.0,96513.0,96574.0,96650.0,0.12163286899091791,-0.17527906053197878,0.052706898491232744,-0.043789572323701155,0.008392323636556507
122,122,96953.2739827004,465.340331882853,4.481803416054411,97091.06991600676,-4637.902733571186,5.892358782472116,97118.1765713631,41422.468854989434,8.670349217211491,97140.15067819972,-2637.280183168565,4.920347825298497,97366.31266285028,5256.298053109561,30.863113982065546,0.9938150343938532,134.0,123.0,62.0,259.0,321.0,11.0,733.0,754.0,13.0,4.0,9.0,0.3076923076923077,49.43254131861606,692.2754800299181,13.0,8.0,5.0,0.6153846153846154,811.0357816069003,4184.851238761734,21.0,10.0,11.0,0.4761904761904761,2273.7276228500705,41549.90180546378,7.0,2.0,5.0,0.2857142857142857,1203.896408262013,17062.185657097558,78.0,39.0,39.0,0.5,43.3633584002474,5203.548994014979,0.0,0.0,0.0,0.0,96949.0,96960.0,97083.0,97096.0,97108.0,97129.0,97139.0,97145.0,97327.0,97404.0,0.10622879198672262,-0.17487123559885495,0.0548911662124696,-0.45649165983403,0.00824979062490457
123,123,97724.30135639945,715.9819524471509,10.191861603456228,97846.91171531635,-4389.7966659248,5.685876764928982,97873.32947847708,41925.87425761814,8.695023591035712,97895.15067819972,-2421.4136004218885,4.657303660687542,98121.5240276954,5416.654657818378,33.01241522530362,0.99532567382113,117.0,104.0,60.0,262.0,322.0,13.0,774.0,755.0,36.0,21.0,15.0,0.5833333333333334,50.23499156486956,380.60978855159567,13.0,8.0,5.0,0.6153846153846154,868.6564903256028,5494.039335504869,21.0,10.0,11.0,0.4761904761904761,2299.080167168438,42369.07609452302,6.0,1.0,5.0,0.1666666666666666,1221.877527440661,17026.535441483345,81.0,41.0,40.0,0.5061728395061729,41.15806065160402,5410.0804882906705,0.0,0.0,0.0,0.0,97722.0,97735.0,97839.0,97852.0,97863.0,97884.0,97894.0,97899.0,98081.0,98161.0,0.07016237126253204,-0.19788080324276308,0.05483678534743217,-0.5046133082046662,0.007598428043072053
124,124,98318.8123970302,355.62285137491125,5.570823082895363,98633.92526757169,-5173.253254178566,6.184353107186008,98661.41694047367,42439.97179932406,8.433280809843495,98728.82194810128,-1488.2566461703584,22.93168860777651,98911.6080684596,4439.824312819057,27.271322504848527,0.9916874188218452,311.0,303.0,192.0,129.0,321.0,8.0,592.0,788.0,14.0,5.0,9.0,0.3571428571428571,48.821424201768515,230.8870423002841,15.0,9.0,6.0,0.6,819.5443479665041,3353.1608749536704,21.0,10.0,11.0,0.4761904761904761,2340.102605395901,43301.41683597081,128.0,27.0,101.0,0.2109375,47.84336981358056,1720.3444343762117,72.0,37.0,35.0,0.5138888888888888,52.545337828263264,4210.47904720076,0.0,0.0,0.0,0.0,98314.0,98322.0,98625.0,98640.0,98651.0,98672.0,98716.0,98817.0,98877.0,98946.0,0.13728427184309114,-0.15841952978129142,0.05513911782177884,-0.03214725762300006,0.011835003848361675
125,125,99103.1506782022,236.4495480734275,4.233487846172449,99423.99175711987,-4594.745515714214,5.05089231175985,99451.3935899108,44399.211980867374,8.564512535210946,99529.89025949354,-1018.0905009902888,114.65844303888257,99696.46187742065,4957.482649093116,32.83935360131545,0.9935099724116484,314.0,307.0,188.0,132.0,320.0,7.0,786.0,790.0,8.0,2.0,6.0,0.25,51.031331390627386,358.9995493288434,14.0,8.0,6.0,0.5714285714285714,835.5634103868547,3471.160724322814,21.0,10.0,11.0,0.4761904761904761,2358.8417533559336,43963.04343177882,112.0,35.0,77.0,0.3125,37.315164211844866,1016.4929968453348,77.0,36.0,41.0,0.4675324675324675,39.686505332979415,4636.945742667072,0.0,0.0,0.0,0.0,99102.0,99109.0,99416.0,99430.0,99441.0,99462.0,99504.0,99604.0,99661.0,99736.0,0.21582334077788137,-0.18185194534260804,0.05312800944242911,-0.036652109194171535,0.008005374530204227
126,126,99903.05431677333,137.40034664631293,1.2712923993856289,100227.15986280607,-4840.406362782381,6.320789924217542,100254.23673582869,41144.483685783154,8.639799094121413,100275.7260172996,-3154.769703197279,5.094858231622401,100503.11721440562,5211.126472620519,27.841191436170018,0.9914597488346502,318.0,314.0,62.0,258.0,320.0,4.0,799.0,803.0,4.0,2.0,2.0,0.5,44.59200864050969,18.99128914552529,14.0,8.0,6.0,0.5714285714285714,806.4114042296278,3967.443467112881,21.0,10.0,11.0,0.4761904761904761,2291.22452499488,41456.81589208264,7.0,2.0,5.0,0.2857142857142857,1234.3019357711323,17707.586316670557,73.0,37.0,36.0,0.5068493150684932,47.904791429713256,5048.078696469111,0.0,0.0,0.0,0.0,99901.0,99905.0,100219.0,100233.0,100244.0,100265.0,100274.0,100281.0,100466.0,100539.0,0.3245407288185055,-0.16659993888737956,0.05568728343981085,-0.39124945777189335,0.00919279001985599
127,127,100880.69864360055,451.29575400542234,8.830987050701271,101012.10869951974,-4815.505231572319,5.703432154674415,101039.08005675032,41757.74609107255,8.763396617116644,101060.7260172996,-3192.163294253003,4.88440588016678,101288.66138413816,5187.120412367508,29.53914690165497,0.9920056391211148,134.0,121.0,62.0,258.0,320.0,13.0,976.0,785.0,13.0,11.0,2.0,0.8461538461538461,72.72360111333208,900.2951663227764,13.0,8.0,5.0,0.6153846153846154,852.6760409166394,4172.828573358895,22.0,11.0,11.0,0.5,2274.747004696009,41548.8474595297,7.0,2.0,5.0,0.2857142857142857,1224.5123675537193,17542.846670038874,73.0,38.0,35.0,0.5205479452054794,58.43316201051293,5135.455624871467,0.0,0.0,0.0,0.0,100870.0,100883.0,101004.0,101017.0,101028.0,101050.0,101059.0,101066.0,101251.0,101324.0,0.16114399585611502,-0.17706886399503105,0.054474851198502074,-0.3835995388325731,0.011265048305258608
128,128,101505.7260172996,555.2536077023259,7.64389620259217,101785.04269486576,-5021.454400576699,5.495041835430425,101812.6709379364,43966.25488838507,8.65580987790037,101835.7260172996,-2289.6953213990696,5.149821838949297,102062.3701895227,5036.1225927744445,30.524186061353312,0.9944294199706132,283.0,268.0,63.0,258.0,321.0,15.0,628.0,773.0,17.0,13.0,4.0,0.7647058823529411,66.53587807263128,454.6367392358659,13.0,7.0,6.0,0.5384615384615384,838.266954761137,3566.6830363118984,21.0,11.0,10.0,0.5238095238095238,2341.6842471335735,42849.48494797041,7.0,2.0,5.0,0.2857142857142857,1097.7320591324965,15793.349110784236,80.0,42.0,38.0,0.525,62.153907601533895,4923.517138035723,0.0,0.0,0.0,0.0,101495.0,101510.0,101778.0,101791.0,101802.0,101823.0,101834.0,101841.0,102026.0,102099.0,0.11982970871267437,-0.16693708393824397,0.05326094417362339,-0.4794227637508342,0.012341619262944263
129,129,102233.27370068504,183.94884560109935,1.7283709672025749,102577.82060883808,-4028.8295619309006,5.092231820538374,102604.77201832423,42611.359025713224,8.627138277146503,102670.16424219396,-1436.600504175398,107.01454683629038,102851.63194885322,5364.605665913252,31.438844053226727,0.9913352102660304,338.0,332.0,203.0,120.0,323.0,6.0,726.0,793.0,6.0,3.0,3.0,0.5,42.18988240636306,683.5139748601343,15.0,10.0,5.0,0.6666666666666666,842.4397966304012,4285.938848430077,21.0,11.0,10.0,0.5238095238095238,2256.6722314223725,40507.74738226841,125.0,24.0,101.0,0.192,35.21070331137834,1661.2308703490894,74.0,35.0,39.0,0.4729729729729729,47.01634458413934,5206.407047838476,0.0,0.0,0.0,0.0,102230.0,102236.0,102568.0,102583.0,102594.0,102615.0,102646.0,102771.0,102817.0,102891.0,0.22935660329096905,-0.20910286317166626,0.052959405262353064,-0.024509738935104382,0.008764175321008509
130,130,103041.99407644344,314.47009946858833,3.208198733990544,103355.71120888182,-4470.31895623786,5.35575748491466,103382.8946298652,42559.615613216694,8.475808919694469,103468.69864360055,-982.9603160412088,10.191861603456228,103633.15271567732,5165.187931137235,30.039590737931448,0.993366489051446,311.0,301.0,185.0,139.0,324.0,10.0,810.0,778.0,10.0,5.0,5.0,0.5,30.235116577350706,336.6019342554506,13.0,8.0,5.0,0.6153846153846154,835.2343687336978,4708.979443864568,22.0,11.0,11.0,0.5,2301.8728802240903,41914.87640938017,71.0,6.0,65.0,0.0845070422535211,58.274361504832456,1105.0808993598466,80.0,40.0,40.0,0.5,47.60143709037508,5129.302362365013,0.0,0.0,0.0,0.0,103037.0,103047.0,103348.0,103361.0,103372.0,103394.0,103463.0,103533.0,103594.0,103672.0,0.09614623656889458,-0.18683999439642132,0.05408584751196047,-0.05928455152648239,0.009215819003103441
131,131,103777.85526327496,302.4131557939574,2.668728959167065,104119.93740808076,-4333.451517114749,5.059670840658893,104147.657064009,44377.84439704595,8.609528915552072,104225.616276797,-1075.3254052106408,122.30233923919978,104395.0970603617,4795.477129762068,31.730076280406585,0.9947466430137742,338.0,331.0,194.0,127.0,321.0,7.0,735.0,764.0,7.0,4.0,3.0,0.5714285714285714,58.51769472047402,270.40887251715344,13.0,8.0,5.0,0.6153846153846154,819.6839492978003,3232.188614754428,21.0,11.0,10.0,0.5238095238095238,2328.68406991953,42198.791055785376,111.0,29.0,82.0,0.2612612612612612,45.7028875569399,1026.945270469079,79.0,37.0,42.0,0.4683544303797468,53.67791808399713,4232.779246670412,0.0,0.0,0.0,0.0,103774.0,103781.0,104112.0,104125.0,104137.0,104158.0,104198.0,104306.0,104360.0,104433.0,0.1935024769899355,-0.18915267565830604,0.05247402395404634,-0.042501448710762446,0.011193446789863098
132,132,104769.972626301,486.46445629729715,9.26508848402036,104898.71607248044,-4244.039491671988,5.178109877082939,104926.15023222603,42730.59987759195,8.570002862677706,105015.70042471604,-683.0445386683771,71.3430312241936,105175.23603568654,5346.63728845645,32.87266593961112,0.9951171418829264,131.0,104.0,180.0,142.0,322.0,27.0,989.0,779.0,29.0,11.0,18.0,0.3793103448275862,34.44140079587266,577.5370163164997,13.0,8.0,5.0,0.6153846153846154,823.4724073663257,4408.473153570726,21.0,10.0,11.0,0.4761904761904761,2299.151555309159,42551.03613059207,111.0,36.0,75.0,0.3243243243243243,37.44195053455648,756.8213727900173,79.0,39.0,40.0,0.4936708860759494,50.964943692101045,5370.436293041848,0.0,0.0,0.0,0.0,104760.0,104787.0,104891.0,104904.0,104916.0,104937.0,104983.0,105071.0,105137.0,105213.0,0.0707994188476212,-0.19403033571723652,0.05380574019310318,-0.05481626514070529,0.00953214907660482
133,133,105356.84932180028,137.87025386768178,4.810390119024229,105677.61303329038,-4200.611895989739,5.332815809657171,105704.31981322671,42659.583452252766,8.63606415206864,105772.5889030941,-1103.431398123547,104.46658143542632,105952.87340065076,5061.918337339656,30.43112526714552,0.9927929504817604,319.0,311.0,187.0,134.0,321.0,8.0,589.0,778.0,15.0,7.0,8.0,0.4666666666666667,31.71500422385201,6.340840009763497,14.0,9.0,5.0,0.6428571428571429,888.0700019541332,4927.233831907691,21.0,10.0,11.0,0.4761904761904761,2282.602608825606,41877.22403621927,127.0,25.0,102.0,0.1968503937007874,35.49353878545033,1102.6431701832032,73.0,36.0,37.0,0.4931506849315068,56.92082707459493,4959.57154994976,0.0,0.0,0.0,0.0,105350.0,105358.0,105669.0,105683.0,105694.0,105715.0,105749.0,105856.0,105917.0,105990.0,0.23003514778677242,-0.21141443769227056,0.053507381556606975,-0.0321665115256003,0.011244912161998698
134,134,106323.81674510114,547.8768719610941,9.42597509438828,106437.87624284512,-4518.044703971763,5.227714739164856,106464.67657626932,43721.22092901186,8.62277403105927,106548.12330450072,-762.6488440243271,12.739827004320285,106715.01789418224,4814.85442910752,30.41862340510303,0.9962546287335464,113.0,97.0,125.0,194.0,319.0,16.0,967.0,760.0,17.0,6.0,11.0,0.3529411764705882,45.97619506804175,584.8446974751131,12.0,7.0,5.0,0.5833333333333334,858.8799506967557,5308.307206469448,22.0,11.0,11.0,0.5,2303.325764938649,42916.40401167313,73.0,7.0,66.0,0.0958904109589041,60.27363481573026,780.1073011062645,76.0,40.0,36.0,0.5263157894736842,41.79823902457395,4656.217950398555,0.0,0.0,0.0,0.0,106318.0,106334.0,106431.0,106443.0,106454.0,106476.0,106541.0,106556.0,106677.0,106750.0,0.08391702117936202,-0.19009992307993853,0.05268210072812132,-0.07903196246608045,0.008681101295999442
135,135,106888.88807513197,300.70123208403555,6.3017857506847035,107196.4917453832,-4117.251266900715,5.073055698572004,107223.670986408,42599.88807233729,8.631177290287381,107295.71220759484,-940.26940487828,91.72675443110604,107472.16659583851,5183.825825998042,31.953406915678272,0.9948216606899538,302.0,293.0,193.0,130.0,323.0,9.0,566.0,760.0,9.0,3.0,6.0,0.3333333333333333,40.10218849069007,337.2977854733751,14.0,8.0,6.0,0.5714285714285714,777.4243364407924,3830.1157803565943,21.0,11.0,10.0,0.5238095238095238,2245.0884090090894,40775.68613130957,124.0,28.0,96.0,0.2258064516129032,32.72975314003977,881.0485953283443,77.0,38.0,39.0,0.4935064935064935,49.54329867623683,5131.7746790385645,0.0,0.0,0.0,0.0,106886.0,106895.0,107188.0,107202.0,107213.0,107234.0,107275.0,107381.0,107437.0,107511.0,0.1333622353748218,-0.1888212027987311,0.05270174431436975,-0.03480891005304667,0.009557284588491794
136,136,107813.30135639945,535.1789796454831,4.49371282697132,107947.48150237036,-4415.617316538026,5.5035956133107895,107974.44510224675,42327.79625180283,8.53742365634162,108067.19186160344,-652.6056245228293,61.15116962073736,108223.87549074524,5462.706601552598,33.082517557594535,0.9943933966302398,133.0,120.0,191.0,136.0,327.0,13.0,926.0,750.0,13.0,7.0,6.0,0.5384615384615384,60.87741221521471,919.2807738650451,14.0,8.0,6.0,0.5714285714285714,798.2252463832527,4042.809970839964,21.0,10.0,11.0,0.4761904761904761,2295.4591296777826,42438.786665908454,101.0,37.0,64.0,0.3663366336633663,33.101478215221626,727.6824186237388,81.0,39.0,42.0,0.4814814814814814,41.82638704166041,5270.72477354961,0.0,0.0,0.0,0.0,107806.0,107819.0,107939.0,107953.0,107964.0,107985.0,108033.0,108130.0,108185.0,108266.0,0.11375150095682297,-0.18077319413383514,0.05423053721064002,-0.050722024100580944,0.007656714902054709
137,137,108575.7345940156,323.162228209234,1.9726022966112824,108691.48671517704,-4919.073471611273,5.697734430275508,108718.97392550396,42562.14885055356,8.402860180747213,108782.972626301,-1299.8550121584233,17.8357578060484,108970.11409937016,4660.110859939053,28.74996281209614,0.9920246792131264,112.0,105.0,188.0,132.0,320.0,7.0,761.0,745.0,7.0,4.0,3.0,0.5714285714285714,57.535808810685616,398.1659909275795,13.0,7.0,6.0,0.5384615384615384,771.9316856209081,3098.224155444711,21.0,10.0,11.0,0.4761904761904761,2313.6170887151043,42178.512938268745,114.0,11.0,103.0,0.0964912280701754,57.99804861715441,1492.420930037862,71.0,36.0,35.0,0.5070422535211268,69.7104133694652,4517.059938758175,0.0,0.0,0.0,0.0,108572.0,108579.0,108684.0,108697.0,108709.0,108730.0,108773.0,108872.0,108935.0,109004.0,0.17804001763917035,-0.1569262362263634,0.05435855921745863,-0.044618859853337044,0.014958960304729083
138,138,109317.2504573306,294.45338713010153,1.4534954136845049,109433.59865412809,-4562.9253316917475,5.66742684953521,109461.3189841688,44062.168457267595,8.565439511741992,109550.39728720114,-715.07296338015,20.383723206912453,109709.94718439148,4761.904548863624,30.5918047168663,0.9952308577180368,110.0,105.0,130.0,192.0,322.0,5.0,741.0,742.0,5.0,2.0,3.0,0.4,57.1109082871541,390.1574080066979,14.0,9.0,5.0,0.6428571428571429,831.2123371240174,4364.498729531857,21.0,10.0,11.0,0.4761904761904761,2350.4955180124725,44438.71624418304,84.0,16.0,68.0,0.1904761904761904,47.43592576836882,777.2420904949779,75.0,38.0,37.0,0.5066666666666667,50.27786916409423,4782.051637353883,0.0,0.0,0.0,0.0,109315.0,109320.0,109425.0,109439.0,109451.0,109472.0,109536.0,109555.0,109672.0,109747.0,0.19395568461204413,-0.18216654376323918,0.05334498051978608,-0.06633718263397792,0.01055835299682613
139,139,109900.15067819972,254.84769605216655,5.095930801728113,110189.92048988628,-4649.203705353671,6.562773938510497,110217.39060146178,41168.47139908989,8.703281581456746,110238.7260172996,-3182.074516927698,5.14488535276525,110467.26540796625,4999.231386185118,29.258846334883323,0.9924952521176582,292.0,278.0,64.0,259.0,323.0,14.0,584.0,756.0,15.0,11.0,4.0,0.7333333333333333,40.88222447465996,247.9815319269015,15.0,9.0,6.0,0.6,789.4841123901381,4014.4072531888,21.0,10.0,11.0,0.4761904761904761,2279.1653380628513,41587.28890295005,8.0,2.0,6.0,0.25,1228.6813645714062,17523.617172561317,77.0,39.0,38.0,0.5064935064935064,51.90239423751812,4830.151749340213,0.0,0.0,0.0,0.0,109889.0,109903.0,110181.0,110196.0,110207.0,110228.0,110237.0,110245.0,110429.0,110504.0,0.1604182619971243,-0.16981060896106318,0.05536191314874122,-0.3861258930409026,0.01038207480872865
140,140,110817.98396595774,684.7732458817912,3.3956156660977777,110936.55055287978,-4405.519472645343,5.438865467475233,110963.4401227308,42555.12615186855,8.599140369522587,111026.13686849496,-1230.018854817117,89.17878903024199,111212.69863161484,4874.114740109826,32.141685505842474,0.9939899166884246,113.0,106.0,187.0,137.0,324.0,7.0,918.0,746.0,8.0,4.0,4.0,0.5,61.11505794310568,475.9689547436941,14.0,9.0,5.0,0.6428571428571429,880.753281467219,4490.7024153290895,21.0,10.0,11.0,0.4761904761904761,2299.7834452190077,42121.07924111507,110.0,21.0,89.0,0.1909090909090909,55.31239985248267,1504.073141445393,76.0,36.0,40.0,0.4736842105263157,46.45398931749854,4986.298916009033,0.0,0.0,0.0,0.0,110815.0,110822.0,110928.0,110942.0,110953.0,110974.0,111006.0,111115.0,111178.0,111252.0,0.08924860647031711,-0.199920415046619,0.05404245394577515,-0.04496874144315998,0.009530754156282299
141,141,111550.2739827004,614.679272034155,2.6474873038972797,111684.1248405924,-4685.570069608865,5.1682418341782,111711.4912344721,44305.5696596974,8.665708534462635,111781.10949479598,-1215.5377459669014,71.3430312241936,111960.64389901032,4667.562985475464,30.10918837459566,0.9951590624032528,130.0,120.0,183.0,141.0,324.0,10.0,730.0,748.0,10.0,4.0,6.0,0.4,88.9452590280176,831.9782544128884,14.0,8.0,6.0,0.5714285714285714,826.9964425487854,3661.303267842385,21.0,10.0,11.0,0.4761904761904761,2336.914760474384,44256.88749972831,114.0,29.0,85.0,0.2543859649122807,68.92289821563196,1178.7251737957122,76.0,37.0,39.0,0.4868421052631579,60.91253404737413,4580.896445534772,0.0,0.0,0.0,0.0,111546.0,111556.0,111676.0,111690.0,111701.0,111722.0,111765.0,111859.0,111925.0,112000.0,0.14470190077122905,-0.17649857546956288,0.052745394730815534,-0.05670156969153363,0.01305017934132264
142,142,112143.66081405184,318.1060571510028,2.7511436290379456,112455.34047214565,-4492.398906867199,5.735751473266631,112483.08416730235,42304.21110043858,8.505959736006993,112552.09593080172,-879.7463911066461,30.57558481036868,112732.317604367,5144.735335866176,31.25694105085795,0.9944353260145352,307.0,300.0,169.0,156.0,325.0,7.0,594.0,772.0,7.0,4.0,3.0,0.5714285714285714,43.63563389995343,318.89059575414683,14.0,8.0,6.0,0.5714285714285714,749.3474866005674,3532.507629330982,21.0,10.0,11.0,0.4761904761904761,2275.238267348396,41998.0456537182,83.0,18.0,65.0,0.216867469879518,38.03842803824316,951.2389299941286,81.0,40.0,41.0,0.4938271604938271,53.991406864724496,4892.171445531275,0.0,0.0,0.0,0.0,112140.0,112147.0,112447.0,112461.0,112473.0,112494.0,112535.0,112616.0,112693.0,112772.0,0.13717322546687594,-0.16680341664563564,0.053782784459602134,-0.04323794723430926,0.01049449647843438
143,143,112915.38136453512,137.72704882622298,3.44429306881522,113231.51327916594,-4812.516732754206,6.510571633067861,113258.79404743382,41325.27760599899,8.635170742215088,113280.7260172996,-2808.4427451679985,5.17697265769546,113509.04367063857,5222.118358586437,29.88187483466914,0.9924537907099076,310.0,303.0,63.0,262.0,325.0,7.0,773.0,776.0,8.0,2.0,6.0,0.25,33.157345833899065,68.47302475768078,14.0,9.0,5.0,0.6428571428571429,843.1231234945449,4300.6383578283985,21.0,11.0,10.0,0.5238095238095238,2271.317022787912,40461.25124172383,7.0,2.0,5.0,0.2857142857142857,1180.949646800794,17077.69598900535,80.0,40.0,40.0,0.5,45.34767472594864,4994.694796626567,0.0,0.0,0.0,0.0,112913.0,112920.0,113223.0,113237.0,113248.0,113269.0,113279.0,113286.0,113470.0,113548.0,0.2407467967729079,-0.1751938061339529,0.05496193018817605,-0.4204998121584105,0.008683769997550132
144,144,0.0,0.0,0.0,0.0,0.0,0.0,0.0,0.0,0.0,0.0,0.0,0.0,0.0,0.0,0.0,0.0,0.0,0.0,0.0,0.0,0.0,0.0,0.0,0.0,0.0,0.0,0.0,0.0,0.0,0.0,0.0,0.0,0.0,0.0,0.0,0.0,0.0,0.0,0.0,0.0,0.0,0.0,0.0,0.0,0.0,0.0,0.0,0.0,0.0,0.0,0.0,0.0,0.0,0.0,0.0,0.0,0.0,0.0,,,,,,,,,,,,,,,
145,145,114648.80699634916,489.0292152137531,10.191861603456228,114764.42414519312,-4380.228711684161,5.258648725627764,114791.85790286765,43069.52190017285,8.571197846093632,114898.18195030888,-698.4535861448529,46.74392674806598,115040.17016407204,4970.631404864526,32.45924108216754,0.9956159679807458,113.0,105.0,183.0,139.0,322.0,8.0,1732.0,1533.0,10.0,6.0,4.0,0.6,51.144549671515946,541.9208408420928,13.0,7.0,6.0,0.5384615384615384,772.515334664051,3826.499383090433,22.0,11.0,11.0,0.5,2285.560284778984,42216.36964640641,72.0,30.0,42.0,0.4166666666666667,39.12026328539061,913.2997384952552,82.0,41.0,41.0,0.5,45.50321103099783,4865.678566046071,0.0,0.0,0.0,0.0,114644.0,114652.0,114757.0,114770.0,114781.0,114803.0,114868.0,114940.0,115000.0,115079.0,0.10458383278626988,-0.17636415482218631,0.053066767030209634,-0.05600982522162528,0.009154412653987167
