Unnamed: 0,cycle,p_center,p_height,p_width,q_center,q_height,q_width,r_center,r_height,r_width,s_center,s_height,s_width,t_center,t_height,t_width,r_squared,pr_interval,pr_segment,qrs_duration,st_segment,qt_interval,p_duration,pp_interval,rr_interval,fwhm_p,rise_time_p,decay_time_p,rise_decay_symmetry_p,sharpness_deriv_p,sharpness_diff_p,fwhm_q,rise_time_q,decay_time_q,rise_decay_symmetry_q,sharpness_deriv_q,sharpness_diff_q,fwhm_r,rise_time_r,decay_time_r,rise_decay_symmetry_r,sharpness_deriv_r,sharpness_diff_r,fwhm_s,rise_time_s,decay_time_s,rise_decay_symmetry_s,sharpness_deriv_s,sharpness_diff_s,fwhm_t,rise_time_t,decay_time_t,rise_decay_symmetry_t,sharpness_deriv_t,sharpness_diff_t,Average_Heart_Rate,SDNN,RMSSD,NN50,p_on,p_off,q_on,q_off,r_on,r_off,s_on,s_off,t_on,t_off,sharpness_deriv_p_norm,sharpness_deriv_q_norm,sharpness_deriv_r_norm,sharpness_deriv_s_norm,sharpness_deriv_t_norm
0,0,0.0,0.0,0.0,0.0,0.0,0.0,0.0,0.0,0.0,0.0,0.0,0.0,0.0,0.0,0.0,0.0,0.0,0.0,0.0,0.0,0.0,0.0,0.0,0.0,0.0,0.0,0.0,0.0,0.0,0.0,0.0,0.0,0.0,0.0,0.0,0.0,0.0,0.0,0.0,0.0,0.0,0.0,0.0,0.0,0.0,0.0,0.0,0.0,0.0,0.0,0.0,0.0,0.0,0.0,74.93854785123816,254.39607148669867,363.20384806670734,131.0,,,,,,,,,,,,,,,
1,1,1396.8047043328538,762.9141472931678,9.025226911665095,1522.013881880523,-7689.451558999466,9.62573711087677,1555.654788832861,50070.05857437361,10.495337652910164,1648.73982700432,-1935.3351351668584,42.9658620998058,1810.1345547783897,8389.055147400008,26.47281631640995,0.9929422774059252,127.0,101.0,199.0,132.0,331.0,26.0,,,26.0,13.0,13.0,0.5,34.43890512540746,728.674285692593,19.0,11.0,8.0,0.5789473684210527,713.1196064358854,1931.6241885863124,26.0,13.0,13.0,0.5,2082.3179035095454,48030.22946167317,105.0,43.0,62.0,0.4095238095238095,16.51668578751196,1750.008569362088,66.0,33.0,33.0,0.5,92.72223447934331,8944.62282561118,0.0,0.0,0.0,0.0,1384.0,1410.0,1511.0,1530.0,1543.0,1569.0,1606.0,1710.0,1778.0,1842.0,0.04514125901006984,-0.09273998294472316,0.04158808602982737,-0.008534276822338548,0.011052762540019826
2,2,2204.250258479955,1040.8085964587206,11.992397122985013,2327.955301460314,-7676.785791085706,8.95973787038845,2361.014187305788,49842.69290591338,10.510470083958728,2432.36991350216,-1627.7296921646637,38.21948101296085,2615.965660183933,8158.675524271084,26.60047334976245,0.9945087115417152,129.0,95.0,205.0,126.0,331.0,34.0,805.0,805.0,36.0,17.0,19.0,0.4722222222222222,28.441109025333347,964.945117778882,19.0,11.0,8.0,0.5789473684210527,759.4894679664727,1167.252903561598,26.0,13.0,13.0,0.5,2067.707129628758,48588.70725139028,114.0,21.0,93.0,0.1842105263157894,22.49984576396191,1613.4394491568476,65.0,33.0,32.0,0.5076923076923077,89.62203489612918,8579.798582825433,0.0,0.0,0.0,0.0,2188.0,2222.0,2317.0,2336.0,2348.0,2374.0,2411.0,2522.0,2583.0,2648.0,0.0273259743646452,-0.09893326303938205,0.04148465921638522,-0.013822839180404773,0.010984875502097655
3,3,2987.5205917018716,1436.7484103282773,13.40526873612596,3112.9272303670914,-7651.860056597685,9.004138059850055,3145.9876478339993,49428.14905155722,10.511010871030877,3211.671269901584,-1726.8299266643864,28.027619409504627,3401.6088610644024,8309.64420822086,24.99204328120078,0.9937747156934038,133.0,95.0,212.0,118.0,330.0,38.0,782.0,785.0,38.0,19.0,19.0,0.5,35.79285374143184,1256.0768844885704,19.0,11.0,8.0,0.5789473684210527,758.0406733328169,1106.5852612984436,26.0,13.0,13.0,0.5,2050.407847505119,48323.04369654598,120.0,16.0,104.0,0.1333333333333333,38.2454764021548,2096.4092263613375,62.0,32.0,30.0,0.5161290322580645,96.57171165254827,8553.830364199968,0.0,0.0,0.0,0.0,2969.0,3007.0,3102.0,3121.0,3133.0,3159.0,3196.0,3314.0,3370.0,3432.0,0.02491240184024541,-0.09906619667974839,0.041482594166461544,-0.022147795687112795,0.011621642182586878
4,4,3760.8642204046014,1670.6551942529493,15.936030057666237,3888.5972805070246,-7475.000639218792,8.459126737346073,3921.266432716668,49380.74416404904,10.509259123244682,4019.013809704752,-1480.8147850168912,46.46739950303189,4176.813367328389,8276.91468103269,26.106364209348328,0.9959310677868868,137.0,93.0,205.0,125.0,330.0,44.0,775.0,776.0,45.0,21.0,24.0,0.4666666666666667,35.84395767562295,1495.266292661498,18.0,11.0,7.0,0.6111111111111112,804.497543398147,35.562977445155866,27.0,13.0,14.0,0.4814814814814814,2042.4116471766697,48937.84374348983,114.0,47.0,67.0,0.4122807017543859,19.71571635861598,1296.8584518554376,63.0,32.0,31.0,0.5079365079365079,92.37760240328674,8577.669134713706,0.0,0.0,0.0,0.0,3741.0,3785.0,3878.0,3896.0,3908.0,3935.0,3972.0,4083.0,4146.0,4208.0,0.021455030217441697,-0.10762508021433756,0.04136048740763244,-0.013314100154929969,0.011160874065185003
5,5,10550.322096069862,937.904799673577,13.564642026638642,10663.21175471394,-6567.158185107772,8.037225292933512,10696.457551674732,47535.2968563617,10.395241239775128,10762.24660900144,-1227.9717544222783,10.888226048054037,10950.357868306952,9427.83781005055,28.510293473129376,0.993992247832852,123.0,83.0,155.0,176.0,331.0,40.0,6796.0,6775.0,40.0,20.0,20.0,0.5,24.502086070911687,890.6171109754046,18.0,10.0,8.0,0.5555555555555556,669.2429370669021,656.5796875114002,27.0,13.0,14.0,0.4814814814814814,1954.2904825158332,47440.55351867032,66.0,15.0,51.0,0.2272727272727272,40.576419105470634,1297.2306434996622,70.0,35.0,35.0,0.5,95.82358836949656,10110.54564668934,0.0,0.0,0.0,0.0,10530.0,10570.0,10653.0,10671.0,10683.0,10710.0,10748.0,10808.0,10916.0,10984.0,0.026124278369658895,-0.10190754024846431,0.04111240723753445,-0.03304344660969873,0.010163898690253644
6,6,11499.303668234706,1170.531400897005,12.008461087309106,11614.40540799103,-7437.190657336744,8.79598760455509,11647.642438417784,51028.29507244874,10.509740662983695,11713.24660900144,-946.7277942532936,25.47965400864057,11905.181973598175,8897.932953655527,26.73283042354147,0.9953598012260252,121.0,88.0,197.0,136.0,333.0,33.0,946.0,951.0,33.0,16.0,17.0,0.4848484848484848,36.42224223559686,1179.8546995923143,18.0,10.0,8.0,0.5555555555555556,718.1035263133932,1359.4447236727617,27.0,14.0,13.0,0.5185185185185185,2106.79527448138,49047.65278833528,106.0,14.0,92.0,0.1320754716981132,33.97768788051291,1311.4185197829322,65.0,33.0,32.0,0.5076923076923077,96.08305391065406,9413.28271213443,0.0,0.0,0.0,0.0,11483.0,11516.0,11604.0,11622.0,11634.0,11661.0,11699.0,11801.0,11873.0,11937.0,0.0311159890351388,-0.09655575060523537,0.04128680512429826,-0.0358896063755178,0.01079835669824646
7,7,12368.912328688835,489.1338220834579,5.9848864405522635,12494.908195377297,-7833.80379412205,9.772103293928629,12528.330085747515,50554.62263404418,10.534372695363404,12618.968933154789,-2050.130942513442,46.587788693441176,12785.034656657986,8616.522280701965,25.497895280749272,0.993078698084981,124.0,106.0,191.0,141.0,332.0,18.0,870.0,881.0,18.0,9.0,9.0,0.5,33.79006964689094,502.9230972870976,19.0,11.0,8.0,0.5789473684210527,743.4905191072681,1754.44941745014,27.0,13.0,14.0,0.4814814814814814,2096.438384584811,50213.558001335805,100.0,41.0,59.0,0.41,16.337107743032494,2037.223116605607,63.0,31.0,32.0,0.492063492063492,97.85270587518198,9045.725678206543,0.0,0.0,0.0,0.0,12360.0,12378.0,12484.0,12503.0,12515.0,12542.0,12578.0,12675.0,12754.0,12816.0,0.0690814417677409,-0.09490798322841995,0.041468777242400785,-0.007968811847209793,0.011356403742416851
8,8,13167.924978294324,1168.0614777027183,11.334612219848928,13291.56784358093,-7638.633695326649,9.181576463792007,13324.973671672613,49641.871150825595,10.537631553940043,13427.72385912986,-2146.2190599499077,50.98716226630716,13580.434204497578,8722.57645802145,26.196206785222937,0.9934143969309012,128.0,98.0,212.0,119.0,331.0,30.0,797.0,796.0,31.0,16.0,15.0,0.5161290322580645,38.76470617518222,1086.358845956427,19.0,11.0,8.0,0.5789473684210527,760.4686654299959,976.4272665185232,26.0,13.0,13.0,0.5,2046.1122094488176,48273.596517783866,121.0,53.0,68.0,0.4380165289256198,17.173027519363593,1898.0615955350677,63.0,31.0,32.0,0.492063492063492,101.05870698712378,9246.732110346056,0.0,0.0,0.0,0.0,13153.0,13183.0,13281.0,13300.0,13312.0,13338.0,13375.0,13493.0,13549.0,13612.0,0.03318721395677101,-0.09955558752545682,0.0412174674728148,-0.008001525957822967,0.011585878034257669
9,9,13917.327054801111,929.8083631315636,11.174368211145763,14041.531900404874,-7237.066991409743,8.528504557000705,14074.177648839106,49571.9590736797,10.60347515788242,14143.712207594815,-1878.5956633239832,91.72675443110604,14329.15608437446,8392.666991795264,25.84265628499921,0.9934804509072336,128.0,100.0,209.0,121.0,330.0,28.0,748.0,750.0,28.0,15.0,13.0,0.5357142857142857,32.215248166482276,770.7627870271153,19.0,12.0,7.0,0.631578947368421,805.4560304467707,657.2009296585193,26.0,13.0,13.0,0.5,2036.163280532816,47674.266225789586,119.0,22.0,97.0,0.1848739495798319,20.45107003114305,2151.500791165983,59.0,28.0,31.0,0.4745762711864407,108.02942460048446,8831.84153749181,0.0,0.0,0.0,0.0,13902.0,13930.0,14030.0,14049.0,14061.0,14087.0,14123.0,14239.0,14301.0,14360.0,0.034647191231946324,-0.1112959202122671,0.04107490037878934,-0.01088636071636457,0.012871882645420682
10,10,14643.52059170187,1578.981378668403,15.523688023539584,14772.461967880932,-7499.255407513417,8.704773021090777,14805.179554326513,49170.2383470017,10.449386451864026,14897.96780224955,-1523.1304239266192,47.283749460762046,15059.95933260704,7985.044913409798,26.67316230660698,0.9953713362218086,137.0,95.0,196.0,133.0,329.0,42.0,724.0,731.0,45.0,20.0,25.0,0.4444444444444444,37.16048940335631,1415.9627937906707,18.0,10.0,8.0,0.5555555555555556,729.6553031650889,1437.2605718200302,26.0,13.0,13.0,0.5,2044.2854661425167,48428.416275114934,105.0,43.0,62.0,0.4095238095238095,17.343838152379462,1436.32267025819,64.0,32.0,32.0,0.5,89.53556698840582,8433.81419300126,0.0,0.0,0.0,0.0,14625.0,14667.0,14762.0,14780.0,14792.0,14818.0,14855.0,14958.0,15028.0,15091.0,0.023534469693806483,-0.09729703330734085,0.0415756672098209,-0.011386968495887025,0.01121290712317009
11,11,15399.625957830884,1628.237698435967,15.520153330831368,15528.929555219696,-7381.134915966678,9.328591856932226,15562.368012989278,47057.56636119548,10.397325528073114,15629.52059170187,-2338.389819166958,33.12355021123273,15816.665586649677,8681.087912787643,24.89458137509299,0.9917520067080514,139.0,94.0,207.0,122.0,329.0,45.0,758.0,757.0,47.0,21.0,26.0,0.4468085106382978,33.06016646431145,1369.247620545847,19.0,11.0,8.0,0.5789473684210527,688.6473342158386,1781.3545606263087,27.0,13.0,14.0,0.4814814814814814,1966.2873349040112,46456.85349992708,116.0,19.0,97.0,0.1637931034482758,30.60872632959081,2436.7200222656866,61.0,31.0,30.0,0.5081967213114754,104.1183658099612,9052.702477710873,0.0,0.0,0.0,0.0,15379.0,15424.0,15518.0,15537.0,15549.0,15576.0,15611.0,15725.0,15786.0,15847.0,0.020304263005375682,-0.0932982992528933,0.041784722138232956,-0.01308965942235202,0.011993700197021395
12,12,16132.821948101297,927.4163240895344,9.126879865942234,16264.07022998914,-7323.137198398197,10.329468424202704,16297.661276024484,47251.45009606771,10.44220900302754,16366.945252602014,-2156.561238599478,35.6715156120968,16550.781663276022,8008.67172889554,25.51495768603607,0.9900006230307734,133.0,107.0,198.0,131.0,329.0,26.0,733.0,735.0,26.0,13.0,13.0,0.5,39.2832776678103,941.2182022438104,20.0,11.0,9.0,0.55,666.63081424606,2206.5060425313645,26.0,13.0,13.0,0.5,1980.640644904336,45067.73361663111,106.0,20.0,86.0,0.1886792452830188,25.267925584508703,2167.39807820937,63.0,32.0,31.0,0.5079365079365079,88.38925393028293,8351.077196756982,0.0,0.0,0.0,0.0,16120.0,16146.0,16253.0,16273.0,16285.0,16311.0,16347.0,16451.0,16519.0,16582.0,0.0423577595600073,-0.09103076948932123,0.04191703409900569,-0.0117167670141926,0.011036693339717213
13,13,16907.23781552392,1683.2866072357597,19.27275587545423,17041.768527500368,-7508.469953345874,8.730632074744172,17074.658864150708,49588.26204564866,10.462844645442363,17177.442884301574,-1758.4224614655734,50.81773230989489,17330.00482624369,8294.354737413809,25.70463210354879,0.995139695761374,145.0,98.0,214.0,116.0,330.0,47.0,776.0,777.0,47.0,21.0,26.0,0.4468085106382978,38.07829834273552,1743.357289344117,18.0,11.0,7.0,0.6111111111111112,771.7106560652862,627.0347152451959,26.0,13.0,13.0,0.5,2062.9026521894525,47439.56334303258,122.0,52.0,70.0,0.4262295081967213,16.766204703410647,1612.0582494226437,62.0,31.0,31.0,0.5,89.3841545349626,8566.145262255524,0.0,0.0,0.0,0.0,16886.0,16933.0,17031.0,17049.0,17062.0,17088.0,17125.0,17245.0,17299.0,17361.0,0.02262139921927289,-0.10277868338827162,0.04160062416163002,-0.009534798986494234,0.010776504907822728
14,14,17715.804365478536,1635.1177494776166,17.18667806897799,17849.63671898109,-7348.9646335255775,8.608447114984411,17882.73680384497,48547.62293142645,10.432791692014062,17984.61043687482,-1721.6666484539392,48.26326338038447,18135.05455655951,8774.16358551793,26.99880664797019,0.9946112611193976,143.0,99.0,212.0,117.0,329.0,44.0,808.0,808.0,45.0,21.0,24.0,0.4666666666666667,37.182456167994346,1557.4346799513787,18.0,11.0,7.0,0.6111111111111112,755.7445930285452,697.6358202360989,26.0,13.0,13.0,0.5,2017.1604324088892,46567.27627372219,118.0,52.0,66.0,0.4406779661016949,20.075852799899817,1561.428573713932,67.0,34.0,33.0,0.5074626865671642,87.14652521479371,9213.913788144557,0.0,0.0,0.0,0.0,17696.0,17740.0,17839.0,17857.0,17870.0,17896.0,17933.0,18051.0,18102.0,18168.0,0.0227399257208683,-0.10283687984847273,0.041550138000744745,-0.011660708429200264,0.009932174658634375
15,15,18511.36982575732,1913.4720493483997,15.334153116567666,18645.59354174096,-7471.860167947074,9.931704228884056,18679.33485730376,47110.20051459249,10.394524899366,18744.67126990158,-2256.786348782395,28.027619409504627,18933.477457910987,8289.094906357224,25.46596042429943,0.9899430614810256,143.0,103.0,211.0,118.0,329.0,40.0,795.0,797.0,40.0,19.0,21.0,0.475,48.631097935918184,1876.7365130694063,19.0,11.0,8.0,0.5789473684210527,695.626028375351,1867.7682303862375,27.0,13.0,14.0,0.4814814814814814,1972.1624472523624,46696.48772753107,118.0,16.0,102.0,0.135593220338983,41.59601832196419,2449.04506419307,64.0,32.0,32.0,0.5,93.2669075723902,8726.231618977952,0.0,0.0,0.0,0.0,18492.0,18532.0,18635.0,18654.0,18666.0,18693.0,18729.0,18846.0,18901.0,18964.0,0.02541510755408143,-0.09309944414638012,0.041862747891329405,-0.018431526911888006,0.011251760128944866
16,16,19352.315894376217,1812.037910943503,15.964438703057866,19489.189832189804,-7719.369055313861,8.97217047045711,19522.326113031948,50469.57546807686,10.459793244421046,19620.01380970475,-1828.9165173559695,41.546551082799745,19777.6137015315,8218.318960515024,26.385802275320422,0.9936116240759332,145.0,105.0,200.0,131.0,331.0,40.0,843.0,843.0,41.0,19.0,22.0,0.4634146341463415,45.3290771044888,1778.776738701688,19.0,11.0,8.0,0.5789473684210527,743.4655897352762,1577.2303195135787,27.0,13.0,14.0,0.4814814814814814,2097.858009857561,50188.2050642996,108.0,48.0,60.0,0.4444444444444444,19.403423588829796,1579.9544784778889,65.0,33.0,32.0,0.5076923076923077,95.19972750617804,8708.026037607087,0.0,0.0,0.0,0.0,19333.0,19373.0,19478.0,19497.0,19509.0,19536.0,19573.0,19678.0,19746.0,19809.0,0.025015523588513985,-0.09631170428669804,0.04156678534346902,-0.01060924509385533,0.01158384433161646
17,17,20188.704259102466,1049.3642969694888,12.271577482530262,20322.427245208324,-6634.181772628337,8.562186118019394,20355.71334432102,48617.764164898115,10.632984429299528,20426.5889030941,-2823.937895264116,104.46658143542632,20606.67649964474,8298.292610820063,27.08558925062641,0.9893509156279128,136.0,111.0,212.0,117.0,329.0,25.0,835.0,833.0,26.0,15.0,11.0,0.5769230769230769,37.281164096910445,720.3481075409129,21.0,12.0,9.0,0.5714285714285714,672.8713310325224,2640.177996356242,26.0,13.0,13.0,0.5,1983.0836348511732,44503.659457606926,122.0,24.0,98.0,0.1967213114754098,22.580879497984036,2885.8099751103473,62.0,29.0,33.0,0.4677419354838709,90.31188320391576,8374.260866325254,0.0,0.0,0.0,0.0,20174.0,20199.0,20310.0,20331.0,20343.0,20369.0,20403.0,20522.0,20580.0,20639.0,0.03552737996192225,-0.10142491630372431,0.040789280809481444,-0.007996237996541387,0.010883188559313873
18,18,20997.1088558174,1662.299621191039,17.31635080900889,21132.561965947065,-7472.626432173204,8.444989399254615,21165.512355068884,50075.25307528541,10.480155771817538,21267.863131505037,-1594.462873854366,42.37673148898888,21420.10984817184,8323.498171280353,26.88841771696728,0.9947368466022544,146.0,102.0,211.0,119.0,330.0,44.0,808.0,810.0,45.0,21.0,24.0,0.4666666666666667,39.65293602298482,1619.2103096618143,18.0,11.0,7.0,0.6111111111111112,794.6955294396367,166.70387944050026,27.0,14.0,13.0,0.5185185185185185,2073.6949719896616,47628.44350518635,115.0,50.0,65.0,0.4347826086956521,19.52676869071353,1437.7926313751784,66.0,33.0,33.0,0.5,90.41092655090354,8817.800308264796,0.0,0.0,0.0,0.0,20976.0,21020.0,21122.0,21140.0,21152.0,21179.0,21218.0,21333.0,21388.0,21452.0,0.023854265210367705,-0.10634755218300426,0.04141157247616851,-0.012246612330025976,0.010862130884206848
19,19,21832.127987371365,1663.7815260171024,16.610685958107556,21962.06451324969,-7406.521333830155,8.384052516977926,21994.923888082623,50254.04556615157,10.51190204273944,22095.43847060489,-1634.8234426632769,38.344614673840574,22249.46946986344,8629.064907870259,27.81911396184047,0.9954530233128218,140.0,94.0,203.0,128.0,331.0,46.0,832.0,829.0,48.0,22.0,26.0,0.4583333333333333,31.67612290032516,1480.7301432558131,18.0,11.0,7.0,0.6111111111111112,764.9272732806778,566.5168320737093,26.0,13.0,13.0,0.5,2073.193724890729,49015.00629299726,109.0,49.0,60.0,0.4495412844036697,20.35226774704491,1343.0067216128762,68.0,34.0,34.0,0.5,90.68481684078505,9284.54163046732,0.0,0.0,0.0,0.0,21811.0,21857.0,21951.0,21969.0,21982.0,22008.0,22047.0,22154.0,22216.0,22282.0,0.019038631217497697,-0.10327753594481431,0.041254265234461455,-0.012449214524284777,0.010509228729763603
20,20,23416.895145403436,1274.5600619761776,15.390398234764616,23546.972135653985,-7055.799441316869,8.154306366272305,23579.80124830798,50698.27541243884,10.650178785962137,23651.438224894388,-1938.5234505719004,99.37065063369822,23833.66821385498,8115.53192351072,27.00142941521145,0.9939782514623218,137.0,99.0,218.0,113.0,331.0,38.0,1587.0,1585.0,39.0,19.0,20.0,0.4871794871794871,30.107902425921075,1054.5272345469298,20.0,12.0,8.0,0.6,776.6698020996593,1012.0973074917748,26.0,13.0,13.0,0.5,2066.4269963663114,47599.30966150669,125.0,22.0,103.0,0.176,18.69896111037142,2076.7913582586393,64.0,31.0,33.0,0.484375,87.9724615900529,8332.542381570724,0.0,0.0,0.0,0.0,23398.0,23436.0,23535.0,23555.0,23567.0,23593.0,23629.0,23753.0,23803.0,23866.0,0.0236221919422451,-0.11007537963050497,0.040759315372280155,-0.009645981380753935,0.010840011772388747
21,21,24225.800699666353,1781.2625496951405,17.186719192425947,24355.9510851157,-7475.7428233289775,8.655431064010639,24389.00939612668,49407.47118374645,10.502098913927144,24486.013809704706,-1668.601300146432,44.30634346431592,24643.857870761844,8885.31186516812,27.659493379834828,0.9954248034925758,141.0,95.0,205.0,127.0,332.0,46.0,807.0,810.0,47.0,22.0,25.0,0.4680851063829787,30.458726386897865,1592.971559439094,19.0,11.0,8.0,0.5789473684210527,754.5943774399307,938.0458130310722,26.0,13.0,13.0,0.5,2039.048100185576,48223.08209768026,112.0,47.0,65.0,0.4196428571428571,18.123578745700343,1528.661139696614,67.0,34.0,33.0,0.5074626865671642,95.47061148370746,9426.226447256491,0.0,0.0,0.0,0.0,24204.0,24250.0,24345.0,24364.0,24376.0,24402.0,24439.0,24550.0,24611.0,24677.0,0.017099515392669552,-0.10093904984065608,0.04127003571185325,-0.010861539388774218,0.010744767649402145
22,22,25813.733208502537,1907.8055898554423,18.66699267667787,25947.016803175706,-7485.166473031025,8.602272569958055,25980.21688396752,49981.02376946268,10.499300452027684,26080.43847060489,-1474.1028176124453,46.30078400815613,26235.22921141087,8395.959270330442,26.761951886683185,0.9953383251763828,144.0,96.0,209.0,122.0,331.0,48.0,1590.0,1591.0,50.0,23.0,27.0,0.46,39.784047485362144,1784.9612626884132,19.0,11.0,8.0,0.5789473684210527,747.7152598586376,1073.5391547558695,27.0,13.0,14.0,0.4814814814814814,2057.308688746755,49313.6361396233,116.0,49.0,67.0,0.4224137931034483,19.5007625145248,1317.016021771601,64.0,32.0,32.0,0.5,92.38133203444715,8892.349693882363,0.0,0.0,0.0,0.0,25792.0,25840.0,25936.0,25955.0,25967.0,25994.0,26032.0,26145.0,26204.0,26267.0,0.02085330271433823,-0.09989293659034142,0.04116179568942175,-0.01322890254433509,0.01100307053190496
23,23,26645.67126990158,1285.4671640144838,12.084294186406227,26777.79968662969,-7667.582213735423,9.528135807218122,26811.282818448897,49712.49584173764,10.494202897368584,26907.791994458777,-2429.973830555199,49.79592638983825,27065.82280477645,8059.966854531728,25.957478231789956,0.9934741523580308,137.0,105.0,208.0,122.0,330.0,32.0,831.0,831.0,34.0,16.0,18.0,0.4705882352941176,40.317987123470274,1207.3604794548232,19.0,11.0,8.0,0.5789473684210527,732.7012419840515,1601.6996856399028,27.0,13.0,14.0,0.4814814814814814,2057.9980998327414,49003.03684940083,115.0,48.0,67.0,0.417391304347826,20.893723073675996,2279.2848577604127,63.0,31.0,32.0,0.492063492063492,91.1457217685553,8542.326320691524,0.0,0.0,0.0,0.0,26630.0,26662.0,26767.0,26786.0,26798.0,26825.0,26860.0,26975.0,27035.0,27097.0,0.031364462859991026,-0.09555831571933036,0.041398003962313364,-0.008598332546199565,0.011308448708732405
24,24,27443.437789839376,1629.510059647975,17.959133037057892,27579.288232198804,-7500.367367448558,8.912347645941644,27612.49138905994,48708.14746289395,10.477559727973238,27710.93370573379,-1663.085050754246,48.47730359549785,27866.84921811376,8053.009025263268,26.508003411098866,0.9948502383356732,146.0,100.0,206.0,125.0,331.0,46.0,801.0,801.0,46.0,21.0,25.0,0.4565217391304347,35.615972869770665,1667.5347254435696,19.0,11.0,8.0,0.5789473684210527,708.4287628384142,1711.7752396385754,27.0,13.0,14.0,0.4814814814814814,2014.649587442608,48692.77961957088,114.0,49.0,65.0,0.4298245614035088,20.39335854631631,1551.327234493492,65.0,33.0,32.0,0.5076923076923077,90.77428766470506,8538.051828233107,0.0,0.0,0.0,0.0,27422.0,27468.0,27568.0,27587.0,27599.0,27626.0,27663.0,27774.0,27835.0,27899.0,0.02185685977137498,-0.09445254187321285,0.041361654925952084,-0.012262366580150228,0.01127209560798145
25,25,28267.017034349486,1432.9663264725643,16.87911728788519,28402.368413013657,-7689.702325057602,9.166009981825232,28435.652436702283,49422.74896215739,10.470341584451898,28539.67339198549,-2204.8323961763053,50.17594616039206,28691.08202164399,7896.4378280819055,25.71634721958576,0.993946244868001,145.0,100.0,216.0,115.0,331.0,45.0,822.0,823.0,45.0,21.0,24.0,0.4666666666666667,33.31198350534263,1423.1925292581425,19.0,11.0,8.0,0.5789473684210527,708.8216565669453,2077.2733546786003,26.0,13.0,13.0,0.5,2056.1915084361844,47238.11031450154,122.0,54.0,68.0,0.4426229508196721,19.49972061346187,2124.1344764329297,62.0,30.0,32.0,0.4838709677419355,92.62450932102438,8361.090170964766,0.0,0.0,0.0,0.0,28246.0,28291.0,28391.0,28410.0,28423.0,28449.0,28486.0,28607.0,28661.0,28722.0,0.023246871116186292,-0.09217803584635322,0.041604150955071195,-0.008844082954912557,0.011729910541640198
26,26,29086.38647657001,1133.8112804436762,13.020690506962517,29219.864063614288,-7822.542491468129,9.592380800896056,29253.18221952464,49011.63559273395,10.52962750862928,29354.983471523847,-2082.718973729136,48.701400899697376,29508.027068066374,7715.194208979149,25.408270366957353,0.9929731083664388,139.0,105.0,214.0,116.0,330.0,34.0,822.0,818.0,34.0,16.0,18.0,0.4705882352941176,37.0306960071385,1164.5079476417602,19.0,11.0,8.0,0.5789473684210527,743.7678689173167,1701.5528115736042,26.0,13.0,13.0,0.5,2031.5421620078096,48381.92304809914,120.0,52.0,68.0,0.4333333333333333,17.473327562686986,1910.7354339398596,62.0,31.0,31.0,0.5,88.37666140097132,8191.401906409021,0.0,0.0,0.0,0.0,29070.0,29104.0,29209.0,29228.0,29240.0,29266.0,29303.0,29423.0,29478.0,29539.0,0.032660370068507236,-0.09508006760315174,0.0414502013131957,-0.008389671282151312,0.011454884868370027
27,27,29906.95699475461,1036.1919215414105,12.087463029559569,30036.186518680766,-6914.2515397628085,8.428028284094754,30069.225735625172,48776.87275910049,10.70176566379607,30142.16424219395,-2406.6245733430765,107.01454683629038,30322.17861986523,8010.951998601019,27.503227485341053,0.9928348585105922,133.0,106.0,217.0,114.0,331.0,27.0,818.0,816.0,28.0,16.0,12.0,0.5714285714285714,34.382941107047614,671.6697486731327,20.0,12.0,8.0,0.6,724.6217143564065,1951.2387906201077,26.0,13.0,13.0,0.5,1976.4296116807948,46408.96015516195,125.0,24.0,101.0,0.192,21.929829340246428,2570.818348487401,63.0,29.0,34.0,0.4603174603174603,89.30059174489524,8155.047294973247,0.0,0.0,0.0,0.0,29891.0,29918.0,30024.0,30044.0,30056.0,30082.0,30118.0,30241.0,30294.0,30355.0,0.0331820200411334,-0.10480117915716797,0.04051980989929381,-0.009112276830857498,0.011147313298156089
28,28,30712.964813857012,1199.4247783344565,16.011288624570845,30847.086265794413,-7784.997363139823,9.23153410041236,30880.35447044546,49204.69382879565,10.49343416637301,30983.866467330015,-2028.981001473007,46.43261782653822,31134.71907550874,7925.857081743677,26.031280968811572,0.9936166041725109,142.0,101.0,213.0,117.0,330.0,41.0,808.0,811.0,41.0,19.0,22.0,0.4634146341463415,29.757848060429776,1226.3392189670626,19.0,11.0,8.0,0.5789473684210527,731.1165045389769,1757.1057582183962,27.0,13.0,14.0,0.4814814814814814,2037.7874203088943,48966.16200467809,120.0,53.0,67.0,0.4416666666666666,17.128540785905578,1836.0801981806876,64.0,32.0,32.0,0.5,87.82689283275646,8379.580535047222,0.0,0.0,0.0,0.0,30694.0,30735.0,30836.0,30855.0,30867.0,30894.0,30931.0,31049.0,31104.0,31166.0,0.024810099472642275,-0.09391351986843897,0.04141449243438513,-0.008441942420096856,0.01108105936392114
29,29,31531.43954356127,1725.1372222824675,19.602916769305335,31663.846647958504,-7512.28407156067,8.39485827772692,31696.719032142453,49730.22674344354,10.522880061387502,31802.61222052174,-1679.289390551955,40.56242272244581,31952.04764041675,8243.794896009178,26.951614214696267,0.996116162835102,144.0,93.0,210.0,121.0,331.0,51.0,816.0,816.0,51.0,22.0,29.0,0.4313725490196078,32.22884464891034,1734.8118244721436,18.0,11.0,7.0,0.6111111111111112,783.2944755983251,479.33572554351167,26.0,13.0,13.0,0.5,2051.7348451188686,47970.647448553056,115.0,55.0,60.0,0.4782608695652174,19.837127262371588,1564.0461705810712,64.0,32.0,32.0,0.5,92.93498436395842,8773.399218171702,0.0,0.0,0.0,0.0,31509.0,31560.0,31653.0,31671.0,31684.0,31710.0,31748.0,31863.0,31920.0,31984.0,0.018681902072850476,-0.10426848454302347,0.041257299221732796,-0.0118128104506463,0.011273325639014656
30,30,32335.542307482097,1779.8651923570635,18.995642204172068,32471.242826101665,-6962.055467577828,8.01365345830919,32503.79422196207,49756.647674014144,10.680215688956972,32581.04093769354,-1788.468535643823,119.75437384044228,32757.028434324187,8393.738880935081,28.56517379567528,0.9951528888949106,144.0,106.0,218.0,113.0,331.0,38.0,803.0,807.0,40.0,22.0,18.0,0.55,44.28771153214086,1446.4427703770154,20.0,12.0,8.0,0.6,767.0631548853438,1098.779605715878,26.0,13.0,13.0,0.5,2025.041463943632,46807.18071392392,126.0,28.0,98.0,0.2222222222222222,16.804529698121875,1883.4956349150996,64.0,30.0,34.0,0.46875,91.38120812473235,8568.884623274147,0.0,0.0,0.0,0.0,32315.0,32353.0,32459.0,32479.0,32491.0,32517.0,32554.0,32677.0,32728.0,32790.0,0.024882621291947928,-0.11017768508991974,0.04069891278067811,-0.009396044360418387,0.010886829983750016
31,31,33164.283701372835,1435.251556824346,15.649037642137069,33299.88044575733,-7720.468413695851,9.47087818690226,33333.171743990664,49439.575012035326,10.505138792602937,33439.56288726681,-2091.3590421256176,45.19155449068726,33588.50553947244,7719.670747370119,25.642833230846932,0.9927190496629488,143.0,104.0,212.0,119.0,331.0,39.0,830.0,830.0,39.0,18.0,21.0,0.4615384615384615,39.2220748019959,1460.538857775699,19.0,11.0,8.0,0.5789473684210527,742.5283043021395,1499.4974891305003,26.0,13.0,13.0,0.5,2050.1265712458344,48884.088757859216,118.0,57.0,61.0,0.4830508474576271,19.685285564821505,1924.0955970902155,63.0,32.0,31.0,0.5079365079365079,87.51826012607799,8140.824568972657,0.0,0.0,0.0,0.0,33146.0,33185.0,33289.0,33308.0,33320.0,33346.0,33383.0,33501.0,33558.0,33620.0,0.02732766574298593,-0.09617658728904574,0.0414673178470236,-0.0094126762398549,0.011337045709610487
32,32,33981.8916405999,1666.0744031299046,16.16739457013417,34119.30960666204,-7719.529803236222,9.238831447366456,34152.45123363804,49222.72495621901,10.508349436828222,34252.43720422484,-2065.67426592036,51.41463454746389,34407.79433623891,7836.223610526104,25.88100580434158,0.9943969983648172,145.0,105.0,214.0,117.0,331.0,40.0,819.0,819.0,41.0,19.0,22.0,0.4634146341463415,42.945101701563765,1634.7004544810604,19.0,11.0,8.0,0.5789473684210527,721.3278644262939,1907.707262753612,27.0,13.0,14.0,0.4814814814814814,2040.044686612417,49088.71466713484,120.0,50.0,70.0,0.4166666666666667,17.867209432549757,1938.638782800044,62.0,31.0,31.0,0.5,92.69443115508564,8291.028642635236,0.0,0.0,0.0,0.0,33963.0,34003.0,34108.0,34127.0,34139.0,34166.0,34202.0,34322.0,34378.0,34439.0,0.02577622081035916,-0.09344194307325494,0.04144517981129505,-0.008649577393359757,0.011828967084422234
33,33,34811.52059170187,1559.5108784825968,15.607801886335029,34944.14616251725,-7769.294059118092,9.325607637921998,34977.41112375785,49450.14934285995,10.514834217219695,35076.87603589967,-1776.6148262351996,43.57678230106173,35232.76261767528,8229.959571275398,27.219899527254434,0.9948034485224893,140.0,99.0,206.0,126.0,332.0,41.0,826.0,825.0,43.0,19.0,24.0,0.4418604651162791,36.86179611503344,1473.4905995639515,19.0,11.0,8.0,0.5789473684210527,730.0089534557223,1805.346770847047,27.0,13.0,14.0,0.4814814814814814,2048.6959481169665,49482.61754146454,113.0,49.0,64.0,0.4336283185840708,18.95020555196379,1512.7524756766072,64.0,32.0,32.0,0.5,93.56529570245488,8772.823704299404,0.0,0.0,0.0,0.0,34793.0,34834.0,34933.0,34952.0,34964.0,34991.0,35028.0,35139.0,35201.0,35265.0,0.023636767542718234,-0.09396078303909469,0.04142951993759297,-0.010666468202407672,0.011368864560285446
34,34,35610.38606023583,1188.3025800516632,13.370824274086017,35741.35651064818,-6513.872821366626,7.882470114831979,35774.35749462983,48280.609017710485,10.672501572528894,35846.5889030941,-2193.535353990196,104.46658143542612,36026.7962052499,8275.38356680918,27.904965593160465,0.9942448715244552,136.0,107.0,215.0,115.0,330.0,29.0,800.0,797.0,31.0,16.0,15.0,0.5161290322580645,36.59315041619332,925.311358414546,19.0,11.0,8.0,0.5789473684210527,705.6500201578559,1616.9039182082074,27.0,13.0,14.0,0.4814814814814814,1944.809380870026,46203.06720401542,123.0,24.0,99.0,0.1951219512195122,20.39983716541104,2247.8859428352503,65.0,31.0,34.0,0.4769230769230769,87.18005613072009,8417.450483542443,0.0,0.0,0.0,0.0,35594.0,35623.0,35730.0,35749.0,35761.0,35788.0,35823.0,35945.0,35997.0,36060.0,0.03079447190512906,-0.10833033427413599,0.04028137632142592,-0.009299981023010315,0.010534865897984587
35,35,36413.10195806866,1612.5902451328725,17.206242605628777,36549.768726736635,-7675.675756727796,8.744977970702976,36582.8519772115,49901.81126881362,10.508769818392697,36681.37987995307,-1718.0604968436785,51.58290044787973,36838.13382635517,8326.32691475315,26.83015379200002,0.99466778019831,145.0,104.0,209.0,122.0,331.0,41.0,805.0,808.0,42.0,20.0,22.0,0.4761904761904761,40.24751521475698,1606.9542648336728,18.0,11.0,7.0,0.6111111111111112,774.9295307843756,896.1272680355523,26.0,13.0,13.0,0.5,2061.6437307019683,48212.863868893925,115.0,48.0,67.0,0.417391304347826,16.76571967890459,1644.1125634780012,64.0,32.0,32.0,0.5,93.92710143286232,8874.90093914443,0.0,0.0,0.0,0.0,36394.0,36435.0,36539.0,36557.0,36570.0,36596.0,36633.0,36748.0,36806.0,36870.0,0.024958302542280795,-0.10095912794455174,0.04131400601064761,-0.009758515319865395,0.011280736679511816
36,36,37244.04901446138,1617.959645455786,15.395751623140791,37375.24474202951,-7535.78438451782,8.790135297407767,37408.44750286249,48970.67576893451,10.477624545718593,37508.357216316035,-1958.6306352650092,44.24375629694399,37662.35189973522,8387.147548877021,26.81157078951391,0.9949608529396102,140.0,96.0,208.0,123.0,331.0,44.0,830.0,826.0,44.0,20.0,24.0,0.4545454545454545,34.288913852912955,1464.8494213776412,19.0,11.0,8.0,0.5789473684210527,718.1671417622432,1593.3519549089006,27.0,13.0,14.0,0.4814814814814814,2022.6950603954756,48864.011172817205,114.0,49.0,65.0,0.4298245614035088,17.471589554167547,1774.2998661327283,66.0,33.0,33.0,0.5,91.25339121062775,8874.69016872236,0.0,0.0,0.0,0.0,37224.0,37268.0,37364.0,37383.0,37395.0,37422.0,37459.0,37572.0,37630.0,37695.0,0.02119268793212307,-0.09530091429336926,0.041304209685393216,-0.008920308525554938,0.010880146161592916
37,37,38037.323658270456,1704.9033296445673,14.22953234113062,38169.80351444934,-6856.044735127202,8.40497979720932,38202.96269887282,48131.649225152294,10.605268315761348,38274.28754669468,-1565.230936370927,94.2747198319701,38455.5112344061,8547.401639415906,27.624488157734735,0.993141960898985,139.0,103.0,202.0,128.0,330.0,36.0,793.0,794.0,36.0,18.0,18.0,0.5,46.53784183060837,1573.786709232034,20.0,12.0,8.0,0.6,728.0272837431231,1090.554660622824,26.0,13.0,13.0,0.5,1961.7492174425036,45768.27596324155,110.0,21.0,89.0,0.1909090909090909,22.685891105207354,1773.3280781920384,66.0,33.0,33.0,0.5,91.0924708597538,8915.8705843881,0.0,0.0,0.0,0.0,38019.0,38055.0,38158.0,38178.0,38190.0,38216.0,38253.0,38360.0,38424.0,38488.0,0.027296469554265245,-0.10618765073294345,0.04075798874594446,-0.014493638336720984,0.010657328940725743
38,38,38880.89547668671,1480.303813498497,15.838929535060892,39017.240947361875,-7814.9770752741315,9.235113787680556,39050.60112036741,50550.77905406344,10.49632081149843,39153.864166972926,-1949.023772811497,40.51948738446856,39306.32414568201,7919.377495349385,25.99246347981996,0.9939635212764312,144.0,105.0,202.0,130.0,332.0,39.0,843.0,848.0,41.0,20.0,21.0,0.4878048780487805,39.6150461304192,1422.2655951726342,19.0,11.0,8.0,0.5789473684210527,731.222989226031,1861.450408875204,26.0,13.0,13.0,0.5,2095.0289204947853,48466.10430720705,106.0,52.0,54.0,0.490566037735849,18.855015010201775,1838.485224945508,64.0,32.0,32.0,0.5,93.01145454494302,8465.987373650018,0.0,0.0,0.0,0.0,38862.0,38901.0,39006.0,39025.0,39038.0,39064.0,39102.0,39208.0,39275.0,39338.0,0.02676142949114913,-0.0935668757800395,0.041444048137303235,-0.009674081595732987,0.011744793653233923
39,39,39708.69074303387,1686.612047968089,14.85339855256285,39844.769011029675,-7021.907537575915,8.116077487723521,39877.45552972253,50917.53537540424,10.709470817933587,39956.91763319252,-2198.610540980603,132.49420084493093,40130.75594272409,8323.879273432565,28.659049030610735,0.9932920249446668,140.0,111.0,218.0,114.0,332.0,29.0,829.0,827.0,30.0,17.0,13.0,0.5666666666666667,47.40459479445073,1117.9512800886646,20.0,13.0,7.0,0.65,804.8182143057295,820.2158832737277,27.0,13.0,14.0,0.4814814814814814,2063.6501634298174,49268.01256026372,124.0,31.0,93.0,0.25,17.36240165105217,2303.300870103506,61.0,28.0,33.0,0.4590163934426229,90.466621327107,8212.912673213954,0.0,0.0,0.0,0.0,39692.0,39721.0,39832.0,39852.0,39864.0,39891.0,39927.0,40050.0,40103.0,40164.0,0.02810640114397406,-0.11461532496674925,0.04052926262465299,-0.007896988269376876,0.01086832453419291
40,40,40540.20113083962,1502.9210570248697,15.046444470968382,40677.63374129712,-7812.900308543159,9.426086531266243,40710.99852786927,49882.955303825904,10.517501754923988,40812.14363319823,-2043.551918052356,46.08221919830405,40966.75540174726,7954.271176627166,25.3922179671789,0.993780791243502,145.0,108.0,210.0,120.0,330.0,37.0,832.0,833.0,37.0,18.0,19.0,0.4864864864864865,43.149563200870375,1490.694255554198,19.0,11.0,8.0,0.5789473684210527,765.4431460082284,1280.0709537643625,26.0,13.0,13.0,0.5,2063.711515345816,48788.97268200034,116.0,51.0,65.0,0.4396551724137931,17.237550636108455,1872.3989958195652,62.0,31.0,31.0,0.5,98.20131312122004,8473.173655112594,0.0,0.0,0.0,0.0,40522.0,40559.0,40667.0,40686.0,40698.0,40724.0,40761.0,40877.0,40936.0,40997.0,0.02871046552923262,-0.09797170266862879,0.04137107560641128,-0.008435093076831154,0.012345733624191092
41,41,41370.84370427278,1345.070609493839,16.10183186421108,41506.99788368577,-7251.795619115148,8.317528173374003,41539.66532432942,50677.38699367106,10.680521971068522,41638.34229409266,-2209.41322840226,129.9462354440669,41792.63922215103,8409.095251898698,29.668101171516785,0.993314592172701,143.0,109.0,216.0,115.0,331.0,34.0,828.0,829.0,34.0,19.0,15.0,0.5588235294117647,34.453637353933146,953.3383166483648,20.0,12.0,8.0,0.6,792.3559020099658,1272.3864526389543,26.0,13.0,13.0,0.5,2066.472610672407,47191.02114590547,123.0,50.0,73.0,0.4065040650406504,20.5943943624412,2263.965529629887,63.0,29.0,34.0,0.4603174603174603,93.6776065993256,8251.556505877774,0.0,0.0,0.0,0.0,41352.0,41386.0,41495.0,41515.0,41527.0,41553.0,41588.0,41711.0,41766.0,41826.0,0.025614742535262393,-0.10926340779949446,0.040777015810434,-0.009321205330762894,0.01114003395052209
42,42,42194.91283190412,1118.460274159808,11.356600979856006,42326.89101343256,-7649.245626428563,10.126873852287089,42360.47223608624,48557.762852820095,10.598353841897932,42430.36991350215,-2525.027847429448,38.21948101296085,42615.42391126765,8056.018370364664,25.1990644366346,0.9914350847095365,137.0,106.0,214.0,116.0,330.0,31.0,826.0,821.0,32.0,16.0,16.0,0.5,36.8916112583219,1041.7281334828751,19.0,11.0,8.0,0.5789473684210527,717.4131625570142,1911.3607186559125,27.0,13.0,14.0,0.4814814814814814,2003.687076526848,48220.73021878788,121.0,21.0,100.0,0.1735537190082644,26.554909182305146,2461.2078701939795,62.0,31.0,31.0,0.5,90.727607283119,8507.638003288997,0.0,0.0,0.0,0.0,42179.0,42210.0,42316.0,42335.0,42347.0,42374.0,42409.0,42530.0,42584.0,42646.0,0.03298428393984313,-0.09378874696850005,0.041263990736148164,-0.010516679730617158,0.01126209041638669
43,43,42990.45076859559,1426.459687280494,18.939968096118996,43120.662265013816,-7417.476988045942,8.620137348560418,43153.81105418216,49359.8372107481,10.518865318970535,43257.60844603181,-1546.4954588338771,41.622826543037405,43408.6548587788,8470.787192426757,27.541904687819105,0.995609156741692,139.0,94.0,203.0,129.0,332.0,45.0,800.0,793.0,46.0,20.0,26.0,0.4347826086956521,31.107843732262424,1511.4817726280044,18.0,11.0,7.0,0.6111111111111112,766.4796234506854,519.5827365438176,26.0,13.0,13.0,0.5,2033.6384635026243,47792.30558196553,108.0,53.0,55.0,0.4907407407407407,18.529095686398236,1377.2857697006575,68.0,35.0,33.0,0.5147058823529411,87.14515552965753,8897.499283629078,0.0,0.0,0.0,0.0,42971.0,43016.0,43110.0,43128.0,43141.0,43167.0,43205.0,43313.0,43374.0,43442.0,0.021807727207187093,-0.10333427723280428,0.04120026682461991,-0.011981345034385006,0.010287728111924356
44,44,43798.37619667234,1351.7133181369238,14.673197738522584,43931.60495667376,-7766.050431000521,9.233031342840016,43964.84832965342,49721.617539144005,10.510974318761196,44066.78292147542,-1967.8158422114172,47.86400300959261,44220.19754122584,8024.593545655387,25.95374543527816,0.9941701340489304,139.0,103.0,212.0,119.0,331.0,36.0,805.0,811.0,38.0,17.0,21.0,0.4473684210526316,40.25616109195412,1394.7119802995155,19.0,11.0,8.0,0.5789473684210527,774.3475047244629,1088.7645716176537,26.0,13.0,13.0,0.5,2059.5604425382344,48183.68474654774,119.0,52.0,67.0,0.4369747899159664,23.178275644322454,1828.224756022284,63.0,31.0,32.0,0.492063492063492,94.71489429400188,8522.299683860158,0.0,0.0,0.0,0.0,43782.0,43818.0,43921.0,43940.0,43952.0,43978.0,44015.0,44133.0,44190.0,44252.0,0.029781582049838405,-0.09970930675822326,0.04142183107612736,-0.011778681290762897,0.011803076848083063
45,45,44607.34732547222,1758.1986014730523,18.99060721150308,44739.32836346343,-7320.8529023812835,8.171734895081384,44772.14597166,50009.30564877288,10.58238835284918,44876.3302192767,-1282.4705881692091,37.69940488394573,45027.330709524285,8572.722207609368,27.527446250314753,0.9962021025052842,143.0,95.0,205.0,126.0,331.0,48.0,806.0,808.0,51.0,22.0,29.0,0.4313725490196078,34.76903318434788,1692.265980020658,17.0,10.0,7.0,0.5882352941176471,754.4524051460149,655.695340792553,27.0,13.0,14.0,0.4814814814814814,2042.7687926784872,49369.772053256216,112.0,52.0,60.0,0.4642857142857143,22.33015541332141,1115.5714733951322,66.0,33.0,33.0,0.5,95.61620628723205,9191.656080199396,0.0,0.0,0.0,0.0,44586.0,44634.0,44729.0,44746.0,44759.0,44786.0,44824.0,44934.0,44994.0,45060.0,0.01977537301828003,-0.10305526080173133,0.04084777355289299,-0.01741182653178723,0.011153540727397028
46,46,45393.67126990105,1257.7521925534134,11.820062570837152,45523.8820840554,-6638.587504585509,8.182581641190945,45557.036194592765,47878.31049235934,10.669633978038332,45627.71220759482,-1854.1454023740655,91.726754431106,45810.36038835781,8402.51884306403,26.97437912044198,0.9938786494226448,134.0,104.0,208.0,123.0,331.0,30.0,786.0,784.0,32.0,17.0,15.0,0.53125,42.35974022826107,1045.0589870335953,20.0,12.0,8.0,0.6,721.0467591737239,1011.1889929780456,26.0,13.0,13.0,0.5,1935.9923255160145,45475.67415476213,114.0,21.0,93.0,0.1842105263157894,21.80480509837345,2134.971560142634,64.0,31.0,33.0,0.484375,90.05109430020106,8707.569876263218,0.0,0.0,0.0,0.0,45378.0,45408.0,45512.0,45532.0,45544.0,45570.0,45607.0,45720.0,45779.0,45843.0,0.03367892378089586,-0.10861448443297181,0.04043568592139377,-0.011760029753035748,0.010717154698740714
47,47,46180.808405816904,1447.3963808045094,17.119651575120603,46315.72762621829,-7633.066253051855,8.776809619054614,46348.88730040722,49831.59607629425,10.515087418270095,46458.02556011662,-1595.576904570389,46.40370652082361,46603.78625080369,8296.081476840654,26.334464545435015,0.994769994095251,146.0,100.0,215.0,115.0,330.0,46.0,790.0,792.0,46.0,22.0,24.0,0.4782608695652174,30.789833366091976,1400.7109888781688,18.0,11.0,7.0,0.6111111111111112,771.2245712607524,803.6502625051762,26.0,13.0,13.0,0.5,2056.1562125363394,48479.1501140991,120.0,58.0,62.0,0.4833333333333333,20.360388978444448,1509.0182929714242,65.0,33.0,32.0,0.5076923076923077,93.78691196735852,8713.157339202577,0.0,0.0,0.0,0.0,46159.0,46205.0,46305.0,46323.0,46336.0,46362.0,46400.0,46520.0,46572.0,46635.0,0.021272564844315833,-0.10103732179088597,0.0412620982355909,-0.012760518731578475,0.0113049651488084
48,48,47002.67126990158,1242.397377479583,14.3795127056482,47138.00626866215,-7113.766927758947,8.21904902452963,47170.78527738958,50827.5683437043,10.731414132409428,47244.73958129381,-2342.5292209797412,109.5625122371542,47423.82949025172,8275.670440588121,26.994265470621475,0.9932402166094813,139.0,108.0,219.0,111.0,330.0,31.0,819.0,822.0,33.0,17.0,16.0,0.5151515151515151,33.760586016872985,933.433997565514,20.0,12.0,8.0,0.6,787.3884637433317,1324.5385657518332,26.0,13.0,13.0,0.5,2061.976793354905,47414.33236347203,126.0,25.0,101.0,0.1984126984126984,21.14705130045601,2521.341176089329,62.0,29.0,33.0,0.4677419354838709,92.57818724050256,8330.889814602993,0.0,0.0,0.0,0.0,46987.0,47018.0,47126.0,47146.0,47158.0,47184.0,47220.0,47345.0,47396.0,47456.0,0.027173742176888806,-0.11068516465880097,0.04056807871294338,-0.009027443974257641,0.011186789989419077
49,49,47808.723478774904,1367.4802770500337,15.11711186820282,47946.89541860604,-7543.8350685254445,8.99268717500879,47980.10165489235,49272.15349319664,10.52447110944289,48087.45697225861,-1769.963668019102,43.65355766998047,48234.81408006469,7899.871448645339,25.88027265341485,0.9933812414274552,145.0,108.0,214.0,116.0,330.0,37.0,810.0,810.0,38.0,19.0,19.0,0.5,39.18617582919013,1329.1518754109818,19.0,11.0,8.0,0.5789473684210527,748.160594515781,1127.997283795938,26.0,13.0,13.0,0.5,2033.4643531785764,48525.13828747123,119.0,56.0,63.0,0.4705882352941176,22.00526497512853,1579.5633239329654,63.0,32.0,31.0,0.5079365079365079,90.93072363714418,8338.851403911844,0.0,0.0,0.0,0.0,47791.0,47828.0,47936.0,47955.0,47967.0,47993.0,48031.0,48150.0,48204.0,48266.0,0.028655752106146373,-0.09917509963032903,0.041270052332081475,-0.012432608291760168,0.011510405482957179
50,50,48631.375717146504,1073.7790260536178,14.638445062262251,48768.88864247039,-7820.909326007849,9.514829625062465,48802.202318564414,49789.984053371154,10.527533086465851,48903.398781966986,-2101.8703305506574,49.13505694154361,49057.84040701301,7802.699553168753,25.99239811094754,0.9935388112375724,144.0,108.0,214.0,117.0,331.0,36.0,820.0,822.0,36.0,17.0,19.0,0.4722222222222222,33.46031863751232,1070.3167634704191,19.0,11.0,8.0,0.5789473684210527,747.4949905795789,1605.433570628526,27.0,13.0,14.0,0.4814814814814814,2061.395447313763,49142.781713363234,120.0,51.0,69.0,0.425,19.72161722902486,1985.0343517630324,62.0,31.0,31.0,0.5,94.38800295434493,8320.940694014655,0.0,0.0,0.0,0.0,48614.0,48650.0,48758.0,48777.0,48789.0,48815.0,48852.0,48972.0,49027.0,49089.0,0.03116127045290371,-0.0955764808695378,0.041401809751617925,-0.009382889582849815,0.012096839345302363
51,51,49444.252024977504,1175.2080910956856,13.537075300991477,49580.45403079758,-7736.972273071138,9.306967255751164,49613.81470545724,49360.64828706863,10.536988648478417,49722.33004240911,-2089.478458479729,47.65396918089572,49868.83697443259,7885.790981620686,25.286539849125457,0.9931197824872182,143.0,108.0,219.0,111.0,330.0,35.0,814.0,811.0,35.0,17.0,18.0,0.4857142857142857,36.38404596324574,1146.319415538989,19.0,11.0,8.0,0.5789473684210527,705.881134947689,2148.664415465596,26.0,13.0,13.0,0.5,2042.5610241938,47830.28328318547,124.0,57.0,67.0,0.4596774193548387,19.9848203794954,1941.8051382799536,61.0,30.0,31.0,0.4918032786885246,92.78634418004631,8309.586050981596,0.0,0.0,0.0,0.0,49427.0,49462.0,49570.0,49588.0,49601.0,49627.0,49665.0,49789.0,49839.0,49900.0,0.030959662581393294,-0.09123480219834035,0.04138035246852511,-0.009564501753244222,0.011766269787812318
52,52,50266.65604116697,1496.309993655463,15.81609650105252,50397.763804870825,-7711.561324747923,8.824431662122155,50430.76016232527,49670.150529981554,10.594618257434934,50500.94525260201,-1532.0871314398755,35.671515612093245,50685.90632100192,8146.101780142484,26.675386259725993,0.994797163143033,141.0,96.0,207.0,124.0,331.0,45.0,819.0,817.0,47.0,21.0,26.0,0.4468085106382978,32.256743098994775,1295.2699075421538,18.0,11.0,7.0,0.6111111111111112,785.2623336096632,695.9879656101525,26.0,13.0,13.0,0.5,2046.749452425562,47866.70381407354,113.0,20.0,93.0,0.1769911504424778,24.37002790884206,1632.8595389238026,64.0,32.0,32.0,0.5,92.52311929002668,8661.351517309364,0.0,0.0,0.0,0.0,50246.0,50291.0,50387.0,50405.0,50418.0,50444.0,50481.0,50594.0,50654.0,50718.0,0.02155752700694863,-0.10182922764156738,0.041206830069703874,-0.015906424255348186,0.011357962592066749
53,53,51053.96230576286,1209.8381318371646,12.838164013292038,51182.72942378679,-6812.736392173351,8.3323614538846,51215.72680125041,47966.930619169914,10.700844813435957,51286.136868495014,-1807.3537154284493,89.17878903023264,51470.49422248244,8393.930445926808,26.607456470211098,0.99477296523909,134.0,101.0,212.0,119.0,331.0,33.0,790.0,785.0,34.0,17.0,17.0,0.5,34.503655528663266,1051.892782068877,19.0,12.0,7.0,0.631578947368421,748.7052863808434,760.1077374453907,26.0,13.0,13.0,0.5,1944.625172411167,44912.88518567085,120.0,20.0,100.0,0.1666666666666666,19.935671701116984,2122.715706083379,64.0,31.0,33.0,0.484375,92.43214301180733,8754.7332364055,0.0,0.0,0.0,0.0,51037.0,51070.0,51171.0,51190.0,51203.0,51229.0,51266.0,51383.0,51440.0,51502.0,0.028519232962403607,-0.10989787998270056,0.04054095493102075,-0.01103030996696242,0.011011783288800116
54,54,51854.610876843275,1771.364390834813,17.86561473816022,51984.955477659736,-7522.363622470147,8.336237361103917,52017.88207331139,50209.73674862045,10.557805396126922,52124.885412902055,-1611.0674656854085,43.513801593632415,52273.77515080585,8179.806706581385,26.71954348517143,0.9962980241856656,141.0,93.0,212.0,119.0,331.0,48.0,799.0,802.0,49.0,22.0,27.0,0.4489795918367347,32.80644622167662,1602.581821003083,18.0,11.0,7.0,0.6111111111111112,781.7234569556261,584.7578540042305,26.0,13.0,13.0,0.5,2057.6647281826217,48812.12006587538,117.0,56.0,61.0,0.4786324786324786,17.09428752958261,1499.2105521475717,64.0,32.0,32.0,0.5,93.87615656167854,8676.81192314011,0.0,0.0,0.0,0.0,51833.0,51881.0,51974.0,51992.0,52005.0,52031.0,52069.0,52186.0,52242.0,52305.0,0.018520439042028793,-0.1039199241340222,0.04098138850009321,-0.010610534874348081,0.011476573949619958
55,55,52643.66956921532,1774.4710365494234,17.800382908166277,52775.634189462464,-7514.62927671403,8.53538969548527,52808.51897465927,50100.14115645946,10.62839333235601,52889.91787890302,-1325.278348138203,53.50727341814519,53064.37051816228,8336.315565770275,27.04698543187732,0.996001357641131,142.0,96.0,194.0,137.0,331.0,46.0,790.0,791.0,48.0,22.0,26.0,0.4583333333333333,35.358299926205014,1617.533879021566,18.0,11.0,7.0,0.6111111111111112,802.7569373151048,189.07991824455712,27.0,14.0,13.0,0.5185185185185185,2055.2803806250613,47417.082273787586,99.0,30.0,69.0,0.303030303030303,16.116046276721576,1486.0444903066723,65.0,33.0,32.0,0.5076923076923077,93.68708246633577,8820.492662047078,0.0,0.0,0.0,0.0,52623.0,52669.0,52765.0,52783.0,52795.0,52822.0,52860.0,52959.0,53032.0,53096.0,0.019926107103422536,-0.10682588691402903,0.04102344490820006,-0.01216049918823616,0.011238428023409294
56,56,53432.72253564771,1242.100360080687,12.41127491891745,53563.49360244326,-6895.94646070454,8.805017854161122,53596.823652528525,48112.93278708083,10.7021517900254,53663.26017299569,-2114.6735609893126,76.4389620259217,53851.1834681367,8014.678812313364,26.034452431143556,0.9935205042510574,136.0,103.0,214.0,117.0,331.0,33.0,788.0,788.0,35.0,18.0,17.0,0.5142857142857142,34.74839215771888,1068.6380496247505,19.0,11.0,8.0,0.5789473684210527,676.9606701591493,2159.5103213225275,26.0,13.0,13.0,0.5,1950.429810262702,45151.35298422075,121.0,17.0,104.0,0.140495867768595,41.651876836684615,2491.735995801599,63.0,31.0,32.0,0.492063492063492,85.91541256602373,8291.594102367351,0.0,0.0,0.0,0.0,53416.0,53449.0,53552.0,53571.0,53584.0,53610.0,53646.0,53766.0,53820.0,53883.0,0.02797551089628669,-0.09816791270302092,0.04053857657969308,-0.01969659885339396,0.01071975740737451
57,57,54214.70960740574,1880.799962542666,19.00624331495155,54347.30263512225,-7403.669109715704,8.53951604333862,54380.3411800827,49776.70011418721,10.54261910687258,54483.52215636904,-1507.5842157986635,46.44475050045601,54636.45801439222,8420.27143884273,26.392729545402663,0.9957833009571122,143.0,95.0,206.0,125.0,331.0,48.0,784.0,784.0,50.0,22.0,28.0,0.44,37.53286980465078,1797.1427929117958,18.0,10.0,8.0,0.5555555555555556,734.4759643731447,1132.4952988530422,27.0,13.0,14.0,0.4814814814814814,2044.4124376750576,49489.57073802006,112.0,53.0,59.0,0.4732142857142857,15.542199985910672,1378.6492086669837,64.0,32.0,32.0,0.5,92.4607988975958,8801.216744116693,0.0,0.0,0.0,0.0,54194.0,54242.0,54337.0,54355.0,54367.0,54394.0,54432.0,54543.0,54604.0,54668.0,0.019955801016664124,-0.09920432065356688,0.041071674759178445,-0.010309341145281876,0.010980738515278015
58,58,55005.7964683852,1812.0082152565967,18.286315996825085,55137.936911023295,-7521.307923412836,8.592940009825918,55170.80309896287,49629.5938512926,10.555671861158348,55276.13711420499,-1487.8032427112616,45.81383298893724,55426.240080048054,8479.817073118445,26.93521558130949,0.9961213580415272,142.0,94.0,211.0,120.0,331.0,48.0,790.0,790.0,49.0,21.0,28.0,0.4285714285714285,34.773569626689934,1741.6911879660863,18.0,11.0,7.0,0.6111111111111112,773.1138572825985,608.7713848520048,26.0,13.0,13.0,0.5,2044.0310719313743,48102.9380955995,121.0,55.0,66.0,0.4545454545454545,17.348245012229018,1328.484911682814,65.0,33.0,32.0,0.5076923076923077,94.896073464729,8928.88868919783,0.0,0.0,0.0,0.0,54985.0,55033.0,55127.0,55145.0,55158.0,55184.0,55222.0,55338.0,55394.0,55458.0,0.019190624707938028,-0.10278981596751242,0.041185730394167584,-0.011660308644451447,0.011190816104460028
59,59,55802.67532006282,1648.708204345716,15.439132533963646,55933.01655690612,-6807.125598401376,8.283113566256816,55966.048137171965,48448.521548706965,10.71863172082958,56036.71220759482,-1761.445876216805,91.72675443110604,56219.47110383136,8326.96223320894,27.317905350463175,0.994468683331699,138.0,97.0,205.0,126.0,331.0,41.0,795.0,795.0,44.0,21.0,23.0,0.4772727272727273,35.23123020367701,1296.7037102359186,20.0,12.0,8.0,0.6,732.8981907487084,1040.0934730699564,26.0,13.0,13.0,0.5,1954.9399513411593,46225.18975571777,112.0,21.0,91.0,0.1875,22.495413633453367,2016.8629828006733,65.0,31.0,34.0,0.4769230769230769,92.50167151507684,8719.95209723543,0.0,0.0,0.0,0.0,55783.0,55824.0,55921.0,55941.0,55953.0,55979.0,56016.0,56126.0,56189.0,56252.0,0.021368990650263913,-0.1076663240826387,0.0403508691049693,-0.012770993385143646,0.011108693533659718
60,60,56578.97463187693,1531.9053573030922,18.202803349817973,56714.75601977945,-7672.419609334413,9.01726145839978,56747.98981109176,49345.51889806611,10.547345582293184,56816.09593080172,-1557.5151506965046,30.575584810366784,57003.3910031586,8276.484027889996,25.71826347282867,0.9941052282967148,144.0,101.0,211.0,119.0,330.0,43.0,781.0,783.0,43.0,19.0,24.0,0.4418604651162791,37.20152687626264,1600.9157046877608,19.0,11.0,8.0,0.5789473684210527,759.2169256137199,998.3258267752622,26.0,13.0,13.0,0.5,2035.370351650631,48201.10713492957,119.0,18.0,101.0,0.1512605042016806,32.80042140638495,1749.632445804432,64.0,32.0,32.0,0.5,91.11742817120066,8615.748325466835,0.0,0.0,0.0,0.0,56560.0,56603.0,56704.0,56723.0,56735.0,56761.0,56799.0,56915.0,56971.0,57034.0,0.024284481217400823,-0.09895404113326155,0.041247318846826406,-0.021059455756637063,0.011009195192566584
61,61,57387.016406970506,1490.9912633210563,16.82633604337545,57524.656724358545,-7192.03164062414,8.340166333196011,57557.48013197502,51029.59758614034,10.737620576497688,57627.71220759482,-1982.3345182134933,91.72675443110604,57812.24635651592,8073.865299507735,26.3794134057586,0.9940566412264626,147.0,105.0,222.0,109.0,331.0,42.0,805.0,809.0,42.0,21.0,21.0,0.5,38.91529610300732,1345.1615502130594,19.0,12.0,7.0,0.631578947368421,811.71024580104,497.02615122664656,27.0,13.0,14.0,0.4814814814814814,2063.924590663996,49794.34770499851,129.0,21.0,108.0,0.1627906976744186,27.726268777049334,2155.6057410478256,63.0,30.0,33.0,0.4761904761904761,90.96224366321717,8342.685674292952,0.0,0.0,0.0,0.0,57366.0,57408.0,57513.0,57532.0,57544.0,57571.0,57607.0,57735.0,57783.0,57844.0,0.026100284461980552,-0.11286244087360522,0.04044563720456534,-0.013986675065334898,0.011266257274413924
62,62,58212.46202872593,1428.2814332414907,14.372236480822536,58345.16881374017,-7647.912315330964,9.006254048835114,58378.5194977959,49788.574579648215,10.546715998392711,58478.79204702221,-1948.755957128768,47.02441058500577,58633.98509744554,8284.812756656595,26.718285241609948,0.9946628793646828,141.0,100.0,212.0,120.0,332.0,41.0,826.0,821.0,41.0,19.0,22.0,0.4634146341463415,32.936481292841414,1294.614912278303,19.0,11.0,8.0,0.5789473684210527,728.0139186714262,1600.1863961394583,27.0,14.0,13.0,0.5185185185185185,2054.7924833553884,47323.261283728774,119.0,51.0,68.0,0.4285714285714285,19.81338575626369,1725.6109848422898,64.0,32.0,32.0,0.5,93.91215752024878,8815.842100903945,0.0,0.0,0.0,0.0,58193.0,58234.0,58334.0,58353.0,58365.0,58392.0,58429.0,58546.0,58603.0,58666.0,0.02306021805386907,-0.0951911958001994,0.041270361738681184,-0.010167197018068938,0.01133545926488118
63,63,59005.42106620725,1071.5914020585583,11.216923290946134,59135.81805714652,-7409.902949870478,9.38069793352773,59169.395348172504,47158.859716356,10.538345936164816,59240.36991350215,-2164.0731338607584,38.21948101296085,59424.36886411448,8158.852358080157,25.192400607341497,0.9922634255946174,135.0,104.0,212.0,118.0,330.0,31.0,794.0,791.0,33.0,15.0,18.0,0.4545454545454545,37.01627937644659,1026.0251879185637,19.0,11.0,8.0,0.5789473684210527,703.6008375498789,1582.8525359272453,27.0,13.0,14.0,0.4814814814814814,1940.9187152619184,46598.9449960213,120.0,21.0,99.0,0.175,24.31858994752374,2067.196421468384,63.0,32.0,31.0,0.5079365079365079,89.73353722328172,8468.54696511816,0.0,0.0,0.0,0.0,58990.0,59021.0,59125.0,59144.0,59156.0,59183.0,59219.0,59337.0,59392.0,59455.0,0.03454327769459258,-0.09495412319295997,0.04115703235692855,-0.011237415948202635,0.010998303840418647
64,64,59801.99549736024,1612.3451212879284,16.171288076799172,59932.440090069555,-7548.21491370932,8.416460402916387,59965.4575149893,50114.311054162245,10.524927417825884,60068.9841700153,-1604.5118770828158,42.039148531514755,60220.992926806706,8305.942115274609,26.601735034739313,0.9961111309719072,140.0,96.0,203.0,127.0,330.0,44.0,794.0,796.0,45.0,21.0,24.0,0.4666666666666667,31.658948819055063,1486.2209992384337,18.0,10.0,8.0,0.5555555555555556,737.5058216055447,1332.5000761333465,27.0,13.0,14.0,0.4814814814814814,2056.8187337629765,50145.231213267296,109.0,52.0,57.0,0.4770642201834862,22.106547775263213,1473.5756018245438,65.0,33.0,32.0,0.5076923076923077,96.9117242255066,8777.7374749503,0.0,0.0,0.0,0.0,59782.0,59826.0,59922.0,59940.0,59952.0,59979.0,60017.0,60125.0,60189.0,60252.0,0.019635342583333614,-0.09770599142137064,0.04104254234962983,-0.013777740190652511,0.011667758200154822
65,65,60594.40512253216,1559.3432408487656,15.288427439961277,60724.83546206766,-7213.024180427899,8.33354636641228,60757.674620234255,50906.70931009915,10.70172298382023,60829.43822489439,-1985.9227086309804,99.37065063369822,61012.212478858215,8352.191785111732,26.83467474005217,0.995502053305186,138.0,100.0,219.0,112.0,331.0,38.0,793.0,792.0,40.0,19.0,21.0,0.475,34.7898875627491,1296.9512180469794,19.0,12.0,7.0,0.631578947368421,793.7288712540387,932.0705037266724,26.0,13.0,13.0,0.5,2070.3256163670612,47519.61525069936,128.0,23.0,105.0,0.1796875,22.496968633257055,2029.112409830525,62.0,30.0,32.0,0.4838709677419355,93.93110800557764,8598.149471129425,0.0,0.0,0.0,0.0,60575.0,60613.0,60713.0,60732.0,60745.0,60771.0,60807.0,60932.0,60983.0,61044.0,0.02231060272773083,-0.11004106618798999,0.040669012875211304,-0.011328219640917249,0.011246282463606176
66,66,61387.17598552956,1753.655982898705,19.812537324598186,61523.01455984913,-7541.034325292979,8.80652093734861,61556.07572899525,49760.63856977046,10.5958983896928,61660.71245330532,-1575.086257682804,40.43163954670707,61811.72342035656,8424.779558446191,26.823625202979805,0.9955660344507472,144.0,97.0,205.0,127.0,332.0,47.0,794.0,799.0,48.0,20.0,28.0,0.4166666666666667,43.00261641239038,1861.2171766921176,19.0,11.0,8.0,0.5789473684210527,758.4177029852011,886.1262806231612,26.0,13.0,13.0,0.5,2040.1625741407297,49043.74037555886,109.0,53.0,56.0,0.4862385321100917,23.20859568110319,1414.7993836082674,65.0,33.0,32.0,0.5076923076923077,90.46434306122072,8772.26532440728,0.0,0.0,0.0,0.0,61368.0,61415.0,61512.0,61531.0,61543.0,61569.0,61608.0,61717.0,61779.0,61844.0,0.024521694580774744,-0.10057210593000923,0.040999525584467206,-0.014734809327361304,0.010737888443683546
67,67,62193.76279117363,1151.8419766950767,12.33350723091682,62327.90080718272,-6799.197973679523,8.556254653700238,62361.07871126222,48763.989761452765,10.740621610801789,62431.86288579454,-2118.7638259621767,96.82268523283416,62614.595399638725,8339.441358468384,27.57028831499428,0.9935403128704258,138.0,109.0,219.0,112.0,331.0,29.0,808.0,805.0,31.0,17.0,14.0,0.5483870967741935,39.888774453208825,922.9903758288796,20.0,12.0,8.0,0.6,731.7090601653654,1276.580511461947,26.0,13.0,13.0,0.5,1964.6783214575744,46315.110202422744,129.0,23.0,106.0,0.1782945736434108,22.957382189903775,2077.8478460605265,64.0,31.0,33.0,0.484375,92.14280189009284,8572.158269793388,0.0,0.0,0.0,0.0,62178.0,62207.0,62316.0,62336.0,62348.0,62374.0,62410.0,62535.0,62585.0,62647.0,0.03463042262764179,-0.10761696644190907,0.040289531908043845,-0.010835271920634349,0.011049037690819103
68,68,62979.09358099158,1262.62005567293,16.1925199763614,63115.54978213741,-7626.979642555115,9.489585052223962,63149.09043176381,48918.65441567438,10.521724762294552,63251.676444849974,-1808.173384060197,52.428150695263696,63404.16571412553,8207.608011447253,25.522428376572865,0.992608853283533,143.0,104.0,214.0,117.0,331.0,39.0,786.0,788.0,40.0,18.0,22.0,0.45,36.86097372498366,1301.9246805878445,20.0,12.0,8.0,0.6,741.0729074642355,1275.8042166525283,26.0,13.0,13.0,0.5,2020.017825566808,47912.430044414585,118.0,52.0,66.0,0.4406779661016949,18.710637796040963,1731.2405826386566,63.0,31.0,32.0,0.492063492063492,93.6940873300831,8615.421513878553,0.0,0.0,0.0,0.0,62961.0,63000.0,63104.0,63124.0,63136.0,63162.0,63200.0,63318.0,63373.0,63435.0,0.029194034705347774,-0.09716466310325285,0.04129340534190081,-0.010347811753553638,0.011415516822855914
69,69,63794.25498168492,2002.6368155142004,19.332785085863,63929.858775044755,-7718.8392687074465,8.7008964460829,63962.99449794519,50424.04093038279,10.53264721944526,64073.59460238119,-1719.9710448021349,47.55217773167936,64218.70823523488,7943.298566748816,26.17692821437924,0.99559973406402,147.0,99.0,219.0,112.0,331.0,48.0,811.0,813.0,49.0,22.0,27.0,0.4489795918367347,45.88434540929106,1904.0711069917395,19.0,11.0,8.0,0.5789473684210527,775.029473052836,910.3086828315564,26.0,13.0,13.0,0.5,2073.9582856469247,49325.975804319576,125.0,60.0,65.0,0.48,16.562245103431874,1596.5321581429434,63.0,31.0,32.0,0.492063492063492,90.39066376115146,8367.475287764035,0.0,0.0,0.0,0.0,63772.0,63820.0,63919.0,63938.0,63950.0,63976.0,64014.0,64138.0,64188.0,64250.0,0.022911965391742645,-0.10040751544015737,0.041130346703277997,-0.009629374374344302,0.011379487123842088
70,70,64624.720340887936,1513.9917339378665,16.716754958289435,64760.94726986673,-7743.865097837653,9.128249305092028,64794.21424515949,50521.74097925057,10.554883719157289,64892.013809704746,-1813.5124057724288,43.66624348164368,65049.67598700971,8140.006586333909,26.004454641525687,0.9934451034308656,145.0,102.0,208.0,123.0,331.0,43.0,832.0,832.0,43.0,20.0,23.0,0.4651162790697674,36.826450163415046,1455.179604888718,19.0,11.0,8.0,0.5789473684210527,757.0671795924867,1252.9814551378572,27.0,13.0,14.0,0.4814814814814814,2082.523821784046,50030.88866014154,115.0,47.0,68.0,0.408695652173913,15.796875907636862,1614.0901222129048,63.0,32.0,31.0,0.5079365079365079,89.37126996644959,8565.115802273262,0.0,0.0,0.0,0.0,64605.0,64648.0,64750.0,64769.0,64781.0,64808.0,64845.0,64958.0,65019.0,65081.0,0.024324076108150263,-0.09776347728524937,0.04122034952515482,-0.008710652244426475,0.010979262610977883
71,71,65438.448977460954,1537.322756024197,14.933908333784805,65570.36628070843,-7241.936701088777,8.925254059677691,65603.87160922594,47877.75666868399,10.550701594124906,65698.33009803266,-1763.369736591873,49.67693553787578,65857.7680203584,8495.071317180355,27.493770521444254,0.9940170757109704,140.0,99.0,207.0,125.0,332.0,41.0,814.0,809.0,42.0,19.0,23.0,0.4523809523809524,34.50552675003299,1452.061477354665,19.0,11.0,8.0,0.5789473684210527,675.9479987091293,1819.6021637870208,26.0,13.0,13.0,0.5,1963.3814468306723,46188.67490402451,112.0,44.0,68.0,0.3928571428571428,24.233654577617305,1706.5195672761015,66.0,33.0,33.0,0.5,92.32556960451,9013.836225171011,0.0,0.0,0.0,0.0,65419.0,65460.0,65559.0,65578.0,65591.0,65617.0,65654.0,65766.0,65825.0,65891.0,0.022445206522064835,-0.09333801531398431,0.041008217248300734,-0.013742809618846325,0.010868133551485507
72,72,66221.5773416036,1608.4505438482772,19.074911075510396,66349.90245874436,-7212.143554006584,8.438690354129964,66383.0613013292,48677.09725150274,10.527965179307442,66485.86313150503,-1174.474567443722,37.53753554258143,66638.10718123084,8825.3342777696,27.13032599928596,0.9960229862340528,138.0,90.0,199.0,132.0,331.0,48.0,783.0,780.0,49.0,22.0,27.0,0.4489795918367347,34.36138462248776,1585.45578427361,18.0,11.0,7.0,0.6111111111111112,737.3691193429687,615.8146053708037,26.0,13.0,13.0,0.5,1992.4637122219403,47743.072243748866,104.0,51.0,53.0,0.4903846153846153,15.316063477461723,1022.0024976064932,65.0,33.0,32.0,0.5076923076923077,92.63066489800046,9257.060457060345,0.0,0.0,0.0,0.0,66201.0,66249.0,66339.0,66357.0,66370.0,66396.0,66436.0,66538.0,66605.0,66670.0,0.021363034601161488,-0.10223993932196979,0.04093226229015597,-0.013040779172253667,0.010495995050445923
73,73,67021.52059170186,1567.8164837057052,15.820129913333291,67152.78714809711,-7189.290155273712,8.14174000348751,67185.59118980302,51151.62609405376,10.69645540489522,67260.16424219403,-1594.7941111689267,107.01454683627529,67440.42221407847,8495.712326469742,27.706175515356513,0.9955533402834316,138.0,98.0,221.0,111.0,332.0,40.0,798.0,802.0,42.0,20.0,22.0,0.4761904761904761,30.424601395495884,1297.4761937438589,19.0,12.0,7.0,0.631578947368421,804.8441028912717,544.1230634202211,27.0,14.0,13.0,0.5185185185185185,2080.881740931664,47834.287806734894,128.0,24.0,104.0,0.1875,21.40696847626679,1681.0682114284818,65.0,31.0,34.0,0.4769230769230769,96.72050213827568,8812.866039726328,0.0,0.0,0.0,0.0,67003.0,67043.0,67141.0,67160.0,67172.0,67199.0,67236.0,67362.0,67410.0,67473.0,0.019405715982513477,-0.11195042702524358,0.04068065670298526,-0.013423029547416783,0.011384625375900214
74,74,67819.52820281373,1636.4700327270075,16.5321108185407,67949.99123038811,-7466.117550867755,9.129930732418892,67983.34634450746,48719.8838366919,10.585765759930233,68055.36991350215,-1779.566381588542,38.21948101296085,68238.23557970393,8576.697127832798,26.330087565933717,0.9935314910255728,141.0,94.0,203.0,128.0,331.0,47.0,800.0,798.0,48.0,22.0,26.0,0.4583333333333333,35.95823106478765,1429.3787164026892,19.0,11.0,8.0,0.5789473684210527,725.0436010776316,1348.2446711034709,27.0,13.0,14.0,0.4814814814814814,1998.0783226635867,48235.15743905182,108.0,21.0,87.0,0.1944444444444444,18.542956274198342,1840.7477826284417,65.0,33.0,32.0,0.5076923076923077,90.98996205950328,8961.998667131562,0.0,0.0,0.0,0.0,67798.0,67845.0,67939.0,67958.0,67970.0,67997.0,68034.0,68142.0,68205.0,68270.0,0.021973045852154705,-0.09711119549589235,0.04101155760882161,-0.010419929521058859,0.010608974609144799
75,75,69354.48926643837,1480.3805495948511,15.5322088472031,69482.58668802412,-6950.044172608589,8.198272327384716,69515.55485953463,50293.9081072275,10.688240561665776,69584.98619029527,-1668.3640789255326,84.08285822851387,69770.56493298755,8473.841805709031,26.11890620471812,0.995103601509525,136.0,94.0,209.0,122.0,331.0,42.0,1534.0,1532.0,44.0,20.0,24.0,0.4545454545454545,31.418027739723733,1269.748147326144,19.0,12.0,7.0,0.631578947368421,790.0595751734734,179.9782781363515,27.0,14.0,13.0,0.5185185185185185,2039.0365812660289,46825.57636250399,114.0,19.0,95.0,0.1666666666666666,30.260207172837212,2001.350018375395,62.0,31.0,31.0,0.5,94.03821034448634,8694.133148241915,0.0,0.0,0.0,0.0,69335.0,69377.0,69471.0,69490.0,69502.0,69529.0,69566.0,69680.0,69741.0,69802.0,0.021222940107070567,-0.1136769142111707,0.040542416726072804,-0.018137652059930186,0.011097470604316751
76,76,70125.96492262445,1772.0619036726769,17.444589686695988,70255.20808418206,-7067.5998560819735,7.971756370135731,70287.83829449835,50600.2129202589,10.654761828396712,70360.5889030941,-1690.0844746342632,104.46658143542632,70542.49395728568,8547.151258815013,27.010990035455897,0.9959496716564824,140.0,95.0,214.0,116.0,330.0,45.0,770.0,772.0,47.0,23.0,24.0,0.4893617021276595,32.39950357561407,1353.0761836427214,18.0,11.0,7.0,0.6111111111111112,777.2680255659891,991.5845970299912,26.0,13.0,13.0,0.5,2059.436798673254,47811.34646398879,124.0,24.0,100.0,0.1935483870967742,18.202881141998812,1793.2316875124,62.0,29.0,33.0,0.4677419354838709,95.2064826822124,8772.736553268942,0.0,0.0,0.0,0.0,70104.0,70149.0,70244.0,70262.0,70275.0,70301.0,70337.0,70458.0,70513.0,70574.0,0.01828350550760369,-0.10997623541139168,0.0407001607269663,-0.010770397228776356,0.011138972483261275
77,77,70888.37770211877,1605.4668889068273,14.90977005047558,71018.41835114316,-7260.817612947748,9.14244774178978,71051.72878318811,47547.04455844162,10.513606996896328,71123.36991350215,-1792.141868748592,38.21948101296085,71305.76788933163,8741.994790161249,25.35699947727187,0.99331599689952,139.0,96.0,201.0,129.0,330.0,43.0,765.0,764.0,44.0,20.0,24.0,0.4545454545454545,35.268878177516434,1414.604338117191,19.0,11.0,8.0,0.5789473684210527,674.3326997028288,1812.5079317021432,26.0,13.0,13.0,0.5,1965.3583329499172,45466.38332209208,106.0,21.0,85.0,0.1981132075471698,23.971270809076472,1834.4275692301069,62.0,31.0,31.0,0.5,104.92804632501912,9093.192805833556,0.0,0.0,0.0,0.0,70868.0,70911.0,71007.0,71026.0,71039.0,71065.0,71102.0,71208.0,71275.0,71337.0,0.021967988515497344,-0.09287283273722986,0.04133502620829001,-0.013375766297907548,0.012002757819429414
78,78,71639.71291109962,1211.7080556982671,12.332755735599587,71769.1887906321,-7166.305762110689,10.215557591283996,71803.06133208895,46984.60610306138,10.532216176270689,71873.36991350215,-2042.4074527590928,38.21948101296085,72056.11829052049,8355.099323256627,25.33778074503929,0.9907115712245608,136.0,100.0,196.0,133.0,329.0,36.0,752.0,752.0,37.0,18.0,19.0,0.4864864864864865,32.447445033220895,1060.412888938789,20.0,11.0,9.0,0.55,640.2428725867401,2293.9478235145716,26.0,13.0,13.0,0.5,1938.027929771064,45674.63975253888,104.0,21.0,83.0,0.2019230769230769,27.151771024827017,2019.1157428302365,62.0,31.0,31.0,0.5,101.29249361179232,8850.697927617106,0.0,0.0,0.0,0.0,71622.0,71658.0,71758.0,71778.0,71790.0,71816.0,71852.0,71954.0,72026.0,72087.0,0.026778269634035328,-0.08934071386847574,0.04124814679769738,-0.013294003108022166,0.012123433808840805
79,79,72400.68967717479,1766.9722553928116,16.06220406753412,72532.45328681923,-7540.593877510743,8.826169868027279,72565.54341618512,49697.9352110959,10.535012542713243,72634.52059170186,-1675.7644777071607,33.12355021123273,72819.98838848721,8689.964384818311,25.520981136627068,0.9943995547947492,142.0,98.0,198.0,130.0,328.0,44.0,761.0,762.0,47.0,22.0,25.0,0.4680851063829787,34.79470075085497,1561.5122542786553,18.0,10.0,8.0,0.5555555555555556,719.0863393379499,1569.6030051680325,27.0,14.0,13.0,0.5185185185185185,2056.491620140534,47231.79462312641,105.0,19.0,86.0,0.1809523809523809,29.450364019142413,1809.141717223133,60.0,30.0,30.0,0.5,105.92493966229765,9130.93672847371,0.0,0.0,0.0,0.0,72380.0,72424.0,72522.0,72540.0,72552.0,72579.0,72616.0,72720.0,72790.0,72850.0,0.019691707464370933,-0.09536202996989017,0.041379820135493024,-0.017574285892154384,0.012189341057295059
80,80,73175.75889269245,1755.1589133296332,15.965067822795588,73307.70971632407,-7879.040103772548,9.595124565109616,73341.13329329218,49029.66950337552,10.52352273693463,73409.52059170186,-1916.516195388646,33.12355021123273,73595.4095782604,8278.871705879388,24.65577398710654,0.993343406799748,141.0,97.0,207.0,121.0,328.0,44.0,772.0,776.0,45.0,21.0,24.0,0.4666666666666667,36.80052818633984,1609.4711507243646,19.0,11.0,8.0,0.5789473684210527,750.6956718119046,1609.0339385263103,26.0,13.0,13.0,0.5,2034.1528710083207,48192.68109184864,115.0,19.0,96.0,0.1652173913043478,28.988621676688368,1938.7474114378929,61.0,30.0,31.0,0.4918032786885246,97.44920998335098,8550.67207621835,0.0,0.0,0.0,0.0,73156.0,73200.0,73297.0,73316.0,73328.0,73354.0,73391.0,73504.0,73565.0,73625.0,0.020967063384891578,-0.09527755436255052,0.041488202788482524,-0.015125685734583541,0.011770832239633051
81,81,73919.98918321289,1686.501098366127,16.803621518836067,74052.5181123909,-7051.219345728869,8.234973170530104,74085.01317925708,49590.633230042826,10.598180161441952,74155.86288579454,-1734.768899603479,96.82268523283336,74337.62007759915,8076.092826594833,26.99463039303097,0.9954315693738934,142.0,100.0,203.0,125.0,328.0,42.0,747.0,743.0,44.0,21.0,23.0,0.4772727272727273,35.736467514081056,1370.395001356107,19.0,12.0,7.0,0.631578947368421,812.3296395899681,190.4342026750969,26.0,13.0,13.0,0.5,2033.2804272192143,47327.584573111344,112.0,22.0,90.0,0.1964285714285714,22.990628447224903,1977.2954256522248,61.0,30.0,31.0,0.4918032786885246,94.77312488718852,8464.619466512573,0.0,0.0,0.0,0.0,73899.0,73941.0,74041.0,74060.0,74072.0,74098.0,74134.0,74244.0,74309.0,74369.0,0.02118970900683216,-0.11520413700958262,0.04100129993878399,-0.013252847945613929,0.011735021739113444
82,82,74682.47663827613,1808.6782425228848,18.14800195325778,74817.60838410148,-7446.580020299249,8.4870384675282,74850.36548700415,48553.21029465324,10.494663411567402,74915.24660900142,-1491.6843210165914,25.47965400864057,75105.09557962992,8740.069901859213,26.054802363363173,0.9946385863304784,144.0,99.0,201.0,128.0,329.0,45.0,761.0,766.0,45.0,19.0,26.0,0.4222222222222222,42.31690657725109,1813.1573264211925,18.0,11.0,7.0,0.6111111111111112,789.6749675345534,197.44366505132305,27.0,13.0,14.0,0.4814814814814814,2007.954260820204,48439.571029004175,107.0,14.0,93.0,0.1308411214953271,46.488619424311686,1976.6725733955373,62.0,31.0,31.0,0.5,105.95678931792584,9158.25457924895,0.0,0.0,0.0,0.0,74663.0,74708.0,74807.0,74825.0,74837.0,74864.0,74901.0,75008.0,75074.0,75136.0,0.023396591821784832,-0.10604532085627402,0.04135574658471807,-0.031165186071426577,0.012123105479440892
83,83,75471.11702361243,1547.8176561235712,14.475695966781446,75602.85741812318,-7137.412929732124,9.155521421805288,75636.42481130392,46808.28605283565,10.486583899760689,75702.67126990156,-1867.318004217816,28.027619409504627,75889.85022952362,8701.748520091473,25.835758251973537,0.9919934100184536,140.0,98.0,202.0,127.0,329.0,42.0,790.0,786.0,44.0,20.0,24.0,0.4545454545454545,32.83195225169954,1383.6665831626556,19.0,11.0,8.0,0.5789473684210527,688.9381485536521,1310.401349406195,27.0,13.0,14.0,0.4814814814814814,1926.247529567409,46598.0201083783,108.0,16.0,92.0,0.1481481481481481,40.110585047098965,2091.421241570155,64.0,33.0,31.0,0.515625,93.64517485649375,8993.543570480164,0.0,0.0,0.0,0.0,75452.0,75494.0,75592.0,75611.0,75623.0,75650.0,75687.0,75794.0,75857.0,75921.0,0.02121177008274053,-0.09652491110382047,0.041151849213045835,-0.02148031827278425,0.010761650332720642
84,84,76247.01821615998,1523.1689808213807,17.626936248133383,76385.63087724321,-7618.831228188385,9.224705368198329,76419.10021894221,49238.44252032636,10.534789581217106,76486.09593080172,-1754.0874279826712,30.57558481036868,76673.23699820189,8167.661950046984,25.233226082368265,0.9925118532288896,149.0,103.0,201.0,128.0,329.0,46.0,777.0,783.0,46.0,21.0,25.0,0.4565217391304347,36.53647542669416,1537.5842207217283,19.0,11.0,8.0,0.5789473684210527,750.8237955630551,1101.1119584515,26.0,13.0,13.0,0.5,2027.8126046163427,48240.093150566856,107.0,17.0,90.0,0.1588785046728972,34.68293068692101,2012.7436238516736,63.0,32.0,31.0,0.5079365079365079,88.99992106923743,8453.038021721233,0.0,0.0,0.0,0.0,76226.0,76272.0,76375.0,76394.0,76406.0,76432.0,76469.0,76576.0,76642.0,76704.0,0.02398714514721248,-0.0985484220709778,0.04118352451500129,-0.019772635122759483,0.010896621531786763
85,85,77064.88648607532,1444.8221252346973,17.58541885473086,77200.65503636446,-7687.472571150914,8.764254478887251,77233.8399403845,50752.48157051905,10.55576872139645,77342.95354291041,-2013.0341988262653,46.234862815114674,77488.80729102204,7824.621355463944,25.76570039129858,0.9940379219649772,144.0,99.0,219.0,111.0,330.0,45.0,816.0,814.0,45.0,19.0,26.0,0.4222222222222222,35.24380877640513,1464.561077754644,18.0,11.0,7.0,0.6111111111111112,790.655751114156,619.792703924752,26.0,13.0,13.0,0.5,2088.379197828754,49224.68126700283,125.0,58.0,67.0,0.464,18.5156838596934,1778.1999911890148,62.0,31.0,31.0,0.5,86.35819455974512,8218.603963035433,0.0,0.0,0.0,0.0,77046.0,77091.0,77190.0,77208.0,77221.0,77247.0,77285.0,77409.0,77458.0,77520.0,0.024393181804770687,-0.10284989556662374,0.04114831695327083,-0.009197898312154505,0.011036725055001041
86,86,77872.945252602,1744.250128935464,16.32887541455939,78004.419919367,-7018.555398697531,8.822567157447457,78037.92515582577,48070.55678987936,10.548826170620888,78137.63237386564,-1537.3594720095557,46.79032168917454,78291.3817664579,8612.176263933705,27.46432804883731,0.9947018589397556,141.0,94.0,203.0,127.0,330.0,47.0,806.0,804.0,48.0,20.0,28.0,0.4166666666666667,33.9666933290647,1632.1234150489377,18.0,10.0,8.0,0.5555555555555556,666.8222045653912,1498.8486752503495,26.0,13.0,13.0,0.5,1962.052444823836,46617.936323640526,110.0,49.0,61.0,0.4454545454545454,18.590842539020574,1483.103848206314,67.0,33.0,34.0,0.4925373134328358,85.27249990243341,9091.809482461487,0.0,0.0,0.0,0.0,77853.0,77900.0,77994.0,78012.0,78025.0,78051.0,78089.0,78197.0,78258.0,78324.0,0.019473522039981137,-0.09500846921991052,0.040816095669541336,-0.01209271018099599,0.009901388138041228
87,87,78648.89472157993,1250.091716742045,14.15994204615833,78777.08826144572,-7371.678305610365,8.74808097105645,78810.52062245105,48398.84605084682,10.528763948356128,78880.945252602,-1738.8198975437715,35.67151561209672,79065.81958071048,8551.91225601715,26.37378104501777,0.9939276682929026,135.0,98.0,201.0,130.0,331.0,37.0,778.0,773.0,38.0,18.0,20.0,0.4736842105263157,35.90704336270853,1154.1400063917229,19.0,11.0,8.0,0.5789473684210527,709.6914431734268,1406.8535411754087,27.0,14.0,13.0,0.5185185185185185,1991.589606771094,45720.997573279565,107.0,20.0,87.0,0.1869158878504672,27.281336402104657,1801.467974159188,63.0,32.0,31.0,0.5079365079365079,93.21448066532552,8915.946005252927,0.0,0.0,0.0,0.0,78631.0,78668.0,78766.0,78785.0,78797.0,78824.0,78861.0,78967.0,79034.0,79097.0,0.028723527147502814,-0.09627270938197367,0.04114952667835864,-0.01568956994375428,0.010899840629180865
88,88,79446.52059170186,1419.3615163533418,14.9788199154067,79578.03855910897,-7189.590143144802,8.15761716239964,79610.91382172419,51690.76700681723,10.68888666269054,79682.43822489891,-1953.26235563113,99.3706506336705,79866.7927646255,8130.915503072858,26.88843096108804,0.9955105867093028,138.0,101.0,224.0,108.0,332.0,37.0,796.0,800.0,40.0,20.0,20.0,0.5,32.50067527113785,1096.0855925525436,20.0,12.0,8.0,0.6,787.9984235511425,1112.80244103115,26.0,13.0,13.0,0.5,2098.9786491391765,48878.1001706002,131.0,22.0,109.0,0.1679389312977099,21.197107781743156,2037.307802360336,62.0,30.0,32.0,0.4838709677419355,92.90812143265558,8372.621749929902,0.0,0.0,0.0,0.0,79428.0,79465.0,79566.0,79586.0,79598.0,79624.0,79660.0,79790.0,79838.0,79898.0,0.022898095303189127,-0.10960269053758102,0.04060645199678219,-0.010852155994627785,0.011426526496006936
89,89,80234.884484629,1727.5388127217443,15.920088380412157,80365.24010308097,-7659.878552688968,8.874497162429577,80398.40754626042,49083.70661087613,10.526932728645852,80467.945252602,-1830.5769724807096,35.6715156120968,80654.00030158633,8509.203117297346,26.102953578333025,0.9940046934276454,139.0,96.0,206.0,126.0,332.0,43.0,789.0,788.0,46.0,21.0,25.0,0.4565217391304347,36.17438507832362,1533.77854326036,19.0,11.0,8.0,0.5789473684210527,730.5774176572723,1630.8760673977413,27.0,13.0,14.0,0.4814814814814814,2023.3090992868144,48727.004449316024,113.0,20.0,93.0,0.1769911504424778,26.30918400589873,1826.617045613784,65.0,33.0,32.0,0.5076923076923077,92.611036030035,8824.116254880699,0.0,0.0,0.0,0.0,80215.0,80258.0,80354.0,80373.0,80385.0,80412.0,80448.0,80560.0,80621.0,80686.0,0.020939839274193052,-0.09537715417182512,0.041221603643896015,-0.014372071975889543,0.010883632080867484
90,90,80985.90724139888,1285.63563882085,12.33479899389108,81115.16817780168,-7038.797130508494,9.334681554002213,81148.91143421954,46968.25577752252,10.491711918674344,81221.79457440229,-2092.3381957037236,40.767446413824906,81402.79813370224,8328.344073205515,25.550898720846316,0.9918963364709136,135.0,101.0,200.0,129.0,329.0,34.0,753.0,750.0,35.0,17.0,18.0,0.4857142857142857,41.818921692102165,1189.8029551417876,20.0,11.0,9.0,0.55,653.3196027432425,1804.758472793461,26.0,13.0,13.0,0.5,1931.2077621698245,45057.11182493234,106.0,23.0,83.0,0.2169811320754717,21.339073839789354,2007.023802490692,62.0,31.0,31.0,0.5,106.43790122679576,8841.406408731282,0.0,0.0,0.0,0.0,80969.0,81003.0,81104.0,81123.0,81136.0,81162.0,81199.0,81304.0,81372.0,81433.0,0.0325278177030448,-0.09281693883625904,0.041117297847241704,-0.01019867337106672,0.01278019979616772
91,91,81735.77995564189,1360.6185122890015,14.340589138074344,81865.13425018602,-7417.748449966643,9.189392000329022,81898.54203845235,48609.154945395945,10.497464225168091,81969.36991350215,-1918.7310083545788,38.21948101296085,82153.68865100993,8253.714599761628,25.677500876837257,0.993014386440342,137.0,97.0,200.0,130.0,330.0,40.0,748.0,750.0,42.0,19.0,23.0,0.4523809523809524,34.34893493457602,1217.063823536687,19.0,11.0,8.0,0.5789473684210527,702.8566949909982,1660.8469605597506,27.0,14.0,13.0,0.5185185185185185,2015.5453277170168,45907.65545700669,107.0,21.0,86.0,0.1962616822429906,24.168510391502725,1918.7433420098448,61.0,31.0,30.0,0.5081967213114754,101.3102324557758,8734.011914039345,0.0,0.0,0.0,0.0,81717.0,81757.0,81854.0,81873.0,81885.0,81912.0,81948.0,82054.0,82123.0,82184.0,0.025245088630162747,-0.09475337425255488,0.04146431531223155,-0.012596091002995047,0.01227450152670674
92,92,82503.8364522148,1488.1424329589468,16.736643664529353,82635.60719736943,-7768.69226973388,8.90739343805262,82668.49789153732,49759.60994981108,10.5113349275679,82736.09593080172,-1631.5131099984435,30.57558481036616,82923.64290804738,8274.050218070553,25.23953316735176,0.994510004783036,141.0,97.0,207.0,122.0,329.0,44.0,769.0,770.0,45.0,20.0,25.0,0.4444444444444444,34.74542503816177,1390.9106709584266,18.0,11.0,7.0,0.6111111111111112,799.9261268457211,567.7290573747669,27.0,13.0,14.0,0.4814814814814814,2062.192894770056,49924.35123246291,116.0,18.0,98.0,0.1551724137931034,32.53609066777346,1798.3730618001491,61.0,31.0,30.0,0.5081967213114754,97.65751162085888,8553.253585146393,0.0,0.0,0.0,0.0,82484.0,82528.0,82625.0,82643.0,82655.0,82682.0,82719.0,82832.0,82893.0,82954.0,0.023348185139157502,-0.10296792549785512,0.04144310811218257,-0.019942279635009795,0.011802866679195946
93,93,83302.83819840611,1632.5236648696014,19.418023491353846,83436.35913556698,-7454.899966896906,8.86863705768598,83469.49805744317,49288.28370832205,10.52791790622426,83572.4132858347,-1681.6599808238204,42.586210644466405,83723.35233016533,8319.357784149443,27.182504829462548,0.9955443245726748,144.0,94.0,206.0,124.0,330.0,50.0,800.0,801.0,51.0,22.0,29.0,0.4313725490196078,32.07797877095074,1627.576148640824,19.0,11.0,8.0,0.5789473684210527,713.8619936598632,1467.051965575878,27.0,13.0,14.0,0.4814814814814814,2029.6898240720193,49468.173155232405,110.0,51.0,59.0,0.4636363636363636,18.929848781933167,1581.671493070403,66.0,33.0,33.0,0.5,90.28575521024058,8813.904626585065,0.0,0.0,0.0,0.0,83281.0,83331.0,83425.0,83444.0,83456.0,83483.0,83521.0,83631.0,83690.0,83755.0,0.019649319309262808,-0.09575742086811762,0.041179965528589046,-0.011256644623641286,0.010852490967783427
94,94,84109.44255425989,1293.4582535434763,14.240368345559046,84243.54563410736,-7073.9099803895015,8.945401935424805,84277.17998324004,47928.593539057634,10.545202782379665,84352.64389620257,-1751.6692273977728,45.86337721555302,84528.8807643631,8689.200036949678,26.618208228081013,0.9927130018264344,141.0,103.0,200.0,128.0,328.0,38.0,805.0,808.0,39.0,17.0,22.0,0.4358974358974359,36.68438530529905,1249.5431702015012,19.0,11.0,8.0,0.5789473684210527,714.3598995204608,813.4190563072798,26.0,13.0,13.0,0.5,1959.706578708083,46667.105494340634,108.0,26.0,82.0,0.2407407407407407,22.279868705006752,1676.4150241558862,65.0,33.0,32.0,0.5076923076923077,92.3727378863564,9147.475973647202,0.0,0.0,0.0,0.0,84092.0,84130.0,84233.0,84252.0,84264.0,84290.0,84327.0,84433.0,84497.0,84561.0,0.028361476069908582,-0.10098515552231085,0.04088804686311299,-0.01271922138981973,0.01063075283035878
95,95,84910.08860128633,2269.305525136735,18.282213012299938,85044.97228875014,-7524.69730075035,8.984403446701863,85078.46604469264,48739.327633776986,10.44844569928865,85143.24660900142,-1623.6281951527328,25.479654008640164,85331.22568555345,8494.303797668717,26.315293089498283,0.9925352081550796,145.0,98.0,206.0,123.0,329.0,47.0,803.0,801.0,47.0,21.0,26.0,0.4468085106382978,42.39193273196151,2209.0098472994323,19.0,11.0,8.0,0.5789473684210527,715.6721102171034,1570.8688109199188,27.0,13.0,14.0,0.4814814814814814,2011.845044554365,48694.17069038903,113.0,14.0,99.0,0.1238938053097345,49.36564010472028,2052.611152416116,65.0,33.0,32.0,0.5076923076923077,92.00686588813508,8909.44104095846,0.0,0.0,0.0,0.0,84889.0,84936.0,85034.0,85053.0,85065.0,85092.0,85129.0,85240.0,85298.0,85363.0,0.018680575296007012,-0.09510975413532419,0.04127765281604193,-0.03040452256994497,0.010831595864676583
96,96,85757.9555231613,1513.3815388803273,12.619193577881203,85892.00867141692,-7904.061520460686,9.507427647478025,85925.4464531597,50801.391602251235,10.513871486587457,86027.28779240517,-2066.9628106236396,46.0770444582366,86179.9678310592,7806.440336913739,25.171665764824244,0.9926628722519004,139.0,106.0,208.0,122.0,330.0,33.0,849.0,847.0,33.0,16.0,17.0,0.4848484848484848,48.09387618462431,1495.2273532339036,19.0,11.0,8.0,0.5789473684210527,742.7805006414517,1788.217408394863,27.0,13.0,14.0,0.4814814814814814,2103.7648679301624,50820.31069620309,113.0,51.0,62.0,0.4513274336283185,19.388557250630964,1839.4989858069323,62.0,31.0,31.0,0.5,90.940204231949,8257.187926370923,0.0,0.0,0.0,0.0,85742.0,85775.0,85881.0,85900.0,85912.0,85939.0,85976.0,86089.0,86149.0,86211.0,0.03177908210787775,-0.09397453432247058,0.04141155983287936,-0.009380215817613616,0.011649381831809661
97,97,86619.37096120605,826.5164913583399,10.2502764309574,86755.61207710402,-6885.402623999691,8.096315745428335,86788.38753421996,50772.2946454665,10.76159681024778,86863.89025949354,-2342.717366609721,114.65844303888257,87040.60319032666,8477.859611330858,27.38487486927443,0.9921767896121316,135.0,115.0,211.0,119.0,330.0,20.0,861.0,863.0,22.0,12.0,10.0,0.5454545454545454,33.36709801121479,522.7082296450678,20.0,13.0,7.0,0.65,807.8040953025763,512.8515237719312,27.0,13.0,14.0,0.4814814814814814,2043.4247566341032,48845.40718532601,120.0,27.0,93.0,0.225,19.510071824110387,2542.59874229044,62.0,29.0,33.0,0.4677419354838709,93.12326092615508,8431.710052984978,0.0,0.0,0.0,0.0,86608.0,86628.0,86743.0,86763.0,86775.0,86802.0,86838.0,86954.0,87013.0,87073.0,0.04037075891417191,-0.11732125765411341,0.04024684664939725,-0.008327966532447965,0.010984289100717552
98,98,87447.23120422938,351.9426502546646,4.736869866074114,87578.64998362711,-6527.611513273006,8.652868508222472,87612.33549499839,48514.19594954688,10.72544964421291,87681.71220759483,-2531.99158580145,91.72675443110604,87863.83692472408,8579.46524306491,27.0419121223351,0.9894692386971528,126.0,114.0,213.0,117.0,330.0,12.0,828.0,824.0,12.0,6.0,6.0,0.5,38.800231649612634,273.4576902838312,20.0,12.0,8.0,0.6,705.3853180642133,1497.9968266631204,27.0,13.0,14.0,0.4814814814814814,1949.001398773476,46225.54025592093,120.0,21.0,99.0,0.175,27.4793717534509,2829.327645207704,63.0,30.0,33.0,0.4761904761904761,94.12196919264905,8923.251549355733,0.0,0.0,0.0,0.0,87441.0,87453.0,87567.0,87587.0,87599.0,87626.0,87661.0,87780.0,87835.0,87897.0,0.11024589268034694,-0.10806177981485397,0.04017383696929393,-0.010852868511706712,0.010970610233397848
99,99,88249.97175169934,1358.33068252026,15.37525063455062,88382.02236656166,-7591.611887934894,8.7690067779112,88415.38398282875,49897.29611493557,10.49404373523429,88518.1063171044,-1665.2843363057334,53.25858760210187,88669.66944897424,8469.061984010064,26.50940771376615,0.9940681753040068,140.0,101.0,216.0,115.0,331.0,39.0,802.0,803.0,40.0,20.0,20.0,0.5,36.22367305364774,1306.623676894271,19.0,11.0,8.0,0.5789473684210527,738.3082339850521,1428.5751713116988,27.0,13.0,14.0,0.4814814814814814,2051.5471918219164,49472.350375059796,121.0,51.0,70.0,0.4214876033057851,20.533888259657168,1520.6125144358216,64.0,32.0,32.0,0.5,95.45658972667538,8945.132274627374,0.0,0.0,0.0,0.0,88231.0,88270.0,88371.0,88390.0,88402.0,88429.0,88467.0,88587.0,88638.0,88702.0,0.02666778680610967,-0.0972531584706565,0.04111539805877045,-0.012330559900184699,0.011271211606067038
100,100,89081.47196886037,960.0861794770494,11.590824054173757,89213.865376844,-8044.595803805015,9.784797585429358,89247.38529306694,50724.275715905336,10.568069307312498,89315.52059170186,-2126.674542810775,33.12355021123273,89503.63153336105,7950.315704122668,24.998458521613927,0.9919787292885074,137.0,106.0,211.0,120.0,331.0,31.0,832.0,832.0,32.0,15.0,17.0,0.46875,33.91372430190292,924.166897778956,19.0,11.0,8.0,0.5789473684210527,757.1319241150265,1884.2824895503184,27.0,13.0,14.0,0.4814814814814814,2099.9343149603797,50505.126874699745,117.0,19.0,98.0,0.1623931623931624,31.25341172056222,2154.9564027139068,63.0,32.0,31.0,0.5079365079365079,88.33677896486485,8214.87561388728,0.0,0.0,0.0,0.0,89066.0,89097.0,89203.0,89222.0,89234.0,89261.0,89297.0,89414.0,89472.0,89534.0,0.035323625135792944,-0.09411683850628152,0.04139900048492786,-0.014695907197560813,0.01111110328852192
101,101,89892.5510611458,1915.384049109107,18.84824292777983,90021.66225771487,-7073.595912056956,8.106066782470196,90054.6455381143,49029.54298236073,10.550827800456492,90150.16448790445,-1537.2725873009645,41.275863569673824,90308.51735710204,8845.575636216885,27.685880452797,0.9955112299640746,142.0,91.0,200.0,131.0,331.0,51.0,809.0,807.0,52.0,25.0,27.0,0.4807692307692308,29.414746816498557,1735.1466398760426,18.0,11.0,7.0,0.6111111111111112,769.6663344110796,114.0490617324117,27.0,14.0,13.0,0.5185185185185185,2007.4263915570352,46900.88138287151,108.0,44.0,64.0,0.4074074074074074,19.275195033838052,1336.0499144187104,68.0,35.0,33.0,0.5147058823529411,92.45524145447143,9339.877328874129,0.0,0.0,0.0,0.0,89869.0,89920.0,90011.0,90029.0,90041.0,90068.0,90106.0,90211.0,90275.0,90342.0,0.015357101271768495,-0.10880835489898172,0.04094320014933126,-0.01253856680530555,0.010452145259594784
102,102,90659.5172494172,882.9147248248476,10.35023215805177,90788.60473470404,-6979.276231073283,10.058330491048451,90822.83338015011,47333.242102797354,10.561536809077603,90904.34253980315,-2112.65084364925,56.055238819009254,91076.49090575273,8550.100724332498,25.602489760103182,0.992040168263942,132.0,104.0,212.0,119.0,331.0,28.0,767.0,768.0,28.0,15.0,13.0,0.5357142857142857,34.08017007918248,806.7072780312095,20.0,12.0,8.0,0.6,661.3198269442474,1936.6941072126133,26.0,13.0,13.0,0.5,1939.894832258536,45023.81288999229,117.0,31.0,86.0,0.2649572649572649,18.22207419374125,2034.219051357691,62.0,30.0,32.0,0.4838709677419355,96.00310342495426,8955.90717013053,0.0,0.0,0.0,0.0,90645.0,90673.0,90777.0,90797.0,90810.0,90836.0,90873.0,90989.0,91046.0,91108.0,0.03859961683835695,-0.09475478617681088,0.0409837726316214,-0.008625218051775026,0.011228300872730265
103,103,91449.09002669754,1768.9488501003746,22.397127854695853,91583.86175345114,-7287.139773257178,8.232400635325597,91617.0403376436,50335.998097726675,10.54185539186489,91729.37631553329,-1598.0152270100616,44.86698905498472,91872.10157482198,8202.116604041581,26.042250105513787,0.9951963988888652,148.0,91.0,216.0,115.0,331.0,57.0,791.0,795.0,59.0,26.0,33.0,0.4406779661016949,30.64840655078205,1838.8048936689088,18.0,11.0,7.0,0.6111111111111112,765.5190973415312,423.90723458036746,26.0,13.0,13.0,0.5,2054.0837804183097,49228.16921170365,120.0,60.0,60.0,0.5,16.431681194388542,1477.3883747490215,64.0,32.0,32.0,0.5,90.10665035078942,8597.318757411671,0.0,0.0,0.0,0.0,91425.0,91482.0,91573.0,91591.0,91604.0,91630.0,91670.0,91789.0,91840.0,91904.0,0.017325773183912572,-0.10505069494493344,0.04080745108958271,-0.010282556083731912,0.010985780219997056
104,104,92263.36566066967,1717.2829925002402,17.094242827790225,92399.69252728332,-7968.682302635452,9.38664070480002,92433.00789710628,50290.93370395552,10.536733048856298,92538.1927794354,-2075.2950828106486,48.25684871824471,92688.8468201378,7874.415054880633,25.91885653523371,0.9943763755629847,146.0,103.0,216.0,115.0,331.0,43.0,815.0,816.0,43.0,20.0,23.0,0.4651162790697674,39.96407472943068,1686.2726515530808,19.0,11.0,8.0,0.5789473684210527,775.5437103373372,1354.704866949317,26.0,13.0,13.0,0.5,2077.524411431132,49204.305086671666,122.0,55.0,67.0,0.4508196721311475,17.426347675901557,1931.5357890110113,62.0,31.0,31.0,0.5,89.82710205693363,8303.614424985422,0.0,0.0,0.0,0.0,92243.0,92286.0,92389.0,92408.0,92420.0,92446.0,92483.0,92605.0,92658.0,92720.0,0.02327168841941762,-0.09732395907926264,0.041310118115141084,-0.008397045711832175,0.011407463466287312
105,105,93090.12432430082,1598.557443490771,16.038479436988503,93220.75585160744,-7209.868400811302,8.742217227239303,93254.20211821672,48630.12804075688,10.558108132589052,93347.7398270043,-1572.8858318755192,44.58118774238916,93507.64343902036,8754.172225059405,27.34895682700688,0.9943187487059884,141.0,95.0,202.0,128.0,330.0,46.0,823.0,821.0,46.0,21.0,25.0,0.4565217391304347,32.201306467584814,1388.6474509475993,19.0,11.0,8.0,0.5789473684210527,730.5386566014728,801.3017573851862,27.0,13.0,14.0,0.4814814814814814,1985.4647108285344,47852.272401132504,109.0,43.0,66.0,0.3944954128440367,17.699083823579805,1411.0492447033405,65.0,33.0,32.0,0.5076923076923077,92.96901249977589,9279.35988229952,0.0,0.0,0.0,0.0,93069.0,93115.0,93210.0,93229.0,93241.0,93268.0,93305.0,93412.0,93475.0,93540.0,0.020143978309135266,-0.10132482536286899,0.04082787339495626,-0.011252618254228474,0.010619966126968104
106,106,93874.67126990156,1354.4514779457818,14.068478379080734,94008.22689533843,-6627.469230743532,8.599836539904318,94041.97899913212,48651.23201848606,10.639366781719016,94109.83551209555,-1980.4913762379324,78.98692742678575,94294.35104947202,8824.55312127569,27.09028367450209,0.992632420002242,138.0,98.0,204.0,126.0,330.0,40.0,785.0,787.0,41.0,16.0,25.0,0.3902439024390244,43.20270225369858,1370.6010180913677,19.0,11.0,8.0,0.5789473684210527,663.2481433295627,1882.9420740233384,26.0,13.0,13.0,0.5,1964.4248657719932,45968.63934712493,112.0,19.0,93.0,0.1696428571428571,29.59091351264891,2280.6516043384972,66.0,32.0,34.0,0.4848484848484848,89.48973720203672,9180.754387958556,0.0,0.0,0.0,0.0,93859.0,93899.0,93997.0,94016.0,94029.0,94055.0,94092.0,94201.0,94263.0,94327.0,0.03189682536226519,-0.10007562770007056,0.040377700302133536,-0.014941197860128382,0.010140993653976662
107,107,94667.34444195453,2029.6454979550597,18.576038303263907,94803.38201478256,-7491.574787397803,8.520600167405892,94836.65510092796,50624.671181819125,10.521563205233752,94939.1529456096,-1383.5267096383416,39.76810047176624,95091.44619925128,8694.207251919097,27.578957477383614,0.9950885179967652,146.0,103.0,198.0,133.0,331.0,43.0,794.0,795.0,44.0,20.0,24.0,0.4545454545454545,51.09598658823866,2068.145796180643,18.0,10.0,8.0,0.5555555555555556,727.3990817606043,1378.88461239956,27.0,14.0,13.0,0.5185185185185185,2077.789111106017,48561.17286758974,105.0,50.0,55.0,0.4761904761904761,17.81585828313843,1161.7506692320774,67.0,33.0,34.0,0.4925373134328358,90.94174548376564,9207.477885901942,0.0,0.0,0.0,0.0,94647.0,94690.0,94793.0,94811.0,94823.0,94850.0,94889.0,94991.0,95058.0,95124.0,0.02517483306307416,-0.09709561773103065,0.041043014455217144,-0.012877133602860151,0.010460038833752417
108,108,95496.7490752366,1390.9952438248831,15.219743210173217,95634.7341474486,-7947.929463977875,9.449698137893462,95668.15749221026,50944.92741294935,10.545638422066624,95767.44695873187,-2056.5512200131648,51.367008932334976,95923.86717372446,7923.823224717092,25.98552462648126,0.9930999539550964,147.0,105.0,211.0,120.0,331.0,42.0,829.0,832.0,42.0,20.0,22.0,0.4761904761904761,30.95867763522637,1309.8048580615173,19.0,11.0,8.0,0.5789473684210527,771.3653559367066,1486.625049190452,26.0,13.0,13.0,0.5,2103.4876730607853,50078.434760465054,118.0,49.0,69.0,0.4152542372881356,21.59220573562264,1940.0919792144864,63.0,31.0,32.0,0.492063492063492,90.87353934146196,8371.919786687198,0.0,0.0,0.0,0.0,95477.0,95519.0,95624.0,95643.0,95655.0,95681.0,95718.0,95835.0,95893.0,95955.0,0.022256494242279275,-0.0970523655793297,0.04128944293139014,-0.010499230714751864,0.01146839559191535
109,109,96320.61167667566,1328.288327105735,13.642829023369492,96454.23005490298,-7374.181935226386,9.255716661112071,96487.82151505208,48379.73755493087,10.530347835730522,96555.09593080172,-2100.8637584936823,30.57558481036868,96741.69137800424,8664.971652827931,26.256242186547368,0.9918989575449642,140.0,103.0,213.0,118.0,331.0,37.0,824.0,819.0,38.0,18.0,20.0,0.4736842105263157,39.66741234015452,1192.015401370631,19.0,11.0,8.0,0.5789473684210527,683.9388015829685,1813.8147522971665,26.0,13.0,13.0,0.5,1994.3698686190248,46625.54316908263,119.0,18.0,101.0,0.1512605042016806,36.048442181609545,2259.8802997822236,66.0,34.0,32.0,0.5151515151515151,90.69351878482324,9023.970432512337,0.0,0.0,0.0,0.0,96303.0,96340.0,96443.0,96462.0,96475.0,96501.0,96538.0,96656.0,96709.0,96774.0,0.0298635556231888,-0.09274775257656723,0.04122324695032907,-0.017158867173498318,0.0104666838413977
110,110,97105.20109913418,851.2941395994447,11.01978602410292,97236.69444265155,-7256.095229730864,10.157653815886292,97270.86362798842,47273.16461905385,10.510078417208566,97339.52059170186,-2333.2034234445428,33.12355021123273,97524.42768244012,8560.472048438274,24.8505146789182,0.9889649440388836,135.0,106.0,213.0,116.0,329.0,29.0,786.0,783.0,29.0,14.0,15.0,0.4827586206896552,33.33555315412342,837.1851414965558,19.0,11.0,8.0,0.5789473684210527,665.8821345801903,2024.8844126114475,26.0,13.0,13.0,0.5,1949.696995247185,45502.01489344113,118.0,19.0,99.0,0.1610169491525423,25.250511442910252,2322.4032782422673,63.0,32.0,31.0,0.5079365079365079,94.15584420353169,8872.174756541774,0.0,0.0,0.0,0.0,97091.0,97120.0,97226.0,97245.0,97258.0,97284.0,97321.0,97439.0,97493.0,97555.0,0.03915867806843899,-0.09176865979539915,0.04124320872018251,-0.010822250297246927,0.01099890796567801
111,111,97917.82565365887,2066.1553711102683,23.34916262551136,98055.6814496056,-7445.2396057928845,8.322267475111541,98088.85015728822,51042.14548435185,10.551717133523766,98192.28779240516,-1603.4389288969924,41.41917664386764,98344.28330731616,8269.386826730775,26.635544670888013,0.9953387624431508,153.0,95.0,212.0,119.0,331.0,58.0,813.0,818.0,59.0,26.0,33.0,0.4406779661016949,38.68281150342298,2102.9311652027386,18.0,11.0,7.0,0.6111111111111112,786.3129605727603,166.93835387310537,26.0,13.0,13.0,0.5,2087.554374914862,49458.54412292245,117.0,52.0,65.0,0.4444444444444444,19.727687332070747,1386.513646407083,64.0,32.0,32.0,0.5,90.69471951754971,8817.816826436574,0.0,0.0,0.0,0.0,97892.0,97950.0,98045.0,98063.0,98076.0,98102.0,98141.0,98257.0,98313.0,98376.0,0.018722121310091218,-0.10561284823673872,0.040898640821335576,-0.012303360593622015,0.010967526543126417
112,112,98742.32281264468,1345.9467067608823,13.121279279627355,98881.48178039212,-7839.590601759789,9.921710996903904,98915.07940063764,50476.145396050015,10.567715314599484,99017.05331880393,-2275.736405382248,54.833783013394545,99170.9455381145,7801.099192516387,25.60763006863875,0.9926043815507896,144.0,111.0,217.0,115.0,332.0,33.0,826.0,827.0,33.0,16.0,17.0,0.4848484848484848,43.23366014957014,1344.4644723045,20.0,11.0,9.0,0.55,695.544549436429,2654.105349394071,26.0,13.0,13.0,0.5,2082.9059025922757,49367.96623259025,123.0,53.0,70.0,0.4308943089430894,16.745082471537867,2161.282241375774,61.0,30.0,31.0,0.4918032786885246,98.47768832121352,8289.774537326732,0.0,0.0,0.0,0.0,98726.0,98759.0,98870.0,98890.0,98902.0,98928.0,98965.0,99087.0,99141.0,99202.0,0.03212137592996907,-0.08872205001116983,0.041265153791938965,-0.007358094035818375,0.012623565716954785
113,113,99575.31345775872,1555.611170555276,16.818248718366753,99707.01961034429,-7395.138538326477,8.586340488735665,99740.228341864,49503.538116329015,10.553662434704904,99843.32226181816,-1786.6423957416011,39.6322338822508,99994.48423172889,8735.828820456903,27.855603034863066,0.9952971787468172,141.0,98.0,204.0,128.0,332.0,43.0,829.0,825.0,46.0,21.0,25.0,0.4565217391304347,33.36992430860219,1459.0970203220031,19.0,11.0,8.0,0.5789473684210527,741.3101154084258,896.3075670751596,27.0,13.0,14.0,0.4814814814814814,2025.316434757175,49002.21680594264,109.0,51.0,58.0,0.4678899082568807,15.571845811543486,1568.178871518559,68.0,34.0,34.0,0.5,91.3272985319584,9332.87899509761,0.0,0.0,0.0,0.0,99555.0,99598.0,99696.0,99715.0,99727.0,99754.0,99792.0,99900.0,99961.0,100028.0,0.021451327259813118,-0.10024289762341418,0.040912559219461395,-0.008715703740523805,0.010454337007851509
114,114,100365.5957075398,949.7706557071128,11.129546299124064,100492.10696498568,-7000.252465374593,9.341232625715342,100526.21871190466,47022.05208397411,10.442989183050548,100592.67126990156,-1911.86181623812,28.027619409504627,100778.38795935652,9147.198257144082,26.12483380396415,0.990296013650476,131.0,100.0,194.0,135.0,329.0,31.0,792.0,786.0,32.0,16.0,16.0,0.5,30.597061727558387,862.178736243972,20.0,11.0,9.0,0.55,633.4845166194744,1980.7818911322584,27.0,13.0,14.0,0.4814814814814814,1933.7549448333127,46207.74852155472,101.0,17.0,84.0,0.1683168316831683,39.35983304818161,2037.0900077529764,66.0,33.0,33.0,0.5,94.1202286579865,9523.797293619406,0.0,0.0,0.0,0.0,100350.0,100381.0,100481.0,100501.0,100513.0,100540.0,100577.0,100675.0,100745.0,100810.0,0.032215210633959414,-0.09049452426935803,0.04112442692590119,-0.02058717461371141,0.010289514451540105
115,115,101142.4861447992,1047.0797804173592,12.745404027265694,101267.65869899114,-6880.2495669600185,8.669620801796793,101301.44185085408,47504.020948534475,10.472914563628027,101369.09593080172,-1785.6774605858343,30.57558481036868,101555.20078764412,9207.09603389233,26.39206072063518,0.9925755235171057,132.0,96.0,199.0,131.0,330.0,36.0,777.0,775.0,36.0,17.0,19.0,0.4722222222222222,27.39289660649455,1000.7268095862672,19.0,11.0,8.0,0.5789473684210527,688.1572803501113,821.5295391728068,27.0,13.0,14.0,0.4814814814814814,1939.4382027556671,47047.72502336569,106.0,17.0,89.0,0.160377358490566,33.59370850784841,1912.6694959360404,65.0,33.0,32.0,0.5076923076923077,97.65327627290898,9662.439828299195,0.0,0.0,0.0,0.0,101125.0,101161.0,101257.0,101276.0,101288.0,101315.0,101352.0,101456.0,101523.0,101587.0,0.02616123156878831,-0.10001923239161917,0.040826821899073364,-0.018812864724644725,0.010606305822534766
116,116,101930.03144454492,1784.2975938088816,21.13024291136586,102065.68369119862,-7383.8892817755295,8.566018513752079,102098.99873183688,50239.1454917402,10.513194820895723,102204.84717562865,-1656.3970481190809,42.211830856712474,102353.49567779418,8365.277969246647,26.55400384128877,0.9935643790504146,145.0,97.0,207.0,123.0,330.0,48.0,790.0,798.0,48.0,20.0,28.0,0.4166666666666667,36.85105875761204,1990.8337610826725,18.0,11.0,7.0,0.6111111111111112,760.9184928355701,472.1626765978276,26.0,13.0,13.0,0.5,2059.7309553775203,49049.647623016455,113.0,54.0,59.0,0.4778761061946903,14.328115797230142,1481.707200203326,66.0,33.0,33.0,0.5,92.80376030968552,8879.926222540089,0.0,0.0,0.0,0.0,101910.0,101958.0,102055.0,102073.0,102086.0,102112.0,102151.0,102262.0,102321.0,102385.0,0.020652977891959877,-0.1030511785589233,0.040998526850265796,-0.008650169845146978,0.01109392427255387
117,117,102739.9787381564,1335.745765039796,16.26135426425553,102876.29812700588,-7161.48377263171,8.535443583407469,102909.18911814624,51263.0078208544,10.726798390086682,102980.4382248944,-2181.7114123538186,99.37065063369822,103163.06661935442,8196.792536020703,26.52128344085172,0.9933835505671438,144.0,104.0,221.0,110.0,331.0,40.0,807.0,810.0,41.0,21.0,20.0,0.5121951219512195,31.111713948920684,1098.4706747879677,20.0,12.0,8.0,0.6,756.1269861797011,1660.1420205616628,26.0,13.0,13.0,0.5,2081.2187176043813,49104.60541553411,128.0,22.0,106.0,0.171875,25.969020842879225,2329.688607530754,62.0,29.0,33.0,0.4677419354838709,92.09455361718412,8423.955323954064,0.0,0.0,0.0,0.0,102720.0,102760.0,102864.0,102884.0,102896.0,102922.0,102958.0,103085.0,103135.0,103195.0,0.023291643337528208,-0.10558244774208833,0.04059884127122398,-0.011903050374046311,0.011235437912143775
118,118,103560.13815515928,1676.319945963304,16.50545209785168,103694.45077287416,-7481.153468449977,8.617967378686188,103727.39132794263,50229.81751914238,10.624614139086074,103800.36991350216,-1262.0290259678604,38.2194810129522,103981.73307255477,8557.679799305319,27.89924767147578,0.9951525945521168,143.0,102.0,207.0,123.0,330.0,41.0,820.0,818.0,42.0,19.0,23.0,0.4523809523809524,42.61600568501403,1639.6441409755626,18.0,10.0,8.0,0.5555555555555556,741.150247827433,1157.7584063834256,27.0,13.0,14.0,0.4814814814814814,2056.3035005616966,50066.239314986975,113.0,21.0,92.0,0.1858407079646017,20.678939409841284,1393.8584153139268,67.0,34.0,33.0,0.5074626865671642,91.04580096537153,9067.480039077454,0.0,0.0,0.0,0.0,103541.0,103582.0,103684.0,103702.0,103714.0,103741.0,103779.0,103891.0,103949.0,104014.0,0.025422357938075225,-0.09906898059945723,0.04093790505565838,-0.016385470527496334,0.010639075438737763
119,119,104357.12274690722,1369.462334193617,12.55573933823264,104488.60849342922,-7260.989217864927,9.26976989703734,104522.43215261148,47345.42890548889,10.452369823298,104587.24660900142,-1680.8792471733614,25.47965400864057,104774.65274086667,9072.113347093138,26.83256820172165,0.9914484446116414,138.0,105.0,197.0,133.0,330.0,33.0,797.0,795.0,35.0,17.0,18.0,0.4857142857142857,41.11724799871549,1257.307279587576,19.0,11.0,8.0,0.5789473684210527,696.1647086112127,1378.8766834907742,27.0,13.0,14.0,0.4814814814814814,1950.1528318220464,47182.03942496738,103.0,15.0,88.0,0.145631067961165,48.927882263315354,2070.7869224388096,68.0,35.0,33.0,0.5147058823529411,91.81951461395424,9426.0962236491,0.0,0.0,0.0,0.0,104340.0,104373.0,104478.0,104497.0,104509.0,104536.0,104573.0,104675.0,104740.0,104808.0,0.03002437304924245,-0.09587739187084456,0.04118988626578816,-0.029108505174059694,0.010121072246454548
120,120,105127.10600034456,925.1137759189252,10.66969257666758,105258.90783302684,-6598.578034531448,8.494859456294083,105292.38810465486,48203.25763746738,10.611623824614451,105363.28754669469,-2019.408868788353,94.2747198319701,105544.38160612188,8706.837562859298,26.47785638499035,0.9911231427648888,134.0,109.0,212.0,117.0,329.0,25.0,771.0,770.0,25.0,14.0,11.0,0.56,36.689696097212014,786.5029840703908,20.0,12.0,8.0,0.6,694.2620457087512,1524.593224867108,27.0,13.0,14.0,0.4814814814814814,1948.4974014660256,46354.333867983514,119.0,21.0,98.0,0.1764705882352941,18.863482933597812,2184.3779468652974,62.0,29.0,33.0,0.4677419354838709,96.0583001855352,8982.543556645487,0.0,0.0,0.0,0.0,105113.0,105138.0,105247.0,105267.0,105279.0,105306.0,105342.0,105459.0,105515.0,105576.0,0.03965965814395938,-0.10521388730656261,0.040422525301516125,-0.00934109145757883,0.011032513181972119
121,121,105928.38208480072,1689.1540687188526,19.325696420399023,106062.9633016921,-7600.405880215162,8.99058033858374,106096.28618177724,50212.580859338086,10.58163698696681,106166.945252602,-1632.9825728752755,35.6715156120968,106351.39786887835,8322.700788079484,25.87970997690963,0.9929043861872936,143.0,96.0,210.0,121.0,331.0,47.0,803.0,804.0,47.0,19.0,28.0,0.4042553191489361,38.42480367342975,1831.8281882355689,19.0,11.0,8.0,0.5789473684210527,749.1972061795979,1164.141616710785,27.0,13.0,14.0,0.4814814814814814,2059.7621431778543,49661.88953500536,117.0,20.0,97.0,0.1709401709401709,24.898678375770366,1626.6384585614433,64.0,32.0,32.0,0.5,94.42301287819608,8785.891010369858,0.0,0.0,0.0,0.0,105909.0,105956.0,106052.0,106071.0,106083.0,106110.0,106147.0,106262.0,106319.0,106383.0,0.022747956734682724,-0.09857331542383216,0.0410208379638546,-0.015247363192572224,0.011345236994875166
122,122,106739.91443856031,1304.426201020694,15.257257530686305,106874.46962007746,-7977.293937824079,9.410633576231206,106907.9152379849,50106.85166982,10.515851643289674,107013.24158445324,-2019.677333805989,49.82465720276255,107163.38829740784,7926.450409579618,26.26830177019911,0.9941158539842784,141.0,101.0,218.0,114.0,332.0,40.0,808.0,811.0,40.0,18.0,22.0,0.45,36.63819428020641,1249.4915885223236,20.0,11.0,9.0,0.55,712.0223574448979,2516.990930438516,26.0,13.0,13.0,0.5,2074.475974490704,48740.381078401,124.0,55.0,69.0,0.4435483870967742,28.12957338881444,1864.9379043935016,63.0,31.0,32.0,0.492063492063492,90.61304079084267,8416.154049668767,0.0,0.0,0.0,0.0,106722.0,106762.0,106863.0,106883.0,106895.0,106921.0,106958.0,107081.0,107133.0,107195.0,0.02808759456957977,-0.08925612657556306,0.041401044075977896,-0.013927756141029493,0.011431729981093564
123,123,107554.4022727041,1573.72783299971,17.55126908857724,107688.16162277664,-7523.219520157331,8.471023767149042,107721.05565775029,50014.4047339919,10.567007620165548,107821.43847060487,-1308.393983049503,39.681870727286935,107976.38892089046,8133.056497782539,27.400991287743423,0.995811359505412,142.0,99.0,211.0,121.0,332.0,43.0,814.0,814.0,44.0,19.0,25.0,0.4318181818181818,36.17547812333609,1603.3195699276107,18.0,11.0,7.0,0.6111111111111112,763.1818525415803,829.5234614410283,26.0,13.0,13.0,0.5,2051.156523614961,49189.58987307824,116.0,48.0,68.0,0.4137931034482758,24.53282684372393,1147.0145920747264,65.0,32.0,33.0,0.4923076923076923,89.93279760191709,8723.160590634732,0.0,0.0,0.0,0.0,107535.0,107578.0,107677.0,107695.0,107708.0,107734.0,107773.0,107888.0,107944.0,108009.0,0.022987124815846575,-0.10144351769834041,0.04101131533053933,-0.018750336031464105,0.01105768755282065
124,124,108356.36893734032,1159.4766587898575,10.789065718633209,108489.36432907726,-7254.237526853266,10.790867151807218,108523.41804430888,46660.58052345547,10.566180781528884,108591.945252602,-2443.2191147008916,35.6715156120968,108776.81105728788,8512.638834149235,25.77288887676585,0.9897387704970396,137.0,107.0,210.0,120.0,330.0,30.0,802.0,802.0,30.0,15.0,15.0,0.5,40.64510373104751,1121.9076455236668,20.0,11.0,9.0,0.55,621.8935204602167,2830.81346824215,27.0,13.0,14.0,0.4814814814814814,1921.9060683222883,46253.740625815735,118.0,20.0,98.0,0.1694915254237288,28.890144668543183,2367.6388232995537,64.0,33.0,31.0,0.515625,94.63909248353164,8904.822395886247,0.0,0.0,0.0,0.0,108341.0,108371.0,108478.0,108498.0,108510.0,108537.0,108572.0,108688.0,108744.0,108808.0,0.03505469767150698,-0.08572830957879882,0.04118907323401558,-0.011824622889822155,0.011117480058460628
125,125,109138.02420741408,860.8712187014098,9.626411253395569,109267.91512804058,-6942.008704933115,10.30373583328282,109302.19631517908,46974.94681059529,10.545671974933043,109379.49321800288,-2254.556874502243,50.95930801728114,109555.43875903936,8578.738970415016,25.69736498658807,0.990075686677566,133.0,105.0,203.0,127.0,330.0,28.0,785.0,779.0,28.0,14.0,14.0,0.5,33.9146735614576,829.0299626618549,20.0,11.0,9.0,0.55,630.5138385791467,2325.0557344616914,26.0,13.0,13.0,0.5,1923.5357225034716,45510.22607302927,109.0,28.0,81.0,0.2568807339449541,19.991919967462188,2134.6277401360076,65.0,32.0,33.0,0.4923076923076923,85.52545344047373,8848.03043191235,0.0,0.0,0.0,0.0,109124.0,109152.0,109257.0,109277.0,109289.0,109315.0,109351.0,109460.0,109524.0,109587.0,0.03939575725695249,-0.09082584960331329,0.0409481192231944,-0.008867338940773437,0.009969466810380901
126,126,109920.24135712738,1499.964091982833,19.016449489626808,110056.45199414172,-7420.458965768585,8.630044833988643,110089.70982067232,49572.59482241129,10.485674898635642,110193.1103679154,-1655.70711319796,48.94036972468649,110344.51754503412,8464.90511050842,26.745529636492737,0.9940281528861464,147.0,99.0,210.0,121.0,331.0,48.0,783.0,787.0,48.0,21.0,27.0,0.4375,33.6849648451214,1575.573271169245,18.0,10.0,8.0,0.5555555555555556,705.263851350813,1626.4906464058563,26.0,13.0,13.0,0.5,2042.023689329212,47502.25924806345,115.0,52.0,63.0,0.4521739130434782,15.294277527125631,1571.5027097752425,65.0,33.0,32.0,0.5076923076923077,89.82453542510099,8819.513115916669,0.0,0.0,0.0,0.0,109899.0,109947.0,110046.0,110064.0,110077.0,110103.0,110141.0,110256.0,110312.0,110377.0,0.022457180825304,-0.09504315765430073,0.04119259233139906,-0.009237308582666585,0.010611404883155972
127,127,110735.14164587176,1739.2483670724455,18.2576414371904,110873.5217196464,-7920.184592787521,9.017547775467266,110906.77448204864,50298.15187176146,10.517323467608826,111012.0549748082,-2014.2727999658832,48.79504992075446,111162.2258603793,7880.487199007294,26.478782721738696,0.9941707724832856,149.0,105.0,217.0,114.0,331.0,44.0,815.0,817.0,44.0,21.0,23.0,0.4772727272727273,41.89093946168094,1756.2428663533558,18.0,11.0,7.0,0.6111111111111112,793.8138136759495,922.8409150806428,26.0,13.0,13.0,0.5,2079.2896263657553,48521.19279326436,123.0,55.0,68.0,0.4471544715447154,14.649742921134068,1837.3640436578944,63.0,31.0,32.0,0.492063492063492,89.17174479624298,8389.300317669567,0.0,0.0,0.0,0.0,110714.0,110758.0,110863.0,110881.0,110894.0,110920.0,110957.0,111080.0,111131.0,111194.0,0.024085656916379924,-0.10022668087797251,0.04133928482436183,-0.007272968647236958,0.01131551166119221
128,128,111561.94405155448,1595.4908721372897,15.927573880687124,111695.41171247662,-7806.736204044194,9.226259844623993,111728.49159666392,49589.07842644834,10.595101750027826,111800.36991350216,-1838.5155227244993,38.21948101296072,111983.53927941172,8198.594963409532,26.679826093487307,0.993791736266882,141.0,99.0,208.0,123.0,331.0,42.0,824.0,822.0,42.0,19.0,23.0,0.4523809523809524,37.68975711528286,1541.950985287177,19.0,11.0,8.0,0.5789473684210527,731.8000259266482,1829.3736035232223,27.0,13.0,14.0,0.4814814814814814,2047.6869071522303,49602.393033113534,115.0,21.0,94.0,0.1826086956521739,22.19950697458054,1883.449733769275,66.0,34.0,32.0,0.5151515151515151,85.82006027626299,8632.611458283447,0.0,0.0,0.0,0.0,111543.0,111585.0,111684.0,111703.0,111715.0,111742.0,111779.0,111892.0,111951.0,112015.0,0.023622671726598075,-0.09373956116866704,0.04129310267762702,-0.012074691075592907,0.010467654599267236
129,129,112357.20378447427,1441.024305876905,14.80603347446955,112488.95581928948,-7029.194097862273,9.023930342657,112522.64280076436,46964.93781881304,10.51757405746486,112591.52059170186,-1843.3518198257443,33.12355021123273,112776.03649525912,8978.222350809423,26.9401898519363,0.9929444001820702,139.0,101.0,197.0,134.0,331.0,38.0,793.0,794.0,39.0,18.0,21.0,0.4615384615384615,37.86358121153019,1366.2808297499505,19.0,11.0,8.0,0.5789473684210527,673.8986739586816,1328.4599049080375,27.0,14.0,13.0,0.5185185185185185,1931.4568568687523,44695.39425903029,106.0,20.0,86.0,0.1886792452830188,27.325054209138308,1886.301107634872,67.0,34.0,33.0,0.5074626865671642,84.83206986740467,9303.17634450774,0.0,0.0,0.0,0.0,112339.0,112377.0,112478.0,112497.0,112509.0,112536.0,112573.0,112675.0,112742.0,112809.0,0.02627546326395175,-0.09587139927799525,0.041125506528299,-0.014823569714283516,0.00944864880292887
130,130,113141.60377390792,983.2994503647138,9.830586524531926,113271.78622207716,-6647.681031827276,8.698672727641563,113305.51277226064,47825.42268914233,10.592829981306387,113376.13686849496,-1786.2725166042503,89.17878903024199,113557.49099121078,9012.570391425412,27.75371107383421,0.990755977702188,132.0,106.0,201.0,130.0,331.0,26.0,789.0,783.0,26.0,14.0,12.0,0.5384615384615384,40.5209622861314,817.092518014991,20.0,12.0,8.0,0.6,683.1098271041495,1537.8892354035456,27.0,14.0,13.0,0.5185185185185185,1942.7964923016475,44044.65661389077,108.0,21.0,87.0,0.1944444444444444,18.036647141810228,2012.0664778566825,66.0,31.0,35.0,0.4696969696969697,91.7843216594217,9386.283670727062,0.0,0.0,0.0,0.0,113128.0,113154.0,113260.0,113280.0,113292.0,113319.0,113356.0,113461.0,113526.0,113591.0,0.04120917821229519,-0.10275911612389446,0.040622672692921434,-0.010097365868953946,0.010184033818670155
131,131,113937.10100049197,1500.584842722669,18.476609940629867,114071.94491354193,-7320.947207082713,8.636745155744002,114105.271185352,49728.96516287224,10.525093531442094,114206.77511385306,-1666.6049017293303,48.20980473458323,114359.54277733625,8211.556053986202,26.149646865615892,0.9935927301865898,146.0,96.0,213.0,117.0,330.0,50.0,793.0,800.0,50.0,22.0,28.0,0.44,32.53561406731658,1476.1401149969995,19.0,11.0,8.0,0.5789473684210527,735.8583163902346,894.1845279745107,27.0,13.0,14.0,0.4814814814814814,2038.420670465974,49072.445134926005,119.0,51.0,68.0,0.4285714285714285,15.119610909463123,1458.3641433541284,65.0,33.0,32.0,0.5076923076923077,90.69979635704198,8666.181307231862,0.0,0.0,0.0,0.0,113915.0,113965.0,114061.0,114080.0,114092.0,114119.0,114157.0,114274.0,114328.0,114391.0,0.021681955688879137,-0.10051408589291863,0.040990611081283136,-0.009072102748392532,0.011045384791961913
132,132,114750.74222912808,1828.4472047622144,18.720154405187255,114887.77077810129,-7862.836266450568,9.152801942536476,114921.1089162092,50504.93182165415,10.550771403387028,115025.4285578856,-2041.504750729769,52.318476902335384,115176.58055929672,7811.780519792731,25.96388917023227,0.9948863995023696,149.0,99.0,218.0,113.0,331.0,50.0,812.0,816.0,50.0,23.0,27.0,0.46,37.96584234786423,1748.7020648418063,19.0,11.0,8.0,0.5789473684210527,772.5798710285198,1313.6216415026206,26.0,13.0,13.0,0.5,2078.5184754006705,49531.36843715793,125.0,54.0,71.0,0.432,15.308071648853774,1915.1026731984211,62.0,31.0,31.0,0.5,92.01053322389174,8229.616255718676,0.0,0.0,0.0,0.0,114728.0,114778.0,114877.0,114896.0,114908.0,114934.0,114971.0,115095.0,115147.0,115208.0,0.020763980632846114,-0.09825714854638286,0.041154762523795727,-0.007498425680068418,0.01177843296938059
133,133,115580.9500497467,1330.884782175275,12.648871972899045,115715.2539356578,-7817.884609254708,9.35591955826115,115748.57249673236,50251.09191982523,10.62044842533289,115821.79457440229,-1715.2267710100664,40.767446413824906,116005.14554891016,7992.728471114176,25.62324427406875,0.9938499995551348,140.0,106.0,212.0,120.0,332.0,34.0,834.0,827.0,34.0,17.0,17.0,0.5,44.21215177783567,1271.723041336375,19.0,11.0,8.0,0.5789473684210527,735.1205150831353,1808.8819360972,27.0,14.0,13.0,0.5185185185185185,2070.67615187339,47831.741038558954,118.0,23.0,95.0,0.1949152542372881,25.32663517513174,1636.071265909971,63.0,32.0,31.0,0.5079365079365079,94.33849443750302,8455.325873262791,0.0,0.0,0.0,0.0,115564.0,115598.0,115704.0,115723.0,115735.0,115762.0,115799.0,115916.0,115974.0,116036.0,0.03322011970530821,-0.09403061720978963,0.04120659020060935,-0.014765764855813986,0.011803040073041835
134,134,116378.2859717014,1370.0754356987095,12.889792720877509,116507.71188398846,-7031.141747938839,8.983053866446587,116541.19883574144,46823.96636802691,10.512559415915549,116609.52059170186,-1863.672758338564,33.12355021123273,116793.77505194064,8945.784913986494,26.926226391873335,0.9919600597956288,136.0,101.0,191.0,139.0,330.0,35.0,794.0,793.0,37.0,18.0,19.0,0.4864864864864865,37.353753859211174,1267.0995477646125,19.0,11.0,8.0,0.5789473684210527,699.5545842234798,916.073392673577,27.0,13.0,14.0,0.4814814814814814,1922.0762226663028,45939.27637935786,99.0,19.0,80.0,0.1919191919191919,28.46281626017552,1937.4715733155224,68.0,35.0,33.0,0.5147058823529411,83.64522759520817,9211.682388013967,0.0,0.0,0.0,0.0,116361.0,116396.0,116497.0,116516.0,116528.0,116555.0,116591.0,116688.0,116760.0,116827.0,0.02726401253969023,-0.0994937393245631,0.04104898349616887,-0.015272432422926913,0.009350239067835301
