Unnamed: 0,cycle,p_center,p_height,p_width,q_center,q_height,q_width,r_center,r_height,r_width,s_center,s_height,s_width,t_center,t_height,t_width,r_squared,pr_interval,pr_segment,qrs_duration,st_segment,qt_interval,p_duration,pp_interval,rr_interval,fwhm_p,rise_time_p,decay_time_p,rise_decay_symmetry_p,sharpness_deriv_p,sharpness_diff_p,fwhm_q,rise_time_q,decay_time_q,rise_decay_symmetry_q,sharpness_deriv_q,sharpness_diff_q,fwhm_r,rise_time_r,decay_time_r,rise_decay_symmetry_r,sharpness_deriv_r,sharpness_diff_r,fwhm_s,rise_time_s,decay_time_s,rise_decay_symmetry_s,sharpness_deriv_s,sharpness_diff_s,fwhm_t,rise_time_t,decay_time_t,rise_decay_symmetry_t,sharpness_deriv_t,sharpness_diff_t,Average_Heart_Rate,SDNN,RMSSD,NN50,p_on,p_off,q_on,q_off,r_on,r_off,s_on,s_off,t_on,t_off,sharpness_deriv_p_norm,sharpness_deriv_q_norm,sharpness_deriv_r_norm,sharpness_deriv_s_norm,sharpness_deriv_t_norm
0,0,0.0,0.0,0.0,0.0,0.0,0.0,0.0,0.0,0.0,0.0,0.0,0.0,0.0,0.0,0.0,0.0,0.0,0.0,0.0,0.0,0.0,0.0,0.0,0.0,0.0,0.0,0.0,0.0,0.0,0.0,0.0,0.0,0.0,0.0,0.0,0.0,0.0,0.0,0.0,0.0,0.0,0.0,0.0,0.0,0.0,0.0,0.0,0.0,0.0,0.0,0.0,0.0,0.0,0.0,56.77658171972699,497.20280527999824,751.7065362222083,280.0,,,,,,,,,,,,,,,
1,1,4518.643896202591,2660.9856854535824,20.86666339993582,4658.273982700431,-1478.4923793949326,5.66147735517585,4688.859787625211,58379.9680373948,10.363971942249457,4716.726017299569,-2565.7878221401925,5.875269470763086,4974.475842421701,9311.900980031389,33.09544378745679,0.996374492386486,156.0,103.0,73.0,289.0,362.0,53.0,,,53.0,26.0,27.0,0.490566037735849,40.40854962301972,2280.8617854167805,12.0,9.0,3.0,0.75,673.3570018584146,8770.893677312068,26.0,13.0,13.0,0.5,2478.566442914208,56777.57794132295,7.0,2.0,5.0,0.2857142857142857,962.0849169046736,13888.248855876713,75.0,37.0,38.0,0.4933333333333333,101.80634980909086,10382.593164650374,0.0,0.0,0.0,0.0,4493.0,4546.0,4649.0,4660.0,4676.0,4702.0,4715.0,4722.0,4939.0,5011.0,0.0151855569324988,-0.4554348816691117,0.04245576909748534,-0.3749666705106476,0.010932928735755059
2,2,5666.369913502159,2608.8243607982677,26.53145157696105,5811.698643600575,-1589.9443606899547,6.19398012932494,5842.925792418621,58454.3758342391,10.370633041459344,5870.726017299569,-2456.639572214365,5.707816450224364,6126.499351988172,9601.475100237603,34.166700533896176,0.9953403821500824,158.0,99.0,72.0,290.0,362.0,59.0,1149.0,1154.0,62.0,22.0,40.0,0.3548387096774194,48.828551299581825,2731.042501142165,13.0,10.0,3.0,0.7692307692307693,681.8791461846054,8484.370422589422,26.0,13.0,13.0,0.5,2473.411643477913,57057.48956392594,7.0,2.0,5.0,0.2857142857142857,963.1554564889124,13887.306249609675,78.0,38.0,40.0,0.4871794871794871,96.22786497922326,10656.97035396867,0.0,0.0,0.0,0.0,5645.0,5704.0,5803.0,5814.0,5830.0,5856.0,5869.0,5875.0,6089.0,6165.0,0.018716687881832297,-0.4288698164813168,0.0423135412563782,-0.3920621760646571,0.010022195962039411
3,3,8824.214611566886,2345.919864221711,15.600743433736076,8956.452034599139,-1780.3756618948953,15.28779240518434,8993.415993946208,56343.37771933866,10.359315610572049,9020.301356399426,-3784.134093356376,6.645690280660047,9277.791381086112,9347.532598612848,30.08762129266817,0.9939721818819838,87.0,44.0,138.0,284.0,422.0,43.0,3163.0,3151.0,44.0,21.0,23.0,0.4772727272727273,50.36683890751038,2154.307870718256,83.0,73.0,10.0,0.8795180722891566,209.26104620148743,1211.103297488792,25.0,12.0,13.0,0.48,2425.842195442328,56272.20370633688,10.0,2.0,8.0,0.2,1129.8211728064164,17047.12564505947,70.0,35.0,35.0,0.5,100.19851371132816,10247.77040153263,0.0,0.0,0.0,0.0,8803.0,8846.0,8890.0,8965.0,8981.0,9006.0,9018.0,9028.0,9244.0,9312.0,0.02146997417757926,-0.11753757966943112,0.043054610739279645,-0.29856795370702893,0.010719247315189613
4,4,10019.219235302446,3223.20886998414,20.82639537001638,10156.123304500716,-1366.2595992598394,6.8359850918009775,10189.288280556982,58759.83924058828,10.383158528965753,10217.150678199714,-2414.6714838524285,5.095930801728113,10476.55606827105,9305.866320112626,32.73569095014038,0.995581727588552,154.0,102.0,73.0,291.0,364.0,52.0,1189.0,1196.0,53.0,25.0,28.0,0.4716981132075472,48.34387307709984,2946.708196321565,12.0,7.0,5.0,0.5833333333333334,488.3521826335092,5526.562779009577,26.0,13.0,13.0,0.5,2469.171807211174,58344.624471192285,7.0,2.0,5.0,0.2857142857142857,1016.6964750439868,14441.048779382148,72.0,36.0,36.0,0.5,97.32925356831298,10332.724696649348,0.0,0.0,0.0,0.0,9995.0,10047.0,10149.0,10161.0,10176.0,10202.0,10216.0,10222.0,10442.0,10513.0,0.014998678344210972,-0.3574373295514778,0.042021418695536474,-0.4210496052332234,0.01045891378838709
5,5,11193.35610379741,3022.548289715802,22.46006526655234,11329.123304500716,-1436.6112793269203,6.444115623490012,11361.079773805071,57474.7728688836,10.336117496190347,11388.150678199714,-2785.271190645787,5.095930801728113,11643.926090924437,9770.349265653294,34.856509667780216,0.9940523387389548,158.0,102.0,73.0,289.0,362.0,56.0,1189.0,1171.0,57.0,30.0,27.0,0.5263157894736842,44.027557291508096,2707.114545374883,13.0,9.0,4.0,0.6923076923076923,561.0015543248193,6823.822166702192,26.0,13.0,13.0,0.5,2449.8461792219096,56600.58583682611,7.0,1.0,6.0,0.1428571428571428,1076.3934206281424,15534.830612444412,79.0,39.0,40.0,0.4936708860759494,92.88296684014672,10808.89578299838,0.0,0.0,0.0,0.0,11163.0,11219.0,11321.0,11332.0,11348.0,11374.0,11387.0,11394.0,11606.0,11683.0,0.014566370185486044,-0.3905033758245718,0.04262472136794189,-0.3864591082703771,0.009506616837810261
6,6,14520.794574402302,2655.464647145905,21.63403232842514,14664.123304500716,-1811.2694308713296,6.559178739555686,14694.884483451497,58308.5601019207,10.375995568392742,14722.150678199714,-2900.0870351173817,5.095930801727588,14981.270267126489,9482.282382528743,31.81157997260473,0.9967300143032508,157.0,103.0,73.0,289.0,362.0,54.0,3313.0,3334.0,56.0,24.0,32.0,0.4285714285714285,43.79980641656134,2498.2873513619675,13.0,10.0,3.0,0.7692307692307693,682.8533224364066,8390.891720417554,26.0,13.0,13.0,0.5,2477.036007230533,56887.35004107829,8.0,1.0,7.0,0.125,1078.480481740741,15756.569593679676,73.0,36.0,37.0,0.4931506849315068,99.9339875638456,10353.633061839526,0.0,0.0,0.0,0.0,14498.0,14552.0,14655.0,14667.0,14682.0,14708.0,14721.0,14728.0,14946.0,15017.0,0.016494215603147795,-0.37700262081269326,0.04248151562825059,-0.3718786604268548,0.010539022519301427
7,7,15639.794574402302,2860.1939158332334,19.77701318700144,15783.698643600574,-1575.2989285723445,5.916028062675048,15814.261100024358,58221.44902061895,10.388782834614956,15841.150678199714,-2768.7573977603197,5.095930801728113,16098.08160182214,9832.43084160754,33.76965399065223,0.9950987955516526,158.0,105.0,72.0,289.0,361.0,53.0,1119.0,1119.0,54.0,24.0,30.0,0.4444444444444444,46.02457674207152,2694.6385642820956,11.0,9.0,2.0,0.8181818181818182,733.7146356597943,9528.537829476154,26.0,13.0,13.0,0.5,2463.995000792344,57910.07414023325,8.0,1.0,7.0,0.125,1112.5229879308529,16023.860215279568,77.0,38.0,39.0,0.4935064935064935,102.79788514031851,11012.862961089788,0.0,0.0,0.0,0.0,15617.0,15670.0,15775.0,15786.0,15801.0,15827.0,15840.0,15847.0,16062.0,16136.0,0.016091418308140693,-0.4657621625660231,0.04232108685442933,-0.4018130981178726,0.010454981763544417
8,8,18896.7945744023,2704.0547705570584,21.184542194593476,19037.69864360057,-1379.8609102241855,5.6732745560313385,19068.79923682576,58768.841942353,10.398913155102974,19096.150678199716,-2520.5890513770655,5.095930801728113,19353.95486512495,9611.161087078346,33.23804992326775,0.9961217409861476,155.0,104.0,72.0,290.0,362.0,51.0,3257.0,3255.0,54.0,24.0,30.0,0.4444444444444444,47.0639447641654,2488.1371588205566,11.0,9.0,2.0,0.8181818181818182,685.2184207388032,8943.025810452444,26.0,13.0,13.0,0.5,2489.0138723250234,57061.834705111425,7.0,1.0,6.0,0.1428571428571428,1064.7188639788624,15199.386395675972,74.0,37.0,37.0,0.5,95.1438204172969,10683.866693464415,0.0,0.0,0.0,0.0,18874.0,18925.0,19029.0,19040.0,19056.0,19082.0,19095.0,19101.0,19319.0,19391.0,0.01740495247234575,-0.4965851381553203,0.042352610500076285,-0.4224087474303587,0.009899305563113732
9,9,20021.945252602018,2504.95653372979,24.408950881050547,20166.27398270043,-1158.799422453147,5.470507189703377,20198.120752036142,58846.37526545874,10.40746662568502,20226.150678199716,-1972.3540310394872,5.095930801728113,20482.30862120942,9896.361975240468,35.901283664883614,0.9941223165605444,158.0,105.0,70.0,291.0,361.0,53.0,1126.0,1129.0,54.0,20.0,34.0,0.3703703703703703,51.02828437102328,2849.1769003165227,9.0,6.0,3.0,0.6666666666666666,575.9222086596292,7156.142784187509,26.0,13.0,13.0,0.5,2472.655108033233,58131.71578999988,5.0,1.0,4.0,0.2,983.9503958876696,13712.09582066033,78.0,38.0,40.0,0.4871794871794871,98.17765300292008,11236.280417242657,0.0,0.0,0.0,0.0,20002.0,20055.0,20160.0,20168.0,20185.0,20211.0,20225.0,20230.0,20445.0,20521.0,0.020370926075529146,-0.4969990470312951,0.0420188175886615,-0.49887108521237417,0.009920580234287003
10,10,21131.502496234534,2700.461477968117,18.48318551364919,21273.27398270043,-1647.7319111019638,6.701015578863451,21303.685266137814,55621.71146692033,10.238611600787529,21329.72601729957,-3985.970379209932,6.103170318110568,21582.122779353096,10450.490892463871,34.984771393524504,0.992244671712856,156.0,105.0,74.0,285.0,359.0,51.0,1110.0,1106.0,51.0,25.0,26.0,0.4901960784313725,46.79103708761632,2297.680528682793,13.0,10.0,3.0,0.7692307692307693,649.553847287627,7981.393934104559,25.0,13.0,12.0,0.52,2440.3952992435943,53365.78199015097,10.0,2.0,8.0,0.2,1151.9943768237213,17026.31323498269,83.0,41.0,42.0,0.4939759036144578,96.59097153400424,11497.286065967215,0.0,0.0,0.0,0.0,21107.0,21158.0,21263.0,21275.0,21291.0,21316.0,21328.0,21337.0,21544.0,21622.0,0.017327052235095338,-0.3942108803690164,0.04387486891148541,-0.28901227736972307,0.009242720990614763
11,11,23317.7945744023,2698.238756053964,18.63962248030753,23461.123304500717,-1667.185194679128,6.628231903081675,23492.363018866152,58713.43902719812,10.338876959649516,23520.72601729957,-2574.355009680435,6.461604042981508,23777.195018469993,9653.79570243444,31.668137843559485,0.9956521349226988,155.0,105.0,75.0,288.0,363.0,50.0,2185.0,2189.0,52.0,24.0,28.0,0.4615384615384615,45.36411734762687,2350.9165162538698,14.0,11.0,3.0,0.7857142857142857,631.6620546567008,7763.350998802335,26.0,13.0,13.0,0.5,2492.561284959093,58580.21445316171,8.0,3.0,5.0,0.375,912.6966668716336,13343.27783419834,72.0,35.0,37.0,0.4861111111111111,98.99863418148024,10581.954692178191,0.0,0.0,0.0,0.0,23295.0,23345.0,23450.0,23464.0,23479.0,23505.0,23518.0,23525.0,23743.0,23813.0,0.016812491943437046,-0.3788793570580337,0.042452994174033164,-0.354534111822025,0.010254892192976005
12,12,24482.93144289727,2789.0829437878524,24.784434762041137,24618.69864360057,-1446.7587296502752,5.774441648690467,24649.870095425893,58798.64018528286,10.391023973294327,24677.72601729957,-2422.4791141322908,5.650361876299754,24934.146501558545,9862.437561213426,33.80952068276441,0.995137962527966,159.0,100.0,73.0,289.0,362.0,59.0,1180.0,1157.0,60.0,33.0,27.0,0.55,44.829615491818096,2456.239442553692,11.0,9.0,2.0,0.8181818181818182,681.0490100341257,8769.651416995832,26.0,13.0,13.0,0.5,2489.690703027513,57302.80674889787,7.0,2.0,5.0,0.2857142857142857,962.9346823908388,13887.016235676856,76.0,38.0,38.0,0.5,102.8914077078806,11049.68191343218,0.0,0.0,0.0,0.0,24451.0,24510.0,24610.0,24621.0,24637.0,24663.0,24676.0,24683.0,24898.0,24972.0,0.016073245721023633,-0.4707412480578262,0.042342657843483185,-0.3974996840110025,0.010432654916116026
13,13,25616.7945744023,2563.3809542092763,23.190702833146176,25761.123304500717,-1425.8834453514223,6.187558219533025,25792.171234866888,56277.30513185638,10.221906596178089,25819.30135639943,-3302.8585397466222,6.075053346179832,26071.909596876936,10446.69408924133,35.60416347222892,0.992145738799368,159.0,104.0,73.0,286.0,359.0,55.0,1119.0,1142.0,55.0,23.0,32.0,0.4181818181818181,50.712548222340565,2533.200861072687,12.0,9.0,3.0,0.75,605.7509142013726,7564.160826259033,26.0,13.0,13.0,0.5,2437.6504799704376,55530.55934305914,9.0,2.0,7.0,0.2222222222222222,1088.916026374319,16068.264734411214,82.0,41.0,41.0,0.5,92.64576254820392,11526.902092267334,0.0,0.0,0.0,0.0,25594.0,25649.0,25753.0,25764.0,25779.0,25805.0,25817.0,25826.0,26034.0,26112.0,0.019783461423892736,-0.42482498564395604,0.04331498237627194,-0.32968896889476074,0.0088684287829981
14,14,26714.597669945044,2588.0389826964793,17.178515433412855,26858.123304500717,-1748.6466364657588,7.435584412674177,26888.768529177763,55059.761486874646,10.219348993192524,26915.30135639943,-4045.494250193401,6.523909969381892,27170.895298414285,9739.360872359455,32.8673912122984,0.99268194319483,157.0,108.0,75.0,285.0,360.0,49.0,1098.0,1097.0,51.0,25.0,26.0,0.4901960784313725,40.8920894826308,2133.1788037879696,15.0,12.0,3.0,0.8,633.6029635270152,7674.284327978917,25.0,13.0,12.0,0.52,2424.349861245701,53149.79439352982,11.0,3.0,8.0,0.2727272727272727,1156.3481938051557,17313.369919750687,76.0,38.0,38.0,0.5,100.64118429660948,10787.32833899913,0.0,0.0,0.0,0.0,26691.0,26740.0,26848.0,26861.0,26876.0,26901.0,26913.0,26923.0,27134.0,27208.0,0.01580041481447289,-0.36233905142070827,0.04403124524656044,-0.2858360739852429,0.010333448530717413
15,15,27891.35610379741,2802.4837686523315,22.508207367728215,28026.69864360057,-1550.1921508236103,5.930815227682388,28057.762605118744,58961.459821830955,10.40339809227392,28085.150678199716,-2556.220820113387,5.095930801728113,28343.75126322441,9798.378820344602,32.68678059251068,0.9957054606968374,156.0,101.0,72.0,290.0,362.0,55.0,1191.0,1169.0,56.0,30.0,26.0,0.5357142857142857,41.34951941342718,2558.900463722848,12.0,10.0,2.0,0.8333333333333334,699.9622526837524,8918.478577153683,26.0,13.0,13.0,0.5,2494.197231686962,57057.85424946829,7.0,1.0,6.0,0.1428571428571428,1072.894589396304,15339.0732388702,74.0,37.0,37.0,0.5,99.03157169860924,10826.897947085195,0.0,0.0,0.0,0.0,27862.0,27917.0,28018.0,28029.0,28045.0,28071.0,28084.0,28090.0,28309.0,28380.0,0.014754597288287414,-0.4515325744049636,0.04230216211104504,-0.4197190559416198,0.010106934372958482
16,16,29045.93144289727,2711.2605199529576,27.168193783712763,29178.849321800284,-741.4603867827481,5.095930801728113,29212.219974943942,57475.4695963247,10.29258310477394,29239.72601729957,-2599.0422217887735,5.61516326919891,29493.52224408925,10405.7644323555,36.08583602361422,0.9931404730126976,162.0,103.0,69.0,288.0,357.0,59.0,1155.0,1154.0,63.0,33.0,30.0,0.5238095238095238,50.08628073514401,2375.511211159918,7.0,4.0,3.0,0.5714285714285714,441.90345549624146,5728.731169536857,26.0,13.0,13.0,0.5,2448.518115053799,56866.53642802159,7.0,2.0,5.0,0.2857142857142857,985.0424981422192,14194.73453055147,80.0,40.0,40.0,0.5,95.42074903014893,11704.425482849452,0.0,0.0,0.0,0.0,29014.0,29073.0,29176.0,29182.0,29199.0,29225.0,29238.0,29245.0,29457.0,29533.0,0.018473429744779023,-0.5959906468013666,0.042601098038011875,-0.3790021146575565,0.009169989350657347
17,17,31234.369913502156,2752.2950107438883,17.17196755587279,31371.123304500717,-1476.0850580222443,6.772560013182466,31403.273145920095,57987.33975468484,10.321561925533183,31430.72601729957,-2847.646358872621,5.883362572364973,31687.985560412708,9735.347228280383,32.4012139289372,0.9961321990989728,151.0,106.0,72.0,289.0,361.0,45.0,2174.0,2192.0,47.0,22.0,25.0,0.4680851063829787,55.48531083074378,2567.367437786845,13.0,9.0,4.0,0.6923076923076923,551.8542268496486,6518.015779418098,26.0,13.0,13.0,0.5,2469.6374886716812,57564.07563128763,8.0,2.0,6.0,0.25,1003.7088310200056,14662.75059193204,74.0,37.0,37.0,0.5,96.66369279191927,10748.865806651933,0.0,0.0,0.0,0.0,31213.0,31258.0,31364.0,31375.0,31390.0,31416.0,31429.0,31436.0,31653.0,31725.0,0.020159652440654336,-0.3738634327679322,0.042589253087302686,-0.35246962035600954,0.009929146904089789
18,18,32373.64389620259,2710.4756106260156,23.74425759567043,32510.760727893205,-2112.068597953123,8.038186869770449,32541.42622695397,58544.68103063973,10.383275413484087,32569.30135639943,-2596.633408911524,6.247377974987658,32827.37046933712,9975.144560876908,32.327822836406284,0.996901543652921,150.0,97.0,77.0,288.0,365.0,53.0,1138.0,1138.0,57.0,27.0,30.0,0.4736842105263157,44.78814677504256,2313.9058147089427,22.0,19.0,3.0,0.8636363636363636,728.722996938788,8924.103813051659,26.0,13.0,13.0,0.5,2489.309953880189,58836.232512841,9.0,2.0,7.0,0.2222222222222222,1023.0266055155548,14969.099434214106,74.0,37.0,37.0,0.5,104.11218282264086,11122.25265319064,0.0,0.0,0.0,0.0,32348.0,32401.0,32498.0,32514.0,32528.0,32554.0,32567.0,32575.0,32791.0,32863.0,0.016524091417556872,-0.34502809124903333,0.04251983117949507,-0.39398191597033894,0.0104371603025158
19,19,33466.52059170187,2733.0487253124434,19.2020893036843,33608.12330450071,-1116.0980722527224,5.820042753444045,33640.18902456436,56764.400630150856,10.243631997406045,33667.30135639943,-3015.9895776380295,5.470593153894723,33917.61334248656,10378.77676878127,36.82829047188241,0.992052669885692,153.0,104.0,72.0,287.0,359.0,49.0,1095.0,1098.0,49.0,19.0,30.0,0.3877551020408163,58.812493622282105,2860.616238650184,10.0,7.0,3.0,0.7,521.7861513943618,6501.0735669764945,26.0,13.0,13.0,0.5,2440.5817501669594,56117.42065470597,8.0,2.0,6.0,0.25,1095.3059303783898,15717.277296438437,87.0,44.0,43.0,0.5057471264367817,95.71639666098878,11474.531328816072,0.0,0.0,0.0,0.0,33448.0,33497.0,33601.0,33611.0,33627.0,33653.0,33665.0,33673.0,33877.0,33960.0,0.021519006623476365,-0.4675092309237604,0.04299493561234971,-0.36316635126974744,0.009222319623339225
20,20,34556.794574402295,2691.302165050038,18.444181268233425,34694.54796540086,-1458.0374422308066,6.542850375505716,34726.07980350579,56272.8788821537,10.282051286320243,34752.726017299574,-3409.240104284119,5.7963813267571425,35008.573750941774,9897.30598220176,34.28575512473543,0.9941379869156912,150.0,102.0,75.0,287.0,362.0,48.0,1089.0,1086.0,50.0,24.0,26.0,0.48,55.13628795749862,2440.4060900305576,14.0,11.0,3.0,0.7857142857142857,621.8647086227643,7784.668450656298,26.0,13.0,13.0,0.5,2423.177608977942,55230.52788725881,9.0,2.0,7.0,0.2222222222222222,1082.2590713939476,15816.398329878855,77.0,39.0,38.0,0.5064935064935064,94.49764869482642,11067.793871631276,0.0,0.0,0.0,0.0,34534.0,34582.0,34684.0,34698.0,34713.0,34739.0,34751.0,34759.0,34972.0,35046.0,0.02048684412828594,-0.42650805158426336,0.04306119852251641,-0.31744876813867096,0.00954781522009734
21,21,35693.794574402295,2515.812899923014,21.023172765495115,35830.12330450071,-1474.929991679521,6.027352189525221,35862.037776145306,59197.48002482519,10.401771981805084,35890.150678199716,-2270.669642014565,5.095930801728113,36147.87265957886,9828.517716334893,32.76186424092041,0.9964876840999446,152.0,104.0,71.0,290.0,361.0,48.0,1137.0,1136.0,49.0,23.0,26.0,0.4693877551020408,47.08282249156469,2287.807807409148,10.0,7.0,3.0,0.7,592.8769875869181,7147.726631826981,26.0,13.0,13.0,0.5,2489.4442902533096,58233.90419021036,6.0,1.0,5.0,0.1666666666666666,987.5851826250864,14129.53733354266,73.0,36.0,37.0,0.4931506849315068,101.88960116039756,10826.577739727976,0.0,0.0,0.0,0.0,35671.0,35719.0,35823.0,35833.0,35849.0,35875.0,35889.0,35894.0,36112.0,36184.0,0.01871475517635094,-0.40196957884882506,0.04205321390723609,-0.4349312486288799,0.010366731189898363
22,22,36831.794574402295,2537.155538670459,23.830150763004465,36970.69864360057,-1138.170626943643,6.847375341047599,37004.302139310756,57836.738476767125,10.321469057766532,37031.726017299574,-2689.8868874446216,5.6993071679777705,37286.821166732334,10412.767169283432,34.539169697838815,0.9939775593377418,156.0,103.0,72.0,289.0,361.0,53.0,1138.0,1143.0,58.0,24.0,34.0,0.4137931034482758,43.501613829267306,2394.3234695518195,11.0,7.0,4.0,0.6363636363636364,463.4273907321085,5396.665214411791,26.0,13.0,13.0,0.5,2451.7291426105803,57454.41689748115,7.0,2.0,5.0,0.2857142857142857,999.6198791404696,14453.469812331936,78.0,39.0,39.0,0.5,90.02838733303979,11506.073577398596,0.0,0.0,0.0,0.0,36809.0,36862.0,36965.0,36975.0,36991.0,37017.0,37030.0,37037.0,37250.0,37326.0,0.017145820650815668,-0.4071686439286887,0.04239051521889385,-0.3716215294428619,0.008645961814897202
23,23,39000.94525260201,2537.729127073143,17.63273142076422,39142.12330450071,-1426.7847519628726,6.3667268936240395,39173.68551862539,57106.156412402706,10.331962642906896,39200.30135639943,-3580.662815356223,6.00711128695653,39457.606979254866,9896.311823487427,32.62826538181997,0.9951713535684196,154.0,107.0,72.0,287.0,359.0,47.0,2170.0,2169.0,50.0,21.0,29.0,0.42,53.98169079631223,2420.125887087198,13.0,10.0,3.0,0.7692307692307693,580.5284321960669,7169.022697978275,25.0,13.0,12.0,0.52,2455.7355397423535,54841.322353560805,10.0,2.0,8.0,0.2,1172.8805888744064,17113.888211232825,74.0,37.0,37.0,0.5,99.15276076791868,10982.373096746898,0.0,0.0,0.0,0.0,38981.0,39028.0,39135.0,39145.0,39161.0,39186.0,39198.0,39207.0,39422.0,39494.0,0.021271651974366278,-0.40687877509022696,0.04300299116627292,-0.32755963053665027,0.010019162950443247
24,24,40135.94525260201,2373.1903562113584,23.458741168824822,40281.69864360057,-1483.1431446964816,5.809739030948416,40312.68498525654,59079.12751219839,10.38871291227874,40340.726017299574,-2214.50789724332,5.737510648493648,40598.922319696096,9830.820469042676,32.20214860321532,0.9957755392512356,158.0,102.0,72.0,289.0,361.0,56.0,1135.0,1139.0,56.0,20.0,36.0,0.3571428571428571,53.337751515487206,2658.3403037434055,13.0,10.0,3.0,0.7692307692307693,699.22543649611,9143.002028991446,26.0,13.0,13.0,0.5,2496.141620046188,56962.85999778021,7.0,2.0,5.0,0.2857142857142857,941.93668096273,13555.711766888477,72.0,36.0,36.0,0.5,96.9216865158344,10760.59874330108,0.0,0.0,0.0,0.0,40116.0,40172.0,40274.0,40284.0,40300.0,40326.0,40339.0,40346.0,40564.0,40635.0,0.02247512567876662,-0.47144838244133425,0.04225082063933317,-0.42534807942445296,0.009858962110135313
25,25,41281.794574402295,2658.2334306746557,25.36837065751159,41424.69864360057,-1178.9444430682456,6.098648190308318,41457.08477444545,57873.52215770864,10.320609661441166,41484.15067819971,-2822.439500173604,5.095930801728113,41740.0012901033,10178.76414112877,34.6337197444243,0.9940184376777494,160.0,103.0,71.0,288.0,359.0,57.0,1145.0,1144.0,59.0,24.0,35.0,0.4067796610169492,50.65678558291253,2659.440020757376,9.0,6.0,3.0,0.6666666666666666,552.9154947240348,6889.339376367321,26.0,13.0,13.0,0.5,2463.7401731400023,56918.538523232375,7.0,1.0,6.0,0.1428571428571428,1088.48145141353,15661.112781098376,78.0,39.0,39.0,0.5,93.02323683526603,11235.88082660465,0.0,0.0,0.0,0.0,41259.0,41316.0,41419.0,41428.0,41444.0,41470.0,41483.0,41490.0,41703.0,41778.0,0.019056560269823976,-0.46899198513973417,0.042571111646292584,-0.3856527133164694,0.009138951993139539
26,26,43588.136819465966,2968.794050386804,25.228294000163867,43725.273982700426,-1514.823549010651,5.86974828624222,43756.091880371685,58567.83139075758,10.392739802046602,43783.15067819971,-2700.2058671626933,5.095930801726771,44042.41790664159,9984.226425971552,33.482921674251074,0.9961782134370276,158.0,100.0,72.0,291.0,363.0,58.0,2313.0,2299.0,58.0,29.0,29.0,0.5,45.77508862880008,2751.7154613213715,11.0,9.0,2.0,0.8181818181818182,660.136229549984,8391.612803688835,26.0,13.0,13.0,0.5,2483.041498083401,57784.87226244392,7.0,1.0,6.0,0.1428571428571428,1098.148617250855,15793.984956489088,75.0,37.0,38.0,0.4933333333333333,100.46259068476743,11139.581001471235,0.0,0.0,0.0,0.0,43559.0,43617.0,43717.0,43727.0,43743.0,43769.0,43782.0,43789.0,44007.0,44080.0,0.015418748438557416,-0.4357842403368542,0.042395995192597194,-0.4066907011074535,0.010062130644737611
27,27,44705.21923530245,2810.046216273922,21.146626938247664,44847.273982700426,-1519.4060800108002,5.489165213409661,44877.956878477744,58910.7885777436,10.242701250240176,44960.821948101286,-670.7893823251236,14.484700455393083,45162.659365687665,10026.22436531746,33.04109004488321,0.9948528504613846,158.0,104.0,144.0,217.0,361.0,54.0,1110.0,1122.0,54.0,24.0,30.0,0.4444444444444444,42.62419689252885,2646.490735281838,12.0,9.0,3.0,0.75,667.4056803953938,8439.39432811733,26.0,13.0,13.0,0.5,2485.2792737690193,57625.43831394498,35.0,13.0,22.0,0.3714285714285714,46.99857403984335,819.5450496442588,74.0,37.0,37.0,0.5,96.93051494763652,11140.511026338258,0.0,0.0,0.0,0.0,44681.0,44735.0,44839.0,44849.0,44865.0,44891.0,44948.0,44983.0,45127.0,45200.0,0.01516850386505311,-0.4392543173123605,0.0421871669649989,-0.07006457656937644,0.00966769856885877
28,28,45775.36991350215,2629.1926138287163,19.44685690034792,45871.21923530177,-655.5744260130386,40.20080586345851,45947.56705833785,56223.900401206294,10.161247076869142,45973.726017299574,-3667.073295160166,5.70183918958939,46227.20711186033,10646.1172048952,34.48990078082758,0.9921969992541008,88.0,38.0,139.0,286.0,425.0,50.0,1071.0,1070.0,51.0,21.0,30.0,0.4117647058823529,54.39277570737094,2466.156534689533,45.0,34.0,11.0,0.7555555555555555,54.96137583192265,448.27175375069214,25.0,13.0,12.0,0.52,2458.7739534688144,53483.45218444937,10.0,2.0,8.0,0.2,1133.2417110132722,16684.530149086455,81.0,40.0,41.0,0.4938271604938271,96.4536526479482,11679.573446471302,0.0,0.0,0.0,0.0,45754.0,45804.0,45842.0,45881.0,45935.0,45960.0,45972.0,45981.0,46189.0,46267.0,0.02068801480016422,-0.08383697357777885,0.043731828206924984,-0.3090316499833625,0.00905998410421386
29,29,46843.36991350215,2524.6238066873657,19.260674883434028,46935.34253980316,-712.3623215184506,38.73856499008857,47014.818539057094,55517.493583670315,10.159931951221646,47041.30135639943,-4016.160354314257,6.073878101608372,47296.47854825805,9833.677562551751,33.769064647361255,0.9937343962106486,82.0,32.0,145.0,286.0,431.0,50.0,1068.0,1067.0,51.0,21.0,30.0,0.4117647058823529,49.63833427276164,2381.6549069400276,58.0,35.0,23.0,0.603448275862069,40.646000314105656,670.4162145032881,25.0,13.0,12.0,0.52,2428.4868400538444,53469.66490182943,10.0,2.0,8.0,0.2,1168.7135937903706,17381.74739189346,78.0,38.0,40.0,0.4871794871794871,88.6278067054946,10813.82707768483,0.0,0.0,0.0,0.0,46822.0,46872.0,46904.0,46953.0,47002.0,47027.0,47039.0,47049.0,47259.0,47335.0,0.019661675589557868,-0.05705804347914673,0.0437427319443713,-0.2910027216754207,0.00901268179089009
30,30,47955.94525260201,2029.3583734205697,15.625234409205744,48097.77003791097,-1829.7941802731912,17.8357578060484,48129.75808440464,58829.12946753265,10.466976359293378,48156.726017299574,-3320.7475845223103,6.472376834698433,48416.19141126247,9606.670363816673,29.752339074601633,0.9952164634390176,150.0,104.0,78.0,287.0,365.0,46.0,1113.0,1115.0,48.0,21.0,27.0,0.4375,52.895327304305376,1787.0232899846555,20.0,16.0,4.0,0.8,606.295557593395,6710.587036286417,26.0,13.0,13.0,0.5,2506.596021031228,56897.85453546864,10.0,2.0,8.0,0.2,1085.6150013327838,16237.409747595571,70.0,35.0,35.0,0.5,99.35561898617628,10426.074384040256,0.0,0.0,0.0,0.0,47936.0,47982.0,48086.0,48102.0,48117.0,48143.0,48155.0,48164.0,48382.0,48451.0,0.02606504991779646,-0.3313463143176431,0.04260807602829818,-0.32691885598072323,0.010342357468660232
31,31,49143.06855710273,3204.4205044492683,22.362986542161774,49279.273982700426,-1303.3837204001638,6.158825463575481,49310.763486200754,57412.13278074601,10.300684748753609,49338.726017299574,-2513.548879123957,6.022012698944127,49593.766736767866,10271.933980108315,35.11098694703337,0.9935600270105904,155.0,100.0,72.0,290.0,362.0,55.0,1185.0,1181.0,57.0,28.0,29.0,0.4912280701754385,43.5607818889006,2893.3124191246243,11.0,9.0,2.0,0.8181818181818182,579.2733570238903,7184.521527751195,26.0,13.0,13.0,0.5,2457.0272200732607,55578.2734534581,7.0,3.0,4.0,0.4285714285714285,930.277292869283,13513.845329543872,79.0,39.0,40.0,0.4936708860759494,92.62077129360854,11361.1248054956,0.0,0.0,0.0,0.0,49116.0,49171.0,49271.0,49281.0,49298.0,49324.0,49336.0,49343.0,49557.0,49633.0,0.013593965532431652,-0.44443807909925576,0.04279630630439252,-0.37010511337002966,0.009016877588287602
32,32,50295.71712207619,2635.9099346686376,21.912270220186752,50431.69864360057,-1363.2935257219551,6.3480257435374225,50462.76543915492,55426.6206715256,10.239325280556404,50489.30135639943,-3604.116000484865,5.87431424916723,50744.41822725443,10076.16760916488,34.91118195622118,0.9929771343393272,156.0,101.0,73.0,288.0,361.0,55.0,1168.0,1152.0,57.0,30.0,27.0,0.5263157894736842,52.572315632891694,2279.092149819395,12.0,10.0,2.0,0.8333333333333334,632.7000155922373,8063.091248131227,25.0,13.0,12.0,0.52,2407.6904115238985,53470.54022485789,10.0,2.0,8.0,0.2,1151.3053827982612,16771.327638577994,80.0,39.0,41.0,0.4875,95.04150163263402,11179.498200998738,0.0,0.0,0.0,0.0,50267.0,50322.0,50423.0,50434.0,50450.0,50475.0,50487.0,50496.0,50707.0,50784.0,0.019944655521585794,-0.46409669205843274,0.0434392424137235,-0.31944182225083073,0.009432306539461298
33,33,51413.21923530245,2567.3371343388067,19.299210675787283,51554.69864360057,-1703.6290994437722,6.078496672838278,51585.509820886546,58987.29718230095,10.376902696901606,51613.726017299574,-2439.0428261769375,6.152219474138013,51870.62819147583,10123.676998925272,32.20234726403437,0.9954996983219444,157.0,105.0,72.0,289.0,361.0,52.0,1103.0,1123.0,53.0,25.0,28.0,0.4716981132075472,43.71669038567931,2308.577665316372,14.0,11.0,3.0,0.7857142857142857,727.0934340636207,9228.643783913718,25.0,13.0,12.0,0.52,2505.3889748117563,56305.816040773985,8.0,3.0,5.0,0.375,932.6924993358672,13510.46562147948,74.0,37.0,37.0,0.5,104.52802256933144,11154.819085050529,0.0,0.0,0.0,0.0,51389.0,51441.0,51546.0,51557.0,51573.0,51598.0,51611.0,51618.0,51835.0,51907.0,0.01702802869204715,-0.42679092198003293,0.04247336451217321,-0.3824010342605629,0.010325104463568734
34,34,52552.794574402295,2666.321808812548,24.73366978915008,52696.69864360057,-1421.1828696507664,5.924498358980076,52727.93081328116,58520.99654215747,10.386148041288289,52755.15067819971,-2452.1806398320764,5.095930801728113,53010.634141262126,10562.375807811874,34.51241452110306,0.9946491179002434,159.0,102.0,71.0,289.0,360.0,57.0,1140.0,1142.0,57.0,23.0,34.0,0.4035087719298245,44.8141147179177,2705.777947469587,12.0,10.0,2.0,0.8333333333333334,674.8503372772161,8736.67707026851,26.0,13.0,13.0,0.5,2480.5852347145283,57186.84959666004,6.0,1.0,5.0,0.1666666666666666,1070.1624692329326,15333.093112649964,78.0,39.0,39.0,0.5,104.00925653012196,11827.126924183573,0.0,0.0,0.0,0.0,52530.0,52587.0,52689.0,52699.0,52715.0,52741.0,52754.0,52760.0,52975.0,53049.0,0.016807466589292067,-0.4748511621470994,0.04238795272270457,-0.4364125757498096,0.00984714598520508
35,35,54759.46628958318,2247.245124952178,14.996426940610084,54898.049592271935,-1643.3643712362252,20.383723206912453,54931.74445377209,56720.76610038577,10.36884540843129,54958.30135639943,-4054.3648361584223,7.019303476929937,55216.21514685512,10005.996665978191,30.314745744578893,0.9944773206092123,147.0,102.0,83.0,285.0,368.0,45.0,2207.0,2204.0,46.0,22.0,24.0,0.4782608695652174,54.11520362708935,1928.486321719174,20.0,14.0,6.0,0.7,420.4691767103308,3923.809336901804,26.0,13.0,13.0,0.5,2455.647360440172,54552.71557870468,12.0,2.0,10.0,0.1666666666666666,1179.8665851831745,17849.435137883447,72.0,36.0,36.0,0.5,101.71485339372484,10866.897726452464,0.0,0.0,0.0,0.0,54737.0,54782.0,54884.0,54904.0,54919.0,54945.0,54956.0,54967.0,55181.0,55252.0,0.024080685736604254,-0.2558587639295306,0.043293621177367535,-0.29101144886139985,0.010165389494838608
36,36,55889.36991350215,2320.296381796627,20.307745727228,56033.12330450071,-1693.5446320159845,6.583493247191204,56064.46288611945,59246.91655313918,10.418945704625823,56091.726017299574,-2653.157982916218,5.560130092644786,56350.41562824828,10128.035849879016,31.665228188772257,0.9959758160529985,156.0,104.0,74.0,289.0,363.0,52.0,1130.0,1133.0,53.0,22.0,31.0,0.4150943396226415,48.9021218663353,2205.5290619016005,13.0,10.0,3.0,0.7692307692307693,643.504222850153,7913.025668727587,26.0,13.0,13.0,0.5,2498.642650788558,59469.813462907136,8.0,2.0,6.0,0.25,1037.4080883737286,15014.045307378923,72.0,35.0,37.0,0.4861111111111111,101.30707310397484,11103.777351910388,0.0,0.0,0.0,0.0,55868.0,55920.0,56024.0,56036.0,56051.0,56077.0,56090.0,56098.0,56316.0,56387.0,0.02107580835361642,-0.3799747645765496,0.042173378736891726,-0.3910087884150275,0.010002637688647696
37,37,57010.21923517767,2537.225972369032,17.66628896549754,57151.12330450071,-1722.9761232998528,6.97323314011127,57182.10564877041,57404.55156464557,10.23619562968806,57210.726017299574,-2575.8886296374867,7.302710784338805,57464.857081345195,10317.12150885316,32.48083784032894,0.993598468273018,155.0,105.0,74.0,287.0,361.0,50.0,1120.0,1117.0,52.0,25.0,27.0,0.4807692307692308,38.79897169359823,2149.5559804358904,13.0,10.0,3.0,0.7692307692307693,637.32117846443,7645.308900562783,26.0,13.0,13.0,0.5,2474.009261758656,56500.35038535317,8.0,4.0,4.0,0.5,858.8029701177404,12804.265810304378,76.0,38.0,38.0,0.5,97.28672566636536,11266.362238251795,0.0,0.0,0.0,0.0,56986.0,57036.0,57141.0,57154.0,57169.0,57195.0,57207.0,57215.0,57428.0,57502.0,0.015291886539128899,-0.369895537057025,0.04309778918789349,-0.3334006603533176,0.009429638449337177
38,38,58067.1498691864,3042.161857827816,21.13535161196906,58172.164487904454,-1162.0622309121268,78.98692742678575,58235.32581910523,56228.98008965289,10.306289077558262,58261.30135639943,-3834.8868946446696,6.102894762198525,58516.48886521351,10495.502252874556,32.57474312025943,0.9920207649002728,82.0,32.0,148.0,284.0,432.0,50.0,1059.0,1054.0,50.0,27.0,23.0,0.54,48.39797483586912,2220.741716695846,92.0,57.0,35.0,0.6195652173913043,53.04274000876697,878.8309333590403,25.0,12.0,13.0,0.48,2423.0477133285312,54987.515534819206,12.0,2.0,10.0,0.1666666666666666,1221.444630382935,18502.615335147555,77.0,38.0,39.0,0.4935064935064935,105.0439406804852,11551.843502883366,0.0,0.0,0.0,0.0,58040.0,58090.0,58122.0,58190.0,58223.0,58248.0,58259.0,58270.0,58480.0,58554.0,0.015909072921723683,-0.045645352372508156,0.04309250691485358,-0.31850864548017155,0.010008472024453647
39,39,59101.36991350215,2277.835794168911,17.023476048306343,59236.45203459914,-1518.5307919195532,15.28779240518434,59272.530262419634,59412.74704204819,10.339219534173957,59339.13686849497,-1265.346725971999,48.12962027759919,59558.38537716553,9900.353552105073,29.83050655199018,0.9952588190878768,82.0,34.0,227.0,204.0,431.0,48.0,1033.0,1037.0,50.0,22.0,28.0,0.44,45.08149878978352,2059.511652456434,86.0,77.0,9.0,0.8953488372093024,257.7387766561263,2002.9942248978052,26.0,13.0,13.0,0.5,2501.183340485833,56245.00625749617,88.0,24.0,64.0,0.2727272727272727,42.35262612809732,1203.166412337043,70.0,34.0,36.0,0.4857142857142857,100.73582165536806,10695.31980340692,0.0,0.0,0.0,0.0,59080.0,59128.0,59162.0,59245.0,59260.0,59286.0,59318.0,59389.0,59525.0,59593.0,0.01979137341909754,-0.16972904206329748,0.042098429461874066,-0.0334711626930266,0.010174972148742002
40,40,60138.68089604962,2567.176315303993,17.895467466138832,60269.87669549929,-1224.2347753966142,12.739827004320285,60306.34156999751,59135.73181135712,10.314079582841869,60380.63008649785,-709.4575961031035,35.10963043586721,60589.51955864915,10282.114503658042,32.00762266612207,0.9949034343508086,96.0,48.0,191.0,224.0,415.0,48.0,1037.0,1034.0,49.0,24.0,25.0,0.4897959183673469,39.66868853824647,2197.393218939265,67.0,59.0,8.0,0.8805970149253731,280.76753485336786,2613.9610014698446,26.0,13.0,13.0,0.5,2476.76744351375,58840.03273572959,55.0,29.0,26.0,0.5272727272727272,45.35708552012893,674.1487870544752,73.0,37.0,36.0,0.5068493150684932,99.58756465473331,11298.598383722794,0.0,0.0,0.0,0.0,60115.0,60163.0,60211.0,60277.0,60293.0,60319.0,60353.0,60402.0,60554.0,60626.0,0.015452264926941371,-0.22934125095605773,0.04188275629047145,-0.06393205988527793,0.009685514066129422
41,41,61167.94525260201,2396.4412501088495,15.43375537858583,61298.45203459914,-1695.782696856763,15.28779240518434,61334.36865402879,55728.22000526454,10.287921346969732,61360.87669549929,-4436.776591137412,7.280812412799496,61614.798935928105,10358.819005471769,32.113539481287546,0.99338532083539,86.0,45.0,135.0,284.0,419.0,41.0,1030.0,1028.0,45.0,21.0,24.0,0.4666666666666667,47.93369962553847,2097.9104979281847,76.0,67.0,9.0,0.881578947368421,250.51688311231968,1753.816536947553,25.0,12.0,13.0,0.48,2437.151983136123,55328.09262757057,12.0,3.0,9.0,0.25,1129.5140114493863,17401.312260636456,76.0,38.0,38.0,0.5,89.66160939596429,11128.859623080449,0.0,0.0,0.0,0.0,61148.0,61189.0,61234.0,61307.0,61322.0,61347.0,61358.0,61369.0,61578.0,61653.0,0.020002034109269845,-0.14772935446072663,0.04373281584995698,-0.25457987082460337,0.008655582199920952
42,42,62177.306348729006,2702.6622666199637,16.93837494819716,62311.12330450071,-1897.342232489523,7.204829312523996,62342.42770829668,58683.80375472624,10.241867469920612,62403.95881659626,-746.286967185294,38.110874928960286,62625.585984511374,10088.872325723629,31.872186973306057,0.9956274869979388,143.0,99.0,151.0,211.0,362.0,44.0,1012.0,1008.0,44.0,21.0,23.0,0.4772727272727273,53.9893378614771,2619.943308260174,17.0,13.0,4.0,0.7647058823529411,623.3382638642153,7317.031167702165,25.0,12.0,13.0,0.48,2484.7916745237603,58561.45981403129,65.0,15.0,50.0,0.2307692307692307,44.22472336935421,868.1379813192509,73.0,37.0,36.0,0.5068493150684932,100.49144699358858,11003.176155338966,0.0,0.0,0.0,0.0,62156.0,62200.0,62299.0,62314.0,62330.0,62355.0,62389.0,62450.0,62591.0,62661.0,0.01997635388198093,-0.3285323296927442,0.042342035034217455,-0.05925967531786435,0.009960622332127767
43,43,63212.94525260201,2456.339582485663,17.12275951544763,63350.67091547565,-1554.9260424024444,10.19186160345618,63383.54205716461,59103.95858410697,10.436893403704229,63411.30135639943,-2906.4188064472382,6.97025192706038,63666.60084510522,10062.256304368351,30.671046903391673,0.9958198493959608,84.0,38.0,141.0,284.0,425.0,46.0,1033.0,1041.0,48.0,21.0,27.0,0.4375,48.41849775358626,2323.7997007062554,78.0,74.0,4.0,0.9487179487179488,529.5354733214846,6440.695814927433,25.0,13.0,12.0,0.52,2515.286463453662,56582.80459721618,10.0,2.0,8.0,0.2,1055.1408982132923,15741.905668530497,70.0,35.0,35.0,0.5,104.52011068423651,10966.504282408809,0.0,0.0,0.0,0.0,63193.0,63239.0,63277.0,63355.0,63371.0,63396.0,63409.0,63418.0,63633.0,63702.0,0.019711646589430337,-0.3405534789959037,0.042556988122450755,-0.36303814710828974,0.01038734330776895
44,44,64225.99656604573,2357.6809394081656,15.008870271763538,64357.55099528313,-1910.6157583511103,15.28779240518434,64392.323761564425,56479.386270266354,10.270501164853666,64419.30135639943,-3636.4200419764047,7.017704297056208,64671.200028693835,10281.972331703808,32.431104190794585,0.9931931435676472,97.0,54.0,125.0,282.0,407.0,43.0,1016.0,1009.0,43.0,21.0,22.0,0.4883720930232558,47.884073945123106,2038.9983836712177,63.0,56.0,7.0,0.8888888888888888,370.6327579665675,3071.107041535768,25.0,12.0,13.0,0.48,2461.586403700539,56253.970203451696,11.0,2.0,9.0,0.1818181818181818,1113.526785550008,16827.730004235567,78.0,39.0,39.0,0.5,88.25914184753438,11141.883145654112,0.0,0.0,0.0,0.0,64205.0,64248.0,64302.0,64365.0,64380.0,64405.0,64417.0,64427.0,64634.0,64709.0,0.02030981934185851,-0.19398602589064223,0.043583802272944394,-0.30621511615715413,0.008583872724048569
45,45,66212.945252602,2552.8777740454348,17.386350290473587,66349.69716773105,-1901.0479335302048,12.739827004318157,66382.0142870399,58732.05147879096,10.362428541644617,66409.72601729959,-2528.0132903334006,5.661529194658877,66665.78051045265,10129.95598130919,30.99793683606541,0.9961611998279652,140.0,94.0,82.0,286.0,368.0,46.0,1984.0,1989.0,46.0,20.0,26.0,0.4347826086956521,47.86440798026112,2551.837101508557,22.0,17.0,5.0,0.7727272727272727,575.9841536300979,6273.4101819743355,26.0,13.0,13.0,0.5,2513.1721165741715,57893.67961113633,7.0,2.0,5.0,0.2857142857142857,981.2028792080096,14139.991635990507,70.0,35.0,35.0,0.5,110.66037076315683,11218.814642509937,0.0,0.0,0.0,0.0,66193.0,66239.0,66333.0,66355.0,66369.0,66395.0,66408.0,66415.0,66631.0,66701.0,0.01874919687377452,-0.3029824464028678,0.04279047050623996,-0.3881320098117863,0.010924072223742788
46,46,67321.36991350215,2571.4694900167706,18.262900300626555,67460.12330450071,-1648.8793601242155,5.9391632362562605,67491.39386838811,59614.67927457584,10.349084805040713,67521.15067819973,-1904.1201844067289,5.095930801728113,67776.61638932896,10064.896628776998,31.978100386381463,0.9966202074739708,152.0,104.0,72.0,288.0,360.0,48.0,1108.0,1110.0,50.0,22.0,28.0,0.44,51.03744220125589,2397.853416869214,12.0,9.0,3.0,0.75,654.6446940130216,7954.8458035604335,26.0,13.0,13.0,0.5,2502.0820385659385,59655.13390194645,6.0,3.0,3.0,0.5,808.1279909637162,11532.222975287928,71.0,36.0,35.0,0.5070422535211268,106.11439390875027,11089.970198903127,0.0,0.0,0.0,0.0,67300.0,67348.0,67452.0,67463.0,67478.0,67504.0,67518.0,67524.0,67742.0,67812.0,0.01984757835914399,-0.3970240090601323,0.04197090496858571,-0.4244101803980963,0.010543018753451858
47,47,68462.64389620257,2492.96172594516,22.1974645411948,68602.12330450071,-1703.5039772967966,6.843324229336002,68633.55308720472,57286.07420056702,10.297131671840638,68660.72601729959,-2630.901433228459,5.631373182273685,68916.53773188627,9900.929638347434,34.49623853065717,0.993737467969386,157.0,102.0,72.0,288.0,360.0,55.0,1140.0,1142.0,58.0,27.0,31.0,0.4655172413793103,34.4597545300634,2131.612972214195,12.0,9.0,3.0,0.75,598.4768078314463,7115.525191693673,25.0,13.0,12.0,0.52,2458.5637007905293,54824.75257193695,7.0,2.0,5.0,0.2857142857142857,1011.3395485387412,14627.888625465524,77.0,39.0,38.0,0.5064935064935064,94.68048001864342,11100.557445326289,0.0,0.0,0.0,0.0,68437.0,68492.0,68594.0,68605.0,68621.0,68646.0,68659.0,68666.0,68880.0,68954.0,0.013822817322636039,-0.3513210510850339,0.04291730119579733,-0.3844079963488771,0.009562786877298378
48,48,69524.945252602,2483.126280205007,18.03422306885304,69668.12330450071,-1458.868892823814,6.694212573947176,69699.6579158576,56023.51913497457,10.233368195021034,69726.30135639943,-3236.3027281413106,5.594312479460026,69980.9479036532,10301.773360865192,32.7926254697206,0.9928113225676508,155.0,104.0,72.0,287.0,359.0,51.0,1064.0,1066.0,52.0,20.0,32.0,0.3846153846153846,55.866433832179624,2476.0320731910197,14.0,10.0,4.0,0.7142857142857143,569.3548237826328,6943.9737278877365,25.0,13.0,12.0,0.52,2428.6026658019487,53793.75249842869,9.0,2.0,7.0,0.2222222222222222,1142.8352775765927,16329.835709368868,77.0,39.0,38.0,0.5064935064935064,91.77790324545992,11297.95275059054,0.0,0.0,0.0,0.0,69505.0,69556.0,69660.0,69671.0,69687.0,69712.0,69724.0,69732.0,69944.0,70019.0,0.022498426389964868,-0.3902714127248124,0.043349698542693146,-0.3531299058147603,0.008908942182140181
49,49,70588.13549916848,2625.4831642654503,18.670687748909582,70727.12330450071,-1592.4324669627513,6.311470869220517,70758.80279425868,59392.22904481583,10.2917161365015,70827.41085119541,-911.1985312672244,40.51429844316856,71043.45216398215,10100.50487614308,30.942681513096144,0.9952196407418517,155.0,104.0,155.0,205.0,360.0,51.0,1062.0,1059.0,54.0,26.0,28.0,0.4814814814814814,41.123781180166255,2194.7422170086147,13.0,9.0,4.0,0.6923076923076923,598.5351769660036,7172.312568710617,26.0,13.0,13.0,0.5,2497.8407805879233,57247.97337440186,68.0,19.0,49.0,0.2794117647058823,40.39701693774338,1128.0153891711377,71.0,35.0,36.0,0.4929577464788732,110.60170028115994,11189.929372245706,0.0,0.0,0.0,0.0,70563.0,70614.0,70718.0,70730.0,70746.0,70772.0,70809.0,70873.0,71009.0,71078.0,0.01566331932342508,-0.37586220413327204,0.04205669362406179,-0.04433393552726905,0.010950116022655063
50,50,71636.79457440229,2559.2114077648876,20.08096609316379,71737.34253980315,-895.5118458628123,41.19124978556973,71807.59581303904,58528.05794449126,10.321284137528624,71835.30135639943,-2847.181280777134,6.43536158427827,72089.55773037729,10325.684556913286,32.03587806051311,0.9946470428831714,92.0,42.0,136.0,284.0,420.0,50.0,1049.0,1049.0,53.0,24.0,29.0,0.4528301886792453,47.5569343192927,2241.63126562689,54.0,35.0,19.0,0.6481481481481481,45.37088529878968,758.3746675213247,25.0,13.0,12.0,0.52,2503.400225839103,55901.56454293671,9.0,2.0,7.0,0.2222222222222222,1047.9767486460007,15562.995338322433,73.0,37.0,36.0,0.5068493150684932,99.86054385336789,11323.085379934946,0.0,0.0,0.0,0.0,71614.0,71664.0,71706.0,71752.0,71795.0,71820.0,71833.0,71842.0,72055.0,72126.0,0.018582651739907263,-0.0506647516818446,0.0427726515069637,-0.3680751751641037,0.009671082174063601
51,51,72648.03073368121,2396.07645056305,16.93033087424287,72783.42192318766,-2039.7689074363664,10.1918616033846,72815.11861894414,55461.9265436475,10.242080042570128,72841.30135639943,-4448.699968747886,7.142475141748123,73093.16295383242,10707.62583599149,32.85571842627807,0.9918897495470878,88.0,41.0,136.0,281.0,417.0,47.0,1012.0,1007.0,49.0,24.0,25.0,0.4897959183673469,42.841172785725334,1985.740526032084,75.0,70.0,5.0,0.9333333333333332,528.9309013428933,5539.507292769333,26.0,13.0,13.0,0.5,2449.4481398137327,54501.67031457778,12.0,2.0,10.0,0.1666666666666666,1204.7244218882834,18391.365073766137,77.0,38.0,39.0,0.4935064935064935,98.33401639064644,11742.135881385824,0.0,0.0,0.0,0.0,72626.0,72673.0,72714.0,72788.0,72802.0,72828.0,72839.0,72850.0,73057.0,73131.0,0.017879718644060023,-0.25930922832217657,0.04416449792608741,-0.2708037022841441,0.009183549920106173
52,52,73654.52059170186,2627.222077539715,17.356361358723102,73793.64927703554,-1861.6928379432584,12.739827003988006,73825.624827889,57900.82630358026,10.378458997151924,73853.30135639943,-2747.2036740389526,6.697156447852621,74107.8881517148,10232.40626394785,31.212764738262816,0.9955321216247796,142.0,97.0,82.0,283.0,365.0,45.0,1007.0,1011.0,48.0,21.0,27.0,0.4375,52.338952394028105,2559.179095676395,20.0,16.0,4.0,0.8,600.1246106561131,6771.48658330914,26.0,13.0,13.0,0.5,2484.238059496169,55780.08467590211,9.0,2.0,7.0,0.2222222222222222,1039.6856714732955,15343.281093647454,72.0,36.0,36.0,0.5,109.0984462919291,11252.467548108918,0.0,0.0,0.0,0.0,73636.0,73681.0,73778.0,73798.0,73813.0,73839.0,73851.0,73860.0,74073.0,74143.0,0.019921784626232043,-0.32235425652660965,0.042905053659701535,-0.3784523445779848,0.010662051865192156
53,53,74691.0944979878,2501.549799370526,16.830105134333706,74821.45203459915,-1354.5987172959576,15.28779240518434,74858.2464455352,59908.04970374003,10.3342132355676,74936.4072652666,-665.919685750579,28.027619409504627,75140.80281689421,10439.869991458458,31.12476398591255,0.9956794925603636,90.0,45.0,204.0,213.0,417.0,45.0,1037.0,1033.0,48.0,23.0,25.0,0.4791666666666667,48.17223387465159,2131.959427503733,75.0,66.0,9.0,0.88,233.0412234013321,1712.985442807137,26.0,13.0,13.0,0.5,2513.3678826213386,59552.75504524517,44.0,16.0,28.0,0.3636363636363636,46.5476871055009,942.096296119338,72.0,36.0,36.0,0.5,110.14623874354928,11421.778467436818,0.0,0.0,0.0,0.0,74669.0,74714.0,74759.0,74830.0,74845.0,74871.0,74921.0,74963.0,75106.0,75176.0,0.019256955782680534,-0.1720370914469251,0.04195375905325842,-0.06989985144084686,0.010550537394973993
54,54,75740.21923530243,2755.055974106464,21.051380969938133,75845.945252602,-576.5557503596323,33.43531414531113,75911.61662024286,59404.59293914244,10.344037226281865,75940.15067819973,-1916.9655005302263,5.095930801728113,76192.48070222136,10676.58062552789,33.149193163963666,0.9949678393208125,101.0,48.0,126.0,287.0,413.0,53.0,1047.0,1053.0,54.0,24.0,30.0,0.4444444444444444,45.823384678157026,2571.8952274546887,39.0,30.0,9.0,0.7692307692307693,39.94227023775554,292.9085458925697,26.0,13.0,13.0,0.5,2506.805426841446,56925.10829574644,5.0,2.0,3.0,0.4,940.4815845558912,13149.3431224445,75.0,37.0,38.0,0.4933333333333333,96.8477445024772,11705.804169487672,0.0,0.0,0.0,0.0,75716.0,75769.0,75817.0,75854.0,75899.0,75925.0,75938.0,75943.0,76156.0,76230.0,0.016632469579141215,-0.06927737727503569,0.04219884865484332,-0.49060955155205305,0.009071045112600241
55,55,76843.95171591171,2865.270114273454,17.86583948508773,76983.69864360057,-1711.6234766863588,6.585616060502519,77013.97957452589,56259.83837132886,10.263140748389825,77040.87669549929,-3478.8375278434014,6.04477306626283,77292.55176628234,10841.64950540224,33.867190448190904,0.9917548133423516,153.0,103.0,76.0,284.0,360.0,50.0,1116.0,1102.0,51.0,26.0,25.0,0.5098039215686274,45.02065529597909,2484.5785397873233,15.0,13.0,2.0,0.8666666666666667,720.7007684864257,9285.26383223846,26.0,13.0,13.0,0.5,2433.904973153117,54924.96386277484,10.0,3.0,7.0,0.3,1070.6058038661713,15826.24902542882,79.0,40.0,39.0,0.5063291139240507,97.15429726398185,11819.173965458082,0.0,0.0,0.0,0.0,76819.0,76869.0,76972.0,76986.0,77001.0,77027.0,77038.0,77048.0,77255.0,77332.0,0.0157125344209982,-0.42106268014135695,0.04326185505704339,-0.3077481472754666,0.008961209935404316
56,56,78016.58921261303,3454.49417236281,22.71121783934523,78153.12330450071,-1402.9810366577303,5.835985014983288,78184.57363348267,58593.149985520904,10.341555467321664,78212.15067819973,-2474.8271023360003,5.095930801728113,78467.81790234342,10202.84130220272,34.12315589945133,0.992982522629494,157.0,103.0,72.0,288.0,360.0,54.0,1170.0,1171.0,55.0,29.0,26.0,0.5272727272727272,48.72862933009195,3309.3839710958555,11.0,8.0,3.0,0.7272727272727273,610.2584873781482,7635.489746941315,26.0,13.0,13.0,0.5,2490.5593461436424,56141.65061562565,7.0,2.0,5.0,0.2857142857142857,1037.9114049139307,14730.623643880692,74.0,36.0,38.0,0.4864864864864865,108.00745697450414,11502.631923492874,0.0,0.0,0.0,0.0,77988.0,78042.0,78145.0,78156.0,78172.0,78198.0,78211.0,78217.0,78433.0,78505.0,0.014105865258056715,-0.43497272695284916,0.042505981445938486,-0.4193874408172763,0.010586017539171771
57,57,79225.83219033366,3786.902701007923,23.62124707497287,79365.69864360057,-1510.596307870936,5.605501429709248,79396.26172486947,59066.52125100492,10.39731646622085,79424.15067819973,-2087.615094460652,5.095930801728113,79681.64119063888,10469.30212110658,32.74585417177188,0.9946736427165284,162.0,104.0,70.0,290.0,360.0,58.0,1211.0,1211.0,58.0,30.0,28.0,0.5172413793103449,45.26482366880568,3520.3696020419256,11.0,9.0,2.0,0.8181818181818182,742.241369181573,9803.47561129776,26.0,13.0,13.0,0.5,2485.6136632273938,58780.22269138881,5.0,1.0,4.0,0.2,998.6111780772984,14198.030505946725,74.0,37.0,37.0,0.5,102.59468692690128,11468.764730793093,0.0,0.0,0.0,0.0,79196.0,79254.0,79358.0,79368.0,79383.0,79409.0,79423.0,79428.0,79646.0,79718.0,0.011952993578831055,-0.49135653603423834,0.04208159902738652,-0.478350238378256,0.009799572668751798
58,58,80393.69292612934,3055.267903346844,21.580453305584417,80529.12330450071,-1581.2670216783729,6.536562660246409,80560.11015628008,56189.50919140177,10.249718176171436,80586.72601729959,-3143.109875698841,5.631628770671213,80841.70491701686,10790.941500199078,34.49628335106088,0.9927614271689604,156.0,102.0,72.0,287.0,359.0,54.0,1171.0,1164.0,55.0,29.0,26.0,0.5272727272727272,44.23545516733619,2809.8452709764547,12.0,9.0,3.0,0.75,613.4589023367159,7536.953030426403,26.0,13.0,13.0,0.5,2427.1370991521712,55289.89880155419,8.0,2.0,6.0,0.25,1068.6347645224507,15601.14513198415,78.0,39.0,39.0,0.5,92.9350185525554,11858.741733321562,0.0,0.0,0.0,0.0,80365.0,80419.0,80521.0,80532.0,80547.0,80573.0,80585.0,80593.0,80805.0,80880.0,0.014478421063789259,-0.38795402289841247,0.043195556147046336,-0.3399928118277602,0.008612317891894872
59,59,81499.91532629133,2811.7953096673514,20.047731371639273,81639.84932180027,-1407.4550835901266,5.095930801728113,81670.09579439073,57980.33214753662,10.34256664869796,81697.15067819973,-2611.7829925677997,5.095930801728072,81954.28203286878,10397.488251411827,32.74217679409299,0.9949556392939288,159.0,105.0,71.0,288.0,359.0,54.0,1094.0,1110.0,54.0,27.0,27.0,0.5,42.573596557111934,2516.4272855347917,10.0,9.0,1.0,0.9,733.8324900862664,9833.641408290936,26.0,13.0,13.0,0.5,2463.2852769408014,57108.18824010251,7.0,1.0,6.0,0.1428571428571428,1088.9527876080226,15434.988303639237,73.0,36.0,37.0,0.4931506849315068,100.36057431067262,11546.677531631343,0.0,0.0,0.0,0.0,81473.0,81527.0,81632.0,81641.0,81657.0,81683.0,81696.0,81703.0,81919.0,81991.0,0.015141072470936226,-0.5213896334186463,0.0424848424578309,-0.41693846338183255,0.009652386411405188
60,60,0.0,0.0,0.0,0.0,0.0,0.0,0.0,0.0,0.0,0.0,0.0,0.0,0.0,0.0,0.0,0.0,0.0,0.0,0.0,0.0,0.0,0.0,0.0,0.0,0.0,0.0,0.0,0.0,0.0,0.0,0.0,0.0,0.0,0.0,0.0,0.0,0.0,0.0,0.0,0.0,0.0,0.0,0.0,0.0,0.0,0.0,0.0,0.0,0.0,0.0,0.0,0.0,0.0,0.0,0.0,0.0,0.0,0.0,,82373.0,82647.0,82761.0,82775.0,82800.0,82811.0,82970.0,83044.0,83104.0,,,,,
61,61,83708.945252602,2271.650316214625,17.960962586319358,83852.69864360057,-1714.2661607613672,6.415166391159261,83883.32243539086,56690.97863542456,10.213734311741836,83911.72601729959,-2496.178240492457,7.265110639711171,84163.83568078969,10464.188476524634,32.95759713897404,0.9921821059476744,154.0,103.0,73.0,286.0,359.0,51.0,2208.0,2214.0,52.0,20.0,32.0,0.3846153846153846,46.29015979643338,2199.3495694412704,15.0,12.0,3.0,0.8,696.9581931137907,8664.382824365408,25.0,12.0,13.0,0.48,2447.14954183849,56440.77216552224,8.0,4.0,4.0,0.5,870.8133171010946,12869.545460026104,78.0,39.0,39.0,0.5,97.30920681594866,11421.75163852616,0.0,0.0,0.0,0.0,83689.0,83740.0,83843.0,83855.0,83871.0,83896.0,83908.0,83916.0,84127.0,84202.0,0.020377326327922336,-0.40656358333775106,0.04316647199858598,-0.3488586283523154,0.009299259759536268
62,62,84757.09593080172,2474.236405123065,17.058369358994145,84867.31516610416,-1042.864498073703,36.68828159858301,84929.40440131116,55676.74130088546,10.212594624429997,84955.72601729959,-3769.823856494435,6.0365452156677835,85207.76944110107,11185.232361961129,33.76853407174377,0.9908982417556524,85.0,42.0,138.0,284.0,422.0,43.0,1049.0,1046.0,45.0,18.0,27.0,0.4,58.54973171887846,2579.9474043498385,60.0,43.0,17.0,0.7166666666666667,43.00838430321856,826.2058988779113,25.0,12.0,13.0,0.48,2416.5900826614056,55233.27417027759,11.0,3.0,8.0,0.2727272727272727,1114.905485050401,16449.37631018121,80.0,40.0,40.0,0.5,101.9784088388742,12340.004628079403,0.0,0.0,0.0,0.0,84740.0,84783.0,84825.0,84884.0,84917.0,84942.0,84954.0,84963.0,85170.0,85247.0,0.023663758078107448,-0.041240625587178635,0.043403942583524965,-0.2957447157987783,0.00911723650781575
63,63,85819.945252602,2475.3881190480315,17.913585544809596,85961.27398270041,-1579.8690066957736,6.245626971052516,85992.13838573579,58409.347454781506,10.351743304470617,86019.72601729959,-2659.797193909727,5.829030667877817,86276.22647588691,10313.18778272608,31.179075212383808,0.9949129503664836,152.0,104.0,73.0,287.0,360.0,48.0,1062.0,1062.0,49.0,21.0,28.0,0.4285714285714285,51.71831983086345,2376.7579239920565,12.0,9.0,3.0,0.75,647.6503239198279,8109.9195865076435,26.0,13.0,13.0,0.5,2488.4058438453117,57700.42467851011,7.0,2.0,5.0,0.2857142857142857,995.6183107937342,14491.042957990496,72.0,36.0,36.0,0.5,100.89957614564216,11215.518154776017,0.0,0.0,0.0,0.0,85800.0,85848.0,85952.0,85963.0,85979.0,86005.0,86018.0,86025.0,86241.0,86312.0,0.02089301448645271,-0.4099392552008853,0.04260287012745262,-0.37432113736846256,0.009783548818401464
64,64,86994.77180423761,2913.5902742384974,24.292171729962924,87127.27398270041,-1428.3110999195198,5.269539393330062,87157.73557699284,59688.78978555757,10.427363385896117,87186.15067819973,-1776.7781640024457,5.095930801728113,87442.62992804854,10377.54899063059,33.52262092382669,0.9951224495227432,154.0,100.0,69.0,291.0,360.0,54.0,1186.0,1166.0,54.0,29.0,25.0,0.5370370370370371,47.88699442454555,2705.2316066039816,10.0,8.0,2.0,0.8,714.6315363520339,9206.11892720469,26.0,13.0,13.0,0.5,2503.328908288439,57791.8595055219,4.0,1.0,3.0,0.25,943.9022160948066,13326.021884667667,74.0,37.0,37.0,0.5,104.54766066862004,11556.89125644383,0.0,0.0,0.0,0.0,86966.0,87020.0,87120.0,87129.0,87145.0,87171.0,87185.0,87189.0,87407.0,87480.0,0.01643573389434841,-0.5003332512029772,0.04193968276592785,-0.5312437057243727,0.010074407816625226
65,65,88163.29801089187,2993.902441754195,23.102437996424396,88294.12330450071,-1202.3733991921345,7.181369917026651,88327.08415904509,57527.89778673935,10.285378408630695,88354.15067819973,-2705.009181503872,5.095930801728113,88609.86620994285,10542.058787172817,34.581634663334256,0.994371770089172,152.0,97.0,73.0,288.0,361.0,55.0,1170.0,1169.0,58.0,30.0,28.0,0.5172413793103449,45.207950222437134,2753.6461668088723,12.0,7.0,5.0,0.5833333333333334,465.91751218804114,5583.513356004782,26.0,13.0,13.0,0.5,2458.4633333351258,56657.81140497197,7.0,1.0,6.0,0.1428571428571428,1076.90653971797,15502.4133847808,77.0,38.0,39.0,0.4935064935064935,100.5614217300826,11741.48437435379,0.0,0.0,0.0,0.0,88135.0,88190.0,88287.0,88298.0,88314.0,88340.0,88353.0,88360.0,88573.0,88648.0,0.015100007799836248,-0.3874981869202093,0.04273514986500727,-0.39811566891586486,0.00953906857856285
66,66,89281.64389620257,2768.3328864669224,22.13309178378537,89421.69864360057,-1307.679417284988,5.653327161129911,89452.84098737573,57646.182853868886,10.311676169574406,89480.72601729959,-2356.348602725562,5.657985420531968,89736.62306056605,10370.277903642287,33.203775954349176,0.9942524460918888,158.0,105.0,71.0,289.0,360.0,53.0,1104.0,1126.0,55.0,27.0,28.0,0.4909090909090909,39.22590600570505,2566.8311506755945,10.0,8.0,2.0,0.8,657.9716584312876,8510.581960583437,26.0,13.0,13.0,0.5,2463.458230702577,56070.68583686832,6.0,2.0,4.0,0.3333333333333333,945.4275579361984,13481.961672049909,74.0,37.0,37.0,0.5,106.39259716853108,11491.4493607291,0.0,0.0,0.0,0.0,89256.0,89309.0,89414.0,89424.0,89440.0,89466.0,89479.0,89485.0,89701.0,89774.0,0.01416950475770528,-0.5031597574559767,0.04273410846555721,-0.40122567469118653,0.010259377632605534
67,67,90414.79457440229,2708.2868352349556,21.430826310186,90557.69864360055,-1687.708296689587,6.408135381406895,90588.55759174124,58910.24588746232,10.39759935701559,90616.15067819972,-2229.8216342961764,5.095930801728061,90872.94513943794,10476.455607321366,32.72996613470045,0.9949060553570196,157.0,104.0,71.0,289.0,360.0,53.0,1134.0,1136.0,55.0,24.0,31.0,0.4363636363636363,44.217449657135965,2643.3258296739805,14.0,11.0,3.0,0.7857142857142857,715.608213207892,9179.750249547653,26.0,13.0,13.0,0.5,2490.073223821955,56423.19569917867,6.0,1.0,5.0,0.1666666666666666,1038.1846445857443,14780.231296820426,74.0,37.0,37.0,0.5,108.29967319501368,11572.552037257656,0.0,0.0,0.0,0.0,90392.0,90445.0,90549.0,90560.0,90576.0,90602.0,90615.0,90620.0,90838.0,90909.0,0.016326723256142813,-0.4240117884183814,0.042268932785967356,-0.4655908923914617,0.010337434458208321
68,68,91529.56674414106,2862.202357104127,20.2678727095214,91668.69864360055,-1365.6794717369798,6.136558738961497,91699.87427041368,57441.610155466464,10.298359356086404,91726.7260172996,-2745.930815462824,5.294212570448695,91980.5810153999,10796.443602198771,34.673685227317094,0.9928593498055756,157.0,104.0,72.0,287.0,359.0,53.0,1115.0,1111.0,54.0,27.0,27.0,0.5,38.82551156288552,2478.196788911413,13.0,10.0,3.0,0.7692307692307693,653.9205833354706,8474.25728524989,26.0,13.0,13.0,0.5,2462.5135960619114,55872.80366429176,7.0,2.0,5.0,0.2857142857142857,1052.0090935251103,15064.579901441744,81.0,41.0,40.0,0.5061728395061729,93.81019163251403,11841.649496396716,0.0,0.0,0.0,0.0,91503.0,91556.0,91660.0,91671.0,91687.0,91713.0,91725.0,91732.0,91943.0,92019.0,0.013564907969039537,-0.4788243485155139,0.04286985670138922,-0.3831156588509297,0.008688990105353667
69,69,92593.79457440229,2706.2076882020365,19.54588337351325,92685.06855710271,-818.5800049667122,48.411342616322024,92764.9033609724,56070.14943914373,10.187391193612488,92791.30135639945,-3617.1316715739617,5.7958539767312125,93044.92942177044,11095.05154682073,33.2574114933888,0.9912672368320978,87.0,39.0,140.0,285.0,425.0,48.0,1064.0,1065.0,49.0,24.0,25.0,0.4897959183673469,44.54300727695722,2352.6679377935056,58.0,33.0,25.0,0.5689655172413793,39.376866017847426,785.3313979488141,26.0,13.0,13.0,0.5,2434.158953800123,54270.746736610046,10.0,2.0,8.0,0.2,1170.3724954275065,17142.642145707534,78.0,39.0,39.0,0.5,97.74517233794886,12174.916126635486,0.0,0.0,0.0,0.0,92571.0,92619.0,92658.0,92705.0,92752.0,92778.0,92789.0,92798.0,93007.0,93083.0,0.016459567191072066,-0.04810386984647725,0.04341274239766492,-0.3235636967891273,0.008809798848204323
70,70,93652.945252602,2417.3455135237077,19.196190464835443,93758.61652250358,-996.0550356892684,39.08489587249675,93828.3551902502,58429.80313514781,10.27626853367658,93856.7260172996,-2336.3602132657584,6.029945978575268,94113.0118991244,10307.379894379315,30.961912158522033,0.994311862622005,80.0,30.0,148.0,287.0,435.0,50.0,1060.0,1064.0,51.0,20.0,31.0,0.392156862745098,53.484934826064645,2402.522810425331,68.0,50.0,18.0,0.7352941176470589,42.59652791818867,668.3008530247114,26.0,13.0,13.0,0.5,2477.6121243225175,58041.89100943466,7.0,3.0,4.0,0.4285714285714285,896.2909929045959,12979.319496708964,72.0,36.0,36.0,0.5,99.40184237355048,11252.297264880452,0.0,0.0,0.0,0.0,93633.0,93683.0,93713.0,93773.0,93815.0,93841.0,93854.0,93861.0,94078.0,94148.0,0.022125482073971674,-0.04276523524497012,0.042403225603752495,-0.38362705708455913,0.009643754610010541
71,71,94769.79457440229,2604.3966187789338,19.160195662502893,94911.12330450072,-1484.300706424012,6.629715802368979,94943.5782372123,59315.166642231474,10.368959106607583,94972.15067819972,-2010.5028010493645,5.095930801728113,95228.8106062822,10271.388699645551,31.780032483986428,0.9959529415588008,157.0,106.0,71.0,290.0,361.0,51.0,1116.0,1115.0,53.0,24.0,29.0,0.4528301886792453,43.28943511931957,2353.805188089428,11.0,7.0,4.0,0.6363636363636364,541.2258356532941,6334.342043670095,26.0,13.0,13.0,0.5,2502.2784816338553,56927.01590946276,4.0,1.0,3.0,0.25,930.0255863082796,13387.493928304735,72.0,36.0,36.0,0.5,104.22198963934696,11166.489605268602,0.0,0.0,0.0,0.0,94747.0,94798.0,94904.0,94915.0,94931.0,94957.0,94971.0,94975.0,95194.0,95265.0,0.01662167536510462,-0.3646335498668725,0.042186149399642284,-0.46258358149158546,0.010146825583861263
72,72,95891.945252602,2373.442784194094,18.050517639128056,96035.54796540084,-1616.9664416264543,7.5915007891261554,96067.53113519144,56861.040778279275,10.209569684552688,96095.30135639945,-2860.119124864958,6.209536499428025,96349.66082059326,10477.903880648078,33.1427038825862,0.9931701266289568,154.0,105.0,75.0,287.0,362.0,49.0,1123.0,1124.0,49.0,20.0,29.0,0.4081632653061224,46.70842263645152,2285.4521472334673,13.0,10.0,3.0,0.7692307692307693,586.0960518968859,6978.171045773158,25.0,13.0,12.0,0.52,2460.4394547689812,54193.05008665637,9.0,3.0,6.0,0.3333333333333333,1010.4358147747864,14875.242377876444,76.0,38.0,38.0,0.5,93.4644217073445,11522.336946919044,0.0,0.0,0.0,0.0,95872.0,95921.0,96026.0,96039.0,96055.0,96080.0,96092.0,96101.0,96313.0,96388.0,0.019679607592610004,-0.36246642899239817,0.04327109425174048,-0.35328452091046897,0.008920144980521003
73,73,96979.6648922516,2633.3154327450347,18.496345417344944,97117.12330450072,-1351.3902164926112,6.476315274313245,97149.2450658571,56453.74743154566,10.246495703952174,97176.30135639945,-3007.625603341988,5.607570603802526,97431.72528748176,10260.963810931824,33.17958496154308,0.9938885744564454,153.0,105.0,72.0,287.0,359.0,48.0,1087.0,1082.0,51.0,25.0,26.0,0.4901960784313725,42.74131081292356,2239.982904543346,11.0,7.0,4.0,0.6363636363636364,530.2264156233535,6297.9131075981795,26.0,13.0,13.0,0.5,2425.6384957203995,55908.05449373637,9.0,2.0,7.0,0.2222222222222222,1090.8301655785724,15716.18128066398,75.0,37.0,38.0,0.4933333333333333,95.3810318301764,11438.44231082638,0.0,0.0,0.0,0.0,96957.0,97005.0,97110.0,97121.0,97136.0,97162.0,97174.0,97182.0,97396.0,97469.0,0.016230987857147418,-0.39235626331489915,0.04296682870630804,-0.36268814987027403,0.009295523655249556
74,74,98069.36991350216,2457.1047224863432,18.6294958926324,98212.12330450072,-1767.2729027981234,5.8721842140092875,98242.81160123348,59445.18020101433,10.26845043208666,98356.054747398,-439.98435584387454,20.153797120654257,98528.50957334132,10155.192941828323,31.43521262458006,0.9958044174574384,154.0,104.0,174.0,188.0,362.0,50.0,1090.0,1093.0,52.0,21.0,31.0,0.4038461538461538,47.42449159624013,2305.6740196899864,14.0,11.0,3.0,0.7857142857142857,696.6263865432411,8641.180114918337,26.0,13.0,13.0,0.5,2499.864885422782,57634.719080936375,38.0,18.0,20.0,0.4736842105263157,41.397828707435295,463.97055951529865,72.0,36.0,36.0,0.5,107.82870028719712,11076.417713936826,0.0,0.0,0.0,0.0,98048.0,98098.0,98202.0,98215.0,98230.0,98256.0,98345.0,98376.0,98495.0,98564.0,0.019300964733913052,-0.3941815581737673,0.04205328130841676,-0.09408931967145903,0.010618084846331224
75,75,99171.36991350216,2890.0725791489135,20.365991385305534,99315.69864360055,-1356.511410172294,5.86209831207324,99347.39713194348,58388.70628207633,10.227358044739969,99429.50777138902,-724.0064186245772,14.081231853850005,99630.4018552677,10440.88600708522,33.28751999384327,0.9938886389244156,158.0,106.0,136.0,224.0,360.0,52.0,1102.0,1105.0,53.0,21.0,32.0,0.3962264150943396,53.27414642598184,2978.1994901167072,12.0,9.0,3.0,0.75,619.3179404202062,7772.80559437604,26.0,13.0,13.0,0.5,2460.689389412251,58350.161102248094,38.0,20.0,18.0,0.5263157894736842,46.36696867063374,665.2024614632805,77.0,38.0,39.0,0.4935064935064935,108.38200265163373,11689.057295000348,0.0,0.0,0.0,0.0,99150.0,99202.0,99308.0,99318.0,99334.0,99360.0,99413.0,99444.0,99594.0,99668.0,0.018433497764153154,-0.45655195804180154,0.042143242179825666,-0.06404220664054174,0.010380536917852118
76,76,100237.24674328286,2963.6461541982076,20.67118881187173,100335.34253980315,-715.5013060676515,56.055238819009254,100406.68628244044,56607.47028065267,10.266347781917569,100434.30135639945,-2748.739432821066,6.260051922483095,100687.59317853049,10710.04594584901,33.44716622502273,0.9930501588248344,93.0,42.0,136.0,286.0,422.0,51.0,1065.0,1059.0,53.0,27.0,26.0,0.5094339622641509,47.394071835912264,2319.684889334063,48.0,32.0,16.0,0.6666666666666666,49.79022175355984,528.0930031991008,25.0,13.0,12.0,0.52,2430.726478028569,54134.025269296515,8.0,2.0,6.0,0.25,1025.335361085794,15129.266603744394,76.0,38.0,38.0,0.5,96.73650028724254,11845.010375139373,0.0,0.0,0.0,0.0,100211.0,100262.0,100304.0,100348.0,100394.0,100419.0,100432.0,100440.0,100651.0,100726.0,0.01599181189993796,-0.06958788381142678,0.04294003010516695,-0.37302021022541204,0.009032314219411504
77,77,101271.24238526696,2529.10393938782,17.538192404518878,101406.027373699,-1658.5159135071149,17.8357578060484,101443.4890206193,57799.058142523405,10.37216916409184,101470.7260172996,-2647.9947284445134,5.646438435286697,101728.5545159645,10047.358072644907,30.57387221962183,0.994829414746422,91.0,42.0,137.0,287.0,424.0,49.0,1035.0,1037.0,50.0,24.0,26.0,0.48,45.57731552339729,2188.0187644676853,82.0,72.0,10.0,0.8780487804878049,202.16511372252177,1262.6465835468548,25.0,12.0,13.0,0.48,2461.502370535757,58117.00587424745,7.0,2.0,5.0,0.2857142857142857,1019.5074435416694,14628.176192264504,70.0,35.0,35.0,0.5,105.66131247943572,10891.234512391122,0.0,0.0,0.0,0.0,101248.0,101297.0,101339.0,101416.0,101431.0,101456.0,101469.0,101476.0,101694.0,101763.0,0.018021131837875144,-0.12189519080044359,0.04258724016689128,-0.38501113034335577,0.010516327945662736
78,78,102365.945252602,2531.7127162437537,19.293703729954792,102509.69864360055,-1711.5247303384454,5.928679371597594,102540.74591444444,58933.51064098364,10.256320290284853,102623.36991350216,-678.5025511077312,20.351620141264867,102826.4374012335,10060.299094827322,31.567267755784368,0.9956182308338246,155.0,104.0,144.0,217.0,361.0,51.0,1095.0,1097.0,51.0,20.0,31.0,0.392156862745098,51.36833162035968,2615.85574114755,12.0,9.0,3.0,0.75,695.1987409959336,8549.538439194243,26.0,13.0,13.0,0.5,2485.336025332544,56985.79695298097,49.0,22.0,27.0,0.4489795918367347,45.431173758148894,639.4129694573592,72.0,35.0,37.0,0.4861111111111111,94.71009739357044,11002.19765281953,0.0,0.0,0.0,0.0,102346.0,102397.0,102501.0,102512.0,102528.0,102554.0,102602.0,102645.0,102792.0,102862.0,0.020289952841321485,-0.4061867927894104,0.04217186450121618,-0.06695799991315793,0.009414242707979456
79,79,103428.36991350216,2748.805331763381,20.01405383636719,103525.19186160344,-808.5589510853156,61.15116962073736,103599.58619901132,56981.99030497132,10.300817839036666,103626.30135639945,-3219.726294404198,6.328831719710945,103881.7427121692,10186.326556257063,31.963688474363877,0.9936768917923198,84.0,36.0,143.0,284.0,427.0,48.0,1062.0,1059.0,51.0,23.0,28.0,0.4509803921568627,43.93112058648944,2370.9303744789745,54.0,35.0,19.0,0.6481481481481481,41.051110983405806,767.437986357216,25.0,13.0,12.0,0.52,2449.35779458856,54057.98112031225,11.0,2.0,9.0,0.1818181818181818,1130.2931107789336,16980.95919170656,75.0,38.0,37.0,0.5066666666666667,99.40958099356024,11207.377238770716,0.0,0.0,0.0,0.0,103407.0,103455.0,103491.0,103544.0,103587.0,103612.0,103624.0,103634.0,103846.0,103918.0,0.015981895872672534,-0.05077070871369807,0.04298477082810617,-0.3510525452872668,0.009759119781261755
80,80,105437.4356457666,2589.6342962585727,18.164500413110044,105568.34597297768,-1591.6928913808174,20.383723206912453,105605.05246398564,57921.037019339026,10.348285507744386,105633.7260172996,-2136.95022238219,7.079707199943262,105888.64011443562,9750.473947392647,31.04604886788878,0.9959431698132132,129.0,82.0,94.0,286.0,380.0,47.0,2009.0,2005.0,49.0,23.0,26.0,0.4693877551020408,48.25596195672371,2196.520881066745,59.0,49.0,10.0,0.8305084745762712,227.2993420774057,1262.3578915031762,26.0,13.0,13.0,0.5,2466.240419194216,56933.05964956312,7.0,3.0,4.0,0.4285714285714285,850.3616765537802,12583.385666990049,70.0,35.0,35.0,0.5,98.61225245385756,10701.747831541188,0.0,0.0,0.0,0.0,105415.0,105462.0,105544.0,105577.0,105592.0,105618.0,105631.0,105638.0,105854.0,105924.0,0.018634276672363545,-0.14280351650010834,0.0425793553794759,-0.3979323746745161,0.010113585553472224
81,81,106462.36991350216,2627.452530081474,19.93286134589722,106601.97262630088,-1625.5413060993503,8.089650174644278,106634.48989038252,59415.605627423945,10.333322704105088,106664.57533909989,-1380.5122423570708,2.5479654008640567,106918.63019025105,10075.694607961672,31.628834595600313,0.9960292256119682,149.0,98.0,76.0,288.0,364.0,51.0,1025.0,1030.0,53.0,22.0,31.0,0.4150943396226415,47.13218234666768,2551.8359012802875,17.0,13.0,4.0,0.7647058823529411,544.167550281116,6438.292339961464,26.0,12.0,14.0,0.4615384615384615,2491.229457961622,59827.66052434491,4.0,3.0,1.0,0.75,693.6387101502771,9485.820085037363,71.0,36.0,35.0,0.5070422535211268,100.8155791575613,10962.314051656918,0.0,0.0,0.0,0.0,106441.0,106492.0,106590.0,106606.0,106622.0,106648.0,106662.0,106666.0,106884.0,106954.0,0.01793835732788907,-0.3347608259718116,0.04192887426888007,-0.50245024192322,0.010005819259140531
82,82,107573.79457440229,2596.446829769381,18.417824936113735,107715.54796540084,-1512.9580780249228,6.840207326999749,107747.45170521073,57171.877082237515,10.27826370675213,107774.7260172996,-2526.860153872597,5.579989943330285,108029.56215279512,10212.862001648396,33.32143691479479,0.9949231175560044,156.0,105.0,73.0,287.0,360.0,51.0,1111.0,1113.0,52.0,23.0,29.0,0.4423076923076923,42.39400077200549,2297.563434807467,12.0,9.0,3.0,0.75,598.2433132785741,7282.832147504618,25.0,12.0,13.0,0.48,2447.184493567111,57313.5975210376,7.0,2.0,5.0,0.2857142857142857,993.3132476602482,14339.015209550456,77.0,39.0,38.0,0.5064935064935064,99.49204054972942,11246.16234298476,0.0,0.0,0.0,0.0,107551.0,107602.0,107707.0,107719.0,107735.0,107760.0,107773.0,107780.0,107993.0,108067.0,0.01632769840920292,-0.3954130137297296,0.042803990676167886,-0.3931017892454093,0.009741837355059827
83,83,108664.80441430229,2782.7157382466835,18.95641204490029,108806.12330450072,-1582.269754780512,6.282155222999539,108837.17911088796,57857.60314815163,10.321627435933186,108864.7260172996,-2376.3457585591655,5.540883301726499,109120.77517306471,10031.949088880036,32.539780137254034,0.995128848646194,157.0,106.0,73.0,287.0,360.0,51.0,1091.0,1089.0,53.0,26.0,27.0,0.490566037735849,39.526152083806146,2368.602460928658,13.0,10.0,3.0,0.7692307692307693,646.9523742224519,7915.200780482384,26.0,13.0,13.0,0.5,2462.784085464989,57274.025255478584,7.0,2.0,5.0,0.2857142857142857,973.1761610842864,14003.53353148626,73.0,36.0,37.0,0.4931506849315068,100.3115603786322,11066.718715308096,0.0,0.0,0.0,0.0,108640.0,108691.0,108797.0,108809.0,108824.0,108850.0,108863.0,108870.0,109086.0,109157.0,0.014204164493176203,-0.4088761554518846,0.042566299871751034,-0.4095263315866737,0.009999209474639684
84,84,109756.79457440229,2717.422171693586,19.470360285758296,109900.12330450072,-1519.839219817032,5.654170913876999,109931.45429570368,59347.77067377759,10.2542922035054,110015.53756611008,-783.478488568885,17.083904611273656,110215.01379471512,10313.245038780442,32.69598003808711,0.9948370895798732,158.0,106.0,139.0,220.0,359.0,52.0,1092.0,1095.0,53.0,23.0,30.0,0.4339622641509434,46.91494250591177,2560.7902112396914,11.0,8.0,3.0,0.7272727272727273,631.8610755178173,7763.478442438226,26.0,13.0,13.0,0.5,2495.6664455476584,59501.91692681576,39.0,21.0,18.0,0.5384615384615384,39.303944978038814,635.7181945136226,73.0,36.0,37.0,0.4931506849315068,98.36868645040435,11362.48890512764,0.0,0.0,0.0,0.0,109734.0,109786.0,109892.0,109903.0,109919.0,109944.0,109995.0,110031.0,110180.0,110251.0,0.017264502731525463,-0.4157420517111572,0.04205156178933528,-0.05016595292849975,0.009538092625600663
85,85,110822.21923530244,2653.8884930214695,19.40699221279019,110914.21923530244,-572.0518714361109,43.31541181468896,110990.40267598323,57496.82087578115,10.146794761785424,111072.24660900142,-615.267298613459,13.357473585638504,111271.80485495635,10366.486223370614,33.16411214140973,0.993854569952598,92.0,44.0,192.0,228.0,420.0,48.0,1065.0,1059.0,51.0,25.0,26.0,0.4901960784313725,40.653777702793214,2190.480179234904,46.0,28.0,18.0,0.6086956521739131,40.79735078213994,563.9011256177589,25.0,12.0,13.0,0.48,2433.585742474644,57274.81980648174,30.0,14.0,16.0,0.4666666666666667,43.24093636828006,691.843369465779,76.0,38.0,38.0,0.5,98.72676015125792,11380.413959760475,0.0,0.0,0.0,0.0,110798.0,110846.0,110890.0,110932.0,110978.0,111003.0,111058.0,111082.0,111236.0,111310.0,0.015318570395739807,-0.07131757244272272,0.04232557044731704,-0.07027991974500522,0.009523647456231065
86,86,111880.21923530244,2658.125185081261,20.12268460397704,112021.69864360055,-1422.3481123316856,5.369274344860116,112052.68324510314,59161.375669147514,10.263570915973256,112131.95345358404,-699.717955552594,14.824443798914071,112334.9175508196,10436.191474252064,32.89641558983501,0.9943705040238728,158.0,105.0,137.0,221.0,358.0,53.0,1058.0,1062.0,55.0,24.0,31.0,0.4363636363636363,43.38042216858939,2439.9848796203723,10.0,8.0,2.0,0.8,693.6321643976477,8859.225477954815,26.0,13.0,13.0,0.5,2496.327544632486,56986.39086906254,42.0,23.0,19.0,0.5476190476190477,43.46839666013058,620.2611866291293,76.0,38.0,38.0,0.5,96.99428520505268,11432.571151897188,0.0,0.0,0.0,0.0,111856.0,111909.0,112014.0,112024.0,112040.0,112066.0,112112.0,112151.0,112299.0,112372.0,0.016319931962596117,-0.4876669490287871,0.04219522477964138,-0.062122740048598475,0.009294030819993557
87,87,112927.52059170186,2288.7561649206054,18.489878189906385,113034.31516610416,-1300.9831366306223,38.08873959985507,113104.33271026758,55623.14271400078,10.20137984560959,113130.87669549928,-3743.912428498156,6.706276083961521,113382.35770509196,11020.027534759203,32.6079747483613,0.990155908421714,84.0,35.0,146.0,282.0,428.0,49.0,1049.0,1052.0,51.0,20.0,31.0,0.392156862745098,49.13108217451366,2254.0183926571945,78.0,52.0,26.0,0.6666666666666666,40.21353592278227,1105.2759978625916,25.0,12.0,13.0,0.48,2419.6704648574746,55019.55360634143,11.0,3.0,8.0,0.2727272727272727,1089.4986620533332,16597.057707784774,78.0,38.0,40.0,0.4871794871794871,100.2405935548292,11947.02348257733,0.0,0.0,0.0,0.0,112909.0,112958.0,112993.0,113059.0,113092.0,113117.0,113128.0,113139.0,113346.0,113421.0,0.02146628064952387,-0.030910113121781206,0.04350114622790676,-0.2910053808310837,0.009096219881361625
88,88,115042.21923530244,2649.19317250175,18.709842010595732,115183.54796540084,-1607.9178601780866,6.878216536208657,115215.22689995827,58044.939670044034,10.344891073572372,115242.30135639945,-2948.586304576694,5.629334181832255,115499.50047258109,10062.932844961131,31.133343302713833,0.9952295843451,156.0,104.0,74.0,287.0,361.0,52.0,2113.0,2110.0,54.0,25.0,29.0,0.4629629629629629,40.85852946761076,2205.433535736447,13.0,10.0,3.0,0.7692307692307693,643.8952471868547,7800.043247279186,26.0,13.0,13.0,0.5,2473.1294963300925,57580.86124730407,9.0,2.0,7.0,0.2222222222222222,1117.8158176872982,16029.513407155368,72.0,36.0,36.0,0.5,100.21683658431328,11003.65002528202,0.0,0.0,0.0,0.0,115018.0,115070.0,115174.0,115187.0,115202.0,115228.0,115240.0,115248.0,115465.0,115535.0,0.015423008745348021,-0.4004528235761617,0.04260715077642558,-0.37910228910453225,0.009959008782861491
89,89,116155.21923530244,3003.947466499059,20.31180638673436,116296.12330450072,-1365.1688911567055,5.981739658478208,116328.64424045308,60339.98340434504,10.343135743536369,116432.1985416972,-355.852265639067,16.224724985267265,116614.59215090788,10155.598245998044,31.807467224615312,0.996240506752065,158.0,105.0,163.0,198.0,361.0,53.0,1113.0,1114.0,53.0,24.0,29.0,0.4528301886792453,42.93224312927191,2763.330440058133,11.0,7.0,4.0,0.6363636363636364,545.2576591370655,6603.687399509331,26.0,13.0,13.0,0.5,2520.8727779778987,58023.51983245462,35.0,15.0,20.0,0.4285714285714285,36.27895934949773,436.8217370866921,72.0,36.0,36.0,0.5,109.46162425404668,11193.638332448394,0.0,0.0,0.0,0.0,116131.0,116184.0,116289.0,116300.0,116316.0,116342.0,116418.0,116452.0,116580.0,116650.0,0.014291942055600313,-0.399406742029603,0.04177781689274333,-0.10194949661018786,0.01077845160891251
90,90,117250.91010571398,2984.2668544793296,21.063363848947795,117392.69864360055,-1446.9634495956363,5.360630350317851,117423.81213723971,59422.54500072844,10.271705043103896,117501.7735237096,-664.9593161729564,11.874072253872532,117706.62049212494,10360.48059897916,32.7660940897671,0.9940598780585808,161.0,107.0,130.0,228.0,358.0,54.0,1096.0,1095.0,56.0,27.0,29.0,0.4821428571428571,38.3036195460616,2612.21984736811,11.0,9.0,2.0,0.8181818181818182,690.9068029592494,8752.241613841334,26.0,13.0,13.0,0.5,2501.8480093034573,57709.08664061218,30.0,16.0,14.0,0.5333333333333333,39.69990762735994,608.4929403270467,74.0,37.0,37.0,0.5,105.17437010822816,11444.578899956374,0.0,0.0,0.0,0.0,117225.0,117279.0,117386.0,117395.0,117411.0,117437.0,117486.0,117516.0,117671.0,117744.0,0.012835185797331955,-0.4774873913728283,0.04210267347641856,-0.05970276175066621,0.010151495300188218
91,91,118310.0349196983,2839.349998574981,20.73102264137046,118402.04118340374,-1143.7530531038797,66.24710042246546,118477.83675666046,55828.32273132145,10.266374079036655,118504.30135639945,-3936.05671382145,6.836875008342342,118757.36870877272,10758.47874046034,32.23571273217689,0.991443714328043,82.0,33.0,149.0,281.0,430.0,49.0,1067.0,1054.0,50.0,28.0,22.0,0.56,42.47940679382963,2003.5435468654257,63.0,37.0,26.0,0.5873015873015873,43.10873101459277,1154.5639008132694,25.0,13.0,12.0,0.52,2424.9559854221066,53405.40664391268,13.0,2.0,11.0,0.1538461538461538,1161.4644300007133,17881.88238484374,76.0,37.0,39.0,0.4868421052631579,96.32408779942246,11777.461245461498,0.0,0.0,0.0,0.0,118283.0,118332.0,118365.0,118427.0,118465.0,118490.0,118502.0,118514.0,118721.0,118795.0,0.014960961774754535,-0.03769059317271828,0.043435945534176505,-0.29508325576769123,0.008953318598582916
92,92,119329.79457440229,2646.6143695323676,18.420701894178126,119466.4757132769,-1640.1358788010343,10.191861601977484,119499.01498047244,57339.60037451534,10.347917847601847,119526.7260172996,-2396.347921055427,5.686045704713259,119782.9031566072,10011.83208147258,31.87411533794361,0.995092197851822,143.0,94.0,81.0,288.0,369.0,49.0,1012.0,1021.0,51.0,24.0,27.0,0.4705882352941176,46.04927434838508,2250.143511930718,21.0,16.0,5.0,0.7619047619047619,482.89035453710824,5331.99541629496,26.0,13.0,13.0,0.5,2446.7431476578186,56369.264632538325,6.0,2.0,4.0,0.3333333333333333,958.9736833163848,13737.502152819914,72.0,36.0,36.0,0.5,103.58222014903528,11073.038648836848,0.0,0.0,0.0,0.0,119307.0,119356.0,119450.0,119471.0,119486.0,119512.0,119525.0,119531.0,119748.0,119819.0,0.017399313960696723,-0.2944209444952261,0.04267108824750855,-0.40018132379292515,0.010345980566405984
93,93,120374.945252602,2651.7247479995576,20.62539273932858,120484.31516610416,-951.6665779845164,73.89099660619392,120547.66732471048,59799.2501920496,10.352394449491475,120651.46485542,-631.3728259339823,17.79553453595378,120833.52831345516,9806.199104508509,30.458995781598503,0.9952007934470288,86.0,37.0,235.0,192.0,427.0,49.0,1046.0,1049.0,49.0,20.0,29.0,0.4081632653061224,49.33293105861083,2331.92383097602,67.0,49.0,18.0,0.7313432835820896,41.655044600445414,959.0960375412104,26.0,13.0,13.0,0.5,2492.919645324481,57027.00899980204,54.0,29.0,25.0,0.5370370370370371,37.95712075663881,553.0491079318367,68.0,34.0,34.0,0.5,104.4481284859758,10728.798976075688,0.0,0.0,0.0,0.0,120355.0,120404.0,120441.0,120501.0,120535.0,120561.0,120622.0,120676.0,120800.0,120868.0,0.01860409195782,-0.04377062887788326,0.04168814219774144,-0.06011839470678722,0.010651234731503118
94,94,121451.945252602,2731.4739589751275,21.20573975532976,121597.12330450072,-1273.4504384317274,5.888050011616144,121629.32421902816,58279.907384294784,10.244204268213233,121698.20542559771,-512.3548503517443,33.11658212408948,121912.4322365322,10028.476615197971,32.68808608584874,0.9948660636107683,158.0,105.0,131.0,228.0,359.0,53.0,1077.0,1082.0,56.0,21.0,35.0,0.375,51.181394795154915,2856.7683540850753,12.0,8.0,4.0,0.6666666666666666,538.1064397398009,6607.485798837286,26.0,13.0,13.0,0.5,2456.476685421421,57897.66760240491,46.0,19.0,27.0,0.4130434782608695,35.81182876053981,551.6965768872856,75.0,37.0,38.0,0.4933333333333333,99.54212628253867,11106.233520229389,0.0,0.0,0.0,0.0,121432.0,121485.0,121590.0,121601.0,121616.0,121642.0,121680.0,121721.0,121877.0,121949.0,0.018737646986156372,-0.42255781889909017,0.04214963262078536,-0.06989653505954731,0.009925946891244122
95,95,122499.52059170186,2585.2330431748865,17.533073526947472,122609.7672007033,-1008.7382158636456,33.22637239502529,122674.65498957886,55527.52562955238,10.2152410101239,122701.30135639945,-3392.234388208232,5.686658044236801,122954.70793400888,10304.645096586331,33.84304373769918,0.9929228478320888,96.0,47.0,131.0,286.0,417.0,49.0,1048.0,1045.0,49.0,19.0,30.0,0.3877551020408163,53.17887684759675,2736.331604515788,67.0,46.0,21.0,0.6865671641791045,39.52720201928462,767.345353856665,25.0,13.0,12.0,0.52,2408.8805153197077,53088.279815368594,9.0,2.0,7.0,0.2222222222222222,1138.3426969863738,16432.42001273396,80.0,40.0,40.0,0.5,87.34034587271714,11182.405397185696,0.0,0.0,0.0,0.0,122481.0,122530.0,122577.0,122630.0,122662.0,122687.0,122699.0,122708.0,122917.0,122994.0,0.02057024491002504,-0.039184796806218794,0.04338173703957869,-0.33557312576730375,0.008475822801665511
96,96,123579.945252602,2728.6914610454623,20.45676295303012,123723.2739827004,-1240.667907631676,5.413814960224561,123754.68136524982,58414.33018009497,10.237981152207958,123834.82194810128,-603.2241722308013,12.110255368010446,124039.76729380808,9879.714102750531,32.32567820127102,0.9954732825033992,157.0,106.0,131.0,228.0,359.0,51.0,1080.0,1080.0,51.0,20.0,31.0,0.392156862745098,48.935615089199594,2871.536612727554,10.0,7.0,3.0,0.7,596.6049300222039,7481.310931038596,26.0,13.0,13.0,0.5,2469.8684247753913,56242.996175006694,31.0,17.0,14.0,0.5483870967741935,42.73989335926058,521.7758178988427,72.0,36.0,36.0,0.5,101.48789489358788,10939.515517384996,0.0,0.0,0.0,0.0,123560.0,123611.0,123717.0,123725.0,123742.0,123768.0,123822.0,123848.0,124005.0,124076.0,0.017933729697109307,-0.4808739924296659,0.04228189242537979,-0.07085242158185225,0.010272351389736416
97,97,124638.52059170186,2429.0741655324628,17.97799734707318,124782.12330450072,-1755.9716127090132,6.3232932101903945,124813.08775068643,58867.12483482298,10.278355802585356,124869.39728720114,-1010.5867582905362,20.383723206912453,125097.75960439336,9784.822948428297,30.53373161413749,0.9949881172652304,153.0,104.0,145.0,215.0,360.0,49.0,1059.0,1058.0,51.0,20.0,31.0,0.392156862745098,53.11335330037296,2369.576586090894,14.0,11.0,3.0,0.7857142857142857,662.0639060223468,8141.112248416143,26.0,13.0,13.0,0.5,2482.966483835523,58006.76257570691,64.0,11.0,53.0,0.171875,52.938070545189625,1146.77990649314,69.0,34.0,35.0,0.4927536231884058,104.035272175565,10705.23605167997,0.0,0.0,0.0,0.0,124620.0,124669.0,124773.0,124785.0,124800.0,124826.0,124858.0,124918.0,125065.0,125133.0,0.021865677900670562,-0.37703565435260783,0.042179170306050326,-0.05238349910178649,0.010632310132119032
98,98,125668.52059170186,2446.489402326547,18.277408780121213,125810.48075810776,-1775.8922597819444,10.191861603456228,125844.2243992138,57446.86041659802,10.335369151326685,125871.7260172996,-2911.762241512441,6.647723675614555,126124.63267903496,10155.565187027056,31.92914348482582,0.9939043090094556,95.0,45.0,133.0,283.0,416.0,50.0,1030.0,1031.0,51.0,20.0,31.0,0.392156862745098,50.29545792890154,2467.129814413307,71.0,65.0,6.0,0.9154929577464788,397.1902593491999,3975.158909525915,26.0,13.0,13.0,0.5,2464.2655502865164,56993.3205611047,8.0,2.0,6.0,0.25,984.0780832325784,14787.871837234485,75.0,38.0,37.0,0.5066666666666667,95.30879998325752,11115.048307082245,0.0,0.0,0.0,0.0,125650.0,125700.0,125745.0,125816.0,125831.0,125857.0,125870.0,125878.0,126089.0,126161.0,0.02055821614476314,-0.22365673208011475,0.042896435634879715,-0.3379664964408028,0.009384883876773997
99,99,126685.36991350216,2395.1591618673797,16.32765351984909,126820.027373699,-1879.6781773922949,17.8357578060484,126856.92761543872,55451.35855024208,10.247147160902006,126883.87669549928,-3956.564089965405,7.320395678429108,127135.12132586136,10482.717332031843,32.470094855776175,0.9912794750437892,91.0,43.0,137.0,280.0,417.0,48.0,1016.0,1013.0,48.0,21.0,27.0,0.4375,42.45289579350885,2212.961575006415,82.0,72.0,10.0,0.8780487804878049,220.73345331178413,996.1654357950006,26.0,13.0,13.0,0.5,2431.3247836466576,53907.63862156112,11.0,3.0,8.0,0.2727272727272727,1061.5298400674624,16341.75694749678,76.0,38.0,38.0,0.5,109.77778368588382,11665.265471001996,0.0,0.0,0.0,0.0,126664.0,126712.0,126755.0,126830.0,126844.0,126870.0,126881.0,126892.0,127098.0,127172.0,0.01772445709220032,-0.11743151352536896,0.04384608145251733,-0.2682958789318497,0.010472264033147006
100,100,127707.945252602,2479.5594672221923,16.59658722469884,127842.02737369902,-1738.439699126723,17.8357578060484,127879.14285629166,56674.298464715685,10.282645868576507,127906.30135639945,-3028.908437875891,5.822673503249649,128160.96695878176,9997.815826572414,31.29289503262372,0.994012108354729,97.0,52.0,127.0,285.0,412.0,45.0,1023.0,1022.0,47.0,21.0,26.0,0.4468085106382978,49.03604797425064,2358.0035990117867,71.0,61.0,10.0,0.8591549295774648,213.7223435893097,1042.580449383086,26.0,13.0,13.0,0.5,2444.9375193532155,56051.35480130545,9.0,2.0,7.0,0.2222222222222222,1078.6802481861362,15731.09587024435,72.0,36.0,36.0,0.5,103.91182276015792,10959.295291441578,0.0,0.0,0.0,0.0,127688.0,127733.0,127785.0,127852.0,127866.0,127892.0,127904.0,127912.0,128126.0,128197.0,0.01977611290330733,-0.12293917568533994,0.04314014616123367,-0.3561283777011733,0.010393452386268088
101,101,128786.79457440229,2600.29238724658,18.94222957400066,128927.2739827004,-1515.5613273588558,5.463681048344405,128957.810497565,59893.09261800806,10.324228236554566,129054.90406919828,-491.6910021479536,13.64113597910675,129241.22922139228,10238.45273895991,32.1560548829176,0.9955627720314688,155.0,105.0,153.0,205.0,358.0,50.0,1078.0,1079.0,52.0,24.0,28.0,0.4615384615384615,41.90362670276375,2305.114825620797,11.0,9.0,2.0,0.8181818181818182,694.6233841375389,8942.797136863252,26.0,13.0,13.0,0.5,2513.4830965007277,58195.134406890706,37.0,20.0,17.0,0.5405405405405406,39.30773256596253,391.1823873364872,73.0,36.0,37.0,0.4931506849315068,108.21232618320768,11398.152221124696,0.0,0.0,0.0,0.0,128764.0,128814.0,128919.0,128929.0,128945.0,128971.0,129035.0,129072.0,129206.0,129277.0,0.0161149672660985,-0.45832746692477816,0.041966159812976474,-0.07994397374417385,0.01056920698294893
102,102,129862.21923530244,2616.800632670658,19.774119707115748,129949.945252602,-646.4354875450091,35.6715156120957,130035.8427172676,58158.89583817096,10.28598309193445,130063.30135639945,-2559.286990314562,6.0100589140250165,130315.98362888295,10441.119505929752,32.93481922182272,0.9938165082339256,92.0,41.0,139.0,284.0,423.0,51.0,1075.0,1078.0,51.0,24.0,27.0,0.4705882352941176,39.9588986500723,2212.377653269618,34.0,20.0,14.0,0.5882352941176471,42.73804072837299,756.3383119474429,26.0,13.0,13.0,0.5,2480.3027358520826,56312.60263169665,9.0,2.0,7.0,0.2222222222222222,1052.235816940521,15477.250350428276,76.0,38.0,38.0,0.5,97.7186988160832,11575.09571058054,0.0,0.0,0.0,0.0,129838.0,129889.0,129930.0,129961.0,130023.0,130049.0,130061.0,130069.0,130280.0,130353.0,0.015270134893421739,-0.06611338880957905,0.042647005244969,-0.41114412761157,0.00935902503180684
103,103,130892.52059170186,2460.6704444372263,18.207742357643717,131032.87669549928,-1736.396535523943,12.739827004320285,131067.89111458031,56050.913962576895,10.296490632935395,131094.30135639946,-3676.6099918582418,5.997178099898017,131346.35025483163,10729.670530881544,33.10964768371613,0.9924404142251532,93.0,44.0,134.0,283.0,417.0,49.0,1032.0,1032.0,51.0,20.0,31.0,0.392156862745098,46.28620895132704,2533.909411083273,73.0,66.0,7.0,0.9041095890410958,338.25997638619515,3082.9423876078454,26.0,13.0,13.0,0.5,2442.323981798514,54664.4992291619,10.0,2.0,8.0,0.2,1172.778809008384,17232.14979777218,79.0,39.0,40.0,0.4936708860759494,101.0990034333651,11865.262690408215,0.0,0.0,0.0,0.0,130874.0,130923.0,130967.0,131040.0,131055.0,131081.0,131092.0,131101.0,131309.0,131384.0,0.01881040553641186,-0.19480571946898528,0.04357331235364267,-0.3189837408932339,0.009422377242841479
104,104,131941.79457440227,2734.593792392143,20.758078299291217,132054.0685571027,-731.1619228402006,34.8441670961555,132116.44903875902,58157.36747574319,10.328012460751038,132143.15067819977,-2532.1774205893253,5.008463413544978,132399.21552711478,10257.167740249197,31.422717088742857,0.9949724029357088,99.0,47.0,130.0,286.0,416.0,52.0,1048.0,1049.0,54.0,24.0,30.0,0.4444444444444444,43.47507046669684,2512.426343197807,48.0,37.0,11.0,0.7708333333333334,39.9420143794545,494.3286717733847,26.0,13.0,13.0,0.5,2462.894121103826,58161.21282827093,7.0,1.0,6.0,0.1428571428571428,1128.1786597782054,15853.049124203824,71.0,35.0,36.0,0.4929577464788732,108.84692111128128,11321.214681252475,0.0,0.0,0.0,0.0,131919.0,131971.0,132018.0,132065.0,132104.0,132129.0,132142.0,132148.0,132366.0,132434.0,0.015898182241050916,-0.054628137942823424,0.04234878963754803,-0.44553697170067935,0.010611791077976156
105,105,133024.2192353024,2787.59531768878,19.044926365750353,133167.2739827004,-1706.425796851564,5.963844665020644,133197.81349568532,59751.21043365356,10.392136627686506,133226.15067819977,-2058.402259219501,5.095930801519059,133481.86480792446,10027.153625660423,31.11031893617392,0.9956294171392666,158.0,106.0,72.0,287.0,359.0,52.0,1082.0,1081.0,52.0,24.0,28.0,0.4615384615384615,38.256851634993424,2469.787532898555,12.0,10.0,2.0,0.8333333333333334,707.5014865095183,8883.55935267781,26.0,13.0,13.0,0.5,2521.862931550765,58114.31349092486,5.0,1.0,4.0,0.2,966.6703556794954,13705.9610755755,70.0,35.0,35.0,0.5,108.09312588488622,11027.735917581213,0.0,0.0,0.0,0.0,133000.0,133052.0,133158.0,133169.0,133185.0,133211.0,133225.0,133230.0,133448.0,133517.0,0.013723961793246416,-0.41461016811565543,0.042206055965192314,-0.469621693888946,0.01078004086905239
106,106,134207.5139137066,3175.4000334498587,24.438924288509973,134344.2739827004,-1349.572180304261,5.49256518361308,134375.0153115083,58096.89483782408,10.280261281394878,134402.5753390999,-2505.2195563807313,2.5479654008640567,134657.18799885144,10331.59735271624,34.45122647760355,0.9945032367087108,159.0,103.0,70.0,288.0,358.0,56.0,1198.0,1177.0,58.0,31.0,27.0,0.5344827586206896,47.54881992530843,2921.9253475663136,9.0,7.0,2.0,0.7777777777777778,641.2921935047449,8298.005230305214,26.0,13.0,13.0,0.5,2462.4526365603133,57024.74248159865,5.0,1.0,4.0,0.2,953.6411189119998,13500.445773205523,77.0,38.0,39.0,0.4935064935064935,94.5858630690073,11434.457803892155,0.0,0.0,0.0,0.0,134178.0,134234.0,134337.0,134346.0,134362.0,134388.0,134402.0,134407.0,134621.0,134695.0,0.014974119614670984,-0.4751818412262807,0.04238527107918906,-0.38066169349632445,0.009155008643860874
107,107,135293.22057175107,2613.345901613154,18.379550954321186,135434.54796540082,-1562.3630581601926,6.444442274358856,135465.51978194367,55968.64939711977,10.172890271183196,135493.30135639946,-2895.712752866214,6.064539629089642,135747.24944772458,10043.985889143903,32.67557534957809,0.9942895526759272,157.0,106.0,74.0,285.0,359.0,51.0,1079.0,1091.0,51.0,25.0,26.0,0.4901960784313725,44.62859905494766,2325.3345196168584,13.0,10.0,3.0,0.7692307692307693,658.391791724564,8165.969091712992,25.0,13.0,12.0,0.52,2436.4580198498425,53366.65263897541,9.0,3.0,6.0,0.3333333333333333,995.278924623096,14604.561889479932,75.0,37.0,38.0,0.4933333333333333,96.32849350954648,11144.880885494547,0.0,0.0,0.0,0.0,135268.0,135319.0,135425.0,135438.0,135453.0,135478.0,135490.0,135499.0,135712.0,135784.0,0.017077187917374243,-0.42140768004324997,0.04353254984879493,-0.34370775334603065,0.00959066396276638
108,108,0.0,0.0,0.0,0.0,0.0,0.0,0.0,0.0,0.0,0.0,0.0,0.0,0.0,0.0,0.0,0.0,0.0,0.0,0.0,0.0,0.0,0.0,0.0,0.0,0.0,0.0,0.0,0.0,0.0,0.0,0.0,0.0,0.0,0.0,0.0,0.0,0.0,0.0,0.0,0.0,0.0,0.0,0.0,0.0,0.0,0.0,0.0,0.0,0.0,0.0,0.0,0.0,0.0,0.0,0.0,0.0,0.0,0.0,136374.0,136428.0,136532.0,136542.0,136558.0,136584.0,136333.0,,136821.0,136891.0,,,,,
109,109,137525.69989526828,2497.482111990101,18.9925414856429,137663.2739827004,-1407.9441112068191,5.4670134057501585,137693.8846761581,57698.33802104591,10.16664368274232,137767.054747398,-564.6060249695935,26.830775420934895,137974.31736451102,10663.032228667156,34.32945092246612,0.99267020638776,153.0,105.0,131.0,225.0,356.0,48.0,2225.0,2228.0,51.0,25.0,26.0,0.4901960784313725,40.83547069295938,2066.4209470497963,10.0,8.0,2.0,0.8,646.6035351659765,8163.618581833857,26.0,13.0,13.0,0.5,2460.4004996428985,56172.20253315265,47.0,23.0,24.0,0.4893617021276595,41.34784683521957,666.2974006270579,79.0,39.0,40.0,0.4936708860759494,97.54619211260682,11888.58597539637,0.0,0.0,0.0,0.0,137503.0,137551.0,137656.0,137665.0,137681.0,137707.0,137744.0,137787.0,137937.0,138012.0,0.016350655925387158,-0.45925369481586903,0.04264248475832092,-0.07323309530295277,0.009148072520155908
110,110,138574.52059170185,2514.8641686859155,16.993599476775003,138677.46584430386,-1098.7547192333604,35.710203221628795,138745.89362280077,55808.44424459458,10.218684468146948,138772.30135639946,-3355.7203867818844,5.645897982827221,139026.3049981043,10338.369404937848,33.010634649842466,0.9932840106723742,83.0,39.0,140.0,285.0,425.0,44.0,1050.0,1052.0,44.0,19.0,25.0,0.4318181818181818,46.76379029535265,2532.464502866549,60.0,41.0,19.0,0.6833333333333333,43.60787925318429,941.5283937657008,26.0,13.0,13.0,0.5,2415.9107933365894,54112.5983134387,10.0,2.0,8.0,0.2,1155.0491675062644,16740.58128751622,76.0,37.0,39.0,0.4868421052631579,92.64944804021118,11383.498531933375,0.0,0.0,0.0,0.0,138556.0,138600.0,138639.0,138696.0,138733.0,138759.0,138770.0,138779.0,138990.0,139064.0,0.01859495668896821,-0.03968845684104185,0.043289341353940115,-0.34420304267780477,0.008961708022926675
111,111,139651.31653233586,2517.282838100157,17.45271759985508,139788.12330450068,-1554.8306158781836,6.140718554908092,139819.94362898066,59725.97423209486,10.286514537377776,139897.54796540082,-293.2233984584093,7.504789401124719,140104.10909926676,10211.809731848763,31.06182570026161,0.9956491127545356,150.0,103.0,126.0,234.0,360.0,47.0,1078.0,1074.0,49.0,23.0,26.0,0.4693877551020408,43.45658678053707,2198.4874724283654,12.0,9.0,3.0,0.75,590.843535005855,7171.30143272983,26.0,13.0,13.0,0.5,2511.082099508551,58456.03785895482,18.0,10.0,8.0,0.5555555555555556,39.87113772129821,289.7903777440056,72.0,36.0,36.0,0.5,107.97445592038626,11133.373616300349,0.0,0.0,0.0,0.0,139629.0,139676.0,139779.0,139791.0,139807.0,139833.0,139889.0,139905.0,140070.0,140139.0,0.017263291245148527,-0.38000508156455404,0.042043384503875944,-0.13597529368705383,0.010573488809102437
112,112,140799.945252602,2485.177831177339,24.913149630382566,140942.12330450068,-1442.2606444744697,6.0711095398329755,140973.61017971736,57899.12582186003,10.314565587144685,141002.15067819977,-1776.2466068814642,5.095930801728113,141256.22412739697,10440.67586650213,33.916438207499304,0.9941589076452392,154.0,97.0,71.0,289.0,360.0,57.0,1147.0,1154.0,58.0,20.0,38.0,0.3448275862068966,51.2280239861299,2801.252786928645,11.0,8.0,3.0,0.7272727272727273,603.7649863230896,7481.370781438744,26.0,13.0,13.0,0.5,2457.751380131384,55598.86561552278,4.0,1.0,3.0,0.25,911.4550718754664,12713.068379891913,75.0,37.0,38.0,0.4933333333333333,103.47521321485104,11650.826886096374,0.0,0.0,0.0,0.0,140780.0,140837.0,140934.0,140945.0,140961.0,140987.0,141001.0,141005.0,141220.0,141294.0,0.020613423853801605,-0.41862404596298836,0.04244885126060834,-0.5131354330780102,0.009910777284719754
113,113,141902.36991350213,2361.153062739502,16.8931874402947,142043.12330450068,-1612.9451011104863,6.675090151045868,142073.50936263625,55926.11183207501,10.251683621459742,142100.30135639946,-3221.757680030762,5.739894950295251,142354.73741340268,10124.014776052858,33.14541894526866,0.993699491770234,152.0,104.0,73.0,286.0,359.0,48.0,1102.0,1100.0,48.0,21.0,27.0,0.4375,39.82685076075618,2213.6863823434555,18.0,15.0,3.0,0.8333333333333334,661.3024030487752,8448.087460914156,25.0,13.0,12.0,0.52,2427.5511905047806,53232.91866401388,9.0,2.0,7.0,0.2222222222222222,1123.38790876391,16267.261334731644,76.0,38.0,38.0,0.5,96.6028474857497,11189.912121059877,0.0,0.0,0.0,0.0,141881.0,141929.0,142033.0,142046.0,142061.0,142086.0,142098.0,142106.0,142318.0,142392.0,0.016867542976882453,-0.4099968452698603,0.04340640017660802,-0.34868789658730126,0.009541950463590012
114,114,143011.03584321248,2546.72639462404,18.725760709330405,143149.69864360054,-1553.6187222205572,5.722887534214623,143180.74071098352,59549.86836053456,10.311387180766486,143292.7260172996,-306.01980550060404,7.64389620259217,143464.8654557214,10279.672693783445,32.06364000260635,0.9948921157338512,154.0,105.0,156.0,204.0,360.0,49.0,1109.0,1107.0,51.0,25.0,26.0,0.4901960784313725,38.73488241976141,2219.4710131240854,12.0,9.0,3.0,0.75,700.5904565414355,8906.972593130467,26.0,13.0,13.0,0.5,2502.875500962635,57624.17720090901,31.0,21.0,10.0,0.6774193548387096,39.16433770156509,129.9334470666313,73.0,36.0,37.0,0.4931506849315068,101.99278464700797,11328.784141471118,0.0,0.0,0.0,0.0,142987.0,143036.0,143141.0,143152.0,143168.0,143194.0,143277.0,143297.0,143430.0,143501.0,0.015209675645380682,-0.4509410491269667,0.04202990820751107,-0.12797974836137782,0.009921793006959
115,115,144104.2192353024,2686.3919080094165,19.488097440659978,144244.12330450068,-1366.5462112861428,6.3810459759389575,144276.18220909545,57928.709485703854,10.291854624910494,144304.15067819977,-1899.0266517595103,5.095930801728113,144558.04027414415,10391.445513898712,33.690832429088864,0.9941458340243324,157.0,105.0,70.0,289.0,359.0,52.0,1092.0,1095.0,53.0,24.0,29.0,0.4528301886792453,39.374383172097474,2365.184749161694,12.0,8.0,4.0,0.6666666666666666,548.3807776760839,6684.77197558184,26.0,13.0,13.0,0.5,2463.356184873274,57364.59756896255,4.0,1.0,3.0,0.25,966.1196453069626,13607.755425746727,76.0,38.0,38.0,0.5,98.959143190101,11566.96850666953,0.0,0.0,0.0,0.0,144080.0,144132.0,144237.0,144248.0,144263.0,144289.0,144303.0,144307.0,144522.0,144596.0,0.014656976539686426,-0.40128959646375084,0.04252392650799863,-0.5087446479025564,0.009523135453844384
116,116,145219.9158208865,2764.036254469142,17.621083178562746,145363.2739827004,-1756.0237735099035,6.425035025746496,145392.7457263032,55352.87941628829,10.289153935546397,145418.7260172996,-3627.0007394693303,5.83463659608297,145673.16273826442,10434.39012198492,33.357987228221084,0.9922392179184858,156.0,107.0,74.0,286.0,360.0,49.0,1118.0,1117.0,50.0,24.0,26.0,0.48,37.412765008931245,2387.46595973441,14.0,12.0,2.0,0.8571428571428571,730.8251447750195,9371.697034681409,25.0,13.0,12.0,0.52,2416.776223444538,53534.467003385784,10.0,2.0,8.0,0.2,1142.918836404784,16721.267580071904,78.0,38.0,40.0,0.4871794871794871,98.76868927745836,11506.939776184478,0.0,0.0,0.0,0.0,145196.0,145245.0,145352.0,145365.0,145380.0,145405.0,145417.0,145426.0,145637.0,145712.0,0.01353555509571878,-0.41618180562229035,0.04366125572743684,-0.3151140345706148,0.009465688758306627
117,117,0.0,0.0,0.0,0.0,0.0,0.0,0.0,0.0,0.0,0.0,0.0,0.0,0.0,0.0,0.0,0.0,0.0,0.0,0.0,0.0,0.0,0.0,0.0,0.0,0.0,0.0,0.0,0.0,0.0,0.0,0.0,0.0,0.0,0.0,0.0,0.0,0.0,0.0,0.0,0.0,0.0,0.0,0.0,0.0,0.0,0.0,0.0,0.0,0.0,0.0,0.0,0.0,0.0,0.0,0.0,0.0,0.0,0.0,146355.0,146415.0,146517.0,146525.0,146541.0,146568.0,146216.0,,146805.0,146876.0,,,,,
118,118,147509.36991350213,2649.728697556828,21.768107603723607,147655.2739827004,-1475.8497610187069,5.600336159207011,147686.3782837115,59194.32753491239,10.327472714898674,147785.52818268962,-343.9295053777043,10.694705369459774,147970.17799067855,10348.514034458083,33.08127280315775,0.9943819257967482,159.0,106.0,151.0,209.0,360.0,53.0,2288.0,2294.0,53.0,21.0,32.0,0.3962264150943396,52.520037017355165,2736.1880373595604,10.0,8.0,2.0,0.8,643.3190730367426,8013.813931837283,26.0,13.0,13.0,0.5,2473.173348832016,59204.0187875495,29.0,13.0,16.0,0.4482758620689655,36.09035260211423,325.7189140475691,73.0,36.0,37.0,0.4931506849315068,113.76624920679636,11629.082092689376,0.0,0.0,0.0,0.0,147488.0,147541.0,147647.0,147657.0,147673.0,147699.0,147773.0,147798.0,147935.0,148007.0,0.019820911124139258,-0.43589739960569623,0.04178058019788055,-0.10493531970302958,0.010993486487816694
119,119,148596.57181373495,2712.749038709522,20.93699254667533,148676.65399596523,-376.5125273973841,30.57558481036858,148766.16946162604,56380.903718043315,10.229847917070176,148792.7260172996,-3017.710287508125,5.650235140098912,149045.81022296142,10846.319286784625,34.21347171085196,0.9935140959221987,92.0,40.0,136.0,286.0,422.0,52.0,1088.0,1079.0,53.0,27.0,26.0,0.5094339622641509,32.912875134769074,2334.89185289359,37.0,20.0,17.0,0.5405405405405406,39.28717999138244,518.0833291987583,26.0,13.0,13.0,0.5,2425.9142319610187,55555.75722960588,8.0,2.0,6.0,0.25,1067.8067943050526,15668.1415887877,78.0,39.0,39.0,0.5,89.44777081682896,11952.578473076012,0.0,0.0,0.0,0.0,148571.0,148623.0,148663.0,148693.0,148753.0,148779.0,148791.0,148799.0,149008.0,149085.0,0.0121326649332907,-0.10434494773109479,0.043027232129744394,-0.3538466892349677,0.008246831800886955
120,120,149625.52059170185,2331.577359763495,17.573069742891107,149764.4520345992,-1655.404007614154,15.287792405181111,149801.14242326556,56023.569718520775,10.27982193536939,149828.30135639946,-3250.942589225563,6.188970795091052,150084.32002782653,10116.655244130685,30.975300839035395,0.992673849079395,91.0,42.0,137.0,285.0,422.0,49.0,1029.0,1035.0,50.0,19.0,31.0,0.38,54.808933528197734,2351.169605457824,76.0,67.0,9.0,0.881578947368421,216.2750534612996,1439.1049069782168,26.0,13.0,13.0,0.5,2423.580448399399,55300.14633149773,9.0,2.0,7.0,0.2222222222222222,1082.4294766483558,15907.533994538171,71.0,35.0,36.0,0.4929577464788732,98.73034862310352,11104.740119243726,0.0,0.0,0.0,0.0,149607.0,149656.0,149698.0,149773.0,149788.0,149814.0,149826.0,149835.0,150050.0,150120.0,0.023507233546716765,-0.1306478977135046,0.04326001467911085,-0.33295865643269057,0.009759188807030196
121,121,150775.79457440227,2378.8092790797787,21.07051921442531,150919.12330450068,-1812.176536272494,6.625556907896526,150950.47021497355,59520.250074926174,10.27734097856634,151025.39728720114,-358.73811018265445,11.656215879493274,151236.7535859095,9821.642965055706,30.189671570431138,0.9941114386087608,155.0,99.0,135.0,228.0,363.0,56.0,1149.0,1150.0,57.0,23.0,34.0,0.4035087719298245,36.88488552838795,2197.2425178667436,15.0,12.0,3.0,0.8,639.3035972803497,7631.716146564789,26.0,12.0,14.0,0.4615384615384615,2495.780650803689,59770.79346173435,35.0,16.0,19.0,0.4571428571428571,32.89002516288213,353.02576677906245,68.0,34.0,34.0,0.5,103.5265236592118,10656.42355149705,0.0,0.0,0.0,0.0,150753.0,150809.0,150908.0,150922.0,150938.0,150964.0,151014.0,151043.0,151203.0,151271.0,0.015505608563397121,-0.35278218456318133,0.04193162239173916,-0.09168255122416714,0.010540652315253921
122,122,151978.02405458473,3670.866736591739,21.294195007539408,152116.84932180023,-2034.42225473255,5.095930801728113,152147.6475033355,58495.85244571603,10.193643967105617,152201.63033220833,758.9113617910946,147.10868696971872,152433.9432834328,10046.326041262806,32.27943091843621,0.9956195135715388,160.0,103.0,413.0,-53.0,360.0,57.0,1212.0,1197.0,57.0,28.0,29.0,0.4912280701754385,44.27790300491715,3543.897193429306,10.0,8.0,2.0,0.8,700.026128600754,9160.587842622044,26.0,13.0,13.0,0.5,2479.555858647693,56946.50994604085,341.0,24.0,317.0,0.0703812316715542,51.123273755692736,2.6133926961063025,75.0,38.0,37.0,0.5066666666666667,100.9960733738013,11216.445710696911,0.0,0.0,0.0,0.0,151950.0,152007.0,152110.0,152118.0,152135.0,152161.0,152119.0,152523.0,152397.0,152470.0,0.012061975054432924,-0.3440908724687447,0.04238857551394286,0.0673639588621226,0.01005303560316327
123,123,153156.42741489524,3516.1060321480413,21.208489193651346,153292.12330450068,-1482.2775066470676,5.9805001626856455,153322.9001298285,55538.10139085545,10.212530847798806,153349.15067819977,-3039.7463280885586,5.095930801728102,153606.03846313714,10147.105189978322,35.87311337227897,0.9919215959392174,155.0,103.0,71.0,291.0,362.0,52.0,1179.0,1175.0,54.0,28.0,26.0,0.5185185185185185,54.39492594083239,3384.0306941767494,11.0,8.0,3.0,0.7272727272727273,621.3982051594717,7710.212493691164,26.0,13.0,13.0,0.5,2410.046884011617,54080.34123335402,8.0,1.0,7.0,0.125,1140.8996562396655,16116.436848042458,80.0,39.0,41.0,0.4875,96.93242526762582,11363.520972822404,0.0,0.0,0.0,0.0,153129.0,153181.0,153284.0,153295.0,153310.0,153336.0,153348.0,153355.0,153568.0,153646.0,0.015470217747558005,-0.4192185352424885,0.043394477370600926,-0.3753272586259136,0.009552717100376576
124,124,154286.01556892926,2920.100855532466,18.82626537313361,154426.69864360054,-1658.361360155816,7.274748255872091,154457.2909744353,55497.46260152448,10.2168309172523,154484.30135639946,-2979.39636776814,5.749758350011319,154741.37709072404,10009.927250892892,33.54414239420166,0.9939637164922044,154.0,106.0,75.0,289.0,364.0,48.0,1131.0,1135.0,50.0,26.0,24.0,0.52,44.0086588066376,2603.5517056905537,17.0,14.0,3.0,0.8235294117647058,679.9547382857952,8615.821666368549,25.0,12.0,13.0,0.48,2403.7294188936107,55230.228225340805,8.0,2.0,6.0,0.25,1079.8667842997302,15554.277059477175,76.0,37.0,39.0,0.4868421052631579,101.2346401344174,11164.562516896916,0.0,0.0,0.0,0.0,154261.0,154309.0,154415.0,154429.0,154445.0,154470.0,154482.0,154490.0,154706.0,154779.0,0.015070937951769078,-0.41001602824483807,0.043312420175901555,-0.36244482136784517,0.010113424163535976
125,125,155390.86067249012,2892.714505627768,19.73617626232997,155531.69864360054,-1662.0183737620089,5.734992840172345,155562.54984118714,59743.710318451536,10.331068575880623,155651.67126990156,-637.2038805695495,14.708962239945466,155849.17007545428,10039.94260174118,31.566659895026817,0.995865515819326,158.0,105.0,152.0,209.0,361.0,53.0,1094.0,1105.0,54.0,27.0,27.0,0.5,33.61079263749161,2505.731987506757,13.0,11.0,2.0,0.8461538461538461,729.7630358779886,9284.293338496627,26.0,13.0,13.0,0.5,2503.0039590169868,57225.33561538455,42.0,19.0,23.0,0.4523809523809524,37.4426342537531,667.6474773415737,71.0,35.0,36.0,0.4929577464788732,104.78379962904836,11008.729462561569,0.0,0.0,0.0,0.0,155365.0,155418.0,155523.0,155534.0,155550.0,155576.0,155636.0,155675.0,155815.0,155884.0,0.011619118503434027,-0.4390824117221741,0.04189568986718836,-0.058760838399612214,0.010436693095324688
126,126,156466.79457440227,2660.758146567998,18.864345777692694,156609.69864360054,-1443.2495099046027,5.714073682424077,156640.8855763236,57811.679583362005,10.18404292688272,156720.77037256872,-655.2256312020094,15.475088057717796,156923.49296896765,10475.786395603624,33.12722830427043,0.9936081987031816,158.0,106.0,133.0,226.0,359.0,52.0,1075.0,1078.0,53.0,23.0,30.0,0.4339622641509434,43.446228939353176,2389.0438192408856,12.0,10.0,2.0,0.8333333333333334,648.747463991135,8215.183465310049,26.0,13.0,13.0,0.5,2456.5178500123156,56278.9228546083,35.0,17.0,18.0,0.4857142857142857,36.035512941589495,658.8177710358475,76.0,37.0,39.0,0.4868421052631579,102.015232150023,11645.101425534624,0.0,0.0,0.0,0.0,156444.0,156496.0,156602.0,156612.0,156628.0,156654.0,156705.0,156735.0,156886.0,156961.0,0.016328514861597875,-0.4495047180262105,0.04249172256741167,-0.054997105158237566,0.00973819322937281
127,127,158559.73691475825,2838.935044407105,17.782278526355856,158691.4520345992,-1357.2745949786065,15.28779240518434,158728.08209201277,55747.37322311648,10.28458327943885,158754.7260172996,-3581.2821131482183,5.643878398346934,159010.67967132814,10158.505125622734,33.77649221979467,0.9933784068044426,97.0,49.0,128.0,288.0,416.0,48.0,2102.0,2087.0,48.0,24.0,24.0,0.5,44.88768362635944,2533.323442046845,72.0,63.0,9.0,0.875,221.8440790897157,1588.313304702706,26.0,13.0,13.0,0.5,2403.5295319481497,54772.8762668437,8.0,2.0,6.0,0.25,1091.9773276691883,15828.820784330945,78.0,39.0,39.0,0.5,99.43125843777464,11276.458996259124,0.0,0.0,0.0,0.0,158536.0,158584.0,158633.0,158700.0,158715.0,158741.0,158753.0,158761.0,158975.0,159049.0,0.015811451450709033,-0.16344819236317648,0.04311466878140709,-0.30491240096951133,0.009787981322860172
128,128,159626.5579147845,2585.8564840605295,17.40147722348565,159763.12330450068,-1412.7168597860914,5.660874775256449,159794.54601493815,59936.44869042528,10.34855469169738,159876.0959308017,-696.2385187877641,13.914303301096735,160081.3095392205,9774.072375425898,30.77644484171004,0.9961845011907232,150.0,104.0,140.0,221.0,361.0,46.0,1062.0,1067.0,47.0,23.0,24.0,0.4893617021276595,46.8586312949684,2251.252281405529,11.0,8.0,3.0,0.7272727272727273,633.306538631947,7985.2525780987935,26.0,13.0,13.0,0.5,2510.43466368573,57380.25089044413,37.0,18.0,19.0,0.4864864864864865,37.5001063233251,671.8374672951998,70.0,34.0,36.0,0.4857142857142857,97.70606939184324,10757.584902851817,0.0,0.0,0.0,0.0,159605.0,159651.0,159755.0,159766.0,159782.0,159808.0,159859.0,159895.0,160048.0,160116.0,0.01812112605003779,-0.4482897859149497,0.041884941776451405,-0.05386100497372272,0.009996454460220402
129,129,160681.51505596345,2616.7587278480023,18.358771714640483,160780.77443592888,-629.1864065608412,35.6715156120968,160848.5503344454,59820.750341650215,10.341049187321376,160929.4285816175,-541.6847163809604,18.354696352427787,161134.4561149284,9895.090346960984,31.155920615748503,0.9963104059993028,86.0,41.0,205.0,220.0,425.0,45.0,1052.0,1054.0,47.0,23.0,24.0,0.4893617021276595,48.119969821100995,2283.8502452362327,57.0,44.0,13.0,0.7719298245614035,39.18406349375576,320.89906625094136,26.0,13.0,13.0,0.5,2496.3422309325124,57206.23883016434,53.0,28.0,25.0,0.5283018867924528,37.7201199980002,464.8095925686541,71.0,35.0,36.0,0.4929577464788732,97.6609697713884,10828.752295855544,0.0,0.0,0.0,0.0,160659.0,160704.0,160745.0,160791.0,160836.0,160862.0,160911.0,160950.0,161100.0,161170.0,0.018389150405423278,-0.062277352284098864,0.04173037310089428,-0.0696348242018187,0.009869639017634881
130,130,161717.79457440227,2593.802153761713,18.22632205821539,161853.0008122938,-1243.1307360740764,12.739827004311586,161886.40264337455,57895.0983549981,10.375544414476982,161913.7260172996,-2530.127997466551,5.95047453840497,162169.5855412791,9812.521429850722,32.435265240837474,0.9953479039788165,97.0,49.0,127.0,288.0,415.0,48.0,1035.0,1038.0,50.0,24.0,26.0,0.48,42.36050711161776,2290.8201140647125,66.0,61.0,5.0,0.9242424242424242,445.3472226646242,5184.573162824261,25.0,12.0,13.0,0.48,2467.487156916737,58056.42875341029,8.0,2.0,6.0,0.25,1000.5024451363404,14643.94373421332,74.0,37.0,37.0,0.5,92.9735091456232,10744.711185938351,0.0,0.0,0.0,0.0,161695.0,161743.0,161792.0,161858.0,161874.0,161899.0,161912.0,161919.0,162134.0,162207.0,0.0163314333940943,-0.35824648988333485,0.04261996657794292,-0.39543550608433886,0.009474986608720976
131,131,164677.48322724577,2354.734406291109,15.336322481330535,164810.4520346052,-1949.372094318105,15.28779240518434,164846.05068148536,55532.23661900645,10.301790922619276,164872.30135639946,-4345.456645579308,6.968971762163239,165128.3781769768,9407.635205607248,31.061596003509724,0.9941262095609856,90.0,48.0,134.0,283.0,417.0,42.0,2961.0,2959.0,42.0,20.0,22.0,0.4761904761904761,50.618987258933394,2198.818719188125,79.0,70.0,9.0,0.8860759493670886,265.3006964428842,1633.7012589645735,26.0,13.0,13.0,0.5,2433.722553043732,54430.65746205406,12.0,2.0,10.0,0.1666666666666666,1197.435826207915,18165.224708391022,71.0,35.0,36.0,0.4929577464788732,100.68567685057978,10445.364824882843,0.0,0.0,0.0,0.0,164657.0,164699.0,164747.0,164819.0,164833.0,164859.0,164870.0,164881.0,165095.0,165164.0,0.021496686472875837,-0.13609546233690548,0.043825401266311806,-0.2755604126038359,0.010702549009401208
132,132,165715.11574906376,2912.420199167043,20.246842336234433,165851.69864360054,-1358.499211967854,6.61940046436102,165883.57045083406,59833.85697222174,10.347795158223104,165958.945252602,-568.5134043471647,15.686236232384942,166169.8672510281,9698.421718819916,31.33599832512192,0.997114100522283,148.0,99.0,141.0,224.0,365.0,49.0,1037.0,1038.0,52.0,25.0,27.0,0.4807692307692308,43.0548244874406,2590.3489748073744,17.0,14.0,3.0,0.8235294117647058,620.6755972641284,8112.362765773267,26.0,13.0,13.0,0.5,2510.662582752082,57427.89978053352,42.0,20.0,22.0,0.4761904761904761,36.94249483901447,614.1946744933819,69.0,34.0,35.0,0.4927536231884058,102.50527576367382,10702.020371052771,0.0,0.0,0.0,0.0,165692.0,165741.0,165840.0,165854.0,165871.0,165897.0,165939.0,165981.0,166136.0,166205.0,0.014783177406802201,-0.4568832957694902,0.04196056730753081,-0.06498086862426097,0.010569273922659083
133,133,166755.10308796927,2794.338689426223,19.17448677558832,166890.54796540082,-1277.7060890215223,7.710426623701904,166922.93976515302,59726.9284080887,10.416548376923132,166951.15067819977,-2069.9695986953557,5.095930801728113,167206.7633405778,9709.622414782196,32.07744777081697,0.9962573651556188,146.0,98.0,77.0,288.0,365.0,48.0,1040.0,1039.0,50.0,24.0,26.0,0.48,48.39965437053488,2558.1620891460693,16.0,13.0,3.0,0.8125,587.7642402452841,7688.289100430378,26.0,13.0,13.0,0.5,2513.650825928508,58526.17423009976,5.0,1.0,4.0,0.2,973.591507673194,13905.83747763045,73.0,36.0,37.0,0.4931506849315068,104.69608931874888,10757.743099340538,0.0,0.0,0.0,0.0,166732.0,166780.0,166878.0,166894.0,166910.0,166936.0,166950.0,166955.0,167172.0,167243.0,0.017320611332362523,-0.46001521421518676,0.04208572067784569,-0.4703409693972422,0.010782714800459869
134,134,167767.945252602,2418.947221173886,15.31147798417266,167902.87669549932,-1916.4231478120169,12.739827004320285,167937.0117585794,55943.67082328958,10.208056575256078,167963.7260172996,-2999.0032905646344,5.654289394164044,168216.07423010207,10174.189320035972,33.777607752160556,0.9919773271302034,90.0,46.0,132.0,284.0,416.0,44.0,1013.0,1014.0,44.0,20.0,24.0,0.4545454545454545,52.81031806539684,2192.727442060237,73.0,66.0,7.0,0.9041095890410958,386.8413856111599,3451.447491640908,26.0,13.0,13.0,0.5,2450.575442880659,55049.228484928615,8.0,2.0,6.0,0.25,1045.1805086293682,15277.413322906858,77.0,38.0,39.0,0.4935064935064935,94.06753324707095,11278.842984397164,0.0,0.0,0.0,0.0,167748.0,167792.0,167838.0,167910.0,167924.0,167950.0,167962.0,167970.0,168179.0,168254.0,0.021831943087939152,-0.20185593461069248,0.04380433759202791,-0.3485092903757994,0.009245703051920245
135,135,169913.45132446595,2589.384184457185,17.36390561411332,170047.69864360054,-1258.9103545031014,6.4268759752686755,170080.6379353591,59296.03262619675,10.29646035453046,170192.7260172996,-308.5836043838397,7.64389620259217,170366.24037064565,9638.040381118975,31.539347646728135,0.9959681891883831,149.0,106.0,155.0,204.0,359.0,43.0,2147.0,2144.0,43.0,20.0,23.0,0.4651162790697674,49.496325672968965,2553.9638311233803,12.0,8.0,4.0,0.6666666666666666,524.334564142927,6403.304983461676,26.0,13.0,13.0,0.5,2492.5484028690144,56996.952266749046,30.0,18.0,12.0,0.6,36.51493319438723,160.66146972440265,71.0,35.0,36.0,0.4929577464788732,106.5827021453723,10711.057333914996,0.0,0.0,0.0,0.0,169893.0,169936.0,170042.0,170052.0,170068.0,170094.0,170179.0,170197.0,170333.0,170401.0,0.01911509538448229,-0.4164987302450814,0.04203566904015458,-0.1183307624761787,0.01105854488368496
136,136,171005.6419097809,2724.334408004876,17.473616255727837,171142.2739827004,-1320.099247444258,5.453480612922019,171173.3361095912,59397.077703193405,10.337201966719965,171266.20231577137,-376.262107808134,9.033535962039984,171457.75524979565,9724.955947842556,33.112196493768415,0.995438975518404,151.0,107.0,139.0,220.0,359.0,44.0,1094.0,1093.0,45.0,22.0,23.0,0.4888888888888889,52.72722695098467,2458.1252334172113,9.0,7.0,2.0,0.7777777777777778,639.5205533303871,8211.202368897419,26.0,13.0,13.0,0.5,2482.8925888079734,59219.70570684887,29.0,16.0,13.0,0.5517241379310345,38.48502473827343,299.93999415979374,74.0,37.0,37.0,0.5,101.13194612290376,10844.647226465411,0.0,0.0,0.0,0.0,170984.0,171028.0,171135.0,171144.0,171160.0,171186.0,171252.0,171274.0,171423.0,171494.0,0.019354168414882165,-0.48444884319759546,0.04180159504167802,-0.10228248856219656,0.010399218944054907
137,137,172084.78077679646,2885.8633680466223,16.921383595157348,172219.2739827004,-1001.0876473139396,5.05765366004996,172250.54738236644,56533.23207869294,10.232808096532263,172278.15067819977,-2000.356557954609,4.957505000222801,172530.63287810909,10436.677192635649,35.5805594679827,0.9936223108261956,150.0,107.0,67.0,289.0,356.0,43.0,1081.0,1077.0,43.0,21.0,22.0,0.4883720930232558,58.11817996376022,2744.5015645126846,7.0,5.0,2.0,0.7142857142857143,572.5233909915071,7315.484969939915,25.0,13.0,12.0,0.52,2428.5377655281113,54067.91072671995,4.0,1.0,3.0,0.25,991.3538386132852,13789.114483140156,81.0,40.0,41.0,0.4938271604938271,95.456186051758,11731.94438392914,0.0,0.0,0.0,0.0,172064.0,172107.0,172214.0,172221.0,172238.0,172263.0,172277.0,172281.0,172493.0,172570.0,0.020138922932827253,-0.5719013640091042,0.04295770250934253,-0.49558856628388176,0.009146223868944994
138,138,173136.05658201026,2542.1830689962585,16.403160822259373,173234.93518252243,-754.675103768614,41.826399108838835,173301.20393893233,55836.58062197644,10.200977806226826,173328.7260172996,-2274.194644692408,5.131599803045918,173583.90124579403,9903.01183384345,33.48234324174427,0.9933760847712032,79.0,38.0,139.0,288.0,427.0,41.0,1050.0,1050.0,41.0,21.0,20.0,0.5121951219512195,59.57507682931141,2311.7159149366867,58.0,42.0,16.0,0.7241379310344828,39.97829695831574,717.5061513249614,26.0,13.0,13.0,0.5,2392.936448893904,55033.74255153348,6.0,2.0,4.0,0.3333333333333333,943.4807923230168,13291.998369043298,76.0,38.0,38.0,0.5,95.08260853178744,10965.277427192495,0.0,0.0,0.0,0.0,173115.0,173156.0,173194.0,173251.0,173288.0,173314.0,173327.0,173333.0,173548.0,173621.0,0.023434613170023866,-0.052974182875089544,0.042856070737828815,-0.4148636945060723,0.009601382905233288
