Unnamed: 0,cycle,p_center,p_height,p_width,q_center,q_height,q_width,r_center,r_height,r_width,s_center,s_height,s_width,t_center,t_height,t_width,r_squared,pr_interval,pr_segment,qrs_duration,st_segment,qt_interval,p_duration,pp_interval,rr_interval,fwhm_p,rise_time_p,decay_time_p,rise_decay_symmetry_p,sharpness_deriv_p,sharpness_diff_p,fwhm_q,rise_time_q,decay_time_q,rise_decay_symmetry_q,sharpness_deriv_q,sharpness_diff_q,fwhm_r,rise_time_r,decay_time_r,rise_decay_symmetry_r,sharpness_deriv_r,sharpness_diff_r,fwhm_s,rise_time_s,decay_time_s,rise_decay_symmetry_s,sharpness_deriv_s,sharpness_diff_s,fwhm_t,rise_time_t,decay_time_t,rise_decay_symmetry_t,sharpness_deriv_t,sharpness_diff_t,Average_Heart_Rate,SDNN,RMSSD,NN50,p_on,p_off,q_on,q_off,r_on,r_off,s_on,s_off,t_on,t_off,sharpness_deriv_p_norm,sharpness_deriv_q_norm,sharpness_deriv_r_norm,sharpness_deriv_s_norm,sharpness_deriv_t_norm
0,0,,,,,,,,,,,,,,,,,,,,,,,,,,,,,,,,,,,,,,,,,,,,,,,,,,,,,,,64.76740942477726,338.41904244317357,469.0702804673504,450.0,,,,,,,,,,,,,,,
1,1,2132.1199790319774,1424.6319316656898,16.873536792725425,2229.547965400863,-2111.090752850868,10.293033329902732,2258.865065136788,32502.007428759796,10.63443152438468,2283.1780518987043,-9962.121987564202,13.797315985665405,2515.2162446805596,9639.764259508818,34.68959452410724,0.9805084988314628,106.0,61.0,84.0,257.0,341.0,45.0,,,45.0,22.0,23.0,0.4888888888888889,25.846862108887407,1391.1534217304638,19.0,16.0,3.0,0.8421052631578947,522.7672973691763,5624.863208875939,25.0,14.0,11.0,0.56,1494.5573471040889,26235.88046042424,23.0,5.0,18.0,0.217391304347826,1007.744565470036,19100.26400103904,84.0,41.0,43.0,0.4880952380952381,60.79613796144437,10207.81036854597,,,,,2110.0,2155.0,2216.0,2233.0,2245.0,2270.0,2278.0,2300.0,2475.0,2557.0,0.01814283502593338,-0.24762900252545691,0.045983539643819404,-0.10115762151156267,0.006306807544746137
2,2,3194.9554413763335,1183.4998280181685,12.57050478643029,3290.9726263010075,-2694.3780937009747,17.83575780604515,3319.693941418772,34562.920310081165,10.67469456726605,3344.1780518987043,-10640.859936390592,17.087213623466518,3574.255709883297,10091.901894756513,33.96840249326771,0.9772156223101808,94.0,60.0,90.0,253.0,343.0,34.0,1058.0,1061.0,37.0,18.0,19.0,0.4864864864864865,34.22264504538745,1092.4993753575786,23.0,19.0,4.0,0.8260869565217391,546.2412872911427,4862.463493767196,23.0,13.0,10.0,0.5652173913043478,1498.759847397413,25501.647379437083,26.0,5.0,21.0,0.1923076923076923,1022.5839910028558,20474.69306370313,84.0,41.0,43.0,0.4880952380952381,65.52124908948251,10552.82074754699,,,,,3179.0,3213.0,3273.0,3295.0,3307.0,3330.0,3339.0,3363.0,3534.0,3616.0,0.02891647656822649,-0.20273371750170013,0.043363229552112276,-0.09609975106482972,0.006492457989858743
3,3,4186.842977948073,1721.1519430340586,17.201473843122226,4284.547965400863,-2379.6653781682453,12.7588929037727,4313.366863291824,34050.270625071855,10.737635297823076,4337.602712798849,-10410.30667562183,15.041145142844556,4568.878571992279,9593.291158990764,34.1810342897704,0.9803256437783916,104.0,58.0,86.0,255.0,341.0,46.0,991.0,993.0,47.0,22.0,25.0,0.4680851063829787,28.83575893887291,1628.8295677527967,21.0,18.0,3.0,0.8571428571428571,575.8928953582101,6124.588345095429,24.0,13.0,11.0,0.5416666666666666,1517.005973340633,27881.653871735183,23.0,5.0,18.0,0.217391304347826,1002.7449466881714,19664.988517028854,83.0,41.0,42.0,0.4939759036144578,63.65881435700109,10119.98156905425,,,,,4165.0,4211.0,4269.0,4288.0,4300.0,4324.0,4333.0,4355.0,4529.0,4610.0,0.016753755562127208,-0.24200583016487193,0.04455195055699889,-0.09632232535822728,0.00663576381681489
4,4,5210.055968407502,1748.4259683826456,18.233430790043062,5307.123304500719,-2168.9990395957825,10.876415569307714,5336.227133396541,32630.504996761814,10.6713787308192,5360.602712798849,-9918.475082308652,14.513271991051385,5592.714947573309,9701.560399717671,35.01084052053701,0.9795173175253816,106.0,56.0,84.0,258.0,342.0,50.0,1025.0,1023.0,51.0,24.0,27.0,0.4705882352941176,30.845888779626467,1634.9252690461649,19.0,16.0,3.0,0.8421052631578947,502.0359386511435,5194.693295086642,24.0,13.0,11.0,0.5416666666666666,1476.900822118608,26807.59709257754,22.0,5.0,17.0,0.2272727272727272,963.9375168701353,18653.15951334136,85.0,42.0,43.0,0.4941176470588235,66.4526973526485,10302.92059260491,,,,,5187.0,5237.0,5293.0,5310.0,5323.0,5347.0,5356.0,5377.0,5552.0,5635.0,0.01764209027858353,-0.2314597330318337,0.04526135351767227,-0.09718606024322102,0.006849691659352279
5,5,6164.755841836418,1028.7120958886014,11.781022771460387,6257.970589186611,-2815.40432615708,20.383723206912453,6290.738796459289,35562.51122605899,10.525410343548256,6315.178051898705,-10789.90355790653,19.02731979261963,6544.926300780037,9520.279055216906,32.54821510306492,0.9716653803304698,95.0,59.0,92.0,251.0,343.0,36.0,953.0,955.0,37.0,18.0,19.0,0.4864864864864865,33.45379412176686,916.297061136978,24.0,15.0,9.0,0.625,337.3287667887764,687.6578790110424,23.0,13.0,10.0,0.5652173913043478,1515.9847731791524,25567.777717415047,27.0,5.0,22.0,0.1851851851851851,1030.1282468289526,21159.33006401147,82.0,41.0,41.0,0.5,60.88972015678107,9818.674341255435,,,,,6148.0,6184.0,6243.0,6267.0,6278.0,6301.0,6310.0,6335.0,6505.0,6586.0,0.03252007462094579,-0.1198153898020102,0.042628732362080514,-0.09547149715477339,0.006395791531280254
6,6,7074.232255175821,1033.795613956681,11.933054219744728,7168.963995223331,-2561.9714027368127,20.383723206912453,7201.3977677142475,35031.84415362226,10.497995251730558,7226.178051898705,-10527.9661081554,17.381635619464905,7456.249701722846,9220.557769665282,32.64348999366412,0.9740323210779388,92.0,57.0,95.0,253.0,348.0,35.0,911.0,910.0,36.0,17.0,19.0,0.4722222222222222,28.919933735783477,968.5753058385416,28.0,20.0,8.0,0.7142857142857143,342.39525321381575,1402.637556689698,24.0,13.0,11.0,0.5416666666666666,1520.235717238736,27431.524501349977,25.0,5.0,20.0,0.2,1015.7806191078196,20514.02548277099,82.0,40.0,42.0,0.4878048780487805,59.203163865307424,9592.797831976544,,,,,7057.0,7092.0,7149.0,7177.0,7188.0,7212.0,7221.0,7244.0,7417.0,7497.0,0.02797451773382674,-0.13364522837688733,0.04339582325646836,-0.09648403202219218,0.0064207790183886644
7,7,8044.887839757664,1611.0920631211843,15.811622883362489,8142.972626301007,-2226.4727449833013,16.84525937999521,8172.3689210002685,33511.55202295979,10.670525743853306,8196.60271279885,-10276.368325032245,15.349004004506163,8427.695002506993,9682.731080147663,34.82186552176437,0.9776271312377542,103.0,59.0,87.0,256.0,343.0,44.0,972.0,971.0,45.0,22.0,23.0,0.4888888888888889,31.73218864298591,1529.8011505612922,21.0,17.0,4.0,0.8095238095238095,498.63143756217136,4638.816770704482,24.0,13.0,11.0,0.5416666666666666,1479.811470761436,27033.23267536683,24.0,5.0,19.0,0.2083333333333333,982.585962143926,19323.877152369256,85.0,42.0,43.0,0.4941176470588235,64.00687824308783,10139.101800448878,,,,,8024.0,8068.0,8127.0,8147.0,8159.0,8183.0,8192.0,8214.0,8387.0,8470.0,0.01969607409120422,-0.2239557787921231,0.044158249362714445,-0.09561607087889612,0.006610415771467621
8,8,8948.16160491095,911.0381689097014,10.190674498803451,9042.45203459914,-3196.45535339491,15.28779240518434,9075.24175290797,35424.39839211111,10.434239785945795,9100.178051898703,-10824.217907124928,19.060309093694936,9327.828497344566,9464.886781123672,32.339380635682325,0.9695111494473784,86.0,54.0,101.0,248.0,349.0,32.0,905.0,903.0,32.0,15.0,17.0,0.46875,36.970949073502375,900.7808412797084,40.0,31.0,9.0,0.775,311.7940345006214,301.2915885844352,24.0,13.0,11.0,0.5416666666666666,1538.6201918528086,27019.246925164414,27.0,6.0,21.0,0.2222222222222222,1015.4209640922644,21167.17171781352,82.0,41.0,41.0,0.5,63.26604409567362,9780.62411903637,,,,,8933.0,8965.0,9019.0,9051.0,9062.0,9086.0,9095.0,9120.0,9289.0,9368.0,0.04058111979846894,-0.09754368512279371,0.04343391170181324,-0.09381009998180785,0.006684289580922242
9,9,9880.971563999718,1378.337029432918,14.791443140189376,9980.54796449812,-2552.473853912006,15.28779240518434,10009.040118808904,34756.95873064712,10.795191509061157,10033.60271279885,-10704.908524744716,15.249830749540616,10263.472884933128,9266.487166319106,34.06231099481005,0.9794684540920884,101.0,60.0,89.0,254.0,343.0,41.0,930.0,934.0,43.0,20.0,23.0,0.4651162790697674,29.530528230316637,1347.9726538380771,30.0,27.0,3.0,0.9,598.6632326705803,6461.990200933475,24.0,13.0,11.0,0.5416666666666666,1535.4740924693897,27593.913460062773,23.0,5.0,18.0,0.217391304347826,1015.813405444445,19971.56507652676,84.0,41.0,43.0,0.4880952380952381,57.21841422040607,9692.501114881265,,,,,9861.0,9902.0,9962.0,9984.0,9996.0,10020.0,10029.0,10051.0,10224.0,10305.0,0.02142475142125887,-0.23454235652719782,0.04417745822840011,-0.09489230133040015,0.0061747686252000425
10,10,10864.099924586422,1687.670987919587,17.726991049043797,10961.547965400858,-2123.071741525465,11.713893332000955,10991.380734858209,32917.497313947184,10.621580555600383,11016.178051898703,-10084.37426498442,14.158388988053217,11248.042377316257,9241.084204758334,34.86584186609398,0.9799356726891736,105.0,58.0,86.0,257.0,343.0,47.0,984.0,982.0,48.0,23.0,25.0,0.4791666666666667,30.9980345922142,1635.4810035354708,20.0,16.0,4.0,0.8,496.7520272045485,5022.028542702349,24.0,13.0,11.0,0.5416666666666666,1498.69996089922,27635.75508017514,23.0,5.0,18.0,0.217391304347826,1000.3542975008622,19248.382886717336,85.0,42.0,43.0,0.4941176470588235,62.22920443860503,9760.997482038523,,,,,10842.0,10889.0,10947.0,10965.0,10978.0,11002.0,11011.0,11033.0,11207.0,11290.0,0.018367344591510612,-0.23397797516141555,0.045528976477328335,-0.09919845011845241,0.006733972233102534
11,11,11798.82910645521,1191.4101946797243,12.476420836719129,11896.538598673884,-2814.065605109055,17.8357578060484,11926.650246323736,35178.02373879131,10.582361478102367,11951.178051898703,-10817.07554878387,17.648130453416616,12179.870836776678,9465.045894166991,33.03934168277989,0.976515510145513,98.0,59.0,91.0,251.0,342.0,39.0,934.0,936.0,39.0,18.0,21.0,0.4615384615384615,29.663719630338157,1051.691304252598,24.0,19.0,5.0,0.7916666666666666,497.1633525052182,3720.8324710054694,23.0,13.0,10.0,0.5652173913043478,1529.6314929043544,25701.759241435637,26.0,5.0,21.0,0.1923076923076923,1024.8050634913895,20947.20120155959,83.0,41.0,42.0,0.4939759036144578,60.51099273399474,9839.484960416816,,,,,11781.0,11820.0,11879.0,11902.0,11914.0,11937.0,11946.0,11970.0,12140.0,12221.0,0.02489799043419498,-0.17667084648012368,0.043482587431925804,-0.0947395679053573,0.006393100827042556
12,12,12681.683811620356,1336.4959338175393,13.52115231894371,12778.578735849083,-2570.889769604093,15.287792405184332,12808.857133573189,35346.70765720606,10.714172946893246,12832.60271279885,-10875.198251872587,16.394391994205275,13061.808519561346,9202.841842208796,33.78287502617199,0.9778943611087656,96.0,56.0,92.0,253.0,345.0,40.0,883.0,882.0,41.0,19.0,22.0,0.4634146341463415,30.85032333269835,1168.3167612962789,25.0,20.0,5.0,0.8,493.1212985293309,4357.906904436128,24.0,14.0,10.0,0.5833333333333334,1541.5932680293356,26719.502084481057,25.0,5.0,20.0,0.2,1048.0444563285505,20803.89944954164,84.0,42.0,42.0,0.5,61.044966371406495,9596.812441434322,,,,,12663.0,12703.0,12759.0,12784.0,12796.0,12819.0,12828.0,12851.0,13022.0,13104.0,0.02308299079113404,-0.19180958451021787,0.04361348963472852,-0.096370147196911,0.006633273440756529
13,13,13605.0127823437,1536.297952145975,16.34676093292287,13702.54796540086,-1981.054092959839,15.287792405175376,13732.460584127046,33396.99753499432,10.659663160884248,13756.60271279885,-10299.298864667177,14.56900142890168,13986.953326134417,9114.646913093333,35.271493218289855,0.9775545742355366,102.0,57.0,88.0,256.0,344.0,45.0,926.0,924.0,45.0,21.0,24.0,0.4666666666666667,27.486780714910175,1462.2916191113636,21.0,17.0,4.0,0.8095238095238095,485.86890278355224,4986.997543787889,24.0,13.0,11.0,0.5416666666666666,1495.6133775327316,27545.237874644525,23.0,5.0,18.0,0.217391304347826,997.830156449308,19291.790478089573,86.0,42.0,44.0,0.4883720930232558,58.224208708613816,9610.321753546776,,,,,13584.0,13629.0,13686.0,13706.0,13719.0,13743.0,13752.0,13774.0,13946.0,14030.0,0.01789156893460368,-0.2452577668172749,0.0447828693572105,-0.09688330920005331,0.006387982909680663
14,14,14524.74113431345,1084.148285027716,11.919027641110649,14619.944749346614,-2588.406650952046,20.383723206912453,14651.997522276944,34672.023284022645,10.548720023266576,14676.178051898703,-10552.24236026171,18.01223249870839,14905.70533995269,8985.582501255105,33.284158792761005,0.9735758673612738,94.0,57.0,95.0,251.0,346.0,37.0,921.0,919.0,37.0,18.0,19.0,0.4864864864864865,30.103589966753233,1019.4856356068146,27.0,19.0,8.0,0.7037037037037037,354.59896739208574,1596.3683955611325,24.0,13.0,11.0,0.5416666666666666,1490.9144731927856,25706.240826257446,27.0,5.0,22.0,0.1851851851851851,1022.0439291182108,20606.346162617097,84.0,42.0,42.0,0.5,55.78543081023648,9314.469537864788,,,,,14507.0,14544.0,14601.0,14628.0,14639.0,14663.0,14671.0,14696.0,14865.0,14947.0,0.027767041079609922,-0.1369950765895537,0.043000503921552795,-0.0968556155388439,0.006208326594569064
15,15,15391.671269901582,842.7356701569237,9.792483024484266,15485.027373698991,-2874.6730028244174,17.8357578060484,15519.37630769212,34895.127862937756,10.509345418591028,15543.60271279885,-10696.752838670562,18.88949798921381,15771.153093170287,9083.12053570742,33.015733412605606,0.9696393915101154,82.0,52.0,106.0,249.0,355.0,30.0,861.0,867.0,33.0,16.0,17.0,0.4848484848484848,34.68813063972394,781.4790529508471,39.0,29.0,10.0,0.7435897435897436,253.8455692106792,286.1913363790569,24.0,13.0,11.0,0.5416666666666666,1493.932417656928,26581.78399956556,28.0,6.0,22.0,0.2142857142857142,981.3166631831896,20549.533292261527,84.0,42.0,42.0,0.5,57.48019279480198,9352.84841277462,,,,,15376.0,15406.0,15458.0,15495.0,15506.0,15530.0,15539.0,15564.0,15731.0,15813.0,0.04116134141238468,-0.08830415458080673,0.042812063148897045,-0.09173967819800086,0.006328242873012282
16,16,16274.884371415805,1180.865317421582,13.515177585662531,16372.972626300934,-2554.3982686295067,17.835757806042913,16402.252829786183,34448.85133570924,10.649805430055745,16427.178051898707,-10362.957136790945,16.521364138982058,16655.489445886265,8846.9050478856,33.54849435889741,0.975552694354787,99.0,57.0,92.0,251.0,343.0,42.0,884.0,883.0,42.0,20.0,22.0,0.4761904761904761,26.219223903364437,1082.3394998174676,23.0,19.0,4.0,0.8260869565217391,513.6058940558656,4522.1501333527285,24.0,13.0,11.0,0.5416666666666666,1500.8275304455922,27273.24448273338,25.0,5.0,20.0,0.2,991.5334480141232,19944.819516829368,84.0,41.0,43.0,0.4880952380952381,56.46108396882473,9227.374905785093,,,,,16255.0,16297.0,16354.0,16377.0,16389.0,16413.0,16422.0,16446.0,16615.0,16697.0,0.022203399080780933,-0.20106727301041705,0.04356683814562646,-0.0956805509205423,0.006382015367319768
17,17,17224.84306711606,1158.0885095348508,13.729508643978146,17321.424203026007,-2449.9907553945145,15.28779240518434,17352.159853658726,33610.414231900264,10.647498288651496,17376.602712798853,-10260.074819112666,16.06793180820292,17607.661920247927,8535.041692257691,34.348871395360575,0.977473671958762,98.0,56.0,92.0,255.0,347.0,42.0,952.0,950.0,42.0,20.0,22.0,0.4761904761904761,30.10792814447832,1062.053478094931,24.0,18.0,6.0,0.75,399.3577163700353,2906.3884457096083,24.0,13.0,11.0,0.5416666666666666,1486.7105520487596,26582.98707141169,25.0,6.0,19.0,0.24,966.955810448901,19336.523274718445,84.0,42.0,42.0,0.5,55.83785948785259,8939.610122660333,,,,,17205.0,17247.0,17303.0,17327.0,17339.0,17363.0,17372.0,17395.0,17567.0,17650.0,0.025997950844509496,-0.16300376460225782,0.04423362776165059,-0.09424451843641891,0.006542189423456975
18,18,18174.36014623673,1474.3406033646522,14.805196130962456,18272.547965400856,-2485.412353727538,15.287792405183582,18300.907400569256,33540.10074526457,10.602882935382524,18325.178051898707,-10173.691925956857,16.263068520026376,18557.18059710483,8401.2339834746,33.90668235991408,0.9800720444341936,99.0,57.0,89.0,256.0,345.0,42.0,950.0,949.0,43.0,20.0,23.0,0.4651162790697674,34.185854278081344,1440.6244990915443,25.0,22.0,3.0,0.88,568.3271416522556,5871.7580349073905,24.0,13.0,11.0,0.5416666666666666,1486.3770701879962,25883.04678381807,25.0,5.0,20.0,0.2,1008.9418939071656,19747.88152694334,85.0,42.0,43.0,0.4941176470588235,56.946231807317446,8806.72443483242,,,,,18155.0,18197.0,18254.0,18276.0,18288.0,18312.0,18320.0,18343.0,18516.0,18599.0,0.0231872161697673,-0.22866513107971706,0.04431641638398637,-0.09917165776692934,0.006778317556603215
19,19,19127.60484154894,1477.1628789033396,15.006945217125278,19223.972626301005,-2201.7985164832917,17.83575780604832,19253.1933712195,32756.388460984723,10.507728519343624,19277.602712798853,-9795.213666856196,16.51445190697697,19509.3803161798,8464.49670082165,34.68742082614791,0.9785238121510595,98.0,56.0,90.0,256.0,346.0,42.0,953.0,952.0,42.0,20.0,22.0,0.4761904761904761,31.700211408073503,1402.4667093921669,25.0,21.0,4.0,0.84,475.9912919915565,4418.452063511209,24.0,13.0,11.0,0.5416666666666666,1445.419013066955,25633.10907266414,25.0,6.0,19.0,0.24,934.431144872886,18734.423247796833,86.0,43.0,43.0,0.5,51.54495624662777,8879.509135418291,,,,,19108.0,19150.0,19206.0,19228.0,19240.0,19264.0,19273.0,19296.0,19468.0,19552.0,0.021460200402279306,-0.21618294699907822,0.04412632408449288,-0.09539670870424152,0.006089547679973021
20,20,20020.684659038816,2383.7520515303586,31.528351021242113,20114.69864360057,-1272.8970070866153,6.32389261395113,20144.104879176655,30855.290249856207,10.501677466882054,20168.602712798853,-8807.732255855457,12.472754179240347,20394.183219469785,9296.105064265,42.314689216322954,0.975460927379968,117.0,56.0,77.0,258.0,335.0,61.0,888.0,891.0,61.0,31.0,30.0,0.5081967213114754,28.633369637592917,2535.725624775064,10.0,8.0,2.0,0.8,468.1525456446654,5634.8345968319,24.0,13.0,11.0,0.5416666666666666,1430.9188371291166,26336.72867927037,21.0,5.0,16.0,0.238095238095238,908.4042819165438,16882.951952969262,98.0,48.0,50.0,0.4897959183673469,65.21077250393792,10128.909619721886,,,,,19990.0,20051.0,20107.0,20117.0,20131.0,20155.0,20164.0,20184.0,20349.0,20442.0,0.012011890925992247,-0.3677850941893287,0.04637515400250643,-0.10313713627166957,0.0070148489128649735
21,21,21661.56839968457,200.53399941089995,5.070752892084001,21753.602712798853,-3170.6229457161853,20.383723206912453,21788.71749329132,34247.94755962405,10.466863958590643,21813.178051898707,-10824.165636531085,20.928428714849815,22039.178809712863,8804.748203834726,30.89864716268882,0.960578400582239,48.0,34.0,133.0,245.0,378.0,14.0,1647.0,1645.0,17.0,9.0,8.0,0.5294117647058824,29.077527814742066,272.1447028631366,66.0,55.0,11.0,0.8333333333333334,222.27393407686395,1006.446098673256,23.0,13.0,10.0,0.5652173913043478,1455.2666390712525,23790.801526963805,29.0,5.0,24.0,0.1724137931034483,986.8590018939292,20998.030689844894,81.0,40.0,41.0,0.4938271604938271,55.593185057447954,8965.364781095494,,,,,21653.0,21667.0,21701.0,21765.0,21776.0,21799.0,21808.0,21834.0,22000.0,22079.0,0.14500048819732245,-0.07010418390404236,0.04249208325660107,-0.09117183116297882,0.006314000556340214
22,22,22402.322699606135,1079.0079590081882,11.963231462899724,22497.55594027084,-2711.4275050066553,17.8357578060484,22531.615600426107,34826.16427173101,10.487341322580624,22555.602712798853,-10553.861041124936,18.435784151756216,22777.381638895346,9408.205955467689,33.56915604748236,0.9767258412578058,90.0,56.0,100.0,243.0,343.0,34.0,740.0,743.0,35.0,17.0,18.0,0.4857142857142857,39.11065228759701,1004.4591855860542,37.0,28.0,9.0,0.7567567567567568,287.3066838326177,390.8101461541029,24.0,14.0,10.0,0.5833333333333334,1509.2062760131623,24966.789883395235,26.0,5.0,21.0,0.1923076923076923,992.7364593466882,20521.416444646333,83.0,41.0,42.0,0.4939759036144578,65.24402343372466,9931.178315739491,,,,,22386.0,22420.0,22476.0,22507.0,22519.0,22542.0,22551.0,22576.0,22738.0,22819.0,0.03624686172245391,-0.10596141084432663,0.04333541484033632,-0.0940638175430129,0.0069347996570809905
23,23,23170.465824336898,1027.3075941712973,12.36121935721806,23266.45203459914,-2631.9845921184697,15.28779240518434,23300.315984038487,34652.159811149715,10.47829134134892,23324.602712798853,-10685.436536121875,17.449543575327077,23547.786008054485,9210.20844309588,32.894137960933534,0.9759878418713508,79.0,42.0,112.0,244.0,356.0,37.0,765.0,768.0,38.0,18.0,20.0,0.4736842105263157,31.37108165467794,959.0241075649932,45.0,36.0,9.0,0.8,256.69449221710266,325.8685671044909,24.0,13.0,11.0,0.5416666666666666,1522.8979391398168,26852.282861132688,26.0,6.0,20.0,0.2307692307692307,992.7046021689846,20417.90357482916,82.0,41.0,41.0,0.5,64.4330198202007,9682.689825018582,,,,,23153.0,23190.0,23232.0,23275.0,23287.0,23311.0,23320.0,23344.0,23509.0,23588.0,0.030537184610208386,-0.09752887345381103,0.04394813908972588,-0.09290257808496352,0.006995826448260324
24,24,24152.775153746403,1537.3970060243114,16.108034766698488,24255.54796540086,-2341.7994820425947,15.287792405183234,24284.411790993025,34277.401048070824,10.702464754287556,24308.602712798853,-10379.923171014734,15.523658750395802,24538.913260953133,8885.06823169443,33.98436763312267,0.9805877504942644,106.0,61.0,88.0,254.0,342.0,45.0,982.0,985.0,45.0,21.0,24.0,0.4666666666666667,33.0960850506104,1477.4580333012375,25.0,22.0,3.0,0.88,564.7130137625912,5941.110219420194,24.0,13.0,11.0,0.5416666666666666,1509.7943767768784,27848.857694535873,24.0,5.0,19.0,0.2083333333333333,1010.4903386060664,19666.294163617487,84.0,42.0,42.0,0.5,63.49965724637159,9409.430353617148,,,,,24132.0,24177.0,24238.0,24259.0,24271.0,24295.0,24304.0,24326.0,24499.0,24580.0,0.021527351049158372,-0.2411449050582375,0.044046349215902746,-0.09735046415640103,0.007146783298732403
25,25,25178.94289280469,1342.2394153098137,15.623373436465132,25280.54796540086,-2172.681646642276,15.287792405179108,25309.31444836246,33080.177254420334,10.644369471863842,25333.602712798853,-10110.796802326882,14.979392024531442,25564.723796362563,8866.073875775244,33.2863046220384,0.9790832567532656,102.0,62.0,89.0,254.0,343.0,40.0,1030.0,1025.0,42.0,20.0,22.0,0.4761904761904761,34.764241676929934,1334.0888368736414,24.0,21.0,3.0,0.875,543.9347963007536,5888.92884733329,24.0,13.0,11.0,0.5416666666666666,1478.4314308007283,26883.39392335539,23.0,5.0,18.0,0.217391304347826,979.0950904428524,19034.703651774955,82.0,41.0,41.0,0.5,60.60798890758573,9307.169183072978,,,,,25160.0,25200.0,25262.0,25284.0,25296.0,25320.0,25329.0,25351.0,25525.0,25605.0,0.02590017941687825,-0.2503518162181588,0.04469236725758999,-0.09683659058577115,0.006835944495475592
26,26,26193.781804394886,1451.0477349002954,16.200803989812083,26291.123304498367,-2261.46480701964,11.414506375315408,26319.750666183092,32072.463551245895,10.573535855739234,26344.178051898707,-9873.339098637392,14.539401293408968,26574.111000128643,9256.495288161344,34.78060585789817,0.9788605160742552,103.0,60.0,85.0,255.0,340.0,43.0,1014.0,1010.0,43.0,21.0,22.0,0.4883720930232558,37.488869136485775,1385.177823668522,21.0,17.0,4.0,0.8095238095238095,513.4671898096911,5255.867909749273,23.0,13.0,10.0,0.5652173913043478,1475.878105268819,25319.343071337993,23.0,5.0,18.0,0.217391304347826,979.5932303784712,18962.676918702666,85.0,42.0,43.0,0.4941176470588235,59.46739890594102,9817.151131165629,,,,,26173.0,26216.0,26276.0,26294.0,26307.0,26330.0,26339.0,26361.0,26533.0,26616.0,0.025835724238983577,-0.22705070988320356,0.0460169859702432,-0.09921600186036998,0.006424396821332285
27,27,27211.91564297927,1287.1317949819372,14.108785763826852,27308.54796540086,-2192.324125863591,15.287792403555263,27336.746678874544,32463.818644607127,10.56116584185876,27360.602712798853,-9882.698251343578,15.77098769090324,27592.6065283408,9090.84282895117,34.50424590760435,0.977932506390102,98.0,59.0,87.0,256.0,343.0,39.0,1021.0,1017.0,40.0,19.0,21.0,0.475,32.994545522647975,1239.4511128070976,23.0,20.0,3.0,0.8695652173913043,559.9041682780968,6000.553794095346,23.0,13.0,10.0,0.5652173913043478,1453.3402187601937,24683.881665766978,24.0,5.0,19.0,0.2083333333333333,961.6668605903546,18926.64611149246,84.0,42.0,42.0,0.5,59.10016352247424,9613.729036107532,,,,,27194.0,27233.0,27292.0,27312.0,27324.0,27347.0,27356.0,27379.0,27552.0,27635.0,0.025634162446520094,-0.2553929693482444,0.04476799955884493,-0.09730812740939587,0.006501065372537383
28,28,28196.378088006288,1626.46568458001,16.795133137315734,28293.547965400772,-2239.2240295539896,10.049175433167733,28322.03307219744,31708.52260911123,10.549015932020422,28346.178051898707,-9676.775756361836,14.741110628717813,28577.839504313317,9255.122836924083,35.43163980584851,0.9782364167551753,105.0,59.0,83.0,257.0,340.0,46.0,982.0,985.0,46.0,21.0,25.0,0.4565217391304347,30.780657490341508,1592.547021630617,19.0,16.0,3.0,0.8421052631578947,551.4202204875296,5992.729326491219,24.0,13.0,11.0,0.5416666666666666,1455.9619721397623,25456.405127769165,24.0,5.0,19.0,0.2083333333333333,974.013523303916,18757.47266020958,85.0,42.0,43.0,0.4941176470588235,63.39803551855554,9788.888768694174,,,,,28175.0,28221.0,28280.0,28297.0,28309.0,28333.0,28341.0,28363.0,28537.0,28620.0,0.01892487359688118,-0.24625504782447424,0.045917054858979824,-0.10065475813713747,0.006850047982683039
29,29,29126.761797673284,1265.7668449553405,12.62200776788058,29223.203176088624,-2665.9986808399935,17.8357578060484,29252.85624593324,33557.15386639717,10.5249812486453,29277.178051898707,-10329.906621447271,17.41965375067516,29506.9549653361,9371.73290015154,33.877423392662784,0.972125914225758,95.0,58.0,92.0,253.0,345.0,37.0,931.0,931.0,39.0,19.0,20.0,0.4871794871794871,33.3758748486201,1149.2870083868731,26.0,20.0,6.0,0.7692307692307693,454.3620740342359,3310.4297100979597,23.0,13.0,10.0,0.5652173913043478,1473.0239012170243,24960.179591687785,26.0,5.0,21.0,0.1923076923076923,992.42666633063,20058.160926395845,85.0,42.0,43.0,0.4941176470588235,58.65424270142636,9788.196394657169,,,,,29109.0,29146.0,29204.0,29228.0,29240.0,29263.0,29272.0,29296.0,29466.0,29549.0,0.026368106402563964,-0.1704284691885433,0.04389597243799788,-0.09607314980661327,0.006258633630123829
30,30,29965.852552926193,358.029892912802,7.00197151444624,30057.602712798853,-3216.4776660989496,20.383723206912453,30092.842372185187,35383.351607822246,10.465208162417513,30117.178051898707,-10793.521381728186,19.976351111689148,30343.998381450372,9249.594569813336,32.129849854868226,0.9626688338454212,59.0,36.0,125.0,246.0,371.0,23.0,837.0,840.0,23.0,12.0,11.0,0.5217391304347826,30.568701877435895,415.71774458019775,58.0,47.0,11.0,0.8103448275862069,231.3874720115935,1042.6542907163316,23.0,13.0,10.0,0.5652173913043478,1512.0531613560186,25382.720508806007,28.0,5.0,23.0,0.1785714285714285,1018.3905122689116,21226.989138666508,82.0,41.0,41.0,0.5,61.52995476977594,9625.90876418239,,,,,29954.0,29977.0,30013.0,30069.0,30080.0,30103.0,30112.0,30138.0,30305.0,30384.0,0.0853803061770624,-0.07193815596805554,0.042733463412825676,-0.09435201694165299,0.006652178569056747
31,31,30746.319106551575,526.306900963486,9.642484321785211,30837.602712883916,-2988.045263050597,20.383723206912357,30872.7404202114,35723.23682624949,10.504089090285577,30897.178051898707,-10589.318402644009,19.72288796925484,31122.262892353872,9379.346901841918,31.939984815790844,0.9686002651419736,66.0,32.0,122.0,245.0,367.0,34.0,782.0,780.0,34.0,16.0,18.0,0.4705882352941176,23.311032012570415,535.9154738877489,61.0,50.0,11.0,0.819672131147541,245.00185594717905,650.6223291649521,23.0,13.0,10.0,0.5652173913043478,1521.9099191096748,25706.239227218677,28.0,5.0,23.0,0.1785714285714285,1025.34710486035,21109.59613617339,81.0,40.0,41.0,0.4938271604938271,64.41799527940066,9747.187024299745,,,,,30730.0,30764.0,30796.0,30849.0,30860.0,30883.0,30892.0,30918.0,31084.0,31163.0,0.044291708829764485,-0.08199402431308833,0.042602800146916496,-0.09682843275392823,0.006868068315796085
32,32,31509.095930801723,801.0882303997107,11.299686334754137,31602.027373698995,-2780.507127951817,17.8357578060484,31637.292344972066,34919.861135820625,10.55204395521288,31662.178051898707,-10530.742127900066,17.93599161557807,31886.366725976313,9239.50004918106,32.6986953259322,0.9712431495518042,67.0,30.0,123.0,245.0,368.0,37.0,759.0,764.0,39.0,18.0,21.0,0.4615384615384615,20.192075210152044,721.4012300176817,60.0,49.0,11.0,0.8166666666666667,220.83675829620225,374.8748735038639,24.0,13.0,11.0,0.5416666666666666,1506.3028692970454,27103.251007875017,26.0,5.0,21.0,0.1923076923076923,997.948473327942,20511.41485958451,83.0,41.0,42.0,0.4939759036144578,60.41532087449198,9613.149247131574,,,,,31492.0,31529.0,31559.0,31612.0,31624.0,31648.0,31657.0,31682.0,31847.0,31927.0,0.025205806856102495,-0.0794231944511775,0.04313599253554554,-0.09476525597222489,0.00653880843691828
33,33,32323.07094508182,893.8708190961798,12.096679271819896,32417.452034920698,-2853.8415433127016,15.28779240518434,32451.00633121542,34883.99813918997,10.550412582129203,32475.178051898707,-10696.913128190205,17.625328704838967,32702.496419183648,8584.35499442982,32.40361179273851,0.9737483795825872,79.0,41.0,109.0,249.0,358.0,38.0,815.0,814.0,40.0,19.0,21.0,0.475,25.055739166252945,810.6407984133249,41.0,32.0,9.0,0.7804878048780488,272.92858410081243,448.98544875049754,24.0,13.0,11.0,0.5416666666666666,1521.830582658896,26376.335531826782,27.0,5.0,22.0,0.1851851851851851,1038.020786988989,20945.42593935099,82.0,41.0,41.0,0.5,60.60110242806152,8940.27326521696,,,,,32306.0,32344.0,32385.0,32426.0,32438.0,32462.0,32470.0,32494.0,32663.0,32743.0,0.028030604233828294,-0.09563550742344319,0.04362546335963753,-0.09703928362785631,0.007059482333545632
34,34,33267.85989468371,1409.466716214821,14.78700081351256,33366.461442147076,-2394.391830519333,15.28779240518434,33395.6944689873,33612.831679556,10.65927187080854,33420.178051898714,-10338.964731018268,15.326315684575592,33651.20775810599,8485.960523133595,34.61131752951729,0.9812603420492808,100.0,57.0,90.0,255.0,345.0,43.0,947.0,945.0,44.0,21.0,23.0,0.4772727272727273,26.78832074102039,1293.717388060329,23.0,19.0,4.0,0.8260869565217391,477.70864064379685,4363.889818308812,24.0,14.0,10.0,0.5833333333333334,1506.5486388246272,25895.771548523106,24.0,5.0,19.0,0.2083333333333333,1016.0199940802736,19811.34242834025,86.0,43.0,43.0,0.5,53.06452823366274,8828.994366087485,,,,,33248.0,33291.0,33348.0,33370.0,33382.0,33406.0,33415.0,33438.0,33610.0,33693.0,0.019005997398052428,-0.19951147283199008,0.04482064031936173,-0.09827096044075656,0.0062532141280887904
35,35,34226.85093712137,1511.093923289303,15.748103256558943,34324.54796540086,-2255.629278097884,15.287792399572409,34352.90454545482,32805.21072374733,10.59491312389382,34377.178051898714,-9948.148609632344,14.948317713562076,34606.7971609688,8624.081054857817,35.837245015186234,0.9771683935348036,103.0,57.0,87.0,255.0,342.0,46.0,955.0,957.0,46.0,22.0,24.0,0.4782608695652174,28.191993762875207,1416.558633478906,22.0,19.0,3.0,0.8636363636363636,565.4113181777268,6041.424969031423,24.0,13.0,11.0,0.5416666666666666,1481.9484124320506,25899.808944938275,24.0,5.0,19.0,0.2083333333333333,997.3981296972898,19261.229307638667,87.0,43.0,44.0,0.4942528735632184,56.74146092547198,9070.423626600626,,,,,34205.0,34251.0,34308.0,34328.0,34340.0,34364.0,34372.0,34395.0,34565.0,34650.0,0.01865667866727155,-0.25066677563900225,0.0451741775083092,-0.10025967331565133,0.006579421107540537
36,36,35161.19124910145,1451.92664073862,14.654320165875376,35257.972626301,-2488.8218998789816,17.83575780428794,35286.78525904184,34094.583094162175,10.630834688157156,35311.178051898714,-10472.099907274947,16.64471370435991,35539.74601366909,8958.617086597884,34.80416350932063,0.978606877611337,99.0,59.0,88.0,253.0,341.0,40.0,937.0,934.0,42.0,19.0,23.0,0.4523809523809524,32.01896570003443,1382.2608363651875,21.0,17.0,4.0,0.8095238095238095,533.996809558831,4786.821952734217,23.0,13.0,10.0,0.5652173913043478,1489.6250318034547,25598.716821567697,26.0,5.0,21.0,0.1923076923076923,1002.52768404519,20187.042784425263,87.0,44.0,43.0,0.5057471264367817,58.30215538255464,9352.559334934456,,,,,35143.0,35183.0,35242.0,35262.0,35274.0,35297.0,35306.0,35330.0,35498.0,35583.0,0.022052743438708326,-0.2145580644339382,0.043690958991621016,-0.09573320469839444,0.00650794143995448
37,37,36019.677070176855,869.789772374281,9.987143805423331,36111.91711730209,-2822.0983456287977,20.383723206912453,36145.485397075085,34998.00489928795,10.478194506018085,36170.178051898714,-10555.739516476584,18.31119007820103,36396.369779226814,8857.339616795367,33.302895440715105,0.9722923245317248,87.0,55.0,99.0,248.0,347.0,32.0,862.0,859.0,32.0,16.0,16.0,0.5,28.200286019278582,827.3346581920756,30.0,21.0,9.0,0.7,290.6706661059849,242.67861648486587,23.0,12.0,11.0,0.5217391304347826,1506.0101011431163,27155.256135909694,27.0,5.0,22.0,0.1851851851851851,1000.527766122598,20602.85252647517,85.0,42.0,43.0,0.4941176470588235,58.4731395830239,9154.350254744417,,,,,36004.0,36036.0,36091.0,36121.0,36133.0,36156.0,36165.0,36190.0,36356.0,36438.0,0.03242195633353994,-0.1029980640314007,0.04303131294132017,-0.09478518909649693,0.006601659427413917
38,38,36878.641866614875,1308.4883155350358,14.298766828283451,36974.39728720114,-2197.115939414384,20.38372320691184,37004.29330191263,34231.02857123276,10.612967108847233,37028.60271279886,-10271.365140608688,15.92093568983153,37256.59901157404,8697.763913488496,34.38859420144901,0.9776094026440418,98.0,56.0,90.0,252.0,342.0,42.0,854.0,859.0,42.0,20.0,22.0,0.4761904761904761,27.1547233194879,1210.0354095463604,22.0,17.0,5.0,0.7727272727272727,447.8407396676209,3670.7787754634546,24.0,13.0,11.0,0.5416666666666666,1495.0798982290985,27074.101282379987,24.0,5.0,19.0,0.2083333333333333,983.459349725804,19555.02016245335,86.0,43.0,43.0,0.5,61.48523364624115,9136.86203691235,,,,,36859.0,36901.0,36957.0,36979.0,36991.0,37015.0,37024.0,37047.0,37216.0,37299.0,0.02075274421413877,-0.2038311823394207,0.043676160507941646,-0.09574767679493902,0.007069085141629313
39,39,37803.70575276405,1192.2696189378082,13.091913279181767,37898.910345623495,-2502.9682168893883,15.28779240518434,37930.818140223,33022.7152377639,10.461969511709016,37955.178051898714,-10055.25224631013,17.040610132524403,38186.01806510209,8152.455971738857,33.39426815825304,0.97718414066361,93.0,54.0,94.0,254.0,348.0,39.0,930.0,926.0,39.0,18.0,21.0,0.4615384615384615,28.502123519223865,1093.6684771892951,27.0,20.0,7.0,0.7407407407407407,349.71643094773736,1918.8742981736716,23.0,13.0,10.0,0.5652173913043478,1467.489279405448,24891.22878435778,25.0,5.0,20.0,0.2,982.9227775250988,19654.77688675106,84.0,42.0,42.0,0.5,54.03879314593551,8490.267675055362,,,,,37786.0,37825.0,37879.0,37906.0,37918.0,37941.0,37950.0,37973.0,38146.0,38227.0,0.02390577019367178,-0.13972068386164094,0.04443878308732367,-0.09775217502731387,0.006628529284091238
40,40,38743.98984203203,1623.6611058137462,15.966949611095696,38840.972626301,-2116.9659345725,17.83575779576707,38869.572542109054,32141.78476196773,10.523331305950766,38894.178051898714,-9682.567905113792,15.507515069797936,39124.130617256706,8567.020789169452,36.10379813273619,0.9791094443002129,101.0,56.0,88.0,255.0,343.0,45.0,939.0,939.0,46.0,22.0,24.0,0.4782608695652174,28.795508318700815,1516.524633100713,22.0,18.0,4.0,0.8181818181818182,509.8775124850219,5006.587139592106,24.0,14.0,10.0,0.5833333333333334,1445.5365183713632,24350.840125009818,24.0,5.0,19.0,0.2083333333333333,951.0619134566174,18681.68736238849,88.0,44.0,44.0,0.5,51.541951186534334,9018.04978163194,,,,,38723.0,38768.0,38824.0,38845.0,38857.0,38880.0,38889.0,38912.0,39082.0,39167.0,0.017734925235071815,-0.2408529604365063,0.04497374769561076,-0.09822414082469998,0.006016321479188471
41,41,39662.84442268705,1245.7390749557076,12.578446082650997,39758.56623610747,-2852.6301234541693,20.383723206912453,39788.112837242945,34197.272340158364,10.526432314814006,39813.178051898714,-10332.394452030992,18.032502307112345,40040.84573118836,8574.525117472203,34.09502947165274,0.9768338590337458,94.0,57.0,92.0,251.0,343.0,37.0,918.0,918.0,38.0,18.0,20.0,0.4736842105263157,36.2066744052594,1114.5227303783463,26.0,21.0,5.0,0.8076923076923077,508.64054620845326,3800.420484876563,24.0,13.0,11.0,0.5416666666666666,1473.09448541151,25891.561640326625,27.0,6.0,21.0,0.2222222222222222,956.6050303302244,19926.40131116902,86.0,43.0,43.0,0.5,55.79963067372643,8901.347091541149,,,,,39646.0,39683.0,39740.0,39764.0,39775.0,39799.0,39808.0,39832.0,39999.0,40083.0,0.029064412550876058,-0.17830581750730262,0.04307637377504034,-0.09258309240625137,0.00650760595009795
42,42,40521.85040027528,1010.5195702648988,11.026382207579363,40613.03791035159,-2806.9280625582614,17.8357578060484,40646.73764004849,34711.966123268576,10.51824643497154,40671.178051898714,-10477.913941989347,18.634954004739384,40897.62937687451,8754.198377217333,33.6705594651279,0.9734436725029438,90.0,56.0,96.0,248.0,344.0,34.0,859.0,859.0,36.0,17.0,19.0,0.4722222222222222,31.017868841646283,921.760392996237,31.0,22.0,9.0,0.7096774193548387,284.4416307264994,203.44708155818807,23.0,13.0,10.0,0.5652173913043478,1499.115483780228,25363.549608111374,27.0,5.0,22.0,0.1851851851851851,999.9681014778944,20633.77852890639,85.0,43.0,42.0,0.5058823529411764,56.32886533907858,9062.153131634404,,,,,40506.0,40540.0,40596.0,40622.0,40634.0,40657.0,40666.0,40692.0,40857.0,40940.0,0.03069497093808408,-0.10133556129231774,0.043187282404476696,-0.0954358001997523,0.006434497244850378
43,43,41372.96758981031,1128.8536844290395,12.79042776088789,41467.884133642954,-2604.953185415628,15.28779240518434,41498.67876435254,33876.221629079366,10.550852090889352,41523.178051898714,-10241.33027975608,16.769276878117875,41750.38691154661,8414.8109382912,33.91798095436388,0.9776997211209082,94.0,55.0,93.0,250.0,343.0,39.0,849.0,852.0,39.0,18.0,21.0,0.4615384615384615,28.21318150927028,1079.5137855837074,25.0,19.0,6.0,0.76,421.4670850228159,2989.2109449101936,23.0,13.0,10.0,0.5652173913043478,1505.6885469748115,25494.383300802463,26.0,5.0,21.0,0.1923076923076923,994.4541439490408,19963.69234801924,85.0,42.0,43.0,0.4941176470588235,52.176550484533315,8754.83828333074,,,,,41355.0,41394.0,41449.0,41474.0,41486.0,41509.0,41518.0,41542.0,41710.0,41792.0,0.024992770895317727,-0.16179449495771633,0.04444676751324379,-0.09710204795511448,0.006200561232707722
44,44,42253.828151014146,1633.1303274854254,17.203021182065363,42350.972626301,-1976.1306995984037,17.32205850640334,42380.41582825912,33049.16262950461,10.5786179335145,42404.60271279886,-10016.963969041302,15.320595649178829,42633.02765139269,8379.990015504824,35.34084267726385,0.9827297631333368,102.0,55.0,88.0,254.0,342.0,47.0,880.0,881.0,47.0,22.0,25.0,0.4680851063829787,28.284995326829776,1543.413394610505,22.0,18.0,4.0,0.8181818181818182,473.8005371086905,4700.094695297006,24.0,13.0,11.0,0.5416666666666666,1469.8189157038628,26747.78875777465,23.0,5.0,18.0,0.217391304347826,966.0912666139556,18978.24794065771,87.0,43.0,44.0,0.4942528735632184,56.693247585298046,8849.440459665953,,,,,42232.0,42279.0,42334.0,42355.0,42367.0,42391.0,42400.0,42422.0,42591.0,42676.0,0.01731949670567991,-0.23976174106549628,0.0444737112459147,-0.09644551678530372,0.00676531206843959
45,45,43188.413551435086,1051.3731625791145,11.653302892597454,43281.45203459931,-2606.3588968509684,15.28779240518434,43314.57503534965,32719.72251558381,10.350706427800656,43338.60271279886,-9927.003388982675,17.827633553812397,43569.32552773428,8034.59529579824,33.32662541310978,0.9754341393902844,84.0,49.0,100.0,254.0,354.0,35.0,935.0,935.0,36.0,16.0,20.0,0.4444444444444444,32.12860838673263,1022.6992477961462,39.0,30.0,9.0,0.7692307692307693,259.29908442876894,384.5935877365266,23.0,13.0,10.0,0.5652173913043478,1455.9463637797164,23735.765307890157,26.0,6.0,20.0,0.2307692307692307,947.2404489214384,19196.584337810786,84.0,42.0,42.0,0.5,52.535627324555634,8338.054259467062,,,,,43173.0,43208.0,43257.0,43290.0,43302.0,43325.0,43334.0,43357.0,43529.0,43611.0,0.030558710770130577,-0.0994870985504172,0.04449751562184782,-0.09542058280877772,0.0065386774803741
46,46,44157.70250459295,1625.327950186441,16.20661891978212,44255.12330450071,-2321.941253299957,12.59431657912629,44283.36034460477,31637.158159477985,10.52642148267427,44307.60271279886,-9685.331117238868,14.87368114995608,44537.79373277089,8477.332082180083,35.928561124887054,0.9788458103648308,103.0,58.0,86.0,256.0,342.0,45.0,972.0,969.0,46.0,22.0,24.0,0.4782608695652174,30.853304069181355,1526.627036022462,21.0,17.0,4.0,0.8095238095238095,520.5450473173476,5237.920445250845,24.0,13.0,11.0,0.5416666666666666,1448.1919430554265,26045.211861232267,23.0,5.0,18.0,0.217391304347826,931.6319516828944,18240.489739619923,88.0,44.0,44.0,0.5,53.406861953362565,8925.227998908102,,,,,44136.0,44181.0,44239.0,44258.0,44270.0,44294.0,44303.0,44325.0,44496.0,44581.0,0.01898281763113849,-0.2241852788383624,0.04577503250308756,-0.09618999499404701,0.00629996105326903
47,47,45122.845776500646,1531.3292242257648,14.90792543069897,45219.54796540086,-2452.379832644593,15.287792405120449,45247.900340862034,32187.41029727852,10.57740870321161,45272.178051898714,-9944.336577457769,15.751606460738348,45501.053669465095,8819.580239830717,35.48634582815253,0.9783043990407432,100.0,58.0,87.0,254.0,341.0,42.0,966.0,964.0,42.0,20.0,22.0,0.4761904761904761,32.05702230923268,1469.7812045361609,21.0,18.0,3.0,0.8571428571428571,556.5356299005497,5531.049581210407,23.0,13.0,10.0,0.5652173913043478,1445.8561568202715,24933.925715799796,25.0,5.0,20.0,0.2,964.972537459934,19171.42366140332,87.0,43.0,44.0,0.4942528735632184,57.54049135962905,9273.165188747396,,,,,45103.0,45145.0,45203.0,45223.0,45235.0,45258.0,45267.0,45290.0,45460.0,45544.0,0.020934115147864828,-0.22693696241189268,0.04491992811681778,-0.0970373971097653,0.006524175731149478
48,48,46036.89989474406,1232.1926025390514,12.41077309692534,46132.84729632788,-2892.598048435659,17.8357578060484,46162.22828507543,34583.930295686936,10.56590723355841,46187.178051898714,-10516.766316877476,17.498108678843312,46413.11685731574,9060.860028805428,34.400008524272664,0.974874988157565,95.0,59.0,91.0,250.0,341.0,36.0,913.0,914.0,37.0,17.0,20.0,0.4594594594594595,33.34996070225921,1142.4121587814618,25.0,20.0,5.0,0.8,514.0241915824218,3953.495709895078,24.0,13.0,11.0,0.5416666666666666,1500.0769651296275,26808.086505682535,26.0,5.0,21.0,0.1923076923076923,983.3607547485752,20172.745395360616,85.0,42.0,43.0,0.4941176470588235,52.960342694800055,9408.250289886006,,,,,46020.0,46056.0,46115.0,46138.0,46149.0,46173.0,46182.0,46206.0,46372.0,46456.0,0.027065542053684145,-0.17770329059732665,0.043374970753879485,-0.09350409860970876,0.005844957600761247
49,49,46878.821948101286,792.0503565616882,9.59904191614866,46970.60271279886,-2747.9054663387183,20.383723206912453,47005.95457148518,35217.31455980305,10.453546843066382,47030.753390998565,-10345.147537161543,18.227403169314403,47255.72270573459,9028.091109663108,32.67380195421866,0.9724119513374196,80.0,49.0,104.0,247.0,351.0,31.0,840.0,844.0,31.0,13.0,18.0,0.4193548387096774,31.56521588288324,875.6856265529018,48.0,37.0,11.0,0.7708333333333334,230.3674439133378,464.0215167461122,24.0,13.0,11.0,0.5416666666666666,1524.791922926084,26534.817412070737,26.0,6.0,20.0,0.2307692307692307,967.366735742585,20068.67188084113,82.0,41.0,41.0,0.5,52.42307804885765,9268.497711931508,,,,,46866.0,46897.0,46946.0,46982.0,46993.0,47017.0,47025.0,47050.0,47216.0,47297.0,0.03985253667444667,-0.08383383152560815,0.04329665512504685,-0.09350922567973417,0.0058066624951034485
50,50,47726.962546296505,1126.124962580765,13.121575541505782,47824.39728720114,-2374.6931432718857,20.383723206912453,47854.491543878365,35139.38043310725,10.67237275997506,47878.60271279886,-10395.40606759901,16.14620778337003,48104.435646315134,8847.607983948206,34.40760869819968,0.9726582840516512,98.0,59.0,91.0,250.0,341.0,39.0,851.0,849.0,40.0,19.0,21.0,0.475,29.584894726828033,1026.2257520090557,24.0,19.0,5.0,0.7916666666666666,446.9958774156602,3567.1046023688086,24.0,13.0,11.0,0.5416666666666666,1520.4134170349614,28135.937710293012,25.0,5.0,20.0,0.2,1010.3427660764028,19986.60224107309,86.0,42.0,44.0,0.4883720930232558,60.878991474860534,9366.979693045992,,,,,47708.0,47747.0,47806.0,47829.0,47841.0,47865.0,47874.0,47897.0,48064.0,48147.0,0.026271413661790862,-0.1882331107419559,0.04326807696365854,-0.09719127463673558,0.006880841871080906
51,51,48707.71953133596,1372.7959275152618,14.903901302712455,48805.972626301,-2385.884193337945,17.83575780601524,48835.32311609019,34173.79330487393,10.663378206203074,48859.60271279886,-10221.184527785992,16.257062509443017,49089.36978669222,8783.719251521548,33.93887276273556,0.9786179031038216,99.0,57.0,90.0,253.0,343.0,42.0,981.0,980.0,42.0,19.0,23.0,0.4523809523809524,33.39163732496664,1300.8315842630527,25.0,21.0,4.0,0.84,501.9047964372615,4614.765945932546,24.0,13.0,11.0,0.5416666666666666,1486.012444615289,27140.775509376545,24.0,5.0,19.0,0.2083333333333333,984.9001692905616,19488.875429271167,85.0,42.0,43.0,0.4941176470588235,58.31061984514257,9169.087822187326,,,,,48689.0,48731.0,48788.0,48810.0,48822.0,48846.0,48855.0,48878.0,49049.0,49131.0,0.02432381729555751,-0.21036427410798894,0.04348397707442537,-0.09635871132285492,0.006638488569069621
52,52,49727.46388147066,1215.5282396393295,12.13128620363134,49825.35846832023,-2812.8545911742835,20.383723206912443,49854.321783316875,36254.35166698588,10.679652392947114,49878.60271279886,-10724.153117587408,17.944555313803896,50105.751806993925,9074.93224797388,34.30403403282552,0.9779202476372998,96.0,61.0,92.0,250.0,342.0,35.0,1019.0,1020.0,35.0,16.0,19.0,0.4571428571428571,34.695355531831304,1182.8275928225153,24.0,19.0,5.0,0.7916666666666666,530.4533501183449,4166.117276246089,24.0,13.0,11.0,0.5416666666666666,1525.479407726854,27755.92159589711,26.0,5.0,21.0,0.1923076923076923,1014.4153681706592,20702.44744928274,86.0,43.0,43.0,0.5,53.769744185683585,9416.680488951582,,,,,49711.0,49746.0,49807.0,49830.0,49841.0,49865.0,49874.0,49899.0,50065.0,50149.0,0.02854343848245441,-0.18858185978852762,0.04207713936630658,-0.09459165279046951,0.005925084917045911
53,53,50716.97291205775,1670.7503149373183,16.893753800240344,50813.972626301,-2409.5411852055577,11.036761531588994,50843.525082797685,34190.6425464706,10.81369763943354,50868.178051898714,-10285.851892336834,14.47487758690823,51095.15136122437,9260.44207590884,35.67626245854091,0.9804168047641436,102.0,58.0,86.0,254.0,340.0,44.0,990.0,989.0,45.0,21.0,24.0,0.4666666666666667,33.657374282423966,1622.0262852994788,19.0,15.0,4.0,0.7894736842105263,527.9022991566366,5195.17880714533,24.0,14.0,10.0,0.5833333333333334,1533.5519111760416,26753.232504123534,24.0,5.0,19.0,0.2083333333333333,1028.6365273500455,19749.9768725862,87.0,43.0,44.0,0.4942528735632184,61.78597916345686,9769.29644322256,,,,,50697.0,50741.0,50799.0,50818.0,50830.0,50854.0,50863.0,50885.0,51053.0,51139.0,0.020145065352680597,-0.21908830710092272,0.04485297136758098,-0.10000499113898387,0.006672033436091985
54,54,51746.22601187353,1877.9659190925777,23.71809299195739,51843.12330450071,-1914.781876497594,7.830321664414822,51872.98031429599,33303.700779646926,10.73888369394042,51897.60271279886,-9836.334050022388,13.1543749517056,52126.09636198303,9503.708303920805,37.70792372297698,0.9817336553392942,112.0,57.0,82.0,257.0,339.0,55.0,1026.0,1029.0,56.0,27.0,29.0,0.4821428571428571,32.79895938621191,1942.1216192412835,15.0,12.0,3.0,0.8,483.5447349945421,5187.632066295841,25.0,14.0,11.0,0.56,1512.7497889906183,27688.03394759224,22.0,5.0,17.0,0.2272727272727272,977.9349168749064,18541.65944962758,90.0,44.0,46.0,0.4888888888888889,64.06394957412257,10121.20139411514,,,,,51720.0,51775.0,51832.0,51846.0,51859.0,51884.0,51893.0,51914.0,52084.0,52171.0,0.017465151551877032,-0.25253254218126064,0.04542287354188317,-0.0994206695199296,0.006740942327501009
55,55,52722.48369932697,856.4735015664668,9.816615136445762,52814.027373699,-2906.8293687053333,17.8357578060484,52848.457693921104,35308.280480071604,10.50345114331204,52873.178051898714,-10627.59829120084,18.152593881204055,53099.04966008897,9611.808066241854,34.07408214311754,0.9728138364479644,90.0,60.0,95.0,248.0,343.0,30.0,979.0,976.0,31.0,14.0,17.0,0.4516129032258064,34.66908741747934,855.7145526617447,50.0,40.0,10.0,0.8,265.05732103966164,183.30343542491755,24.0,13.0,11.0,0.5416666666666666,1523.5918399473717,27642.169560240694,26.0,5.0,21.0,0.1923076923076923,1014.4563654592844,20843.863752991987,86.0,43.0,43.0,0.5,55.23376091017726,9922.897649571722,,,,,52708.0,52738.0,52798.0,52824.0,52835.0,52859.0,52868.0,52893.0,53058.0,53141.0,0.04047887921117293,-0.09118434122526943,0.043151119772238816,-0.09545490313641299,0.005746448590059419
56,56,53612.31616820022,1219.5175099079925,13.043638459060904,53707.335949900415,-2822.8402561559824,15.28779240518434,53738.44601650383,35686.35881251008,10.690776852983673,53763.178051898714,-10509.289743564115,17.268562792218273,53989.362278421235,9648.901591286867,33.644645354022686,0.975887104249626,97.0,59.0,92.0,248.0,340.0,38.0,887.0,890.0,40.0,18.0,22.0,0.45,32.68436318945219,1198.7018292786777,22.0,16.0,6.0,0.7272727272727273,423.2283017950425,2510.8183903402137,24.0,13.0,11.0,0.5416666666666666,1534.9723172492345,28619.901743321116,26.0,5.0,21.0,0.1923076923076923,1027.4984187955197,20660.055099133508,84.0,41.0,43.0,0.4880952380952381,60.54956474928413,10020.274503125282,,,,,53594.0,53632.0,53691.0,53713.0,53725.0,53749.0,53758.0,53783.0,53949.0,54031.0,0.02680106101298873,-0.14992995118022578,0.043012858927796806,-0.09777049104814713,0.006275280577424635
57,57,54524.90458839191,1256.1155770560267,13.891986510034895,54621.972626173,-2534.775506275084,17.8357578060484,54651.62161071354,35113.798101667744,10.773969434825542,54676.178051898714,-10507.513941143592,15.569956096254344,54903.632832374904,9260.108849328555,34.7834060823156,0.9778392744810934,96.0,56.0,91.0,252.0,343.0,40.0,914.0,913.0,41.0,19.0,22.0,0.4634146341463415,29.38591563985026,1167.256411940857,26.0,22.0,4.0,0.8461538461538461,509.7866434263967,4635.205011487952,24.0,14.0,10.0,0.5833333333333334,1538.526263868161,26800.60449762736,25.0,5.0,20.0,0.2,1040.4691693345237,20296.31735711146,86.0,43.0,43.0,0.5,55.661520719012515,9701.160942212133,,,,,54507.0,54547.0,54603.0,54626.0,54638.0,54662.0,54671.0,54694.0,54863.0,54946.0,0.023394276909392674,-0.20111707808615406,0.043815432879506365,-0.09902144076729948,0.006010892703820485
58,58,55517.18542772968,1563.642976141939,16.933114165036997,55614.39728720114,-1955.9651194587695,20.383723205969,55644.28333019184,34037.5896731021,10.650313958786056,55668.60271279886,-10169.255368136226,15.259044413530878,55898.887424691624,8797.580602583346,34.578480892904835,0.98219715181067,103.0,58.0,87.0,255.0,342.0,45.0,991.0,992.0,46.0,22.0,24.0,0.4782608695652174,29.12388421228023,1500.4359926654486,21.0,16.0,5.0,0.7619047619047619,447.3651732295077,3984.088105439409,24.0,13.0,11.0,0.5416666666666666,1493.763392259253,27240.086183564825,23.0,5.0,18.0,0.217391304347826,982.6823194373826,19307.520559392764,85.0,42.0,43.0,0.4941176470588235,57.71194374068849,9245.542111790375,,,,,55496.0,55541.0,55599.0,55619.0,55631.0,55655.0,55664.0,55686.0,55858.0,55941.0,0.018625661136622867,-0.22871837988261112,0.04388569832956433,-0.09663267209479902,0.00655997897009796
59,59,56496.38804169948,1764.1567545269584,18.080727833619203,56594.12330450071,-2230.248168756544,10.950647775644228,56623.03618361929,32145.00529978967,10.639760633082114,56647.60271279886,-9850.119059921592,14.176667026340278,56876.808498254904,9223.599528492708,36.4819569514958,0.9799219213529105,105.0,57.0,85.0,256.0,341.0,48.0,980.0,979.0,48.0,22.0,26.0,0.4583333333333333,27.530826864724744,1711.885565089302,20.0,16.0,4.0,0.8,503.9094657510131,5173.149260955988,24.0,13.0,11.0,0.5416666666666666,1473.5572742878255,26322.569731664476,23.0,6.0,17.0,0.2608695652173913,944.2642134256976,18333.41726747456,87.0,43.0,44.0,0.4942528735632184,59.61568909661322,9801.490590176829,,,,,56474.0,56522.0,56579.0,56597.0,56610.0,56634.0,56643.0,56664.0,56836.0,56920.0,0.015605657940587525,-0.22594322587515608,0.045840940467894935,-0.09586322842205464,0.0064633865458332
60,60,57460.43189930225,1394.3279729953458,13.871426518436405,57557.34296650791,-2469.7825745006653,17.8357578060484,57586.2498637547,33378.075536118275,10.541550209602924,57610.60271279886,-10133.443144575476,16.66661806737154,57840.71064870196,8734.534163544924,33.33572076000386,0.9781851771347416,96.0,56.0,91.0,253.0,344.0,40.0,966.0,963.0,41.0,19.0,22.0,0.4634146341463415,30.763007498124733,1298.080360366862,26.0,21.0,5.0,0.8076923076923077,484.41815684812263,4173.368768420941,24.0,13.0,11.0,0.5416666666666666,1467.6480020814429,26090.919694304295,25.0,6.0,19.0,0.24,952.3522054155496,19253.562561616316,83.0,42.0,41.0,0.5060240963855421,57.602720056195054,9117.417291177924,,,,,57442.0,57482.0,57538.0,57562.0,57573.0,57597.0,57606.0,57629.0,57800.0,57882.0,0.02206296373158069,-0.19613797661766286,0.04397042005891883,-0.09398110709540541,0.006594824518130558
61,61,58418.538489181316,1405.436804471491,14.447618243152096,58516.54796540086,-2398.539828963218,15.287792374980995,58545.46260646111,32913.33225918596,10.621852084835927,58569.60271279886,-10267.603130733489,15.574449922816928,58798.62995409039,9360.016621316976,33.96410360174359,0.975720433508524,100.0,60.0,88.0,252.0,340.0,40.0,957.0,959.0,41.0,19.0,22.0,0.4634146341463415,32.76146917786682,1318.2179748337458,22.0,18.0,4.0,0.8181818181818182,538.9218378583093,5265.445277555635,24.0,13.0,11.0,0.5416666666666666,1464.190822936571,26594.39558324568,24.0,5.0,19.0,0.2083333333333333,969.2985027421848,19218.20337644584,84.0,42.0,42.0,0.5,60.36252560538814,9827.930314316574,,,,,58400.0,58440.0,58500.0,58520.0,58532.0,58556.0,58565.0,58588.0,58758.0,58840.0,0.023310524581136638,-0.22468746666227396,0.04448625290828528,-0.09440358089424332,0.006448976326379108
62,62,59390.482189101414,1042.3802385003382,11.49195658758516,59486.321749416806,-2861.563626397834,15.28779240518434,59517.15975100666,34381.115559843216,10.604186067689698,59541.60271279886,-10666.04777668175,17.223105021952698,59769.23834040679,9329.175284873954,33.942417399113985,0.9733522824515172,95.0,60.0,92.0,250.0,342.0,35.0,971.0,972.0,35.0,16.0,19.0,0.4571428571428571,28.560509900344695,978.6135056669566,23.0,17.0,6.0,0.7391304347826086,413.06285248046055,2394.965124189236,24.0,13.0,11.0,0.5416666666666666,1506.8788092777015,26555.078309067307,26.0,6.0,20.0,0.2307692307692307,980.206978876151,20037.060538075108,85.0,42.0,43.0,0.4941176470588235,57.84179233330536,9692.840012437504,,,,,59374.0,59409.0,59469.0,59492.0,59504.0,59528.0,59537.0,59561.0,59729.0,59811.0,0.027399320176516785,-0.14434865213898052,0.04382867701470747,-0.09189973637836989,0.006200097068289445
63,63,60346.05967133657,1018.2333265882256,11.674181829102032,60442.972626301,-2716.215919158937,17.835757800844068,60471.41335869839,35059.09169901417,10.713829470304685,60496.178051898714,-10321.82100848414,16.584802124500463,60721.5401678445,9573.077166437895,35.446459745518354,0.973624701341372,96.0,62.0,89.0,250.0,339.0,34.0,955.0,955.0,36.0,16.0,20.0,0.4444444444444444,28.3991985432074,963.1113763823448,23.0,19.0,4.0,0.8260869565217391,580.7357652228768,5402.020783566585,24.0,13.0,11.0,0.5416666666666666,1511.125516564359,28138.17012516504,26.0,5.0,21.0,0.1923076923076923,1003.3011443080076,20123.394864461818,88.0,44.0,44.0,0.5,63.60369174474863,10051.13193484433,,,,,60330.0,60364.0,60426.0,60447.0,60458.0,60482.0,60491.0,60515.0,60680.0,60765.0,0.02789065904802393,-0.21380324042968527,0.043102243764257316,-0.0972019514273046,0.006644017450077164
64,64,61255.63869229153,1589.6510844116378,16.594867101088767,61352.54796540086,-2476.998471032099,10.316413078380467,61381.799141988835,34513.677881310694,10.759275589696523,61406.60271279886,-9967.430223111109,14.985717202120426,61630.253271885726,10158.602481725256,36.6005608007169,0.9774019965012,103.0,59.0,86.0,250.0,336.0,44.0,910.0,910.0,46.0,22.0,24.0,0.4782608695652174,31.21253432001869,1445.7552016812897,19.0,16.0,3.0,0.8421052631578947,572.9613215671604,6015.626435725148,25.0,14.0,11.0,0.56,1537.849518764389,27650.470455904833,23.0,5.0,18.0,0.217391304347826,969.8566021321852,19120.66822304746,89.0,44.0,45.0,0.4943820224719101,58.01033112286962,10622.678704938004,,,,,61235.0,61279.0,61338.0,61356.0,61368.0,61393.0,61402.0,61424.0,61588.0,61674.0,0.019634833471378458,-0.23131274737057983,0.04455768301636555,-0.09730257252099091,0.005710463740187382
65,65,62182.67126990158,1080.566502173313,11.8207753493093,62275.68878237886,-2738.4831372327844,17.8357578060484,62310.094365215235,35355.497197086916,10.59643281377148,62335.178051898714,-10365.563864567548,17.380087283846954,62562.86616838207,9159.11875957448,32.68794572499277,0.976722520625572,86.0,52.0,101.0,250.0,351.0,34.0,926.0,928.0,37.0,17.0,20.0,0.4594594594594595,36.113632982140054,1024.8689285903413,34.0,25.0,9.0,0.7352941176470589,279.13131971604486,432.92673756044815,24.0,13.0,11.0,0.5416666666666666,1531.2474150633932,27594.885764724757,26.0,5.0,21.0,0.1923076923076923,996.870154466015,20298.326402645464,81.0,40.0,41.0,0.4938271604938271,57.63690023793409,9468.491554251415,,,,,62167.0,62201.0,62253.0,62285.0,62297.0,62321.0,62330.0,62354.0,62524.0,62604.0,0.03342101842830193,-0.10192917236587583,0.04331002351706594,-0.09617133881868226,0.006292843422046842
66,66,63155.87867807175,1394.874328894354,14.366154967427953,63253.972626301,-2204.4613458328217,17.835757805630998,63283.562068422536,33893.75397334861,10.716575916316025,63308.60271279886,-10063.056745442986,14.725154575962836,63537.79490281822,9008.11930004953,34.33181328606965,0.98046889014768,99.0,61.0,89.0,253.0,342.0,38.0,979.0,974.0,38.0,18.0,20.0,0.4736842105263157,33.99093111426839,1348.9223813312628,23.0,19.0,4.0,0.8260869565217391,493.3337885758892,4792.661138986805,24.0,14.0,10.0,0.5833333333333334,1510.7022015049797,26409.308989577767,23.0,6.0,17.0,0.2608695652173913,950.1734905431794,18828.80650145427,84.0,42.0,42.0,0.5,58.38518083991221,9441.670145342452,,,,,63138.0,63176.0,63237.0,63258.0,63270.0,63294.0,63304.0,63326.0,63497.0,63579.0,0.024368454139672407,-0.22378881331190364,0.04457169904203817,-0.094421954936651,0.006481395160873501
67,67,64141.314604756735,1242.394728207012,13.778045513066925,64238.54796540086,-2374.5953036309484,15.287792405001523,64267.13204098384,33144.52746914942,10.645253796584845,64291.60271279886,-10008.299816066468,15.400750521349464,64522.09232996228,8882.259784182752,34.08524359112836,0.9801393023141391,97.0,60.0,88.0,255.0,343.0,37.0,983.0,983.0,38.0,18.0,20.0,0.4736842105263157,34.93687810170211,1239.7099050588022,25.0,22.0,3.0,0.88,559.1531414498592,5847.231268236687,24.0,13.0,11.0,0.5416666666666666,1478.7107987434706,26527.320555425973,23.0,5.0,18.0,0.217391304347826,958.4389562140956,18893.591876005594,84.0,42.0,42.0,0.5,60.06896589335032,9308.801797931188,,,,,64124.0,64161.0,64221.0,64242.0,64254.0,64278.0,64287.0,64309.0,64482.0,64564.0,0.02812059429141494,-0.23547302590671715,0.04461402565234454,-0.09576441292011453,0.006762802186929867
68,68,65126.65024209611,1208.3219697454758,12.652680317291797,65223.54796540053,-2433.074646471011,15.287792402276386,65251.89276356452,32733.204318247193,10.643348399059938,65276.178051898714,-9973.748088012357,15.779978350384477,65507.27186748822,8920.773521053314,34.40558418124344,0.9780260876668556,96.0,61.0,88.0,255.0,343.0,35.0,987.0,985.0,35.0,17.0,18.0,0.4857142857142857,35.05803104221526,1153.465910135289,25.0,22.0,3.0,0.88,563.6699439417495,5875.410824574708,24.0,13.0,11.0,0.5416666666666666,1456.601337825443,25433.227588947688,25.0,5.0,20.0,0.2,981.176988171654,19289.39878155526,84.0,41.0,43.0,0.4880952380952381,54.90776460786001,9397.414743671849,,,,,65110.0,65145.0,65206.0,65227.0,65239.0,65263.0,65271.0,65294.0,65467.0,65549.0,0.029013815787525554,-0.23166981118286267,0.04449919792953046,-0.0983759545071075,0.006155045241119048
69,69,66125.63573430873,982.9733480006988,11.378972673451452,66220.97262629784,-2528.5575892630204,17.8357578060322,66249.19991329192,32468.572024971283,10.560812041670848,66274.17805189872,-9898.674627895736,15.943982661540248,66504.70214994163,8669.749246048375,33.972305531627576,0.9757997006631683,92.0,59.0,90.0,255.0,345.0,33.0,1001.0,997.0,35.0,17.0,18.0,0.4857142857142857,30.585260105152976,893.4399876556863,26.0,22.0,4.0,0.8461538461538461,536.5213103878552,5138.329449278742,24.0,13.0,11.0,0.5416666666666666,1441.2838070996372,25824.5273446392,24.0,5.0,19.0,0.2083333333333333,940.6157214859012,18901.76984196877,84.0,42.0,42.0,0.5,55.07388737610011,9116.52760365063,,,,,66110.0,66143.0,66202.0,66225.0,66236.0,66260.0,66269.0,66292.0,66464.0,66547.0,0.031115045150879546,-0.21218473040364133,0.04439011995942288,-0.09502441052412465,0.006352419869721433
70,70,67144.14032467423,1439.9085391998544,16.17352996187435,67239.12330450071,-2142.438713719789,11.940553759819664,67267.23585706706,31648.27368396873,10.61783242923585,67291.60271279886,-9679.523564684396,14.716111792040833,67523.16606321052,8867.487171244102,35.76078674143684,0.9794930710697034,99.0,56.0,86.0,257.0,343.0,43.0,1014.0,1018.0,43.0,20.0,23.0,0.4651162790697674,32.40157048991808,1473.7972553631948,22.0,19.0,3.0,0.8636363636363636,528.4203854949374,5814.063417552258,24.0,13.0,11.0,0.5416666666666666,1441.9468385089667,25962.177147609214,23.0,5.0,18.0,0.217391304347826,927.51125734209,18169.39363942017,87.0,43.0,44.0,0.4942528735632184,59.82225250006619,9370.45774532383,,,,,67124.0,67167.0,67223.0,67242.0,67254.0,67278.0,67287.0,67309.0,67481.0,67566.0,0.022502519853048006,-0.2466443413811695,0.04556162692814987,-0.09582199486822901,0.006746246297830637
71,71,68141.3429601343,1151.1685202155682,13.659238658369487,68235.972626301,-2344.404061512112,17.835757728849718,68264.62732183203,33401.700677632376,10.645948978676504,68288.60271279886,-10206.476645014662,16.2634058913301,68518.8954117261,9230.805722339654,35.048248362139724,0.9763796587055036,96.0,57.0,88.0,255.0,343.0,39.0,1001.0,998.0,39.0,18.0,21.0,0.4615384615384615,31.46428536610247,1094.0370047636247,22.0,18.0,4.0,0.8181818181818182,529.9453950501925,5003.965741538921,24.0,14.0,10.0,0.5833333333333334,1464.1700080197309,24755.70440025395,25.0,5.0,20.0,0.2,969.0481887673196,19348.770377431516,87.0,43.0,44.0,0.4942528735632184,59.1489939425271,9622.70946128647,,,,,68123.0,68162.0,68219.0,68240.0,68251.0,68275.0,68284.0,68307.0,68478.0,68562.0,0.02733247549212904,-0.2260469531469691,0.043835193367870035,-0.09494443797514099,0.006407782345519358
72,72,69080.19368039061,1071.5137654240525,11.683236826698217,69176.972626301,-2780.746259775262,17.835757801746876,69205.592596977,35221.75804057853,10.670917131012468,69230.17805189872,-10529.335786586287,17.453050822790793,69457.35913927482,9546.191850398567,34.61410057889146,0.974052809676565,97.0,60.0,90.0,250.0,340.0,37.0,933.0,941.0,37.0,17.0,20.0,0.4594594594594595,32.81808713390703,966.06600232203,23.0,19.0,4.0,0.8260869565217391,565.6419034802326,4968.3524731755415,24.0,14.0,10.0,0.5833333333333334,1520.9538730847692,25930.92827417623,27.0,5.0,22.0,0.1851851851851851,1016.7798326842528,20551.37608131897,86.0,42.0,44.0,0.4883720930232558,59.50149475978481,9977.555166248449,,,,,69063.0,69100.0,69160.0,69181.0,69193.0,69216.0,69225.0,69250.0,69416.0,69500.0,0.03062777930894732,-0.20341370647962229,0.043182224786522526,-0.09656637923728927,0.0062330084804759645
73,73,69912.22255060346,775.8615702099858,9.298327715442891,70001.60271279886,-2906.0975968792286,20.383723206912453,70037.4882748935,35747.03282626336,10.490512260845424,70062.17805189872,-10394.552428788244,19.556899147288465,70287.08557922902,9656.690005295395,32.65430850362648,0.9691630395967968,73.0,43.0,112.0,245.0,357.0,30.0,833.0,832.0,30.0,14.0,16.0,0.4666666666666667,30.31146056336829,758.8166880223126,50.0,39.0,11.0,0.78,213.44013742322556,916.4638982297668,23.0,12.0,11.0,0.5217391304347826,1513.404545502631,27667.99448641243,28.0,5.0,23.0,0.1785714285714285,1010.618296595787,20796.525484816648,83.0,41.0,42.0,0.4939759036144578,61.197787970591406,10038.183141953155,,,,,69898.0,69928.0,69971.0,70013.0,70025.0,70048.0,70057.0,70083.0,70247.0,70328.0,0.0390681298406938,-0.07344561918788707,0.04233650811965383,-0.09722576354483797,0.006337346227023199
74,74,70743.81431444366,875.188581357988,10.261780878867162,70834.60271279886,-2652.168601752725,20.383723206912453,70871.22849785766,35795.710701152646,10.550406399365675,70896.17805189872,-10525.627473617971,18.12418041799765,71121.82917275217,9291.81238387835,32.27905940944293,0.9730181510223966,70.0,39.0,117.0,246.0,363.0,31.0,834.0,833.0,32.0,16.0,16.0,0.5,32.415507505205305,801.3236195092702,53.0,42.0,11.0,0.7924528301886793,193.92947874871672,841.5974232804801,24.0,13.0,11.0,0.5416666666666666,1531.490296236212,27680.504332794153,26.0,5.0,21.0,0.1923076923076923,1011.2869000463992,20737.548827211183,81.0,40.0,41.0,0.4938271604938271,59.3604770627775,9641.62093939818,,,,,70729.0,70760.0,70799.0,70846.0,70858.0,70882.0,70891.0,70916.0,71083.0,71162.0,0.037038311737234646,-0.07312109743722761,0.04278418464776834,-0.09607853808061761,0.006388471334803337
75,75,71737.82566522929,2077.035607944688,21.901815067422024,71835.54796540085,-2023.3401459142856,8.559249119237128,71865.40044812905,33026.02391529634,10.721286364846351,71890.17805189872,-9773.57011820528,13.381117803649468,72120.19363293407,9076.056784161088,36.62664482655533,0.98424073263971,111.0,57.0,84.0,256.0,340.0,54.0,990.0,994.0,55.0,27.0,28.0,0.4909090909090909,31.37204506331094,2065.3366991542734,17.0,14.0,3.0,0.8235294117647058,515.0013610726543,5587.198871352555,24.0,13.0,11.0,0.5416666666666666,1494.3349006977028,28336.885070057197,23.0,5.0,18.0,0.217391304347826,995.4435593097172,18834.48546815456,87.0,43.0,44.0,0.4942528735632184,65.3047967978094,9690.028481646144,,,,,71712.0,71766.0,71823.0,71839.0,71852.0,71876.0,71885.0,71907.0,72079.0,72163.0,0.015104240362231857,-0.2545302934420554,0.04524719368369337,-0.1018505568866283,0.007195282968235154
76,76,72780.81248379995,1956.785339126767,24.188541813258414,72877.54796540085,-1603.796313608644,7.389797535357797,72907.59803314426,31941.699441155884,10.655635505171205,72932.027373699,-9252.026709234631,12.492129216792913,73161.15556310746,9378.121509424916,40.85049712463227,0.975157156032878,114.0,58.0,80.0,260.0,340.0,56.0,1047.0,1043.0,56.0,27.0,29.0,0.4821428571428571,28.654568232088515,1992.3766117233856,14.0,11.0,3.0,0.7857142857142857,470.7113333091221,5421.528977169959,25.0,14.0,11.0,0.56,1468.547790814317,26081.345498009156,22.0,5.0,17.0,0.2272727272727272,977.314502900663,17987.489864740935,94.0,46.0,48.0,0.4893617021276595,62.69202440686677,10262.374867324455,,,,,72754.0,72810.0,72868.0,72881.0,72894.0,72918.0,72928.0,72948.0,73118.0,73208.0,0.014643695278745227,-0.2934982013083641,0.045975881575109276,-0.10563247746844333,0.00668492345123295
77,77,73834.87669549929,313.4485704507966,5.372820835481492,73926.027373699,-2996.815184935943,17.8357578060484,73959.6049787669,33567.208830122174,10.353024139096911,73984.17805189872,-9915.90943621661,20.95532601992792,74218.53575880021,8018.137231588205,30.127976499561395,0.9678409340069474,49.0,32.0,130.0,253.0,383.0,17.0,1057.0,1052.0,17.0,10.0,7.0,0.5882352941176471,32.636843516060225,220.5137234654439,62.0,52.0,10.0,0.8387096774193549,250.4874536804503,260.5306208592076,23.0,13.0,10.0,0.5652173913043478,1444.720072157758,23844.264913460407,26.0,5.0,21.0,0.1923076923076923,972.0800603178528,20036.23667312035,76.0,38.0,38.0,0.5,57.376681981415366,8288.906929449282,,,,,73825.0,73842.0,73874.0,73936.0,73947.0,73970.0,73979.0,74004.0,74181.0,74257.0,0.10412184515348867,-0.08358455167324724,0.04303962475608967,-0.0980323657220439,0.007155861807325339
78,78,74866.92471842209,1125.5804272205935,13.295211838302656,74962.972626301,-2538.5026911520085,17.8357578060449,74991.76997611934,33066.47497730915,10.59781236516049,75016.17805189872,-10156.076790231453,16.660319375527866,75247.43807442806,9009.4464926071,33.99795366905955,0.9741824430899004,94.0,57.0,91.0,255.0,346.0,37.0,1030.0,1032.0,37.0,17.0,20.0,0.4594594594594595,31.790961879442424,1097.3178525155877,24.0,20.0,4.0,0.8333333333333334,512.9357193472179,4596.633955299343,23.0,13.0,10.0,0.5652173913043478,1452.6197869430678,24799.92292495541,25.0,5.0,20.0,0.2,977.5876304145714,19673.407164667115,84.0,41.0,43.0,0.4880952380952381,60.307476809614734,9416.34925612637,,,,,74850.0,74887.0,74944.0,74967.0,74979.0,75002.0,75011.0,75035.0,75207.0,75290.0,0.02824406067360655,-0.2020623106428303,0.0439302885457214,-0.09625642367679386,0.00669380487015505
79,79,75848.6130343785,1533.3196802835816,14.670697823890311,75944.54796540085,-2680.8319562222164,13.465471470939816,75973.48345307476,34581.02075821907,10.80409629955558,75997.027373699,-10681.604216722615,16.610304004332765,76226.08302341276,9629.954551681712,36.19799795280692,0.9794610445847924,100.0,59.0,88.0,253.0,341.0,41.0,978.0,982.0,41.0,20.0,21.0,0.4878048780487805,32.49814235609414,1469.3692286981325,20.0,17.0,3.0,0.85,578.6577092959865,5601.418497602941,24.0,13.0,11.0,0.5416666666666666,1495.4743758264635,27472.454535671663,27.0,4.0,23.0,0.1481481481481481,1046.5524012331389,20477.55018790392,89.0,44.0,45.0,0.4943820224719101,61.75766226628639,10083.470354477377,,,,,75829.0,75870.0,75929.0,75948.0,75960.0,75984.0,75993.0,76017.0,76184.0,76270.0,0.0211946293874502,-0.2158500490688798,0.043245524366744593,-0.0979770809701698,0.00641307930736822
80,80,76763.0704196818,1535.3471330668408,15.45085117007582,76858.54796540085,-2462.3676722159025,13.703306912380352,76887.46323068708,34043.0114463748,10.72728795054605,76912.17805189872,-10292.807151680934,15.779205536280044,77140.3104209456,9445.02882108434,34.75511698357443,0.977131365813972,101.0,57.0,88.0,252.0,340.0,44.0,914.0,914.0,44.0,21.0,23.0,0.4772727272727273,34.65079656384355,1469.1491109930762,20.0,17.0,3.0,0.85,567.1449051227507,5738.151419742337,24.0,13.0,11.0,0.5416666666666666,1499.779381344661,27976.18036518021,25.0,5.0,20.0,0.2,998.7116246548202,19814.59572747501,86.0,42.0,44.0,0.4883720930232558,61.970757601854714,9944.65864771847,,,,,76742.0,76786.0,76843.0,76862.0,76874.0,76898.0,76907.0,76931.0,77100.0,77183.0,0.022568705029349892,-0.23032502884200592,0.04405542628645359,-0.09703005311740627,0.006561203652816397
81,81,77699.51743649502,1576.9422349515326,16.417315285673148,77794.972626301,-2096.527115577469,13.479919562160717,77825.06614234009,32789.46111067311,10.673638935902304,77849.60271279886,-9989.497689087257,14.950540218906417,78079.49665969405,8942.846536107218,34.53130031347566,0.978526259873896,102.0,56.0,87.0,254.0,341.0,46.0,937.0,937.0,47.0,23.0,24.0,0.4893617021276595,30.68459503791718,1471.4750575441617,20.0,16.0,4.0,0.8,455.4249041595456,4302.3731105918005,24.0,13.0,11.0,0.5416666666666666,1471.3220524056348,26360.17872248868,23.0,5.0,18.0,0.217391304347826,949.621417902425,18731.73409803914,85.0,42.0,43.0,0.4941176470588235,60.58658764908562,9430.02945924564,,,,,77678.0,77724.0,77780.0,77799.0,77812.0,77836.0,77845.0,77867.0,78039.0,78121.0,0.01945828728397288,-0.2172282441642082,0.044871797296074295,-0.09506197883601415,0.006774866079213599
82,82,78659.16513340456,1801.552796926875,18.20877918514169,78755.12330450071,-2227.3228764915234,9.909442807787611,78784.0694168448,32086.1894746403,10.629714291585667,78808.60271279886,-9733.908800726264,14.619401167048336,79038.80970609095,9028.18533308736,35.18701298759818,0.9811205578150024,105.0,57.0,85.0,255.0,340.0,48.0,962.0,959.0,49.0,23.0,26.0,0.4693877551020408,28.238433890467096,1722.9858122429907,19.0,15.0,4.0,0.7894736842105263,503.4232077019122,5190.39642510243,24.0,13.0,11.0,0.5416666666666666,1460.2588485105923,26100.714267954972,23.0,5.0,18.0,0.217391304347826,934.7557509236472,18208.95489981822,85.0,42.0,43.0,0.4941176470588235,59.3998447143343,9510.535084564512,,,,,78636.0,78684.0,78741.0,78758.0,78771.0,78795.0,78804.0,78826.0,78998.0,79081.0,0.015674496988729268,-0.22602165721698322,0.04551051004871504,-0.09603087208438849,0.006579378083504782
83,83,79652.81997270994,1538.741389250819,15.624728953153223,79750.54796540085,-2339.3652154703636,15.287792404852254,79778.83441557898,32307.13874855708,10.576359395129815,79803.17805189872,-9793.397519352478,16.136793090011864,80035.01468505914,8765.830547954323,34.60220215350955,0.9790484873841254,100.0,57.0,88.0,256.0,344.0,43.0,994.0,995.0,43.0,20.0,23.0,0.4651162790697674,29.81253459504545,1453.4259477171263,25.0,22.0,3.0,0.88,550.701281687579,5815.111010917146,23.0,13.0,10.0,0.5652173913043478,1440.4138881174188,24858.471379071925,25.0,5.0,20.0,0.2,962.7915862761917,18972.894092566763,84.0,41.0,43.0,0.4880952380952381,61.00224696610937,9267.432685860786,,,,,79633.0,79676.0,79733.0,79754.0,79766.0,79789.0,79798.0,79821.0,79995.0,80077.0,0.019374623184445924,-0.23540628801597893,0.04458500331236394,-0.09831027326049456,0.006959094934859929
84,84,80674.57404590017,1469.091335612979,16.109890731266013,80772.54796540085,-2199.7109886896073,12.416626815732377,80801.27775213083,31611.232475254343,10.605453224688988,80825.60271279886,-9661.752141173629,15.040735120644054,81057.27522364727,8823.144047744438,35.48245585981024,0.978242275193794,103.0,59.0,86.0,257.0,343.0,44.0,1020.0,1022.0,45.0,21.0,24.0,0.4666666666666667,31.70410997949336,1369.6106292729712,21.0,18.0,3.0,0.8571428571428571,527.8754466872108,5603.6318018944075,24.0,13.0,11.0,0.5416666666666666,1430.2283791340485,25818.896293546622,23.0,5.0,18.0,0.217391304347826,924.7862416213771,18152.504008454223,86.0,42.0,44.0,0.4883720930232558,57.79274025089289,9354.017405417824,,,,,80654.0,80698.0,80757.0,80776.0,80788.0,80812.0,80821.0,80843.0,81016.0,81100.0,0.021580761666029978,-0.23997491006837773,0.045244309289542844,-0.09571620427731671,0.006550129969335264
85,85,81696.7117322712,1174.0282855311625,13.356202137432051,81791.54796540085,-2311.526049011553,15.28779228397244,81820.44415061324,32600.8519613423,10.693343978754678,81844.60271279886,-10197.06235873916,15.65955011099742,82075.55603616296,9397.832978085476,35.37302481676376,0.9763012934344312,98.0,59.0,87.0,255.0,342.0,39.0,1024.0,1019.0,39.0,19.0,20.0,0.4871794871794871,28.758735951759565,1083.999432500549,23.0,19.0,4.0,0.8260869565217391,540.7592567348299,5417.761232054255,24.0,13.0,11.0,0.5416666666666666,1439.024240011542,26299.350907259257,24.0,5.0,19.0,0.2083333333333333,957.1695616959308,19027.685490261258,86.0,43.0,43.0,0.5,62.37545759238717,9876.610529779096,,,,,81678.0,81717.0,81776.0,81795.0,81807.0,81831.0,81840.0,81863.0,82035.0,82118.0,0.024495777747593473,-0.23394036894633638,0.0441406942897664,-0.09386718723707818,0.006637217083750969
86,86,82651.78250895493,1120.575569754523,12.504494308381066,82745.76533675504,-2841.307986709693,15.28779240518434,82774.74352553139,34803.715547534106,10.682457900655123,82799.17805189872,-10507.5905317361,17.278309308789446,83025.96490656777,9759.822725097649,35.53191714460145,0.97132207609174,95.0,59.0,90.0,251.0,341.0,36.0,956.0,955.0,36.0,18.0,18.0,0.5,25.25762320879246,1056.21306059612,22.0,18.0,4.0,0.8181818181818182,557.1571516375915,4846.628542650173,23.0,13.0,10.0,0.5652173913043478,1514.8795697007376,26113.837686002174,27.0,5.0,22.0,0.1851851851851851,1018.16471932726,20425.363818999864,89.0,44.0,45.0,0.4943820224719101,66.3134627733302,10246.240137885568,,,,,82634.0,82670.0,82729.0,82750.0,82762.0,82785.0,82794.0,82819.0,82984.0,83070.0,0.022539866021106882,-0.19609178386986256,0.043526374867411795,-0.09689802017428208,0.006794535581348556
87,87,83485.5247110147,886.3161375372244,10.592317150669182,83578.29288049017,-2840.4016068770675,17.8357578060484,83611.08071966187,35259.12610039928,10.551954210045784,83635.60271279886,-10096.125137459212,18.103222074458667,83860.54485134732,9826.708682072982,33.61547760610622,0.9705977078947754,93.0,60.0,92.0,247.0,339.0,33.0,829.0,836.0,34.0,16.0,18.0,0.4705882352941176,30.679344934720262,811.7042858031548,26.0,17.0,9.0,0.6538461538461539,327.7276968980533,744.2971371162594,24.0,13.0,11.0,0.5416666666666666,1516.1273573951946,27155.19165303112,26.0,5.0,21.0,0.1923076923076923,974.940383169104,19852.307749983815,84.0,42.0,42.0,0.5,65.30007263162206,10272.294918272137,,,,,83470.0,83503.0,83563.0,83587.0,83598.0,83622.0,83631.0,83655.0,83820.0,83902.0,0.034614449218952376,-0.1153807602786071,0.04299957273694387,-0.0965657982538098,0.006645162153911207
88,88,84265.78817117917,980.8427327414158,11.387916531260345,84359.45203459915,-2811.6784137171894,15.28779240518434,84393.49004195587,35405.850800940854,10.590068694378212,84418.17805189872,-10382.661358466525,17.960424400921166,84642.46426750322,9527.686802313658,32.71298164340483,0.9744933022076352,80.0,45.0,109.0,245.0,354.0,35.0,783.0,783.0,36.0,17.0,19.0,0.4722222222222222,29.750538209033778,919.0659962986788,45.0,36.0,9.0,0.8,263.6739285335529,166.4818177850575,24.0,13.0,11.0,0.5416666666666666,1523.2813335172457,28188.2699078459,26.0,5.0,21.0,0.1923076923076923,1019.4470222963436,20600.39974938576,83.0,41.0,42.0,0.4939759036144578,63.34532896041837,9932.420698673428,,,,,84249.0,84284.0,84329.0,84368.0,84380.0,84404.0,84413.0,84438.0,84603.0,84683.0,0.03033160894803413,-0.09377812457042761,0.043023435366133525,-0.09818744800580798,0.006648552820295887
89,89,85126.67126990156,1039.0999934715614,12.31054929982468,85223.35909189984,-2790.3007560928468,15.28779240518434,85255.65053000637,35011.515706926904,10.68849413729362,85280.17805189872,-10443.07802940648,16.68184442005184,85508.21582477457,8966.345072257413,32.95872543120941,0.977063202535224,94.0,56.0,94.0,250.0,344.0,38.0,858.0,862.0,40.0,17.0,23.0,0.425,32.60708587266274,1000.7276879714552,25.0,18.0,7.0,0.72,353.0227402713625,1625.2788637781814,24.0,14.0,10.0,0.5833333333333334,1529.5311304833003,26429.897170598953,26.0,5.0,21.0,0.1923076923076923,1029.0567460100378,20416.208267060312,83.0,41.0,42.0,0.4939759036144578,64.43845501223844,9383.246075429272,,,,,85111.0,85149.0,85205.0,85230.0,85242.0,85266.0,85275.0,85299.0,85468.0,85549.0,0.03138012325813295,-0.12651780977391375,0.04368651569633954,-0.098539601362006,0.007186702551925663
90,90,86153.61484560036,1691.3592498019889,17.029115190290714,86250.54796540085,-2173.3922544464635,13.042815641645298,86279.73072379197,33115.02868740788,10.775085946649645,86304.60271279886,-9892.815261859663,14.773490227528209,86536.30598929012,8488.677082980386,35.874373295326585,0.9832785075124412,104.0,59.0,86.0,258.0,344.0,45.0,1030.0,1024.0,45.0,22.0,23.0,0.4888888888888889,32.00584718013186,1602.7254404187802,22.0,19.0,3.0,0.8636363636363636,539.0272510969685,5788.877038184766,25.0,14.0,11.0,0.56,1483.0412917125357,26284.973448139935,24.0,6.0,18.0,0.25,947.7355171765128,18529.596638184772,88.0,43.0,45.0,0.4886363636363636,57.07525184732564,8938.730025922447,,,,,86132.0,86177.0,86236.0,86254.0,86266.0,86291.0,86300.0,86322.0,86494.0,86580.0,0.018923151414389848,-0.2480119499801255,0.04478453893885551,-0.09580038564253511,0.006723692194836847
91,91,87142.83019427877,1563.8661058211517,16.57639563820146,87240.54796540085,-2217.7555899905456,14.203251906138672,87268.9971185293,32373.686044476548,10.66996528439724,87293.60271279886,-9777.85735700106,14.76720439225929,87525.23061324954,8499.58990545309,34.973848446404105,0.980923533392296,103.0,58.0,86.0,257.0,343.0,45.0,985.0,989.0,46.0,21.0,25.0,0.4565217391304347,28.700279677849014,1482.3956001118922,23.0,20.0,3.0,0.8695652173913043,559.2222133975083,6109.667343098191,24.0,13.0,11.0,0.5416666666666666,1458.0132557322363,26109.547757549644,23.0,5.0,18.0,0.217391304347826,935.8014806665324,18338.521198273385,86.0,42.0,44.0,0.4883720930232558,59.681908835247974,8973.768085701338,,,,,87122.0,87167.0,87225.0,87244.0,87256.0,87280.0,87289.0,87311.0,87485.0,87568.0,0.01835213358165284,-0.25215682734448314,0.045036986326770036,-0.09570619068159014,0.007021739813230024
92,92,88127.2054690227,1742.2415517821162,17.411678600293534,88223.54796540085,-2145.326151858681,9.948117906514366,88252.56805533094,31167.26736560003,10.557685467233958,88277.17805189872,-9511.955522786422,14.80317656989097,88508.3612717638,8866.314360586917,36.22941815059492,0.9797112146160648,105.0,58.0,84.0,258.0,342.0,47.0,985.0,984.0,47.0,22.0,25.0,0.4680851063829787,29.084001855188976,1688.36703986158,18.0,15.0,3.0,0.8333333333333334,511.7974509171853,5406.929609568158,24.0,14.0,10.0,0.5833333333333334,1429.7232449055862,24143.193561873944,24.0,5.0,19.0,0.2083333333333333,935.7705773544392,18270.721510430547,88.0,43.0,45.0,0.4886363636363636,60.37837276795684,9374.460231716472,,,,,88105.0,88152.0,88210.0,88227.0,88239.0,88263.0,88272.0,88294.0,88467.0,88552.0,0.01669343830391333,-0.23856393605875315,0.04587258896118695,-0.09837835922516126,0.006809861495138778
93,93,89097.67126990156,1200.1479842463962,12.857154810071297,89195.36131593504,-2854.1774801357587,17.8357578060484,89224.28459108419,33636.227902488055,10.614098630513112,89249.17805189872,-10330.482973535516,17.295064197887026,89478.22712541539,8984.869886745264,34.08127755663939,0.974171953208624,95.0,57.0,91.0,253.0,344.0,38.0,971.0,971.0,39.0,16.0,23.0,0.4102564102564102,30.845615314679225,1225.880390911252,24.0,19.0,5.0,0.7916666666666666,499.81298081749486,3861.880515855485,24.0,13.0,11.0,0.5416666666666666,1460.255505725924,26218.479124088793,26.0,5.0,21.0,0.1923076923076923,970.1653565704344,19690.84704656038,85.0,42.0,43.0,0.4941176470588235,60.460994319424145,9367.956548450533,,,,,89082.0,89120.0,89177.0,89200.0,89211.0,89235.0,89244.0,89268.0,89437.0,89521.0,0.025701509913419535,-0.1751162933265528,0.04341317670813824,-0.09391287503747793,0.006729200876755926
94,94,89944.89917523843,656.0266927353554,8.918576169375722,90035.60271279886,-2918.923908274342,20.383723206912453,90071.17606611733,35105.75769549338,10.463776840967746,90095.60271279886,-10376.820483819796,19.909834057955663,90321.53333046264,9385.051259771297,32.69304484130941,0.9672831482751052,74.0,45.0,112.0,245.0,357.0,29.0,853.0,847.0,29.0,14.0,15.0,0.4827586206896552,33.64221469200849,672.1307688096396,53.0,42.0,11.0,0.7924528301886793,219.56442379021155,929.2663237617154,24.0,13.0,11.0,0.5416666666666666,1486.6244622776032,26170.286475826542,28.0,6.0,22.0,0.2142857142857142,965.208661841065,20267.89611310549,82.0,41.0,41.0,0.5,62.52879146667619,9768.211847168026,,,,,89931.0,89960.0,90005.0,90047.0,90058.0,90082.0,90091.0,90117.0,90282.0,90362.0,0.05128177719680064,-0.07522101661088428,0.04234702680889423,-0.09301583884447845,0.006662594559787193
95,95,90729.60372244426,813.6233796219557,11.140960949194731,90823.45203459926,-2896.641613333488,15.28779240518434,90856.40204060006,34539.106566300165,10.541348893605226,90881.17805189872,-10487.883528383782,17.79860468661679,91105.24147083338,9374.383770856706,32.5258086170369,0.9711902687478892,90.0,54.0,98.0,245.0,343.0,36.0,781.0,786.0,37.0,17.0,20.0,0.4594594594594595,26.03486917213988,745.883270527641,38.0,29.0,9.0,0.7631578947368421,300.6386607366998,669.061161047232,24.0,13.0,11.0,0.5416666666666666,1505.8562098075315,27218.28293221396,26.0,5.0,21.0,0.1923076923076923,994.6051838748766,20320.40698400056,82.0,40.0,42.0,0.4878048780487805,64.01665094456115,9820.45574588774,,,,,90713.0,90749.0,90803.0,90832.0,90843.0,90867.0,90876.0,90901.0,91066.0,91146.0,0.03199867386337497,-0.10378869769488724,0.04359858605250654,-0.0948337365859505,0.006828891638037856
96,96,91571.07098619505,1196.6170384062084,12.528530206075722,91665.60887944556,-2639.4026629580208,15.28779240518434,91698.5928659469,34627.51052301137,10.597004316257156,91722.60271279886,-10571.419292800358,17.004600866540805,91949.8931166326,9042.792679630327,32.77706399599708,0.974461606590918,93.0,56.0,95.0,249.0,344.0,37.0,840.0,842.0,37.0,17.0,20.0,0.4594594594594595,35.61326734083673,1144.9225656033404,26.0,19.0,7.0,0.7307692307692307,340.24412700705284,1636.6078327962218,24.0,14.0,10.0,0.5833333333333334,1517.779021420649,25473.37687188862,25.0,5.0,20.0,0.2,1004.1041561579624,20222.488035083323,81.0,40.0,41.0,0.4938271604938271,61.58593260748803,9447.226838170003,,,,,91554.0,91591.0,91647.0,91673.0,91685.0,91709.0,91718.0,91742.0,91911.0,91991.0,0.02976162481212081,-0.12890951872638326,0.043831595124692084,-0.09498290894977605,0.006810499232854876
97,97,92616.62949219807,1432.816923410216,14.787964071746249,92714.53294557238,-2493.991206644349,15.28779240518434,92744.95033670124,33562.68275447078,10.725440770478652,92769.60271279886,-10336.16974370067,15.398952140333698,93000.44736594392,8933.874951068168,33.77867177529344,0.9789863588440672,100.0,58.0,90.0,255.0,345.0,42.0,1052.0,1046.0,42.0,20.0,22.0,0.4761904761904761,31.16030496830936,1389.8870394105195,26.0,21.0,5.0,0.8076923076923077,475.696389780624,4187.327009318153,24.0,13.0,11.0,0.5416666666666666,1489.3884747611175,26432.59065153869,24.0,6.0,18.0,0.25,972.542181447007,19266.442879678973,84.0,41.0,43.0,0.4880952380952381,63.93721001977328,9374.535628760104,,,,,92597.0,92639.0,92697.0,92719.0,92732.0,92756.0,92765.0,92787.0,92960.0,93042.0,0.021747583001843252,-0.1907369955889583,0.044376323718124736,-0.09409115809458511,0.007156716471851747
98,98,93622.72436623966,1297.2775786805662,13.500582648771312,93722.54796537088,-2710.9942644759235,15.287792405176615,93751.13886048296,34890.987934466,10.755383877158904,93775.60271279886,-10419.3013711739,16.283983246230722,94002.29758613698,9558.135363243558,34.77977067412292,0.976880241605424,100.0,62.0,89.0,251.0,340.0,38.0,1000.0,1006.0,39.0,18.0,21.0,0.4615384615384615,30.964371995876693,1244.2368350975048,26.0,23.0,3.0,0.8846153846153846,596.8526017001167,6025.086918797864,24.0,13.0,11.0,0.5416666666666666,1517.9969180582602,27593.598092809392,25.0,5.0,20.0,0.2,993.8055289573488,19800.62961588596,87.0,43.0,44.0,0.4942528735632184,63.252208625458664,10016.530853584523,,,,,93605.0,93643.0,93705.0,93726.0,93738.0,93762.0,93771.0,93794.0,93961.0,94045.0,0.02386873287933482,-0.22016003852206503,0.043506848270087335,-0.09538120585578001,0.006617630554668561
99,99,94611.88476331312,1447.7783587584302,14.827824837484563,94710.972626301,-2353.8297951223967,17.835757804410466,94740.01154402616,34491.27171411838,10.75482811543039,94765.17805189872,-10119.737994222236,15.207693882925469,94991.94054720312,9510.31951383917,34.51203842461327,0.9743739260636072,102.0,62.0,88.0,251.0,339.0,40.0,989.0,989.0,40.0,19.0,21.0,0.475,36.9850097610354,1429.1573911897713,21.0,17.0,4.0,0.8095238095238095,546.5432254371299,5173.446562829745,24.0,13.0,11.0,0.5416666666666666,1512.3395143040505,27730.152290174476,24.0,5.0,19.0,0.2083333333333333,989.6597267569936,19550.456828832062,86.0,43.0,43.0,0.5,64.85048405210709,9992.78824361939,,,,,94593.0,94633.0,94695.0,94715.0,94727.0,94751.0,94760.0,94783.0,94951.0,95034.0,0.02554604407317747,-0.23219318005476697,0.04384702097501964,-0.09779499502082267,0.006818959547861494
100,100,95662.06660762576,1374.949914724433,14.73803350607194,95759.54796540084,-2152.437522281541,14.528265480223954,95788.67945001386,32792.21330559794,10.786168084404345,95813.60271279886,-10077.555466436796,13.503493485347835,96044.1867194411,9077.041510508076,35.37268115637806,0.9791337456338796,100.0,59.0,87.0,257.0,344.0,41.0,1054.0,1049.0,41.0,19.0,22.0,0.4634146341463415,29.801652887160625,1361.3062936869942,21.0,18.0,3.0,0.8571428571428571,538.382436624664,5788.8153308502815,25.0,14.0,11.0,0.56,1489.48896755455,26451.81595948554,23.0,6.0,17.0,0.2608695652173913,959.2351856664594,18488.47925571956,86.0,42.0,44.0,0.4883720930232558,61.15838073595502,9594.645028967214,,,,,95643.0,95684.0,95743.0,95763.0,95775.0,95800.0,95809.0,95830.0,96003.0,96087.0,0.02167471888831199,-0.25012685899193454,0.04542203216579712,-0.09518530449782026,0.006737699796255725
101,101,96710.41162219876,1341.197044911821,15.407810523983054,96805.972626301,-1789.363386190997,17.835757539978562,96836.03722199076,32006.25680488447,10.62261425059947,96860.60271279886,-9581.794272621311,14.266151033975907,97092.59952016934,8946.485828112542,35.12624432559348,0.9777185836233324,100.0,58.0,87.0,257.0,344.0,42.0,1048.0,1047.0,42.0,19.0,23.0,0.4523809523809524,32.11664160847884,1374.3462259070984,21.0,17.0,4.0,0.8095238095238095,435.2929592216596,4163.3945874955525,24.0,13.0,11.0,0.5416666666666666,1443.389797015037,25900.67196983433,22.0,5.0,17.0,0.2272727272727272,928.5505247755552,18036.00984950675,85.0,42.0,43.0,0.4941176470588235,64.75611986680957,9532.168146858929,,,,,96691.0,96733.0,96791.0,96810.0,96823.0,96847.0,96856.0,96878.0,97052.0,97135.0,0.02394625139558848,-0.24326694207612246,0.04509711353671203,-0.09690779183485117,0.007238162683198627
102,102,97734.58576660894,1386.9957837405143,14.18755416820409,97831.972626301,-2311.7203769252387,17.83575779884864,97861.08442932408,33262.894748720035,10.663499364072376,97885.60271279886,-10199.314707288531,15.760453198227111,98116.40855753758,9362.641208151652,34.86976464265189,0.9769156772697454,99.0,61.0,88.0,255.0,343.0,38.0,1023.0,1025.0,39.0,19.0,20.0,0.4871794871794871,39.228422054642955,1272.941192758376,21.0,17.0,4.0,0.8095238095238095,509.61149717684515,4694.88887585526,24.0,13.0,11.0,0.5416666666666666,1466.9802288860094,26077.25942596882,25.0,6.0,19.0,0.24,953.3718130381578,19051.437040999943,86.0,42.0,44.0,0.4883720930232558,56.521134921698255,9744.126355404656,,,,,97717.0,97755.0,97816.0,97836.0,97848.0,97872.0,97881.0,97904.0,98076.0,98159.0,0.02828301463819157,-0.22044685951796064,0.04410260261375656,-0.09347410491774207,0.006036879302016585
103,103,98683.08125528655,1188.9764784317847,12.435914129403052,98777.6811416712,-2739.146278016645,17.8357578060484,98807.5093402793,34591.84819515843,10.674931606874472,98832.17805189872,-10341.790713426277,17.53378036840706,99059.62400258682,9696.433704706073,34.48817191966172,0.9733187396471312,94.0,57.0,92.0,250.0,342.0,37.0,945.0,947.0,37.0,17.0,20.0,0.4594594594594595,34.7133101721043,1076.3732153629308,25.0,20.0,5.0,0.8,501.1469609507014,3980.233722490777,24.0,14.0,10.0,0.5833333333333334,1495.2193927922676,25351.76601707885,27.0,5.0,22.0,0.1851851851851851,993.5896062140084,20202.840478198028,86.0,43.0,43.0,0.5,64.92483620524038,10149.854553720266,,,,,98666.0,98703.0,98760.0,98783.0,98794.0,98818.0,98827.0,98852.0,99019.0,99102.0,0.029195960392664665,-0.1829573560830679,0.04322461709350189,-0.09607519952265871,0.006695743835563968
104,104,99541.93212756052,1141.0836873969456,12.149103967017345,99638.78902728572,-2826.251471270742,17.8357578060484,99668.3642208498,34813.326145983476,10.660588169482727,99693.17805189872,-10156.008436881477,17.020654045266923,99918.57904065117,9890.688639655946,34.16805548272147,0.9726436794709408,97.0,61.0,90.0,249.0,339.0,36.0,859.0,861.0,39.0,18.0,21.0,0.4615384615384615,26.278532182469736,1032.8227645368825,25.0,20.0,5.0,0.8,518.0952677204751,4206.140617409975,24.0,13.0,11.0,0.5416666666666666,1504.086051955335,27802.876864668862,26.0,5.0,21.0,0.1923076923076923,993.1429822576414,19945.4904866023,85.0,42.0,43.0,0.4941176470588235,63.37388281597614,10339.306173707948,,,,,99525.0,99561.0,99622.0,99644.0,99655.0,99679.0,99688.0,99712.0,99878.0,99961.0,0.023029452153870197,-0.18331534648879938,0.04320431910608651,-0.09778871181822273,0.006407428756970823
105,105,100394.92706859416,847.9940703641636,10.309251757504812,100487.027373699,-2739.8760010278265,17.8357578060484,100522.25741913237,35159.066864786815,10.562915413457,100546.60271279886,-10488.388031924616,17.879806789023537,100774.24772267096,9136.474187854006,32.25024774594172,0.9725758046777244,77.0,46.0,108.0,249.0,357.0,31.0,855.0,853.0,32.0,15.0,17.0,0.46875,31.62946124218395,796.3010691518642,56.0,45.0,11.0,0.8035714285714286,227.5654223948599,372.5982241636872,24.0,13.0,11.0,0.5416666666666666,1511.3153290843172,27105.01357673983,26.0,5.0,21.0,0.1923076923076923,987.9352754608994,20246.140716831153,83.0,41.0,42.0,0.4939759036144578,58.40629341214656,9413.920169769295,,,,,100381.0,100412.0,100458.0,100497.0,100509.0,100533.0,100542.0,100566.0,100735.0,100815.0,0.03729915378842326,-0.08305683261194735,0.042985080772947326,-0.09419324232225355,0.006392651280051955
106,106,101321.78446802554,1237.3145945982408,13.428601120924869,101417.55320971968,-2486.018051888633,15.28779240518434,101449.7416193469,33574.11359925199,10.646235433880634,101474.17805189872,-10345.17445608251,15.524332360709142,101704.78289887514,8714.737707867973,33.85079418877949,0.9774858385899228,91.0,53.0,97.0,254.0,351.0,38.0,927.0,928.0,38.0,18.0,20.0,0.4736842105263157,33.76532346140204,1144.5883090341106,29.0,23.0,6.0,0.7931034482758621,376.16407740919,2521.411446439763,24.0,14.0,10.0,0.5833333333333334,1500.6188265264818,25831.287568043983,25.0,5.0,20.0,0.2,1011.1227690756346,19849.82282967859,84.0,42.0,42.0,0.5,58.67411129892444,9175.639906842283,,,,,101304.0,101342.0,101395.0,101424.0,101436.0,101460.0,101469.0,101492.0,101665.0,101746.0,0.027289198405006876,-0.15131188493318354,0.044695709451579226,-0.09773859042861656,0.0067327455243950006
107,107,102322.35603649211,1898.4614233136624,19.672789566178064,102419.12330450072,-2014.814848685636,9.214785833037146,102447.98942176516,31429.47116956471,10.598234937074867,102473.17805189872,-9429.983041991482,13.32467214100796,102703.39214052094,8718.050183861802,37.71936711104442,0.981116304746438,106.0,57.0,84.0,259.0,343.0,49.0,1001.0,998.0,49.0,23.0,26.0,0.4693877551020408,28.13279475171067,1884.094544850729,18.0,15.0,3.0,0.8333333333333334,498.2045186744799,5408.901628696927,24.0,13.0,11.0,0.5416666666666666,1454.8167973892162,26362.32801423601,22.0,5.0,17.0,0.2272727272727272,933.2543252262024,17980.983850918023,90.0,44.0,46.0,0.4888888888888889,59.30798474618096,9361.360902901008,,,,,102299.0,102348.0,102405.0,102422.0,102435.0,102459.0,102468.0,102489.0,102661.0,102748.0,0.014818733952784982,-0.2472706209205692,0.0462883002243453,-0.09896670238646707,0.006802895543772785
108,108,103326.30264272504,988.4725929527395,11.07598483018268,103419.027373699,-2671.572427785962,17.8357578060484,103453.28699430235,32931.215755103294,10.380803326304047,103477.60271279886,-9798.310506226244,18.900772454005757,103711.10498704483,8321.883234785006,31.976434193152844,0.9731959237040332,83.0,48.0,104.0,254.0,358.0,35.0,1003.0,1005.0,35.0,16.0,19.0,0.4571428571428571,31.92871217012378,942.6398490008786,43.0,33.0,10.0,0.7674418604651163,235.13660258416377,243.05986707619857,24.0,13.0,11.0,0.5416666666666666,1428.8085592410132,25155.10236550346,26.0,6.0,20.0,0.2307692307692307,932.7696319790072,19132.637644929026,82.0,41.0,41.0,0.5,59.44320178553895,8665.567070894314,,,,,103310.0,103345.0,103393.0,103429.0,103440.0,103464.0,103473.0,103497.0,103672.0,103751.0,0.03230105963256621,-0.08801430952745339,0.043387665061214546,-0.09519698639742918,0.007142998779058771
109,109,104314.06181520216,1411.1224961309988,13.221593990402464,104409.972626301,-2602.356191082475,17.835757803461874,104438.8311967623,34056.83657023842,10.674859428027275,104463.17805189872,-10387.525289028912,17.347864415310564,104692.97555207448,9081.313300019488,34.81072651680057,0.9771755538492156,97.0,58.0,90.0,253.0,343.0,39.0,989.0,986.0,40.0,19.0,21.0,0.475,41.01387298308065,1341.6274901557758,22.0,18.0,4.0,0.8181818181818182,531.8313834767083,4647.106166285379,23.0,13.0,10.0,0.5652173913043478,1467.044268006371,25400.21030478653,27.0,5.0,22.0,0.1851851851851851,991.8179972843648,20120.059014042046,87.0,43.0,44.0,0.4942528735632184,58.52923666404877,9522.684180949804,,,,,104296.0,104335.0,104393.0,104414.0,104426.0,104449.0,104458.0,104483.0,104652.0,104736.0,0.029064714860355546,-0.20436533065655701,0.04307635164472062,-0.09548164453875287,0.0064450189890401825
110,110,105213.41639785576,2078.110250279514,21.35857934394491,105309.12330450072,-2085.468619647575,7.692946723471016,105337.94363184983,32493.640377128475,10.6864122954766,105363.17805189872,-9350.209825053764,13.37439336760551,105587.4108511954,10113.082560204091,39.8281715286217,0.9698782736885396,109.0,56.0,83.0,253.0,336.0,53.0,898.0,899.0,53.0,25.0,28.0,0.4716981132075472,34.08092818380393,2088.0305479845206,15.0,12.0,3.0,0.8,532.1874365544978,5845.346389650406,25.0,14.0,11.0,0.56,1484.3874493966716,27317.147220763043,23.0,5.0,18.0,0.217391304347826,939.8729916667992,18087.62869197594,96.0,48.0,48.0,0.5,65.89801410736115,10785.31530252478,,,,,105188.0,105241.0,105297.0,105312.0,105324.0,105349.0,105358.0,105380.0,105542.0,105633.0,0.01639996154160729,-0.255188417385265,0.045682399145449325,-0.10051891981594059,0.006516115508309592
111,111,,,,,,,,,,,,,,,,,,,,,,,,,,,,,,,,,,,,,,,,,,,,,,,,,,,,,,,,,,,,105814.0,106097.0,106164.0,106174.0,106197.0,106206.0,106234.0,106403.0,106478.0,,,,,
112,112,106939.93731255356,1376.860161891008,14.125689735196945,107037.972626301,-2529.369913926113,17.83575780313798,107067.40910628208,34446.160308122475,10.72150940735584,107092.17805189872,-10222.807447938569,16.114153993180306,107319.60829735042,9193.796506393051,34.11670559568433,0.9739534932809712,99.0,58.0,91.0,251.0,342.0,41.0,1727.0,1729.0,42.0,20.0,22.0,0.4761904761904761,36.24852858096296,1288.5770079475126,24.0,20.0,4.0,0.8333333333333334,511.7024595771558,4558.036438919536,24.0,13.0,11.0,0.5416666666666666,1495.4559158510792,27860.107636312023,25.0,5.0,20.0,0.2,1002.4221732340212,19823.51623184107,84.0,42.0,42.0,0.5,59.632843772613526,9615.751726829165,,,,,106920.0,106961.0,107019.0,107042.0,107054.0,107078.0,107087.0,107110.0,107279.0,107361.0,0.026326949957778203,-0.20230431964887502,0.04341429937253261,-0.0980574248648457,0.0064862044456984545
113,113,107887.07650252512,1361.6013078781946,13.856366356931156,107984.97262630097,-2472.3951753915053,17.835757806037073,108014.3166989452,34617.45590484479,10.711014083704274,108039.17805189872,-10183.449912543032,16.745958175385432,108266.53626164884,9348.695011331884,34.92120184693221,0.9764236925650926,100.0,61.0,90.0,251.0,341.0,39.0,949.0,947.0,39.0,19.0,20.0,0.4871794871794871,37.42095234733304,1302.26643100073,22.0,18.0,4.0,0.8181818181818182,517.380772469811,4662.646221281662,24.0,13.0,11.0,0.5416666666666666,1488.0720578327391,27548.65336620857,26.0,5.0,21.0,0.1923076923076923,996.4407721072832,19829.49593025668,86.0,43.0,43.0,0.5,61.97517263353278,9808.06817685967,,,,,107868.0,107907.0,107968.0,107989.0,108001.0,108025.0,108034.0,108058.0,108225.0,108309.0,0.027483046711850416,-0.20926297608871663,0.04298617616277457,-0.09784903747402535,0.006629285965411267
114,114,108819.62250381822,1186.7181898948904,12.47448460325721,108916.97262630072,-2705.197272818066,17.83575780275931,108946.06183070676,34736.625285534355,10.664731806485417,108971.17805189872,-9883.196683720573,16.397606142966335,109196.30828001144,9543.710291047912,35.62211446195811,0.972001791780815,96.0,60.0,90.0,251.0,341.0,36.0,932.0,932.0,37.0,17.0,20.0,0.4594594594594595,36.499791095345714,1069.5830275885207,26.0,22.0,4.0,0.8461538461538461,539.0413636462586,4677.886374453355,24.0,13.0,11.0,0.5416666666666666,1510.5667861879886,27622.37175761507,25.0,5.0,20.0,0.2,982.4230612829052,19561.40709740763,89.0,44.0,45.0,0.4943820224719101,59.68137418000812,9930.20630322746,,,,,108803.0,108839.0,108899.0,108921.0,108933.0,108957.0,108966.0,108989.0,109154.0,109240.0,0.030756915505423036,-0.1992613880926794,0.043486284973602365,-0.09940337046020091,0.006253477144626844
115,115,109743.84488115828,1275.8892431666222,14.316684744727551,109840.39728720114,-2152.6770981145833,20.38372320566325,109870.53223339384,34400.97977426249,10.753847071126168,109895.60271279886,-9973.346760961247,14.65270208454116,110121.01683720668,9771.233690034998,36.92283959390014,0.9698625420567946,101.0,61.0,87.0,252.0,339.0,40.0,921.0,925.0,42.0,20.0,22.0,0.4761904761904761,27.09828831665982,1201.3885672487927,20.0,15.0,5.0,0.75,459.4901722912951,3764.739806991513,25.0,14.0,11.0,0.56,1509.966650693998,26715.66364968368,24.0,6.0,18.0,0.25,953.5815352181206,18907.706610996454,89.0,44.0,45.0,0.4943820224719101,61.27750708262214,10375.464915750728,,,,,109725.0,109765.0,109826.0,109845.0,109857.0,109882.0,109891.0,109913.0,110079.0,110165.0,0.021238746593242475,-0.21345057867421843,0.04389312922487452,-0.09561299311789023,0.006271214979242059
116,116,110728.57931430968,755.5497485214319,9.014999460326273,110823.45203459916,-3235.461752035951,15.28779240518434,110856.4623998408,34602.97422885307,10.544604090519552,110881.17805189872,-10389.19526114083,18.83960672008517,111112.63597556832,8746.343832882314,32.55599438672369,0.9731236407428234,61.0,35.0,123.0,253.0,376.0,26.0,990.0,986.0,26.0,13.0,13.0,0.5,42.255817519045586,742.9503201305306,59.0,50.0,9.0,0.847457627118644,294.2808125463946,318.8964249786453,24.0,13.0,11.0,0.5416666666666666,1488.0177816082069,27114.43894377549,26.0,5.0,21.0,0.1923076923076923,1004.1656345151224,20556.188847978377,82.0,41.0,41.0,0.5,56.30853421436671,8997.110525132652,,,,,110716.0,110742.0,110777.0,110832.0,110843.0,110867.0,110876.0,110900.0,111073.0,111153.0,0.055927247149162355,-0.09095481112123024,0.04300259774685639,-0.0966548042725742,0.00643795113595603
117,117,111742.84932180028,223.52876017365273,4.317258254141402,111838.027373699,-3196.933160907389,17.8357578060484,111872.85327207508,33336.2368204574,10.52087063925578,111897.17805189872,-10233.457319822275,17.890522044854308,112129.18444664688,8621.348332795418,33.08823570135561,0.958440877482098,42.0,31.0,134.0,254.0,388.0,11.0,1013.0,1016.0,16.0,7.0,9.0,0.4375,48.34023739725215,330.5905831975348,66.0,56.0,10.0,0.8484848484848485,234.0746331613829,579.845706467373,23.0,13.0,10.0,0.5652173913043478,1457.2954883804216,24811.61695835782,26.0,5.0,21.0,0.1923076923076923,988.0722872951642,19846.94177242297,85.0,43.0,42.0,0.5058823529411764,66.09921209749542,9026.359511300445,,,,,111740.0,111751.0,111782.0,111848.0,111860.0,111883.0,111892.0,111916.0,112089.0,112170.0,0.2162595871766035,-0.07321849453209878,0.0437150568682703,-0.09655312534320748,0.00766692279977315
118,118,112752.9526536677,1591.5096120623998,17.03721392095651,112850.54796540084,-2537.933013723085,13.57502953054416,112879.19613299282,32831.45179981738,10.710755231012786,112904.17805189872,-10066.32538665778,15.612735164913248,113133.61728929832,9222.22143886134,35.68277084560809,0.9791118365344472,104.0,59.0,86.0,255.0,341.0,45.0,1008.0,1006.0,46.0,21.0,25.0,0.4565217391304347,44.69900580391195,1587.7216668281962,21.0,18.0,3.0,0.8571428571428571,576.1264537181125,5625.502816561472,24.0,13.0,11.0,0.5416666666666666,1457.1600663819677,26590.55785108227,24.0,5.0,19.0,0.2083333333333333,962.7559070639744,19240.88830970807,87.0,43.0,44.0,0.4942528735632184,63.16927655325571,9734.584494353528,,,,,112732.0,112777.0,112836.0,112854.0,112866.0,112890.0,112899.0,112922.0,113092.0,113177.0,0.028085916330714184,-0.2270061702191853,0.04438305303300882,-0.09564124644133211,0.006849681171942796
119,119,113696.26178922526,704.4037175709254,9.505418183698406,113789.45203459916,-3129.550331267245,15.28779240518434,113822.87945117614,34984.51148579792,10.647030259867575,113846.60271279886,-10780.917821978888,19.064898175199627,114075.18049863024,9234.30423570699,33.02263145834163,0.9709756421997788,87.0,60.0,99.0,249.0,348.0,27.0,945.0,944.0,27.0,14.0,13.0,0.5185185185185185,51.60156034502719,772.1683886346892,30.0,21.0,9.0,0.7,308.0686516093602,12.972950290928225,23.0,13.0,10.0,0.5652173913043478,1489.1767804982353,25477.519907733094,28.0,5.0,23.0,0.1785714285714285,1006.0292314485616,20747.858305998605,85.0,42.0,43.0,0.4941176470588235,62.66801523822742,9588.872338309617,,,,,113682.0,113709.0,113769.0,113798.0,113810.0,113833.0,113842.0,113868.0,114035.0,114117.0,0.07325566157284157,-0.09843863143259125,0.042566745032377305,-0.09331573137470593,0.006786436058268929
120,120,114542.39174257216,879.4259751543983,10.94461077920464,114635.027373699,-2733.110726047521,17.8357578060484,114669.77670913412,34762.5215879258,10.55022575295505,114694.17805189872,-10411.73216149426,18.048705646769825,114920.8283515656,9299.609375386024,33.15887703909657,0.971043495697631,84.0,52.0,103.0,248.0,351.0,32.0,845.0,847.0,34.0,15.0,19.0,0.4411764705882353,45.5369865023614,870.747643476403,42.0,32.0,10.0,0.7619047619047619,248.00867834937551,123.88764392768417,23.0,13.0,10.0,0.5652173913043478,1505.6600461971525,25724.199594879752,27.0,5.0,22.0,0.1851851851851851,1011.7988252253926,20508.358942578194,83.0,41.0,42.0,0.4939759036144578,62.818195575515134,9731.965085597169,,,,,114527.0,114559.0,114611.0,114645.0,114657.0,114680.0,114689.0,114714.0,114881.0,114962.0,0.05178035194419474,-0.09074227252696507,0.043312739623587004,-0.09717872199664637,0.006754928410410525
121,121,115412.7613850678,2149.8620260786174,25.480676132891183,115507.69864360055,-1417.199551298757,6.944074494343282,115537.94821355844,32483.479278266277,10.661817016091463,115563.17805189872,-9096.586376587822,12.072007800634925,115786.19728431635,9780.21733788043,42.246442680269425,0.9685295136745802,114.0,57.0,80.0,256.0,336.0,57.0,870.0,868.0,57.0,28.0,29.0,0.4912280701754385,32.74305347030274,2210.392476981777,12.0,9.0,3.0,0.75,463.8131766356397,5329.416806361336,25.0,14.0,11.0,0.56,1484.2533138145404,28021.209195657342,22.0,5.0,17.0,0.2272727272727272,963.9574877713696,17759.72563627301,97.0,47.0,50.0,0.4845360824742268,65.04224896601093,10578.101233990645,,,,,115385.0,115442.0,115499.0,115510.0,115524.0,115549.0,115558.0,115579.0,115742.0,115835.0,0.015230304583790705,-0.32727443090889335,0.04569255962699814,-0.10596914577234579,0.006650388914578753
122,122,116371.54796540084,334.75527796141637,5.644859266489771,116467.027373699,-3087.0020719298823,17.8357578060484,116501.41847826644,33413.76119900601,10.359406310209438,116526.17805189872,-9897.530516365125,20.32295532618977,116757.95411575992,7738.652023954937,29.612694115586898,0.9674589339350456,53.0,36.0,130.0,250.0,380.0,17.0,959.0,964.0,20.0,9.0,11.0,0.45,38.83883717943046,315.1823824560618,65.0,54.0,11.0,0.8307692307692308,230.22764104658523,667.8818918842303,23.0,12.0,11.0,0.5217391304347826,1439.2216128379218,25588.217604256944,27.0,6.0,21.0,0.2222222222222222,953.0356130809804,19912.747151907737,78.0,39.0,39.0,0.5,53.92433495284283,7858.133727567529,,,,,116363.0,116380.0,116416.0,116477.0,116489.0,116512.0,116521.0,116546.0,116720.0,116796.0,0.11602158273933771,-0.0745796846526427,0.04307272097463651,-0.09629024245039493,0.006968181898594286
123,123,117355.75832359552,1732.591656184071,16.684833202024276,117453.54796540084,-2297.6334492531323,10.675146484768971,117482.61327402727,31076.474645277343,10.523816255646818,117507.75339099858,-9483.660131112503,14.20279349553116,117736.79325792944,9036.52406923232,36.691702947135575,0.9768445026250624,103.0,60.0,85.0,256.0,341.0,43.0,989.0,981.0,44.0,21.0,23.0,0.4772727272727273,38.59267351246603,1654.2699641280708,20.0,16.0,4.0,0.8,515.145587769893,5175.408276213494,24.0,14.0,10.0,0.5833333333333334,1445.9649316073323,24777.138745872508,23.0,6.0,17.0,0.2608695652173913,891.3506940684315,17659.640636967204,88.0,44.0,44.0,0.5,63.59822585471951,9688.998499812846,,,,,117336.0,117379.0,117439.0,117457.0,117469.0,117493.0,117502.0,117524.0,117696.0,117780.0,0.02227453501505604,-0.22420703700033007,0.04652924593642973,-0.09398804699297775,0.0070379080902644425
124,124,118344.74956508265,2232.095585000742,41.25318390052221,118441.69864360055,-1248.525984638013,6.732282991500433,118472.1354867267,30911.95809517269,10.436138383255695,118498.0993318536,-8431.180337449177,11.356836367368292,118722.75645816112,9727.324432750162,43.11682318321415,0.9727352003046108,123.0,58.0,77.0,259.0,336.0,65.0,986.0,990.0,67.0,33.0,34.0,0.4925373134328358,30.444819434562863,2688.55129871566,10.0,7.0,3.0,0.7,413.6807969842146,4710.504994576242,24.0,13.0,11.0,0.5416666666666666,1434.6898592917992,27663.283810599867,20.0,5.0,15.0,0.25,878.9924311317757,16401.15754014367,97.0,47.0,50.0,0.4845360824742268,64.99179386445952,10582.492328482287,,,,,118313.0,118378.0,118436.0,118445.0,118459.0,118483.0,118493.0,118513.0,118678.0,118772.0,0.013639567964358812,-0.3313353523067874,0.04641213134653689,-0.10425496738902772,0.006681363854344549
125,125,119335.68044223906,162.178541178038,0.8942855983171349,119433.17805189872,-3713.665369762678,22.93168860777651,119469.10941646386,35262.52803489612,10.595614144650993,119493.29611524672,-11496.043948380133,20.383723206912222,119724.27346325463,8570.493494855931,30.06626537745666,0.9630224962628632,48.0,45.0,134.0,247.0,381.0,3.0,992.0,996.0,3.0,2.0,1.0,0.6666666666666666,50.82433649021835,436.078327053325,68.0,55.0,13.0,0.8088235294117647,198.9729467427417,2135.1990922416444,23.0,13.0,10.0,0.5652173913043478,1479.6783568972887,24909.773896054947,31.0,5.0,26.0,0.1612903225806451,1013.060041348352,21703.430894044726,78.0,38.0,40.0,0.4871794871794871,60.17449983686019,8727.515593222271,,,,,119334.0,119337.0,119382.0,119446.0,119456.0,119479.0,119488.0,119516.0,119687.0,119763.0,0.3133850885637447,-0.05357858798017041,0.041961777539970636,-0.08812249204136861,0.007021124264661929
126,126,120260.98686371464,1154.9708698816453,12.151772782205628,120358.972626301,-2797.383634591343,17.835757806047248,120387.71964559366,34688.281238232186,10.706627937479087,120412.027373699,-10166.07993734152,17.013851786271083,120638.21166037324,9612.604515933404,34.76207733055259,0.9698072692290368,99.0,64.0,89.0,249.0,338.0,35.0,926.0,919.0,35.0,17.0,18.0,0.4857142857142857,45.62823832138303,1119.6208929707052,24.0,20.0,4.0,0.8333333333333334,556.813084139947,4812.921391664578,24.0,13.0,11.0,0.5416666666666666,1494.4755201736991,26066.246775382075,27.0,5.0,22.0,0.1851851851851851,1000.119070114001,19827.278241388765,87.0,43.0,44.0,0.4942528735632184,63.38422512200247,10113.0696096821,,,,,120244.0,120279.0,120343.0,120363.0,120375.0,120398.0,120408.0,120432.0,120596.0,120681.0,0.039505964618881464,-0.19904780926527774,0.043083008636546155,-0.09837804505553958,0.006593865899396957
127,127,121164.7957581884,1152.0584427874014,12.708341355441627,121261.9536298503,-2740.878703174072,15.28779240518434,121292.48137275148,34686.75518014619,10.7108236755507,121316.60271279886,-10288.038248601924,17.15074491564685,121545.00721743796,9431.550799809567,33.85180833913732,0.9730620082283044,97.0,61.0,91.0,251.0,342.0,36.0,901.0,904.0,41.0,19.0,22.0,0.4634146341463415,36.70841344081812,1004.4185890673264,22.0,17.0,5.0,0.7727272727272727,454.9672115217395,3316.6699321198566,24.0,13.0,11.0,0.5416666666666666,1494.1821854315651,27725.29144017285,26.0,5.0,21.0,0.1923076923076923,992.556221932264,19820.033047801942,85.0,42.0,43.0,0.4941176470588235,60.11679709151231,9838.990506894412,,,,,121148.0,121184.0,121245.0,121267.0,121279.0,121303.0,121312.0,121336.0,121505.0,121587.0,0.03186332574587296,-0.16599319444339697,0.0430764474126077,-0.09647672354514679,0.0063740097856151215
128,128,122157.20301424408,1804.159336836029,18.86594780988108,122255.54796540084,-2405.209029031791,10.293013158420608,122284.51610779596,32655.470125729207,10.761677014250733,122309.17805189872,-9810.302360019634,14.35477957129327,122540.17079499664,9189.248643826724,35.78462296513499,0.9818647950859124,106.0,57.0,85.0,257.0,342.0,49.0,993.0,993.0,50.0,23.0,27.0,0.46,34.40630046522899,1849.459454829027,19.0,16.0,3.0,0.8421052631578947,556.8890351020581,5928.17105876602,24.0,14.0,10.0,0.5833333333333334,1479.2690286089953,25669.845909541113,24.0,5.0,19.0,0.2083333333333333,976.769472410112,18868.220273302093,87.0,43.0,44.0,0.4942528735632184,62.32513800062737,9731.794685726472,,,,,122135.0,122184.0,122241.0,122259.0,122271.0,122295.0,122304.0,122326.0,122499.0,122583.0,0.019070544248917413,-0.23153456867166008,0.04529927215604472,-0.09956568478366014,0.006782397605760399
129,129,123150.5137110022,1815.3599074951835,19.18036435655858,123247.54796540084,-2095.2948015921947,9.505125641761506,123277.00428078888,31758.154393797973,10.66693576927187,123301.60271279886,-9426.036919131546,14.0528644477873,123532.24787336549,8922.649790618047,36.81079723766709,0.9791578850539748,106.0,58.0,85.0,257.0,342.0,48.0,991.0,992.0,49.0,23.0,26.0,0.4693877551020408,29.97683626906458,1811.369797717894,19.0,16.0,3.0,0.8421052631578947,509.0825073859565,5500.942125374177,24.0,13.0,11.0,0.5416666666666666,1446.9870561834402,26091.06846416812,22.0,5.0,17.0,0.2272727272727272,917.606984532766,17759.819505273135,89.0,44.0,45.0,0.4943820224719101,61.43575746971534,9496.031801920051,,,,,123128.0,123176.0,123234.0,123251.0,123264.0,123288.0,123297.0,123319.0,123490.0,123576.0,0.01651288879152693,-0.24296462101614985,0.045562693544497074,-0.09734812120991654,0.006885371376372249
130,130,124118.95421309132,1370.293157662252,14.546764005855652,124214.39728720114,-2221.7085697132115,20.383723206250075,124244.11849482928,33036.521330607226,10.577470163932848,124269.17805189872,-9901.517115166884,16.099118662972394,124498.64830491367,9239.742573875734,35.291593505044496,0.973588760459283,98.0,57.0,89.0,255.0,344.0,41.0,972.0,967.0,41.0,19.0,22.0,0.4634146341463415,32.513781937638726,1346.4976504283177,21.0,16.0,5.0,0.7619047619047619,446.8006616140312,3462.1522342936887,24.0,13.0,11.0,0.5416666666666666,1449.6569357850562,25929.80995935168,24.0,5.0,19.0,0.2083333333333333,944.240131658822,19007.89799589533,87.0,44.0,43.0,0.5057471264367817,57.61598588515283,9736.051988293795,,,,,124100.0,124141.0,124198.0,124219.0,124231.0,124255.0,124264.0,124287.0,124456.0,124542.0,0.023727610224010678,-0.20110678227779727,0.043880435269738824,-0.09536317724608684,0.006235670033498026
131,131,125021.83429629772,1633.507009366396,15.59058315723476,125117.39728720114,-2578.047378413319,11.323596723998364,125147.0616371266,33215.58053998873,10.685938159354397,125171.60271279886,-9990.749888582486,15.114551822071718,125395.95885943926,10090.818152841108,37.686912964956655,0.9695281806075282,103.0,60.0,86.0,251.0,337.0,43.0,899.0,903.0,43.0,21.0,22.0,0.4883720930232558,36.09371036715632,1524.410905379621,19.0,14.0,5.0,0.7368421052631579,475.9744554411565,4019.6437024335623,24.0,13.0,11.0,0.5416666666666666,1493.8932382894145,26804.80591899432,24.0,5.0,19.0,0.2083333333333333,950.113019708022,18795.274729622128,91.0,45.0,46.0,0.4945054945054945,69.01276329851389,10717.731383784529,,,,,125001.0,125044.0,125104.0,125122.0,125134.0,125158.0,125167.0,125190.0,125353.0,125441.0,0.022095840519935284,-0.18462595351296412,0.044975677498422593,-0.09509926985499048,0.006839164302954274
132,132,125806.82531085129,1475.7150444268616,14.106435757618865,125904.39728720114,-2380.3825654796424,20.38372319213293,125933.63615987102,33824.14442898329,10.70733937857919,125957.60271279886,-9951.900746306002,13.916799666898436,126177.90479277824,11817.813099990371,37.752383561875256,0.9574377952999884,99.0,59.0,87.0,249.0,336.0,40.0,790.0,787.0,40.0,19.0,21.0,0.475,39.29303379598278,1438.1019492322955,23.0,18.0,5.0,0.782608695652174,492.1790832394766,4276.22465719575,24.0,14.0,10.0,0.5833333333333334,1508.880898022892,26272.13497884012,22.0,5.0,17.0,0.2272727272727272,1008.523834036356,19001.5379984062,91.0,45.0,46.0,0.4945054945054945,72.95338627076089,12598.75127938402,,,,,125788.0,125828.0,125887.0,125909.0,125920.0,125944.0,125953.0,125974.0,126135.0,126223.0,0.02662643709188681,-0.2067646984048144,0.044609580626375274,-0.1013398203765954,0.006173171436500407
133,133,,,,,,,,,,,,,,,,,,,,,,,,,,,,,,,,,,,,,,,,,,,,,,,,,,,,,,,,,,,,126978.0,127261.0,127334.0,127346.0,127369.0,127378.0,127399.0,127564.0,127642.0,,,,,
134,134,128359.22797915236,1141.9034493633974,12.88356961404153,128453.5479653808,-2375.6614057881966,15.287792405183904,128483.1489049631,34365.21787880436,10.86215652353776,128508.17805189872,-9897.32767351281,15.706029539371052,128742.4641126944,8431.073561531153,32.3392561627486,0.9848727615458586,96.0,60.0,88.0,257.0,345.0,36.0,2553.0,2549.0,37.0,18.0,19.0,0.4864864864864865,42.649105757167646,1050.8789075117038,25.0,22.0,3.0,0.88,549.2050569326833,5493.648682743422,24.0,13.0,11.0,0.5416666666666666,1479.8544434749415,27917.52807544632,24.0,5.0,19.0,0.2083333333333333,1003.4295209296678,19487.523486822316,81.0,40.0,41.0,0.4938271604938271,62.8209534424274,8819.1459942773,,,,,128342.0,128378.0,128438.0,128457.0,128470.0,128494.0,128503.0,128526.0,128703.0,128783.0,0.03734913471094619,-0.23117985399542582,0.043062565431534194,-0.10138388401700006,0.0074511214952581424
135,135,129448.80446113028,613.1961461763252,8.038455090345932,129538.87669549928,-2851.025595102393,12.739827004320285,129571.7467627536,33531.204312729715,10.553199880920255,129595.60271279886,-10180.464873374993,16.73198567772205,129829.42513711697,8100.907160230735,31.258817356623897,0.9756021850069876,53.0,31.0,123.0,255.0,378.0,22.0,1090.0,1089.0,22.0,11.0,11.0,0.5,56.02199870149179,480.69141461368713,59.0,52.0,7.0,0.8813559322033898,332.9671003026985,1598.3588671041157,24.0,14.0,10.0,0.5833333333333334,1486.0036245226704,25149.603296101945,24.0,5.0,19.0,0.2083333333333333,1000.0013026408652,19661.016507999484,81.0,40.0,41.0,0.4938271604938271,61.713040069845555,8369.183645373027,,,,,129438.0,129460.0,129491.0,129546.0,129558.0,129582.0,129591.0,129614.0,129790.0,129869.0,0.09136065034137153,-0.11678853422946565,0.04431703706981163,-0.0982274694799225,0.007618040652633255
136,136,130505.2387732223,1252.6177911888576,14.96835734222448,130598.972626301,-2124.6442754012933,17.835757805000988,130627.8885278193,31940.635279236336,10.50492327645555,130652.17805189872,-9743.25999917999,15.503369803213872,130885.0461302277,8715.201420417881,33.83467615553029,0.9789728492547282,93.0,60.0,87.0,257.0,344.0,33.0,1059.0,1056.0,33.0,15.0,18.0,0.4545454545454545,72.20203816874987,1406.4435985422017,21.0,17.0,4.0,0.8095238095238095,496.79652875035055,4643.262925074022,23.0,13.0,10.0,0.5652173913043478,1434.3529337542957,24749.79121385138,24.0,5.0,19.0,0.2083333333333333,969.207900024316,18869.534090306643,83.0,41.0,42.0,0.4939759036144578,69.96391143329929,9189.222393848904,,,,,130490.0,130523.0,130583.0,130603.0,130615.0,130638.0,130647.0,130670.0,130845.0,130927.0,0.05764091702723065,-0.23382574415028504,0.044906837989121845,-0.09947470354951897,0.00802780200459723
137,137,131525.57823001876,1356.6546865406149,13.917373526631817,131617.12330450068,-2598.217981611269,12.739827004290545,131645.61982869692,31710.293114561315,10.718027640261388,131670.17805189872,-10233.562762048878,15.335341425268656,131899.90149643985,9676.357375462154,35.742639995157425,0.9753582734204744,95.0,57.0,86.0,255.0,341.0,38.0,1016.0,1018.0,38.0,19.0,19.0,0.5,70.46524656898664,1368.5463850293545,20.0,16.0,4.0,0.8,546.002598639377,5048.232658217307,24.0,14.0,10.0,0.5833333333333334,1428.5785393990168,24199.390009755072,24.0,5.0,19.0,0.2083333333333333,966.859018185992,19229.237052737764,87.0,43.0,44.0,0.4942528735632184,67.54159295705615,10115.458803654245,,,,,131507.0,131545.0,131602.0,131620.0,131632.0,131656.0,131665.0,131688.0,131858.0,131943.0,0.051940443849177745,-0.21014503113429184,0.04505094084869925,-0.09447921908209567,0.006980063916234831
