Unnamed: 0,cycle,p_center,p_height,p_width,q_center,q_height,q_width,r_center,r_height,r_width,s_center,s_height,s_width,t_center,t_height,t_width,r_squared,pr_interval,pr_segment,qrs_duration,st_segment,qt_interval,p_duration,pp_interval,rr_interval,fwhm_p,rise_time_p,decay_time_p,rise_decay_symmetry_p,sharpness_deriv_p,sharpness_diff_p,fwhm_q,rise_time_q,decay_time_q,rise_decay_symmetry_q,sharpness_deriv_q,sharpness_diff_q,fwhm_r,rise_time_r,decay_time_r,rise_decay_symmetry_r,sharpness_deriv_r,sharpness_diff_r,fwhm_s,rise_time_s,decay_time_s,rise_decay_symmetry_s,sharpness_deriv_s,sharpness_diff_s,fwhm_t,rise_time_t,decay_time_t,rise_decay_symmetry_t,sharpness_deriv_t,sharpness_diff_t,Average_Heart_Rate,SDNN,RMSSD,NN50,p_on,p_off,q_on,q_off,r_on,r_off,s_on,s_off,t_on,t_off,sharpness_deriv_p_norm,sharpness_deriv_q_norm,sharpness_deriv_r_norm,sharpness_deriv_s_norm,sharpness_deriv_t_norm
0,0,,,,,,,,,,,,,,,,,,,,,,,,,,,,,,,,,,,,,,,,,,,,,,,,,,,,,,,66.39324517371344,384.6503455501814,573.9679421416075,682.0,,,,,,,,,,,,,,,
1,1,2216.9040691982723,1704.6514431096036,19.134799126735224,2290.602712798848,-941.247191183765,20.383723153668516,2332.5562530996044,22847.19314140483,6.686855862705532,2359.9040691982723,-8122.877641445508,15.026616645655889,2594.840693308949,10910.626504877688,30.406354028292956,0.9390728563412216,89.0,50.0,93.0,255.0,348.0,39.0,,,40.0,23.0,17.0,0.575,106.97637301541178,1487.7290640160122,53.0,40.0,13.0,0.7547169811320755,100.29068432514464,624.602939795987,16.0,9.0,7.0,0.5625,1436.6609180800483,16864.87685886852,30.0,13.0,17.0,0.4333333333333333,378.24513313462666,9637.424089551136,77.0,39.0,38.0,0.5064935064935064,127.55641671675896,11561.532894467906,,,,,2195.0,2234.0,2284.0,2302.0,2324.0,2340.0,2347.0,2377.0,2560.0,2632.0,0.06275557003035578,-0.10655084579749287,0.06288128739440028,-0.046565410662435636,0.011691025869113364
2,2,3217.5759681469094,1636.0517320038805,18.92687000640086,3301.87669549928,-1118.5277530587205,12.739827004320285,3341.960844542449,23031.182644166744,6.717866574977278,3368.551555649689,-7888.01502738126,15.187968675974568,3605.409599933583,11191.583638179338,31.04625915733317,0.9382453532186454,91.0,56.0,90.0,256.0,346.0,35.0,993.0,1010.0,39.0,13.0,26.0,0.3333333333333333,100.68618948793988,1750.571079621352,15.0,7.0,8.0,0.4666666666666667,119.31090398527786,942.3393521644928,15.0,8.0,7.0,0.5333333333333333,1451.730645082517,17580.759696663597,31.0,13.0,18.0,0.4193548387096774,409.2230103815792,9732.063218758289,77.0,38.0,39.0,0.4935064935064935,133.6999405219582,11623.456009308482,,,,,3205.0,3240.0,3296.0,3309.0,3334.0,3349.0,3357.0,3386.0,3569.0,3642.0,0.061542179576813696,-0.1066678083391412,0.06303326526960638,-0.05187908605156867,0.011946471995781707
3,3,4222.053135746404,1821.0868441981788,21.81083148486846,4309.876695499281,-803.3754603866333,10.83438537298096,4348.498871023108,22858.307887221046,6.629922763772986,4375.2470026594765,-7992.334090163841,14.118148696227712,4611.66442771603,11347.94827366878,30.82974846492341,0.9428044349326452,109.0,52.0,90.0,257.0,347.0,57.0,1005.0,1006.0,58.0,29.0,29.0,0.5,109.06760219251382,2020.298375627591,18.0,8.0,10.0,0.4444444444444444,117.92283756730936,630.160305342439,15.0,8.0,7.0,0.5333333333333333,1472.084496930487,18443.76572025685,30.0,12.0,18.0,0.4,445.87506925104896,10123.300235094088,77.0,39.0,38.0,0.5064935064935064,136.13254210749363,11683.890659859791,,,,,4193.0,4250.0,4302.0,4317.0,4341.0,4355.0,4363.0,4392.0,4577.0,4649.0,0.05989148872278855,-0.1467842165736027,0.0644004142473493,-0.05578784172696022,0.011996225117043305
4,4,5202.479408298129,1445.9207480911837,15.307327168125248,5279.178051898705,-1520.5733118167784,22.93168860777651,5321.945024836479,20333.64554372179,6.098765427749407,5349.840615246815,-8295.518205085024,17.05163538204643,5588.383477496401,10468.781691807264,29.81297394527472,0.9129433254512478,83.0,53.0,94.0,256.0,350.0,30.0,988.0,973.0,50.0,30.0,20.0,0.6,104.19502144207118,1220.6135092001414,63.0,43.0,20.0,0.6825396825396826,126.6601555644112,818.1502413059732,14.0,7.0,7.0,0.5,1320.8900844847603,14212.705229583393,36.0,16.0,20.0,0.4444444444444444,279.4239897782263,8520.228793261867,76.0,39.0,37.0,0.5131578947368421,133.39666102839087,10861.695481013445,,,,,5191.0,5221.0,5274.0,5293.0,5315.0,5329.0,5335.0,5368.0,5551.0,5624.0,0.0720613640682749,-0.08329763161046004,0.06496080998582165,-0.03368372931867521,0.012742329046061339
5,5,7088.602712798849,1368.8030668365398,17.941320829514748,7148.527749958158,-1386.3473446963492,17.32573893512109,7204.240151067026,22298.169631262044,6.543753962773961,7230.673194366717,-8334.007300991501,17.39948654124083,7469.8074954736385,10900.206554763,29.365903804848163,0.9320446892607516,67.0,37.0,113.0,257.0,370.0,30.0,1884.0,1882.0,31.0,19.0,12.0,0.6129032258064516,111.66144481744092,953.5626252858524,35.0,12.0,23.0,0.3428571428571428,107.54560865403576,1987.2134843060717,15.0,8.0,7.0,0.5333333333333333,1394.82221738439,15985.90692290596,33.0,13.0,20.0,0.3939393939393939,352.0254965108019,9399.907135084217,75.0,38.0,37.0,0.5066666666666667,143.70365686541948,11459.899792937576,,,,,7070.0,7100.0,7137.0,7172.0,7196.0,7211.0,7218.0,7250.0,7435.0,7507.0,0.08157597504183219,-0.07757479326192342,0.06255321582220132,-0.042239643402870695,0.01318357190237153
6,6,8070.904069198273,1700.4482073998693,18.079890740483297,8144.602712798849,-941.1157247219236,20.383723199988545,8187.640976229211,23387.099053978425,6.675226401062865,8214.904069198274,-8057.769835765056,15.198915237743734,8452.92508848441,11311.068426206866,30.591662011146997,0.9382600129682797,90.0,51.0,93.0,259.0,352.0,39.0,984.0,985.0,40.0,22.0,18.0,0.55,93.52243166582956,1541.976588867553,58.0,40.0,18.0,0.6896551724137931,89.56021131389961,651.9018441810427,15.0,8.0,7.0,0.5333333333333333,1474.2217788634384,17297.666230825584,31.0,13.0,18.0,0.4193548387096774,391.554093206484,9702.46491386287,77.0,38.0,39.0,0.4935064935064935,132.8620962272771,11759.632743131446,,,,,8049.0,8088.0,8139.0,8156.0,8180.0,8195.0,8202.0,8232.0,8415.0,8491.0,0.054998694614070816,-0.09516386663325856,0.06303568371010322,-0.04859335786293372,0.011746202146513937
7,7,9071.328730098418,1408.1341886919154,15.099153056445678,9145.027373698991,-1233.8647377396956,17.835757806027043,9189.115351555249,23014.41576065943,6.663809128392087,9215.904069199974,-8196.306313590721,15.272267964982293,9455.1026152329,11085.481527421294,29.425582537678853,0.9299885968451864,86.0,54.0,92.0,259.0,351.0,32.0,1000.0,1001.0,37.0,17.0,20.0,0.4594594594594595,91.2844856596554,1373.914813337154,60.0,40.0,20.0,0.6666666666666666,93.94800898107472,877.9144725667151,15.0,8.0,7.0,0.5333333333333333,1466.478821331587,17879.227454209395,30.0,12.0,18.0,0.4,417.3106033263447,10126.00627657861,73.0,36.0,37.0,0.4931506849315068,134.24863369561675,11779.225193302796,,,,,9055.0,9087.0,9141.0,9163.0,9181.0,9196.0,9204.0,9233.0,9420.0,9492.0,0.06482655303217516,-0.07614125447265568,0.06372001082201567,-0.05091447139236125,0.012110311434242738
8,8,10058.821948101277,1398.7240756950755,16.22305206708862,10121.821948101297,-1402.44682689379,20.4464329451924,10177.302220990914,20266.629422705115,5.896080569824017,10207.328730098418,-8186.631469137082,16.11571823256742,10444.259186735317,10701.346883889752,29.98617107913649,0.9240769682259248,63.0,34.0,114.0,258.0,372.0,29.0,979.0,987.0,34.0,17.0,17.0,0.5,105.32479203182308,1364.4898594111423,60.0,27.0,33.0,0.45,140.9009145433205,1482.2324434864126,14.0,7.0,7.0,0.5,1334.7055064208316,14950.97146013444,33.0,16.0,17.0,0.4848484848484848,277.0272773042965,8091.796009355883,76.0,37.0,39.0,0.4868421052631579,122.93470113087707,10978.916950021368,,,,,10046.0,10075.0,10109.0,10128.0,10170.0,10184.0,10191.0,10223.0,10407.0,10481.0,0.07530062137486514,-0.10046791924039998,0.06585730061879624,-0.033838982290660846,0.011487778357689538
9,9,11005.689321344653,1663.122229513566,14.137634338170727,11081.178051898703,-1156.2309853800557,16.249640138052378,11124.603046060864,20504.265280755255,6.180576459825316,11152.330526672937,-8060.848471825917,17.381256406979578,11390.897657656826,10730.307467891147,30.30403721835207,0.9263528007232616,84.0,52.0,96.0,257.0,353.0,32.0,947.0,947.0,38.0,19.0,19.0,0.5,106.37744778391468,1382.0953340012684,58.0,38.0,20.0,0.6551724137931034,102.48831671703118,575.5415481159073,14.0,8.0,6.0,0.5714285714285714,1316.6846206774435,13833.458693857332,36.0,15.0,21.0,0.4166666666666667,274.74336870816876,8346.700513118318,78.0,39.0,39.0,0.5,129.32635746630277,11160.582572483849,,,,,10992.0,11024.0,11076.0,11099.0,11117.0,11131.0,11138.0,11172.0,11354.0,11429.0,0.06396249529719064,-0.088640001879333,0.06421515731720696,-0.03408367861875151,0.012052437253386512
10,10,11969.972626301009,1311.041216888973,12.6012262885542,12051.75339099856,-1399.485554008162,23.12809086144546,12094.756420443204,22386.46697057132,6.634870550212258,12121.83461445585,-8344.704266506747,17.377292653119707,12362.133491005976,10699.10319370673,29.340540129511748,0.9282759799767548,67.0,37.0,113.0,259.0,372.0,30.0,965.0,970.0,31.0,11.0,20.0,0.3548387096774194,127.78645429949844,1455.2804703352222,60.0,40.0,20.0,0.6666666666666666,121.11105119974027,933.0858327481368,15.0,8.0,7.0,0.5333333333333333,1399.1892289291684,15591.155812649717,33.0,14.0,19.0,0.4242424242424242,357.69057581251957,9701.543742366706,75.0,37.0,38.0,0.4933333333333333,119.94588665128856,11005.517236091731,,,,,11960.0,11990.0,12027.0,12066.0,12087.0,12102.0,12109.0,12140.0,12325.0,12399.0,0.09746944081798474,-0.08653969371307561,0.0625015653773553,-0.04286438013725508,0.011210835570016876
11,11,12969.128437273816,1632.1322757164787,14.55204573288672,13052.876695499284,-1339.994308955601,12.739827004320285,13091.478816122431,23575.99380974945,6.752844744298656,13117.935469482753,-8088.695982483891,16.39281525000077,13358.046697119573,11284.44271412347,30.4247756650825,0.938757666090681,85.0,51.0,96.0,258.0,354.0,34.0,999.0,998.0,34.0,14.0,20.0,0.4117647058823529,117.12876480040757,1586.6038597723846,25.0,13.0,12.0,0.52,123.26999695640332,1069.236483276145,15.0,8.0,7.0,0.5333333333333333,1461.8104153266088,18184.43763198481,31.0,12.0,19.0,0.3870967741935484,422.3612343617133,10318.20161563412,74.0,37.0,37.0,0.5,140.65156953819982,12047.91662304828,,,,,12955.0,12989.0,13040.0,13060.0,13084.0,13098.0,13106.0,13136.0,13324.0,13394.0,0.071764259884506,-0.09199292574046875,0.062004190666274356,-0.05221623303389551,0.012464201653676885
12,12,13961.972626301009,1506.8451020116563,15.121111651513887,14045.178051898703,-1328.914856538893,22.93168859397448,14085.852857879276,23533.853383304264,6.773396231538096,14112.478435129871,-8212.234030285264,16.245489658158245,14351.554154907111,11427.867449341304,30.678227096836583,0.935762238875803,87.0,58.0,91.0,259.0,350.0,29.0,993.0,995.0,33.0,13.0,20.0,0.3939393939393939,104.29284605952871,1546.02463720039,58.0,40.0,18.0,0.6896551724137931,92.87013327203304,1387.9051116241762,15.0,8.0,7.0,0.5333333333333333,1474.8273863466086,17477.402715426822,31.0,12.0,19.0,0.3870967741935484,441.4671897579339,10637.4509284065,75.0,38.0,37.0,0.5066666666666667,117.45563136433242,12109.573175310674,,,,,13952.0,13981.0,14039.0,14058.0,14078.0,14093.0,14100.0,14130.0,14314.0,14389.0,0.06921271862668334,-0.06988418619527642,0.06266833409410558,-0.05375725875929511,0.010278000850552612
13,13,14947.39728720115,1169.2216528581082,12.528682066024738,15026.054747397986,-1644.216049868046,26.720889128156063,15069.53490873707,21961.716674204257,6.4300817191158774,15096.987953105836,-8507.895874356978,17.9166813547318,15336.941740451812,10666.835975310045,29.0859571973907,0.9161279596293948,50.0,25.0,129.0,258.0,387.0,25.0,985.0,982.0,29.0,14.0,15.0,0.4827586206896552,108.00801413238186,1061.6810325315828,62.0,40.0,22.0,0.6451612903225806,112.86741468429535,1419.5083316381028,14.0,8.0,6.0,0.5714285714285714,1387.7772930316628,14749.130844534664,34.0,14.0,20.0,0.4117647058823529,335.187659727949,9194.53986398889,73.0,36.0,37.0,0.4931506849315068,151.35810685624503,11188.515875749796,,,,,14936.0,14961.0,14986.0,15046.0,15062.0,15076.0,15083.0,15115.0,15302.0,15373.0,0.09237599549098434,-0.06864512403546563,0.06319074750024961,-0.0393972451799996,0.014189597290760405
14,14,15907.019106357187,1398.6313666883673,13.069114404062844,15989.876695499284,-1375.5821621488733,12.739827004320285,16027.055831130234,20602.48666945128,6.21614470495753,16054.688587903542,-8231.08920097435,17.376165968834716,16294.066415177384,10807.427499218027,30.266570193512013,0.9235487080603088,86.0,54.0,94.0,258.0,352.0,32.0,959.0,958.0,38.0,19.0,19.0,0.5,104.79006395253155,1233.0825657393134,21.0,12.0,9.0,0.5714285714285714,141.37683188433726,1236.6360376781947,14.0,7.0,7.0,0.5,1321.6462077123651,14408.360882994337,36.0,16.0,20.0,0.4444444444444444,285.49608375473935,8415.601824028392,77.0,39.0,38.0,0.5064935064935064,148.47521523164045,11335.447054507142,,,,,15893.0,15925.0,15979.0,15997.0,16020.0,16034.0,16040.0,16073.0,16256.0,16331.0,0.07492329033106841,-0.1027759996999995,0.06414983923625397,-0.03468509170340955,0.01373825688327619
15,15,16890.59128852221,1595.1856857935752,15.804764700242282,16968.02737369914,-1216.2328776202364,16.719199400403525,17013.053035099387,22199.404958775744,6.4621116216703305,17040.904069198663,-7934.475734806651,15.22077283438355,17280.251665264634,11117.47300642154,30.70129954021772,0.932979617226248,90.0,58.0,94.0,260.0,354.0,32.0,984.0,988.0,36.0,17.0,19.0,0.4722222222222222,114.872816863691,1416.923459534482,55.0,36.0,19.0,0.6545454545454545,117.28730099730272,743.3915362495786,15.0,8.0,7.0,0.5333333333333333,1423.0905902636446,16918.129290486922,32.0,14.0,18.0,0.4375,344.70705311122674,8573.599314730265,78.0,39.0,39.0,0.5,138.8037861663657,11631.77985847032,,,,,16874.0,16906.0,16964.0,16982.0,17005.0,17020.0,17027.0,17058.0,17245.0,17318.0,0.07201219136225129,-0.0964349041663756,0.06410489798741549,-0.04344421290483997,0.01248519210131579
16,16,17928.38953382133,1352.190800139681,16.24711337181952,18006.178051898707,-1195.3781638584148,21.709157967028567,18050.17816226027,23384.672207076917,6.809146675908245,18076.30043442092,-8182.316656859288,15.699652031998191,18317.856853127578,11291.973409760732,30.75512118191478,0.9361556195818644,83.0,53.0,93.0,262.0,355.0,30.0,1047.0,1036.0,36.0,15.0,21.0,0.4166666666666667,118.25557265562928,1499.6998117240944,58.0,38.0,20.0,0.6551724137931034,116.54587789786012,660.602850911873,15.0,8.0,7.0,0.5333333333333333,1464.433898574464,17426.68979046674,30.0,12.0,18.0,0.4,448.3351188834184,10809.363120908896,78.0,39.0,39.0,0.5,140.92461522514077,11664.171577854266,,,,,17918.0,17948.0,18001.0,18020.0,18042.0,18057.0,18064.0,18094.0,18281.0,18356.0,0.0874547975355353,-0.0974970778466255,0.06262366586140478,-0.05479317627087632,0.01248006970184026
17,17,18961.003646528752,1782.7680989954447,18.660889395091264,19045.027373698995,-1024.3511215744873,17.83575778702128,19087.536723062218,23123.26319829667,6.717488319507933,19114.222753569768,-7943.016543042679,15.235872127285718,19354.893118989065,11368.286589713318,30.818739688605643,0.9358273208176876,92.0,58.0,90.0,263.0,353.0,34.0,1025.0,1038.0,34.0,12.0,22.0,0.3529411764705882,127.77588723905052,2112.4994385605437,20.0,6.0,14.0,0.3,122.14030621959417,598.0436628777927,15.0,9.0,6.0,0.6,1453.363213598407,17269.247296887923,30.0,12.0,18.0,0.4,430.5582596112231,10240.675294357008,76.0,37.0,39.0,0.4868421052631579,127.86657888442636,11862.951089349648,,,,,18949.0,18983.0,19041.0,19059.0,19079.0,19094.0,19102.0,19131.0,19318.0,19394.0,0.07167274717954049,-0.11923675744295316,0.0628528595265683,-0.05420588730717814,0.011247656177152274
18,18,19966.972626300987,1096.0840201917772,13.042036872424998,20043.205425597705,-1887.7174885678176,24.24499205543081,20089.27596596977,21402.043888483742,6.356888837703752,20116.63118028029,-8517.348163348786,17.97691875404161,20358.010918689677,10502.668841085471,29.54219272358711,0.9143779038687592,50.0,25.0,129.0,259.0,388.0,25.0,1005.0,1000.0,28.0,10.0,18.0,0.3571428571428571,115.05058636397486,1041.0085911350711,65.0,39.0,26.0,0.6,118.15983188418237,1106.0905095558956,14.0,7.0,7.0,0.5,1356.648171597506,14995.158353627132,35.0,15.0,20.0,0.4285714285714285,306.34972775314793,9188.397101038452,73.0,36.0,37.0,0.4931506849315068,122.11307104271994,11142.13936656934,,,,,19957.0,19982.0,20007.0,20066.0,20082.0,20096.0,20103.0,20136.0,20322.0,20395.0,0.10496511603539749,-0.06259402299325437,0.06338872019263109,-0.035967735717486474,0.011626861028410691
19,19,20915.246609001435,1509.0262345577694,16.605913660079317,20997.178051898707,-1067.9122618194751,22.931688601422113,21036.277898114593,20440.178350391587,6.304721851609706,21064.25380913537,-8203.549178813051,17.073922088089002,21304.58797645688,10871.86762916202,30.991863942998407,0.9272349450021138,70.0,37.0,112.0,260.0,372.0,33.0,947.0,947.0,49.0,29.0,20.0,0.5918367346938775,137.45835880063194,1301.996909629153,54.0,40.0,14.0,0.7407407407407407,120.71355897167264,965.0834693955452,14.0,7.0,7.0,0.5,1320.5359501058344,14911.256328622054,36.0,16.0,20.0,0.4444444444444444,281.8152721489206,8367.399771078635,77.0,38.0,39.0,0.4935064935064935,123.3286057236756,11271.074664140391,,,,,20901.0,20934.0,20971.0,21010.0,21029.0,21043.0,21050.0,21083.0,21268.0,21343.0,0.09109076810776259,-0.11303696313590847,0.06460491329717463,-0.03435284728672714,0.011343828855390644
20,20,21872.41250256881,1451.8411892496515,15.803794604671904,21950.602712798853,-1133.8450167457588,20.383717421452616,21994.265940525063,22753.97837535107,6.667518348975723,22021.069559252428,-8035.16971086778,16.52648523221794,22262.018752384145,10913.817973946874,30.291982820165355,0.9351304770832606,52.0,21.0,127.0,260.0,387.0,31.0,959.0,960.0,36.0,15.0,21.0,0.4166666666666667,126.54365447656464,1636.8520332295964,55.0,39.0,16.0,0.7090909090909091,120.5240202328421,918.4239708040576,15.0,8.0,7.0,0.5333333333333333,1424.9995660810353,16835.81885953739,33.0,13.0,20.0,0.3939393939393939,373.2034136197306,9504.70624387176,75.0,37.0,38.0,0.4933333333333333,120.91594127093649,11481.112351382486,,,,,21860.0,21891.0,21912.0,21962.0,21986.0,22001.0,22008.0,22039.0,22225.0,22299.0,0.08716081029631459,-0.1062967323159891,0.06262639185878408,-0.04644623910245021,0.011079160524720428
21,21,22858.69864360057,1331.8090752678495,10.191861603455946,22943.602712798853,-1569.6895306206463,20.3837232043197,22985.186496806506,23219.934757540206,6.738567253982791,23012.47940829813,-8438.071114973713,16.821113290574555,23252.376242036644,11275.173788012176,30.03058626017812,0.9297313563127534,62.0,36.0,116.0,258.0,374.0,26.0,987.0,990.0,37.0,12.0,25.0,0.3243243243243243,115.12932440555068,1470.0370470297555,40.0,29.0,11.0,0.725,120.12530606857096,1839.9067504799043,15.0,8.0,7.0,0.5333333333333333,1455.8683081915165,17222.76946227396,32.0,13.0,19.0,0.40625,409.5572130428518,10819.445119005151,78.0,39.0,39.0,0.5,134.140448112957,11538.697302314384,,,,,22853.0,22879.0,22915.0,22955.0,22977.0,22992.0,23000.0,23031.0,23216.0,23289.0,0.08644581760519705,-0.076528067318557,0.06269906971718568,-0.04853682879207729,0.011896973885721905
22,22,23879.68904140876,1655.2737457006606,14.965064971615622,23957.32873009842,-1219.0909421323836,20.195633641331305,23999.979610640257,23070.937444014275,6.74641989937131,24026.52348570604,-8120.128053527073,16.17916602295315,24267.36567148304,11154.987770834252,30.801660788785448,0.935320451782044,69.0,36.0,111.0,261.0,372.0,33.0,1019.0,1015.0,35.0,17.0,18.0,0.4857142857142857,101.66060482436312,1513.9221181706394,54.0,38.0,16.0,0.7037037037037037,115.96598508950696,1255.8755368075376,15.0,8.0,7.0,0.5333333333333333,1452.347879563404,17298.184898980966,31.0,13.0,18.0,0.4193548387096774,406.5190268404097,9903.54720357673,75.0,36.0,39.0,0.48,143.8447232609078,11960.42415968142,,,,,23864.0,23897.0,23933.0,23973.0,23992.0,24007.0,24015.0,24044.0,24232.0,24305.0,0.06141618876540038,-0.09512496654815927,0.06295140295394515,-0.05006313005911692,0.012895103626828096
23,23,24876.246609001435,1965.3915842976412,15.74097291115656,24954.876695499283,-790.6505738944014,7.941199679060547,24994.775432670773,19675.974487221258,6.035714758259955,25025.32873009842,-7764.848407213716,15.210005168498055,25262.97916665927,11026.89570716239,31.864767611875564,0.932580907138722,90.0,56.0,89.0,261.0,350.0,34.0,996.0,994.0,39.0,19.0,20.0,0.4871794871794871,127.4733347381286,1715.7462185209083,17.0,7.0,10.0,0.4117647058823529,124.50171212294944,522.607864027269,15.0,8.0,7.0,0.5333333333333333,1312.9877308058085,14778.62217721294,33.0,16.0,17.0,0.4848484848484848,275.4560231129111,7426.167200068072,78.0,39.0,39.0,0.5,127.8023987807191,11734.51438644945,,,,,24862.0,24896.0,24952.0,24963.0,24987.0,25002.0,25009.0,25041.0,25225.0,25302.0,0.06485900100344781,-0.1574674277534614,0.0667305058592417,-0.03547474576026576,0.011590061443830159
24,24,25835.178051898707,1568.791838804085,13.809125196192896,25911.178051898707,-1429.5607562252296,14.50627086809037,25952.51814687113,19893.68686712735,6.254813037598027,25980.479408298474,-8182.489919319631,16.99513498023391,26220.73178911667,10688.425699629965,30.830445628405776,0.9252915906778222,87.0,57.0,94.0,259.0,353.0,30.0,967.0,957.0,33.0,19.0,14.0,0.5757575757575758,132.70371403692647,1153.133191539206,40.0,26.0,14.0,0.65,138.01641634658932,953.3881868879116,14.0,8.0,6.0,0.5714285714285714,1303.1958645728837,13664.992074637365,36.0,15.0,21.0,0.4166666666666667,277.24903559561244,8799.958222946658,78.0,40.0,38.0,0.5128205128205128,125.26310511195516,11184.252952198322,,,,,25818.0,25848.0,25905.0,25924.0,25945.0,25959.0,25966.0,25999.0,26183.0,26258.0,0.08458975292610435,-0.09654463145100817,0.06550801132425109,-0.03388321138544898,0.01171950936762294
25,25,26820.360482640477,1644.2316703745907,16.226527409246884,26881.972626301005,-1059.1468955375483,15.825654237974662,26938.220341623997,21844.80378608472,6.655582248330421,26964.6684711605,-8131.962123530119,16.100879846358733,27206.58043669263,11142.903823598648,31.48624475613973,0.9328361388294912,69.0,35.0,111.0,262.0,373.0,34.0,977.0,986.0,37.0,18.0,19.0,0.4864864864864865,128.4380653912249,1391.16102869302,18.0,10.0,8.0,0.5555555555555556,123.35457448748312,1390.353883258329,15.0,8.0,7.0,0.5333333333333333,1376.5842244577325,16037.56960612286,32.0,13.0,19.0,0.40625,364.6724711065403,9498.928826577248,78.0,39.0,39.0,0.5,123.84642968477549,11546.451195338952,,,,,26803.0,26837.0,26872.0,26890.0,26930.0,26945.0,26952.0,26983.0,27169.0,27245.0,0.07811433613972658,-0.11646597370695878,0.06301655249174751,-0.04484433960302737,0.011114376615410718
26,26,27845.36769049595,1645.1767832701132,15.33775813455886,27922.178051898707,-1212.5942569009574,16.294308598017643,27966.710908642417,23279.245668550684,6.81331540295911,27992.828873183324,-8115.633382481269,15.936193556931688,28234.967919221883,11333.89808446777,30.429714207566946,0.9346541371512652,89.0,53.0,94.0,261.0,355.0,36.0,1027.0,1030.0,39.0,18.0,21.0,0.4615384615384615,114.50041453668447,1617.5666451953132,57.0,37.0,20.0,0.6491228070175439,108.55645678650735,669.4012907214013,15.0,8.0,7.0,0.5333333333333333,1448.790824713607,16985.760718980728,30.0,12.0,18.0,0.4,422.3249458154861,10507.375026312136,75.0,37.0,38.0,0.4933333333333333,125.87251524737168,11895.843425891388,,,,,27828.0,27864.0,27917.0,27937.0,27959.0,27973.0,27981.0,28011.0,28198.0,28272.0,0.06959763576841409,-0.08952413898441716,0.062235299431152295,-0.0520384455422954,0.011105844989013111
27,27,28844.35956039358,1959.7799284208709,19.884236485317334,28928.027373698995,-928.4454568015872,10.750296871242202,28969.152041357927,22570.59723082858,6.659875287857447,28995.96972671446,-8087.661308121754,14.923723468876808,29237.636176881413,11192.26947256737,30.968131514118006,0.9418792185341852,106.0,58.0,90.0,263.0,353.0,48.0,999.0,1002.0,54.0,27.0,27.0,0.5,119.49584118077902,2129.8129173969783,17.0,6.0,11.0,0.3529411764705882,104.76991619774697,681.1510919267835,15.0,8.0,7.0,0.5333333333333333,1433.076931655532,17324.752217786205,31.0,13.0,18.0,0.4193548387096774,409.86354228983873,9960.896202307644,76.0,38.0,38.0,0.5,139.0482592458478,12004.184308735565,,,,,28817.0,28865.0,28923.0,28938.0,28961.0,28976.0,28984.0,29013.0,29201.0,29276.0,0.06097411216833158,-0.11284444921371052,0.06349308868522673,-0.05067763432158657,0.012423598233285909
28,28,29803.821948101293,1461.8361788944096,17.381755816703638,29887.178051898707,-1208.1467059718364,22.89971743982278,29926.572102552953,20626.700004367325,6.331154664118443,29954.346115660937,-8236.142149065143,17.79111392938389,30195.460296054734,10663.039168997368,30.25766823214318,0.9212524405949032,70.0,37.0,112.0,260.0,372.0,33.0,958.0,956.0,54.0,28.0,26.0,0.5185185185185185,102.26884548344589,1443.4093899100922,39.0,26.0,13.0,0.6666666666666666,105.37576086986638,1507.0532332327446,14.0,8.0,6.0,0.5714285714285714,1323.806035161598,13870.86791603993,36.0,15.0,21.0,0.4166666666666667,296.7624521494133,8543.533714105439,79.0,39.0,40.0,0.4936708860759494,124.08064308343872,10928.14201411491,,,,,29791.0,29824.0,29861.0,29900.0,29919.0,29933.0,29940.0,29973.0,30158.0,30233.0,0.06995916981668361,-0.08722099754027955,0.06417924509889154,-0.03603173024194317,0.011636517611620652
29,29,30728.45203459914,1201.510461119383,13.935908413137645,30799.602712798853,-1278.7039257252848,20.38372313586134,30841.52659901389,20432.716616568465,6.3710377680822035,30869.72311594992,-8133.906909386661,18.16630502442727,31110.486863440965,10515.509129320832,29.629853470907904,0.9207863097525366,83.0,56.0,96.0,258.0,354.0,27.0,931.0,915.0,27.0,18.0,9.0,0.6666666666666666,108.522265326558,906.2957634760623,56.0,40.0,16.0,0.7142857142857143,121.8216722763622,1077.0195586189045,15.0,8.0,7.0,0.5333333333333333,1308.9231154598394,13888.14167676981,36.0,16.0,20.0,0.4444444444444444,281.1943390965926,8469.486639399758,74.0,36.0,38.0,0.4864864864864865,127.27882564043176,11274.254177371067,,,,,30710.0,30737.0,30793.0,30811.0,30834.0,30849.0,30855.0,30889.0,31075.0,31147.0,0.09032153180377107,-0.09526964751223749,0.06406016096745848,-0.03457063650090337,0.012103914710656749
30,30,31651.095930801723,1706.357436534387,16.628514246232875,31730.027373698995,-1055.8471702121342,17.72807770573009,31772.409157900223,21389.203887909163,6.52366339410533,31799.397833631472,-8187.562710048418,15.626729979039997,32040.45648597367,11030.847069506995,30.43364339971785,0.9304014495809828,92.0,55.0,92.0,260.0,352.0,37.0,915.0,931.0,50.0,28.0,22.0,0.56,106.00895709925592,1711.182672766396,54.0,40.0,14.0,0.7407407407407407,110.92780473814226,575.2332614651934,15.0,8.0,7.0,0.5333333333333333,1378.2020001325095,16327.832420482457,33.0,13.0,20.0,0.3939393939393939,352.6880315493346,9276.153139558211,77.0,38.0,39.0,0.4935064935064935,121.78758280371063,11554.499680648229,,,,,31634.0,31671.0,31726.0,31743.0,31764.0,31779.0,31786.0,31818.0,32003.0,32078.0,0.06212587985935712,-0.10506047453425986,0.06443446924696324,-0.04307607086984363,0.011040637408560657
31,31,32640.821948101293,1663.8823453454595,15.618122001738666,32724.027373698995,-1187.9352062609862,17.835757761365983,32764.433044578294,23410.45030833011,6.794311079403412,32790.416605110484,-8383.415853464268,16.389482864484133,33032.46717422181,11297.338144488538,30.793338467651303,0.9367656555811764,89.0,57.0,92.0,261.0,353.0,32.0,991.0,993.0,39.0,14.0,25.0,0.358974358974359,132.83373950910806,1664.1704195513576,38.0,26.0,12.0,0.6842105263157895,131.27193862091443,1190.1141485213425,15.0,8.0,7.0,0.5333333333333333,1456.4640724256376,17367.827811783274,31.0,12.0,19.0,0.3870967741935484,436.8599832722513,10949.46378696126,78.0,39.0,39.0,0.5,122.50842158470108,11689.735408451465,,,,,32628.0,32660.0,32717.0,32734.0,32756.0,32771.0,32778.0,32809.0,32995.0,33070.0,0.07983361316423414,-0.11050429175686399,0.06221426983433061,-0.05211002184649211,0.010844007678434181
32,32,33650.972626301,1341.0450986684352,13.526833659073736,33735.178051898714,-1328.7344366688665,22.931688607418003,33775.31666973964,23799.006892955607,6.91749671630016,33801.095198331685,-8398.090850957073,16.79673314265618,34044.38021487837,11097.98177082215,29.40205192627031,0.9371029437231062,51.0,26.0,128.0,261.0,389.0,25.0,1011.0,1011.0,31.0,11.0,20.0,0.3548387096774194,109.8260897394104,1336.0224793957689,57.0,44.0,13.0,0.7719298245614035,119.57132334788751,1151.9229071282084,15.0,8.0,7.0,0.5333333333333333,1475.610856163186,17657.455465835665,32.0,12.0,20.0,0.375,441.3215892246304,10981.205962617998,74.0,36.0,38.0,0.4864864864864865,131.37082428056627,11803.22778971862,,,,,33641.0,33666.0,33692.0,33748.0,33767.0,33782.0,33790.0,33820.0,34009.0,34081.0,0.08189589585649289,-0.08998887967986477,0.06200304335387877,-0.05255022802883062,0.011837361692731828
33,33,34637.043044460675,1862.5040332380888,14.71168236049302,34716.027373699,-949.8270788201324,12.354827511815742,34756.98820598833,20799.242347857435,6.256761668926074,34784.74045019712,-7922.516243758618,16.09550111076403,35025.18554106483,10865.130946145206,31.57318865116011,0.9302960642770516,92.0,56.0,91.0,261.0,352.0,36.0,993.0,981.0,36.0,17.0,19.0,0.4722222222222222,114.82181948236963,1772.2952106305534,19.0,9.0,10.0,0.4736842105263157,103.81546956788858,647.8571428247412,15.0,8.0,7.0,0.5333333333333333,1347.8870822134572,15199.832480924912,33.0,15.0,18.0,0.4545454545454545,287.4308224697275,8339.647120275158,79.0,39.0,40.0,0.4936708860759494,136.8003561875578,11626.303469899867,,,,,34620.0,34656.0,34712.0,34726.0,34749.0,34764.0,34771.0,34803.0,34989.0,35064.0,0.061649165549856104,-0.10929933656644884,0.0648046241142195,-0.03628024400658899,0.01259076921075605
34,34,35616.12330450071,1234.562166532853,12.739827004320285,35700.178051898714,-1160.1183353953602,22.93168860319943,35740.461544850135,19996.509579576064,6.233152322230743,35769.90406919828,-8338.831146353337,17.025116437902643,36009.764009551734,10465.014719171177,30.048927399322046,0.919515157150418,82.0,54.0,96.0,261.0,357.0,28.0,973.0,983.0,31.0,10.0,21.0,0.3225806451612903,106.20147378390212,1516.858002475674,57.0,44.0,13.0,0.7719298245614035,103.80380237246546,1182.7401629916562,14.0,7.0,7.0,0.5,1308.1121739354303,14704.230397742722,35.0,16.0,19.0,0.4571428571428571,284.22165729198656,8124.155078187726,76.0,38.0,38.0,0.5,121.08383036393576,10902.541917159218,,,,,35609.0,35637.0,35691.0,35713.0,35733.0,35747.0,35754.0,35787.0,35972.0,36048.0,0.08602359335387585,-0.08947690869577529,0.065417025342838,-0.03408411230586913,0.011570344964935274
35,35,36594.12330450071,1471.670512585906,12.739827004320285,36679.027373699,-1094.7589232681553,15.190123469294504,36719.5605579867,21695.16493497333,6.619227896888563,36746.46462745778,-8144.316844634133,16.65154906560018,36989.12788490108,10908.843555863868,30.43306782597221,0.9246376838847472,86.0,57.0,92.0,261.0,353.0,29.0,978.0,979.0,33.0,11.0,22.0,0.3333333333333333,122.66364436859024,1663.796919577992,37.0,27.0,10.0,0.7297297297297297,121.38937867522182,989.6417783595382,16.0,9.0,7.0,0.5625,1376.7565748952684,15128.921342470408,33.0,13.0,20.0,0.3939393939393939,337.6674125382082,9230.233865947535,76.0,38.0,38.0,0.5,126.85135116171472,11658.095984619344,,,,,36587.0,36616.0,36673.0,36689.0,36711.0,36727.0,36733.0,36765.0,36955.0,37026.0,0.08334993690473226,-0.11088229206923592,0.06345914304047953,-0.041460495579893814,0.011628304183858964
36,36,37592.69864360057,1133.1081944827613,10.191861603456228,37675.47940829813,-1645.762451815149,25.86106305200341,37717.61830241863,23797.140099204425,6.865642725782542,37743.81825667427,-8655.829421289262,17.74522062316667,37987.02319815704,10740.774505981784,29.5056980094309,0.924106065009032,50.0,36.0,126.0,262.0,388.0,14.0,999.0,1000.0,28.0,9.0,19.0,0.3214285714285714,146.8352587413771,1205.1609862154316,58.0,38.0,20.0,0.6551724137931034,136.8263377012889,1508.436396960266,14.0,8.0,6.0,0.5714285714285714,1460.3633920638354,16351.954269545386,32.0,13.0,19.0,0.40625,421.33602950583855,10897.693920790703,76.0,38.0,38.0,0.5,127.65262417256794,11169.849801606271,,,,,37587.0,37601.0,37637.0,37694.0,37710.0,37724.0,37732.0,37763.0,37952.0,38025.0,0.12958626498010997,-0.08313857054545144,0.06136718050891576,-0.0486765633885472,0.011884862129958621
37,37,38491.26466513053,1307.5664236829637,16.49210233938772,38570.60271279886,-1259.1420546157146,20.383723206912443,38613.14531885192,23698.94722345383,6.783339170633653,38639.73917112977,-8303.331425859815,16.523933720216938,38880.53357962444,11384.035518626091,30.125945903710537,0.9288490164935416,85.0,54.0,96.0,260.0,356.0,31.0,899.0,896.0,33.0,16.0,17.0,0.4848484848484848,135.15806340409875,1364.2719322667797,56.0,40.0,16.0,0.7142857142857143,110.68533927672628,1124.6060830453555,15.0,8.0,7.0,0.5333333333333333,1462.7910254809574,17346.178009644384,31.0,13.0,18.0,0.4193548387096774,397.46528072782286,10254.576549855616,75.0,37.0,38.0,0.4933333333333333,128.59510579864303,12128.343887521643,,,,,38477.0,38508.0,38562.0,38582.0,38605.0,38620.0,38627.0,38658.0,38845.0,38918.0,0.10336611659345389,-0.08790536291833015,0.06172388214921615,-0.04786817005641385,0.011296091406974355
38,38,39336.95590336461,1444.2536031511197,16.099459879321593,39414.753390998565,-1446.9129872435335,25.058043965099333,39458.70561456878,23243.752807539047,6.56384078063845,39487.32873009842,-8376.626648980602,15.102303760593236,39724.86643889562,11424.492205818791,29.44044299934537,0.9362537063334544,53.0,26.0,126.0,258.0,384.0,27.0,845.0,845.0,30.0,15.0,15.0,0.5,143.64952539975806,1327.4582938572876,60.0,40.0,20.0,0.6666666666666666,110.11721210655654,962.8999845207056,15.0,8.0,7.0,0.5333333333333333,1502.653766130021,17612.13553348621,31.0,14.0,17.0,0.4516129032258064,345.0845440839881,9400.122065905603,75.0,38.0,37.0,0.5066666666666667,133.3325532262872,11992.348200163946,,,,,39324.0,39351.0,39377.0,39429.0,39451.0,39466.0,39473.0,39503.0,39689.0,39761.0,0.09946281254645226,-0.07610493034300371,0.06464764010236072,-0.04119612327785712,0.011670764076356711
39,39,40307.09165348689,1395.1436962276398,15.779744645756692,40384.63008652246,-1545.109976466137,22.020493295827055,40430.36132908213,23425.648777084272,6.7734479850898826,40456.47940829814,-8556.815428621272,16.481643444246192,40698.30866197538,10860.43390260025,29.97878839067801,0.9322578144653608,66.0,38.0,114.0,261.0,375.0,28.0,973.0,972.0,31.0,15.0,16.0,0.4838709677419355,114.22030782325216,1689.7260574895213,59.0,37.0,22.0,0.6271186440677966,115.44153005274345,1207.9763357961433,15.0,8.0,7.0,0.5333333333333333,1451.050980435563,17212.790947578935,32.0,12.0,20.0,0.375,448.3365391213441,11336.239636781836,76.0,38.0,38.0,0.5,146.92780359907937,11486.844490219384,,,,,40295.0,40323.0,40361.0,40406.0,40422.0,40437.0,40444.0,40475.0,40663.0,40736.0,0.08186992360148636,-0.07471411861359728,0.06194283002548164,-0.05239525649013361,0.013528723153860483
40,40,41264.403291927345,1955.3230504424432,16.975356160014755,41348.30135639943,-1071.2248738104413,8.901961145270361,41386.46484357673,21506.43707485392,6.301109368136552,41413.47941711188,-7962.973201795036,16.505771673781307,41653.81493068459,10936.830158401886,31.545313955139473,0.9299695466381164,90.0,55.0,92.0,261.0,353.0,35.0,956.0,954.0,35.0,14.0,21.0,0.4,131.49715727427835,2316.655371314543,14.0,8.0,6.0,0.5714285714285714,145.6775929799803,912.1452957420948,14.0,7.0,7.0,0.5,1391.18531394022,16016.85042827246,34.0,14.0,20.0,0.4117647058823529,337.5728887232261,8728.734651401915,77.0,38.0,39.0,0.4935064935064935,127.43801383608096,11699.368941132598,,,,,41250.0,41285.0,41340.0,41354.0,41379.0,41393.0,41400.0,41432.0,41617.0,41693.0,0.06725086028343176,-0.13599160787014986,0.06468692648150645,-0.04239281988882362,0.011652189161791142
41,41,42201.96617475175,2018.7479563102677,17.06802869074682,42280.45203459914,-872.0580645699787,11.410156630006664,42322.598772452846,21022.9750782088,6.3729250564267845,42349.05475959125,-8091.412826441308,16.55946068418215,42590.99492022287,10780.705319118344,31.083388603186723,0.9344658956467268,93.0,57.0,92.0,259.0,351.0,36.0,933.0,936.0,38.0,19.0,19.0,0.5,120.65917941597289,2150.731535868124,14.0,3.0,11.0,0.2142857142857142,109.82699211881985,834.1852311745137,15.0,8.0,7.0,0.5333333333333333,1355.0054781376546,14371.934430618972,35.0,14.0,21.0,0.4,274.42900070143685,8716.748742445925,77.0,39.0,38.0,0.5064935064935064,119.17363604166653,11397.600669182204,,,,,42184.0,42220.0,42277.0,42291.0,42315.0,42330.0,42336.0,42369.0,42555.0,42628.0,0.05976931346917901,-0.12593999938866082,0.0644535548892019,-0.03391607950154902,0.011054345009349783
42,42,43166.987700740865,1503.7260477974517,15.51083539628004,43251.027373699,-1130.5379388200076,17.835757782554683,43290.656648053395,22018.21666074159,6.682152898155391,43316.72315426128,-8335.46400805453,16.49418386470505,43559.04801970781,10942.59229790797,30.856832002347787,0.9311263493001696,90.0,59.0,91.0,263.0,354.0,31.0,973.0,968.0,48.0,28.0,20.0,0.5833333333333334,123.92519237777276,1300.2742460966851,53.0,41.0,12.0,0.7735849056603774,110.53229515174648,991.2792239978744,15.0,8.0,7.0,0.5333333333333333,1380.103033551011,15142.874101585568,32.0,13.0,19.0,0.40625,358.7716631131347,9584.967810746137,78.0,39.0,39.0,0.5,132.3758559975391,11197.629007730182,,,,,43154.0,43185.0,43244.0,43261.0,43283.0,43298.0,43304.0,43335.0,43522.0,43598.0,0.08241208068403773,-0.09776964695860973,0.06268005510236124,-0.04304159465705267,0.012097303124676136
43,43,44157.90406919828,1372.617519178012,15.742614916108565,44243.87669549929,-1303.8044137843226,12.739827004320285,44282.28469220678,22396.62405987973,6.770102404986907,44308.42384632347,-8329.26206283081,16.63103411760907,44550.23843164285,10910.389066328746,30.579213683232137,0.9249055883742784,87.0,59.0,93.0,262.0,355.0,28.0,993.0,993.0,46.0,26.0,20.0,0.5652173913043478,119.71067027666057,1154.4907915634342,40.0,30.0,10.0,0.75,142.82344908877374,1052.46410408904,15.0,8.0,7.0,0.5333333333333333,1403.136788873243,16511.19006013843,32.0,12.0,20.0,0.375,428.3352059957917,10539.448201698038,77.0,38.0,39.0,0.4935064935064935,133.17980008759562,11512.304068796566,,,,,44147.0,44175.0,44234.0,44251.0,44274.0,44289.0,44296.0,44327.0,44513.0,44589.0,0.0872134215133353,-0.1095436152683556,0.06264947722129055,-0.05142534870012437,0.012206695772070161
44,44,45165.80252057809,1057.0989843733798,13.355530845025706,45246.753390998565,-1532.9035248669627,25.47965398798212,45290.02349242393,22346.57881728731,6.852513186692794,45316.49800206238,-8619.979809177506,17.39418417323167,45559.96918632267,10609.070254292435,28.921961585879135,0.9252053655951652,82.0,62.0,94.0,261.0,355.0,20.0,1004.0,1007.0,26.0,10.0,16.0,0.3846153846153846,129.5055576402925,1172.5357841003065,63.0,43.0,20.0,0.6825396825396826,147.98337095923094,1142.507730133665,15.0,8.0,7.0,0.5333333333333333,1381.5343030943443,15549.668836681238,32.0,12.0,20.0,0.375,421.75104024497966,11280.518589945734,72.0,35.0,37.0,0.4861111111111111,137.07888471349153,11384.800313011992,,,,,45159.0,45179.0,45241.0,45261.0,45282.0,45297.0,45304.0,45335.0,45525.0,45596.0,0.12251034156187364,-0.09653795464530235,0.06182307879833442,-0.048927149434381555,0.012920914031842643
45,45,46127.753390998565,1209.921070325733,13.367523210711289,46206.178051898714,-1514.3531713283369,22.93168860227424,46246.39902970653,19567.278426869816,6.122832102766312,46275.90406919828,-8113.6412907505055,17.49989523535745,46515.53202469425,10679.976978231503,30.404366572263907,0.9072807206380044,85.0,58.0,93.0,260.0,353.0,27.0,965.0,956.0,33.0,18.0,15.0,0.5454545454545454,111.5173337275694,872.1454610764132,57.0,44.0,13.0,0.7719298245614035,123.405779162835,1286.7381010411264,14.0,7.0,7.0,0.5,1278.2705922817356,14232.680558959906,36.0,17.0,19.0,0.4722222222222222,277.7136114484117,8027.498415032473,76.0,38.0,38.0,0.5,131.72964738511703,11514.692414227597,,,,,46115.0,46142.0,46200.0,46219.0,46239.0,46253.0,46260.0,46293.0,46478.0,46553.0,0.0921690980202096,-0.08149075228903693,0.06532694861266003,-0.034227987348294936,0.012334263234238745
46,46,48016.959287664,1570.1138009384024,19.977897881526527,48082.76103515701,-1103.4865328115209,17.019422196953713,48138.88807489645,21622.779202574235,6.554182118769886,48166.90406919828,-8051.528263344506,15.31726069171253,48407.05151295727,11324.37427284746,31.479344442473792,0.9304036520653668,70.0,33.0,113.0,262.0,375.0,37.0,1885.0,1892.0,37.0,16.0,21.0,0.4324324324324324,130.30241287172748,1889.819552941747,40.0,14.0,26.0,0.35,131.51666311342606,991.4705803181292,15.0,8.0,7.0,0.5333333333333333,1372.971943358859,16082.357470554,32.0,14.0,18.0,0.4375,361.9850929145999,9158.51526008757,79.0,39.0,40.0,0.4936708860759494,131.99122239779027,11961.862904381816,,,,,48001.0,48038.0,48071.0,48089.0,48131.0,48146.0,48153.0,48184.0,48370.0,48446.0,0.08298915199258185,-0.11918284383438828,0.06349655289433859,-0.044958557068299446,0.011655498062640568
47,47,49021.1348857747,1842.5407865229677,17.668168971550184,49103.027373699,-992.9088597431288,14.27867109286575,49144.80800778757,22462.888687570907,6.665195307550308,49172.32873009842,-7977.394569530482,14.708979813417988,49413.62106069806,11377.037081348046,31.336427252303828,0.9353993013702554,89.0,56.0,92.0,265.0,357.0,33.0,1005.0,1008.0,34.0,15.0,19.0,0.4411764705882353,136.18564965998905,2180.76013573205,19.0,7.0,12.0,0.3684210526315789,120.66878163699457,754.9428060353854,15.0,8.0,7.0,0.5333333333333333,1424.1915961401764,17134.984375878026,30.0,13.0,17.0,0.4333333333333333,413.9177457118081,9822.520773437349,79.0,40.0,39.0,0.5063291139240507,137.14531977973778,12106.1682348527,,,,,49007.0,49040.0,49096.0,49113.0,49137.0,49152.0,49159.0,49188.0,49377.0,49453.0,0.07391187791125267,-0.1215305719683197,0.06340197896845767,-0.05188633232368368,0.012054572627224633
48,48,50025.12330450071,1359.6005577738467,12.73982700333628,50105.75339099858,-1428.9747028162187,21.839943548524538,50149.44495970798,21337.87222431265,6.494210574395138,50176.55352658361,-8379.955664725387,16.61026852452381,50418.568285920635,10668.93348741168,30.335321858837197,0.9241568388000392,57.0,31.0,119.0,263.0,382.0,26.0,1001.0,1005.0,32.0,12.0,20.0,0.375,114.8931326791996,1369.5097290167005,60.0,40.0,20.0,0.6666666666666666,120.45288523789335,744.6642906324255,14.0,7.0,7.0,0.5,1344.8917940786662,15373.823180495572,32.0,14.0,18.0,0.4375,356.34398944085274,9489.30758103335,78.0,40.0,38.0,0.5128205128205128,139.88057494038938,11341.432847200129,,,,,50018.0,50044.0,50075.0,50120.0,50142.0,50156.0,50163.0,50194.0,50382.0,50457.0,0.08450506438988288,-0.08429322436604735,0.06302839289412741,-0.04252337407235319,0.013111017620030632
49,49,50979.19834201576,1816.0596687850175,17.069871988078592,51060.027373699,-1046.888464958629,13.518455810600418,51100.450939576986,19580.548205147345,5.955963542598653,51129.90406919828,-7858.931486794709,15.703204339964053,51369.2929732952,10603.236040854812,31.604105533049218,0.9265434931373984,90.0,57.0,93.0,261.0,354.0,33.0,956.0,949.0,33.0,15.0,18.0,0.4545454545454545,128.8929916670011,2230.829083562014,17.0,7.0,10.0,0.4117647058823529,137.671829091837,755.4110370750117,14.0,7.0,7.0,0.5,1299.4799361084586,14940.460681927443,33.0,16.0,17.0,0.4848484848484848,282.8097512283717,7565.882848884813,80.0,40.0,40.0,0.5,134.28571323451513,11051.760931247623,,,,,50964.0,50997.0,51054.0,51070.0,51093.0,51107.0,51114.0,51147.0,51331.0,51408.0,0.07097398498653584,-0.131505727400748,0.06636586077640312,-0.03598577640021094,0.012664597177418798
50,50,51907.39728720114,1237.047459085216,13.83640162067118,51975.02606964635,-1670.5426815920898,18.166569347812494,52028.419585895725,20419.375553034748,6.312755018670305,52056.47940829813,-8032.462101727743,17.6557470846192,52298.62553941904,10735.508937697086,29.936832201630335,0.9210855729239282,62.0,36.0,117.0,260.0,377.0,26.0,925.0,928.0,35.0,15.0,20.0,0.4285714285714285,125.7225022963367,1223.6402092776914,57.0,29.0,28.0,0.5087719298245614,118.87752994420862,1915.8629848150156,14.0,7.0,7.0,0.5,1303.1034313852272,14812.338939900432,34.0,14.0,20.0,0.4117647058823529,302.99668337365785,9058.177856884142,74.0,37.0,37.0,0.5,123.7267410671553,11428.852781748034,,,,,51896.0,51922.0,51958.0,52000.0,52021.0,52035.0,52042.0,52075.0,52262.0,52335.0,0.10163110669117514,-0.07116102524894119,0.0638170069403302,-0.03772152044246617,0.011525000052181633
51,51,52868.65319279978,1255.939418258968,13.213924374440404,52950.60271279886,-1202.916744053602,20.383723201211932,52989.79875218833,22602.135379888656,6.801972586813915,53016.5983430071,-8150.939089742923,16.94814436041157,53258.99479612569,10892.04039492819,29.982459012630585,0.9289448115567912,67.0,39.0,112.0,262.0,374.0,28.0,964.0,963.0,31.0,14.0,17.0,0.4516129032258064,127.53889251536178,1354.8927861029097,45.0,34.0,11.0,0.7555555555555555,112.4590160716694,983.5477698068008,15.0,8.0,7.0,0.5333333333333333,1420.0682536218117,16308.103809589751,32.0,13.0,19.0,0.40625,370.24843678901465,9781.952453892589,76.0,38.0,38.0,0.5,136.32520405417952,11504.729322400251,,,,,52856.0,52884.0,52923.0,52962.0,52982.0,52997.0,53004.0,53035.0,53223.0,53297.0,0.10154860231408386,-0.0934886114334927,0.06282894203374191,-0.04542402203139174,0.01251603915439558
52,52,53868.502565706585,1805.4886382932027,15.369012509937402,53950.87669549929,-1172.129988818974,12.739826974688128,53991.368764617575,22484.61695372995,6.599965606373008,54019.32873009842,-7842.562597997029,14.51192506429468,54260.27663021089,11219.218052167427,30.940840301973463,0.9431640408582446,89.0,55.0,92.0,264.0,356.0,34.0,1001.0,1001.0,34.0,15.0,19.0,0.4411764705882353,116.318322378255,2047.7084861944736,18.0,8.0,10.0,0.4444444444444444,130.47166948215232,1107.2087382113518,15.0,8.0,7.0,0.5333333333333333,1429.2610062107012,17883.112260249432,30.0,13.0,17.0,0.4333333333333333,404.6255208200281,9568.082982774347,77.0,38.0,39.0,0.4935064935064935,130.40654757443858,11970.080340703884,,,,,53854.0,53888.0,53943.0,53958.0,53983.0,53998.0,54006.0,54035.0,54224.0,54299.0,0.06442484317609173,-0.11131160428171813,0.06356617100268647,-0.051593534098582576,0.011623497018069409
53,53,54863.39728720114,1830.2277483687344,17.139892620990675,54951.15067819971,-1061.9891706604803,5.095930801728113,54986.42560830096,19641.989425687556,6.133587908979811,55015.90406919828,-7675.058216261754,15.187962301796489,55256.178933485775,10887.78615696506,31.793182742445072,0.9304105875925216,90.0,59.0,91.0,263.0,354.0,31.0,991.0,994.0,46.0,20.0,26.0,0.4347826086956521,123.38028237482033,1849.5253824820516,12.0,9.0,3.0,0.75,128.24778778848977,690.1121688104845,15.0,7.0,8.0,0.4666666666666667,1295.1106467150564,15300.733988015189,33.0,16.0,17.0,0.4848484848484848,275.7443626783313,7444.812074188866,79.0,38.0,41.0,0.4810126582278481,112.52898652077376,11598.468003526645,,,,,54852.0,54883.0,54942.0,54954.0,54979.0,54994.0,55000.0,55033.0,55218.0,55296.0,0.06741252966183474,-0.12076186022568285,0.0659358183454333,-0.03592733174246025,0.010335341353925057
54,54,55801.45203459914,1469.2317203895252,15.287792405184325,55859.318840802305,-1384.1925071003393,20.537125765091744,55915.71448648043,19471.487254053092,6.181516874506729,55944.90406919828,-8047.671390011584,16.83047154727089,56185.51683236074,10621.404105109455,30.397047611409864,0.9215995561651472,67.0,37.0,115.0,261.0,376.0,30.0,944.0,930.0,34.0,24.0,10.0,0.7058823529411765,130.90161556833263,1147.3443235003683,59.0,26.0,33.0,0.4406779661016949,126.96953189409228,1460.453804986004,15.0,8.0,7.0,0.5333333333333333,1279.5553674125294,13802.084022952498,35.0,16.0,19.0,0.4571428571428571,287.94303913417303,7961.557976661454,76.0,38.0,38.0,0.5,138.4776074299263,11247.626727977738,,,,,55780.0,55810.0,55847.0,55867.0,55908.0,55923.0,55929.0,55962.0,56151.0,56223.0,0.08909528276018147,-0.09172823233964258,0.06571431091614141,-0.035779671557110954,0.013037598989695842
55,55,56729.027373699,1417.9391581134985,15.13383283530582,56806.87669549929,-1139.1603765882494,12.739826995702344,56844.49404051548,21146.061892249945,6.481138221710898,56872.06426563973,-8134.521024569689,15.835789378906329,57113.548018667,10798.111428923748,30.03212281525464,0.9245027565386322,88.0,59.0,92.0,260.0,352.0,29.0,928.0,928.0,32.0,20.0,12.0,0.625,122.47170407390858,897.363701998719,16.0,9.0,7.0,0.5625,130.70041386537525,1054.1978979544233,15.0,8.0,7.0,0.5333333333333333,1356.2055282382216,16350.874673842798,33.0,14.0,19.0,0.4242424242424242,348.8883624274846,9112.796758282188,76.0,38.0,38.0,0.5,120.77934104474038,11282.395647178297,,,,,56710.0,56739.0,56798.0,56814.0,56836.0,56851.0,56859.0,56890.0,57078.0,57150.0,0.08637303185621267,-0.11473398877936662,0.0641351347191163,-0.04288984703262729,0.01118522825400946
56,56,57681.03103399547,1179.54036902871,15.17058143119953,57764.60271279886,-1554.8372494156392,20.383723206912453,57806.0084556871,23055.970157191812,6.677797777718307,57833.90406919828,-8249.37850451741,16.567235895996575,58074.77528114015,11160.527064424632,29.893422801199737,0.9282304048567308,67.0,37.0,115.0,261.0,376.0,30.0,946.0,963.0,30.0,12.0,18.0,0.4,125.09473297439445,1349.6154716384308,58.0,41.0,17.0,0.7068965517241379,111.75768098867336,1493.351319653368,15.0,8.0,7.0,0.5333333333333333,1453.936627016272,17125.649790393592,31.0,14.0,17.0,0.4516129032258064,377.1579772774135,9799.04265039834,78.0,40.0,38.0,0.5128205128205128,141.3542537935582,12073.271180765429,,,,,57669.0,57699.0,57736.0,57776.0,57798.0,57813.0,57820.0,57851.0,58040.0,58112.0,0.10605379540965049,-0.07187741419925185,0.06306117752163848,-0.04571956263988609,0.012665553604913511
57,57,58639.08247087957,1764.4002206933656,17.105185616613195,58714.753390998565,-1046.573073166005,17.82802030711655,58760.997074619154,22647.906860331004,6.744091590628923,58788.68254957384,-8040.350207278604,15.4488320299154,59029.97518392804,11039.373126645994,30.659513354107183,0.934725163396216,73.0,37.0,109.0,263.0,372.0,36.0,957.0,956.0,48.0,26.0,22.0,0.5416666666666666,113.54205351248608,1681.706862110129,61.0,37.0,24.0,0.6065573770491803,133.590008263776,280.3746703338742,15.0,8.0,7.0,0.5333333333333333,1437.8720277457824,17441.938578669928,30.0,13.0,17.0,0.4333333333333333,393.78672507674634,9403.179553578717,74.0,37.0,37.0,0.5,123.11201255364684,11674.60963280842,,,,,58622.0,58658.0,58695.0,58729.0,58753.0,58768.0,58776.0,58804.0,58994.0,59067.0,0.0643516432274458,-0.12764517995829067,0.06348807581261695,-0.048976315076458624,0.01115208365015659
58,58,59577.753390998565,1968.900145733657,18.615296254439503,59655.30135639943,-943.2160455019438,6.341333138862328,59692.687199879714,20366.96099638626,6.357587101220038,59721.44150230893,-7920.777971282956,16.030029738082753,59962.10949479597,10980.597626783332,32.20412266853234,0.9326488417990576,102.0,56.0,91.0,263.0,354.0,46.0,947.0,930.0,46.0,32.0,14.0,0.6956521739130435,129.93341772367162,1552.194987748418,13.0,7.0,6.0,0.5384615384615384,146.83914229766089,518.6551597286673,15.0,8.0,7.0,0.5333333333333333,1328.8917578675105,15518.48924846781,34.0,14.0,20.0,0.4117647058823529,308.2464712331716,8263.704404463544,77.0,37.0,40.0,0.4805194805194805,145.14827185540264,11846.403025276068,,,,,59546.0,59592.0,59648.0,59661.0,59685.0,59700.0,59707.0,59739.0,59925.0,60002.0,0.06599289354781143,-0.15567922428579836,0.0652474248908955,-0.03891618630780075,0.013218613120051329
59,59,60462.69864360057,778.0461006063124,10.042988595206312,60546.753390998565,-1976.763291846249,25.47965400864057,60585.80264104171,20663.772457902596,6.421422776405605,60614.97432680569,-8248.121089991673,19.22500424137016,60855.56621181867,10130.553311032872,28.14683435803926,0.9059776167013754,47.0,38.0,130.0,258.0,388.0,9.0,879.0,893.0,26.0,7.0,19.0,0.2692307692307692,134.33410232825972,1012.8592654803526,61.0,45.0,16.0,0.7377049180327869,129.06903846486995,1695.0868323987263,14.0,7.0,7.0,0.5,1315.4200049029268,14286.389715975563,37.0,17.0,20.0,0.4594594594594595,274.6022821769099,8666.537934996984,72.0,37.0,35.0,0.5138888888888888,121.34786664359474,10494.257582586197,,,,,60456.0,60465.0,60503.0,60561.0,60579.0,60593.0,60599.0,60633.0,60821.0,60891.0,0.17265571053383139,-0.06529311779374584,0.0636582699302741,-0.033292707415524515,0.01197840462587947
60,60,61369.103221326826,1621.4127041344657,17.139917703094973,61446.178051898714,-1198.631606571826,14.585426080464678,61489.242633564005,21486.804920228165,6.4009927977020356,61517.90406919828,-8099.341863837647,15.061177309158248,61757.383074444,10855.829316820598,30.718414670042936,0.9263463795983472,85.0,51.0,95.0,260.0,355.0,34.0,905.0,905.0,40.0,19.0,21.0,0.475,111.9697689487671,1467.9897246707114,52.0,38.0,14.0,0.7307692307692307,126.50724635453555,574.237912634575,15.0,8.0,7.0,0.5333333333333333,1409.369271080382,16408.808937988764,33.0,15.0,18.0,0.4545454545454545,300.8108311996573,8270.589634616466,78.0,39.0,39.0,0.5,150.4580143979717,11528.810567732016,,,,,61355.0,61389.0,61440.0,61459.0,61481.0,61496.0,61503.0,61535.0,61718.0,61795.0,0.06905692095741796,-0.1055430589857008,0.06559231473980433,-0.03714015734324449,0.013859651806135536
61,61,62309.58761369431,1669.3219527075314,16.088511356314424,62390.178051898714,-1142.3076664569976,21.88656271781328,62432.4220755732,23153.383177402193,6.799793210653382,62459.20294115404,-8027.8751833524275,16.07101691495286,62700.36334463297,10952.442120019035,30.928764306736294,0.9373762452178854,90.0,57.0,92.0,262.0,354.0,33.0,942.0,943.0,33.0,15.0,18.0,0.4545454545454545,126.46282409763002,2074.254647471968,53.0,39.0,14.0,0.7358490566037735,124.01137180564967,823.4859581687706,15.0,8.0,7.0,0.5333333333333333,1434.0431251364485,17666.4117547363,32.0,13.0,19.0,0.40625,411.2345723459921,10113.706458762945,77.0,38.0,39.0,0.4935064935064935,150.97099725152754,11735.444077275812,,,,,62295.0,62328.0,62385.0,62404.0,62424.0,62439.0,62447.0,62477.0,62663.0,62739.0,0.07575700055493523,-0.10856214612503269,0.061936655829031545,-0.05122583036651813,0.013784231461545962
62,62,63271.87669549929,1276.3735848799306,12.739827004307829,63347.32873009842,-1503.0487501419464,28.027619390405377,63389.51567178699,23594.614909456075,6.871269091540023,63416.210694451394,-8106.332157693127,17.248862295129896,63658.33311475484,10831.95269974378,29.314792763524096,0.9281888378565972,53.0,30.0,125.0,261.0,386.0,23.0,966.0,957.0,28.0,19.0,9.0,0.6785714285714286,150.50536137036943,780.9963540782812,54.0,38.0,16.0,0.7037037037037037,130.22421094618232,1527.2800566043811,14.0,8.0,6.0,0.5714285714285714,1456.4336268237134,16907.222987143934,31.0,12.0,19.0,0.3870967741935484,414.6158878024789,10531.14337165653,75.0,37.0,38.0,0.4933333333333333,132.95434682346567,11316.302676956337,,,,,63256.0,63279.0,63309.0,63363.0,63382.0,63396.0,63404.0,63434.0,63622.0,63695.0,0.11791638682692386,-0.08664004473167226,0.06172737433574365,-0.051147162457313974,0.012274273208985723
63,63,,,,,,,,,,,,,,,,,,,,,,,,,,,,,,,,,,,,,,,,,,,,,,,,,,,,,,,,,,,,,,,,,,,,,,,,,
64,64,66996.93745327751,1826.5631437735103,21.076124155814664,67081.72601729959,-835.009319620608,5.463760248567869,67121.40176931323,22155.344441017936,6.571187234983684,67148.69940425255,-7686.905032774816,15.005179882140723,67389.62350296916,11066.321165996927,32.6339829783619,0.9279197393244346,96.0,63.0,87.0,263.0,350.0,33.0,3725.0,3730.0,54.0,29.0,25.0,0.5370370370370371,145.02947166802898,1997.8657909491824,10.0,3.0,7.0,0.3,148.70925189614664,444.3128376877377,15.0,8.0,7.0,0.5333333333333333,1409.6457034873065,17271.416170611214,32.0,14.0,18.0,0.4375,377.81577245509,8760.415657096892,79.0,39.0,40.0,0.4936708860759494,180.12743446727993,11762.31514236845,,,,,66983.0,67016.0,67079.0,67086.0,67113.0,67128.0,67136.0,67166.0,67352.0,67429.0,0.07940019602520366,-0.17809292471575486,0.06362553772251531,-0.04915057111336605,0.016277083573243003
65,65,67959.972626301,1569.6460856687756,16.533814325564197,68030.82194810022,-1496.7639726498303,16.636166646556713,68084.16029354076,22724.934767570496,6.6307760664616735,68110.82903277756,-8098.422381283075,15.128743899795536,68352.20604666382,11154.97148240211,30.715665553661943,0.932719662987441,68.0,52.0,110.0,261.0,371.0,16.0,958.0,964.0,33.0,12.0,21.0,0.3636363636363636,181.03899506002588,1775.398360158685,40.0,20.0,20.0,0.5,183.20241018154385,1434.4729678486274,15.0,8.0,7.0,0.5333333333333333,1452.7380357364193,17501.355948953205,31.0,13.0,18.0,0.4193548387096774,434.3325704389191,9787.114060116955,76.0,36.0,40.0,0.4736842105263157,171.0139995957766,11695.761548589133,,,,,67950.0,67966.0,68018.0,68037.0,68076.0,68091.0,68099.0,68128.0,68316.0,68389.0,0.11533746155452042,-0.12239899779068525,0.06392704976251645,-0.05363175072749238,0.015330742876892633
66,66,68937.75339099858,1655.3627764758528,16.68390819883686,69019.15067819973,-1342.6499949201643,5.095930801728113,69054.6034445425,21202.424970352386,6.2837641598458305,69082.26613126477,-7770.316428976945,16.046532517544044,69323.43925627033,10756.92584318446,30.948215080526627,0.9238026150945604,88.0,59.0,89.0,262.0,351.0,29.0,985.0,971.0,32.0,17.0,15.0,0.53125,167.17113557787155,1563.3754126654103,12.0,9.0,3.0,0.75,167.50681910029567,1095.380495735502,14.0,8.0,6.0,0.5714285714285714,1367.0778180927557,15574.489343465102,34.0,14.0,20.0,0.4117647058823529,342.15128565274114,8456.424717024496,78.0,38.0,40.0,0.4871794871794871,159.35301976452314,11575.60580072736,,,,,68923.0,68952.0,69011.0,69022.0,69047.0,69061.0,69069.0,69100.0,69286.0,69362.0,0.10098761308005655,-0.12475836572006678,0.06447742746428098,-0.0440331212737741,0.014813992593012856
67,67,69861.61474881189,1812.5508907043416,7.64389620259217,69940.17805189872,-1475.1107167457617,17.93343595424779,69982.92294433046,20044.581381113985,6.195242219059846,70011.0408100609,-8007.872788307577,17.868938238081594,70254.38347749642,10538.412619353368,29.58066932766837,0.9126588695897724,82.0,71.0,95.0,260.0,355.0,11.0,919.0,927.0,25.0,14.0,11.0,0.56,189.093470026509,1854.4794129653144,53.0,38.0,15.0,0.7169811320754716,166.6851675937716,955.2037393688952,15.0,8.0,7.0,0.5333333333333333,1286.3141337969912,13814.649569275978,38.0,16.0,22.0,0.4210526315789473,291.45420760630566,8265.12986376473,76.0,40.0,36.0,0.5263157894736842,162.82671182533977,11250.981477468811,,,,,69853.0,69864.0,69935.0,69955.0,69975.0,69990.0,69996.0,70030.0,70219.0,70290.0,0.10432450255398287,-0.11299841137450033,0.06417266139610962,-0.03639595874098582,0.015450781603133958
68,68,70810.60271279886,1202.2763326279469,15.154115132026671,70887.60271279886,-1468.490114072581,20.383723206912453,70927.05674208791,21546.60955328277,6.662893309277872,70954.60743634404,-8211.995214996647,17.951131095922406,71196.39749336946,10629.294304173283,29.93486609935322,0.9166379182500616,88.0,58.0,93.0,261.0,354.0,30.0,953.0,944.0,34.0,19.0,15.0,0.5588235294117647,152.81386832330358,485.75098163508335,46.0,34.0,12.0,0.7391304347826086,154.6582491468261,1217.1039948043372,15.0,8.0,7.0,0.5333333333333333,1358.5721744378193,15418.038670376394,33.0,14.0,19.0,0.4242424242424242,349.88790499026135,9192.365062039638,77.0,38.0,39.0,0.4935064935064935,155.5604707389394,10976.498317737329,,,,,70792.0,70822.0,70880.0,70899.0,70919.0,70934.0,70941.0,70973.0,71160.0,71234.0,0.12710378153188925,-0.10531786878558587,0.06305271235728276,-0.04260692996402388,0.014635070427757663
69,69,71778.71478918318,1636.007237321543,15.925828245911582,71859.87669549929,-1233.6637528801568,12.739827004320285,71900.54997217063,22780.15590185685,6.5433740602347354,71927.56457258321,-7788.819013655952,15.520235322865988,72169.45866463069,11147.077317428922,31.011421560166585,0.9313869751399666,89.0,58.0,91.0,262.0,353.0,31.0,964.0,973.0,31.0,14.0,17.0,0.4516129032258064,172.69721058733114,1900.9525257729797,16.0,8.0,8.0,0.5,162.09225715109207,900.3406160679239,15.0,9.0,6.0,0.6,1444.9263724693687,16758.87306185968,31.0,13.0,18.0,0.4193548387096774,383.8565240453312,9240.758655029853,79.0,39.0,40.0,0.4936708860759494,158.53519302389614,11469.766731996871,,,,,71765.0,71796.0,71854.0,71867.0,71893.0,71907.0,71915.0,71945.0,72130.0,72207.0,0.10556017519217674,-0.1313909537932565,0.06342916961124002,-0.04928302010514362,0.014222130923593732
70,70,72780.39728720114,1904.1096347808784,20.104597897792953,72867.30135639943,-1029.4093169153325,10.191861603373752,72906.72427896745,22659.382737143533,6.622574567240952,72933.68791788798,-7733.221462842354,14.826440559289082,73175.716841568,11150.968395501515,31.4793368256564,0.936751169039334,90.0,52.0,92.0,263.0,355.0,38.0,999.0,1007.0,39.0,11.0,28.0,0.282051282051282,176.52992313132472,1871.5088145311984,17.0,8.0,9.0,0.4705882352941176,160.26419487809167,922.6007618289088,15.0,8.0,7.0,0.5333333333333333,1429.1830116286685,17439.748105656676,30.0,13.0,17.0,0.4333333333333333,418.76442121021006,9621.993473075352,77.0,39.0,38.0,0.5064935064935064,170.2836961311442,12077.120373628284,,,,,72769.0,72807.0,72859.0,72873.0,72899.0,72914.0,72921.0,72951.0,73140.0,73214.0,0.09270995740307751,-0.15568558807912283,0.06307246001392326,-0.054151355062356216,0.01527075408085987
71,71,73779.39728720114,1494.761004065109,13.181851267180331,73859.027373699,-1273.4374627584068,15.395436574783528,73901.48927877023,21270.69390549448,6.335800584904967,73928.96009095405,-8032.455667887715,17.387754020920394,74171.69778541439,10267.122203293264,30.603940373351477,0.9231897072178232,73.0,47.0,107.0,262.0,369.0,26.0,999.0,996.0,32.0,12.0,20.0,0.375,143.83292513155908,1337.744361505128,31.0,18.0,13.0,0.5806451612903226,135.16928151400663,1411.6744539571305,14.0,7.0,7.0,0.5,1350.2334727320235,15621.25322470422,34.0,14.0,20.0,0.4117647058823529,325.4693005630194,8592.275780676375,77.0,39.0,38.0,0.5064935064935064,153.99841632586765,10734.91433990461,,,,,73768.0,73794.0,73841.0,73869.0,73894.0,73908.0,73915.0,73948.0,74138.0,74210.0,0.09622469728631881,-0.10614520576551514,0.06347858131620435,-0.040519277543502166,0.01499918022564019
72,72,74738.51779366883,1245.1765664512086,13.407493579352984,74800.24738447681,-1544.155297995299,18.94004507328109,74854.6867023498,19959.276146110005,6.163818448422707,74882.76486765857,-8092.636113997769,18.356226835821303,75124.87402157731,10174.996838592662,30.21506779582317,0.9222708041062244,57.0,31.0,119.0,261.0,380.0,26.0,966.0,951.0,32.0,19.0,13.0,0.59375,173.29322349057549,1155.2455818307944,46.0,18.0,28.0,0.391304347826087,173.47932342590374,1769.9778645392998,15.0,8.0,7.0,0.5333333333333333,1282.8621933084255,13596.548634066654,37.0,17.0,20.0,0.4594594594594595,297.3729932979114,8381.165199480582,78.0,39.0,39.0,0.5,133.8141778413149,10266.935394689986,,,,,74726.0,74752.0,74783.0,74808.0,74847.0,74862.0,74868.0,74902.0,75087.0,75163.0,0.1391716067902454,-0.11234577483956662,0.0642739838818479,-0.03674612191984608,0.013151274635661033
73,73,75663.17805189872,1520.7347421483155,15.058171516225892,75742.027373699,-1176.3774622642468,17.835757609356577,75781.59602562562,21720.600563958815,6.521261194299284,75809.47940829814,-8193.749318244652,17.30823647240718,76052.05348837594,10745.565191256846,30.019611248948433,0.928870800719296,84.0,59.0,93.0,262.0,355.0,25.0,925.0,927.0,38.0,18.0,20.0,0.4736842105263157,162.19460024022334,1335.044096292556,20.0,9.0,11.0,0.45,154.08539758106025,1303.4384821227122,15.0,8.0,7.0,0.5333333333333333,1378.4244991582168,15105.039985568255,34.0,14.0,20.0,0.4117647058823529,361.8428296772044,9376.12098878073,74.0,36.0,38.0,0.4864864864864865,158.51243403240315,11593.03239820806,,,,,75651.0,75676.0,75735.0,75752.0,75774.0,75789.0,75795.0,75828.0,76017.0,76090.0,0.1066554184269466,-0.13098295617163772,0.06346161999983779,-0.04416083719714311,0.014751428260039515
74,74,76595.39728720114,1584.9947658776214,14.763789784369726,76681.72601729959,-1188.8731832190035,7.6438962025810495,76718.25394504947,22779.03008290172,6.656792246950202,76744.90406921048,-7950.313712768186,15.184049187138385,76986.0889394531,11140.33232483198,31.426439293609477,0.9304601935043824,88.0,57.0,90.0,261.0,351.0,31.0,925.0,939.0,34.0,11.0,23.0,0.3235294117647059,147.47399047684732,1502.206227847897,20.0,14.0,6.0,0.7,141.81331802427013,749.7842170001661,15.0,8.0,7.0,0.5333333333333333,1455.5032311453326,17569.92743826584,32.0,13.0,19.0,0.40625,405.7881745640352,9473.665886762225,80.0,40.0,40.0,0.5,157.70489792978606,11754.8140039362,,,,,76584.0,76615.0,76672.0,76686.0,76710.0,76725.0,76733.0,76762.0,76950.0,77023.0,0.09304383437202712,-0.119283805897863,0.06389662886647027,-0.0510405235849172,0.014156211262949428
75,75,77523.24660900142,1555.7639524533135,16.130448826185802,77591.82194810128,-1293.303042161553,18.076047168834293,77647.33817402733,21592.676782881343,6.382146800268932,77674.90406919828,-8055.580365285372,15.883051370234824,77915.53158105869,10661.87515413188,30.6505107935196,0.9282561117018276,70.0,38.0,113.0,261.0,374.0,32.0,927.0,927.0,40.0,21.0,19.0,0.525,167.93932072324546,1593.1525448931006,53.0,27.0,26.0,0.5094339622641509,155.23672247192934,1255.8021800424865,14.0,7.0,7.0,0.5,1383.7348239092191,15964.819463625749,31.0,14.0,17.0,0.4516129032258064,376.3385645652279,8917.283539922737,78.0,40.0,38.0,0.5128205128205128,185.7452088933798,11368.747393552823,,,,,77509.0,77541.0,77579.0,77598.0,77640.0,77654.0,77661.0,77692.0,77877.0,77953.0,0.10794653035791116,-0.12003120491580652,0.06408352414214077,-0.04671774689096481,0.017421439119121227
76,76,78399.12330450071,1321.0008319474298,12.739827004320272,78483.17805189872,-1453.747546941196,22.931688606608773,78524.27035885303,19382.698966789405,6.042414932106483,78554.90406919828,-8364.839627096577,17.573425184526158,78793.33054982933,10331.399081940688,29.147624604940564,0.9172330082985516,86.0,57.0,94.0,258.0,352.0,29.0,878.0,878.0,33.0,11.0,22.0,0.3333333333333333,176.36834923788993,1598.4929146680429,63.0,43.0,20.0,0.6825396825396826,191.16970969538892,888.9757204709045,14.0,7.0,7.0,0.5,1283.6661413124723,13791.712232071624,36.0,18.0,18.0,0.5,281.31810763862245,7906.114543218288,76.0,38.0,38.0,0.5,149.96252943465802,10869.875982506954,,,,,78392.0,78421.0,78478.0,78497.0,78517.0,78531.0,78537.0,78572.0,78756.0,78830.0,0.13351115682333548,-0.13150131196962336,0.06622741979906535,-0.03363102225263672,0.014515219888929943
77,77,79271.75339099858,1664.6423039118406,16.79827936190505,79348.87669549929,-1190.9939541164188,12.739827003505162,79387.65444412018,20019.65422559812,6.227733249014234,79416.19897850661,-7866.524621780334,17.150389700900856,79655.17572021157,10557.85681622386,30.608709628918852,0.9233418255501228,90.0,56.0,93.0,258.0,351.0,34.0,879.0,863.0,45.0,26.0,19.0,0.5777777777777777,183.0045906145564,1097.520727557648,19.0,7.0,12.0,0.3684210526315789,182.05729046750216,913.6413790553576,15.0,8.0,7.0,0.5333333333333333,1317.403589237953,14466.4915133174,37.0,17.0,20.0,0.4594594594594595,299.79667033621564,7963.100098731344,74.0,36.0,38.0,0.4864864864864865,170.85741752200914,11382.7201859743,,,,,79252.0,79286.0,79342.0,79356.0,79380.0,79395.0,79402.0,79435.0,79620.0,79693.0,0.10993628492109277,-0.15286164118487724,0.06580551164332576,-0.03811043437227129,0.0161829640708386
78,78,80155.82005427219,1513.5916307902366,15.329647890970907,80220.54796540085,-1242.7461190930464,15.287792405162774,80277.52790536164,21696.892613492822,6.5090508095598345,80304.90406921336,-8069.948384947755,15.848464849594492,80544.71303158613,10796.127205952587,30.738483483291297,0.930268657433357,72.0,39.0,110.0,261.0,371.0,33.0,879.0,889.0,37.0,17.0,20.0,0.4594594594594595,162.54635866441058,1389.224793691134,40.0,14.0,26.0,0.35,146.8056444728122,1354.3458675522108,16.0,9.0,7.0,0.5625,1381.8154885248225,15048.114465802691,32.0,14.0,18.0,0.4375,350.47667054066454,9154.038730427985,79.0,40.0,39.0,0.5063291139240507,155.37053362700348,11412.22365833533,,,,,80140.0,80173.0,80212.0,80227.0,80270.0,80285.0,80292.0,80322.0,80509.0,80583.0,0.10739115845900003,-0.11813003655159321,0.06368725296937229,-0.043429852809762866,0.014391321134243202
79,79,81108.34168153774,1256.9680694028718,12.256648497023594,81187.60271279886,-1502.5123676082046,20.383723199749788,81229.62454439144,22204.95374082152,6.479864712977496,81258.32873009844,-8429.144480668983,15.459217852376112,81497.7030698592,10957.19064284823,30.184437845648883,0.9311665232774364,65.0,39.0,112.0,261.0,373.0,26.0,950.0,954.0,26.0,11.0,15.0,0.4230769230769231,148.57290186904865,1007.1703969107318,44.0,27.0,17.0,0.6136363636363636,141.84588439295445,1642.8860529324124,15.0,8.0,7.0,0.5333333333333333,1419.7893357197574,16451.574716046838,31.0,15.0,16.0,0.4838709677419355,362.59334236599,9336.310589747063,76.0,38.0,38.0,0.5,165.10770650609786,11731.4601297273,,,,,81097.0,81123.0,81162.0,81199.0,81222.0,81237.0,81244.0,81274.0,81463.0,81535.0,0.11819942406303834,-0.09440580154342011,0.06394020686967797,-0.043016624427015704,0.01506843422623698
80,80,82113.11944829013,1841.3553750501037,15.567299417974338,82194.30135639943,-922.829110530712,10.191861602315822,82234.52530000078,22316.491944699246,6.593057103354151,82262.32873009844,-7898.676465186723,14.40564730468341,82503.10034820871,11047.650367683818,31.688521414873513,0.9384100218797974,95.0,59.0,86.0,263.0,349.0,36.0,1007.0,1004.0,37.0,16.0,21.0,0.4324324324324324,164.97867245956888,1829.216478539201,18.0,8.0,10.0,0.4444444444444444,166.48006650199704,707.193539371809,15.0,8.0,7.0,0.5333333333333333,1407.6653918369157,16694.84830265635,29.0,13.0,16.0,0.4482758620689655,405.8976130152972,9656.158828782316,79.0,40.0,39.0,0.5063291139240507,147.83895063559189,11775.7637567007,,,,,82097.0,82133.0,82192.0,82203.0,82227.0,82242.0,82249.0,82278.0,82467.0,82541.0,0.08959632382482376,-0.18040183670219898,0.0630773597985356,-0.05138805403719012,0.013381936042078681
81,81,83082.12547579287,2126.7783269157967,16.60573652736712,83159.30135639943,-641.5478198884316,9.684620273980636,83201.01465363597,19937.769586305378,6.226677279159722,83228.70964796019,-7494.58334267452,15.761767709043305,83470.66362172729,10814.976346209283,31.75108636600789,0.9302637268148388,96.0,56.0,90.0,262.0,352.0,40.0,971.0,967.0,40.0,21.0,19.0,0.525,158.16786868819722,2167.487658383338,17.0,6.0,11.0,0.3529411764705882,150.39303553577642,404.8167595758761,15.0,8.0,7.0,0.5333333333333333,1283.9749302086868,14606.829770120785,35.0,16.0,19.0,0.4571428571428571,293.4711859590291,7378.692057418911,76.0,37.0,39.0,0.4868421052631579,144.1651506448849,11531.24465553764,,,,,83061.0,83101.0,83157.0,83169.0,83193.0,83208.0,83215.0,83247.0,83435.0,83509.0,0.07436970119851113,-0.23442217536010101,0.06439912572219755,-0.03915777202556278,0.013330140171357443
82,82,84005.39728720114,1806.7819385594632,15.875363222078835,84067.69864360057,-1090.060679155176,10.191861603452326,84126.40560660236,20713.566094271016,6.335296748182633,84154.90406919828,-7844.862038822032,15.95101267612552,84395.46329629475,10785.756509535247,31.406489194170163,0.932431242945105,68.0,37.0,110.0,261.0,371.0,31.0,919.0,924.0,40.0,20.0,20.0,0.5,145.56289150095014,1545.2805749625288,14.0,6.0,8.0,0.4285714285714285,150.01810860686066,1140.5521091507687,15.0,7.0,8.0,0.4666666666666667,1331.4777063256383,15840.642160737909,34.0,15.0,19.0,0.4411764705882353,304.36543824833984,7651.658468721382,78.0,39.0,39.0,0.5,164.3020874693507,11794.630991969409,,,,,83994.0,84025.0,84062.0,84076.0,84119.0,84134.0,84141.0,84172.0,84360.0,84433.0,0.08056472582242359,-0.13762363093688362,0.06428046721968846,-0.03879806129695083,0.015233246488004613
83,83,84986.30135639943,1273.0081152635896,10.191861603456228,85041.12330450071,-1847.769358417387,12.739827004320285,85101.89430721954,23279.532356363292,6.685982785818532,85127.00971740871,-8224.730942315215,18.067798721028556,85371.32112215472,10724.258077327788,29.984155447641353,0.926884362399824,62.0,42.0,112.0,263.0,375.0,20.0,986.0,976.0,31.0,19.0,12.0,0.6129032258064516,164.8980258405035,971.317871679797,45.0,12.0,33.0,0.2666666666666666,157.51154570080743,1680.6499666575212,15.0,8.0,7.0,0.5333333333333333,1416.4344380357186,16137.868119930345,33.0,12.0,21.0,0.3636363636363636,431.31802276180713,10614.622106923602,77.0,38.0,39.0,0.4935064935064935,170.75823901909638,11065.972180059493,,,,,84972.0,84992.0,85034.0,85074.0,85094.0,85109.0,85116.0,85146.0,85338.0,85409.0,0.12953415132499735,-0.08524415938779067,0.060844625929461445,-0.05244159666582279,0.01592261560546527
84,84,85990.82194810128,1744.807973478999,14.152377185650234,86074.45203459915,-1056.1978285687085,15.287792402890268,86113.14462085186,22638.284892125484,6.650989964641033,86139.54502135944,-8150.068571001135,15.428116073249363,86382.20476575066,11216.019390017556,31.40618886770056,0.9396321550173106,89.0,62.0,91.0,263.0,354.0,27.0,999.0,1011.0,33.0,14.0,19.0,0.4242424242424242,168.69026473107257,1427.2877729602324,17.0,7.0,10.0,0.4117647058823529,156.14867523140524,1203.5702566701982,15.0,8.0,7.0,0.5333333333333333,1438.465930395706,17259.773240787956,31.0,13.0,18.0,0.4193548387096774,419.8789658018632,9594.479675774764,79.0,39.0,40.0,0.4936708860759494,147.4292772653492,11522.648374474102,,,,,85978.0,86005.0,86067.0,86083.0,86105.0,86120.0,86127.0,86158.0,86345.0,86421.0,0.0966812779945741,-0.14784036759761937,0.06354129463650592,-0.051518458052713816,0.013144527674101894
85,85,86999.8826883498,1673.8320895370466,14.110129175212537,87081.027373699,-1282.0266475141054,17.83575779405882,87121.67098121849,23107.382896605624,6.650773282190527,87148.3838221919,-8122.250625940234,16.713430209085466,87391.3825226265,11141.862067737522,30.43065741765577,0.931615865175429,83.0,57.0,94.0,263.0,357.0,26.0,1011.0,1010.0,32.0,16.0,16.0,0.5,152.51050964663042,1669.8446317458129,37.0,27.0,10.0,0.7297297297297297,147.3550410390452,1540.6387763578048,14.0,8.0,6.0,0.5714285714285714,1439.876927952473,16947.76695529442,32.0,13.0,19.0,0.40625,425.01760039498816,10457.753119975545,74.0,36.0,38.0,0.4864864864864865,160.08952832863676,12125.691516738088,,,,,86989.0,87015.0,87072.0,87091.0,87114.0,87128.0,87136.0,87166.0,87356.0,87429.0,0.09111458108609462,-0.11493914055902955,0.062312419125749835,-0.052327565347171,0.014368292064231658
86,86,87998.972626301,1253.5193770551402,11.602361051267984,88084.60271279886,-1414.2008862414327,20.383723206912453,88122.2222733865,21518.17031719846,6.35739165015996,88149.79432233723,-8089.43912132458,17.839265175339847,88392.77342246207,10487.814479742949,30.01332457367213,0.9198108440189062,87.0,62.0,93.0,262.0,355.0,25.0,998.0,999.0,26.0,10.0,16.0,0.3846153846153846,134.45493444545718,1259.8328206739516,42.0,29.0,13.0,0.6904761904761905,147.94649188048464,1483.7417032394656,14.0,7.0,7.0,0.5,1364.0382863109348,15386.58305516884,35.0,15.0,20.0,0.4285714285714285,315.82637113877075,8479.354573464654,76.0,38.0,38.0,0.5,157.70994878610563,10731.45908921236,,,,,87989.0,88014.0,88076.0,88096.0,88115.0,88129.0,88136.0,88169.0,88359.0,88431.0,0.10726195135597233,-0.1046149053644612,0.06339006830988429,-0.039041813208807084,0.015037446466155551
87,87,88950.59434658996,1683.2169076207551,13.532851004401994,89030.027373699,-1152.751886130848,17.835757793596088,89069.33652843905,19817.283126584185,6.138247262035032,89097.48400212386,-7975.489201457161,17.069437345065978,89339.98618628606,10670.317185047266,30.298842243809077,0.922449966394578,89.0,57.0,92.0,263.0,355.0,32.0,959.0,947.0,33.0,17.0,16.0,0.5151515151515151,150.06495040329645,1475.8301669676366,40.0,27.0,13.0,0.675,171.32368131524902,1142.107379797931,14.0,7.0,7.0,0.5,1305.269720714132,14750.170013591527,39.0,17.0,22.0,0.4358974358974359,310.18431452012067,7895.496598582783,77.0,39.0,38.0,0.5064935064935064,153.05836973643278,11323.22706454482,,,,,88934.0,88966.0,89023.0,89040.0,89062.0,89076.0,89083.0,89115.0,89306.0,89378.0,0.08915366149417715,-0.148621471260644,0.06586522039255517,-0.03889219917236531,0.014344313021071151
88,88,89895.67558640323,1432.3822966000562,15.692851879891808,89974.027373699,-1304.5636382180137,16.18970728332573,90018.01185569497,21512.821180584597,6.303412721465717,90046.32873009844,-8080.170777168899,15.12082369436442,90287.72769279958,11222.376165664278,30.91000432387987,0.9209101552836132,84.0,58.0,92.0,263.0,355.0,26.0,939.0,950.0,32.0,16.0,16.0,0.5,155.53789420366195,1503.6623081830771,58.0,38.0,20.0,0.6551724137931034,155.56375232661108,503.7071007431395,15.0,8.0,7.0,0.5333333333333333,1392.910118019493,15987.01733705391,31.0,14.0,17.0,0.4516129032258064,335.2427625288195,8911.23936755021,74.0,36.0,38.0,0.4864864864864865,150.4589356608887,12102.401642053204,,,,,89886.0,89912.0,89970.0,89988.0,90010.0,90025.0,90032.0,90062.0,90252.0,90325.0,0.10858685881056417,-0.11924581351899818,0.06474790574081468,-0.04148956399239382,0.013407047976277018
89,89,90909.25946099537,1864.3756971695293,16.002560947079527,90989.30135639945,-988.054764220309,10.191861603372228,91030.76139407668,22191.162219058948,6.428003901380679,91059.32873009844,-7858.044477142912,14.094220572629808,91299.79598636608,11509.659362173525,32.3761176291044,0.9349821980187958,95.0,63.0,88.0,265.0,353.0,32.0,1013.0,1013.0,32.0,17.0,15.0,0.53125,152.04654949157458,1858.521518896352,18.0,7.0,11.0,0.3888888888888889,152.27368245824556,718.7885046399616,15.0,8.0,7.0,0.5333333333333333,1439.9114650448305,17212.692863373573,31.0,14.0,17.0,0.4516129032258064,345.909545341293,8794.641930064992,82.0,41.0,41.0,0.5,170.0687926571031,12260.859485657027,,,,,90892.0,90924.0,90987.0,91000.0,91023.0,91038.0,91046.0,91075.0,91264.0,91340.0,0.08155359980416482,-0.1541146179062325,0.06488670808814863,-0.0440197998811864,0.014776179494593375
90,90,91960.18710331817,1391.8596109094012,12.161542124521482,92039.60271279886,-1758.365814573758,20.383723206436173,92082.22661167308,22573.801799172696,6.656059429600469,92108.88584394782,-8576.434926548764,17.379246613593303,92353.75562554105,10724.20940204516,29.73745383058593,0.9239859404145966,81.0,57.0,96.0,265.0,361.0,24.0,1053.0,1050.0,24.0,10.0,14.0,0.4166666666666667,156.7243405017344,1488.406204294351,59.0,40.0,19.0,0.6779661016949152,153.16253107879973,1364.8638910973525,14.0,7.0,7.0,0.5,1402.738938246494,16071.170625235462,32.0,13.0,19.0,0.40625,402.5411204297394,10710.749646540824,75.0,37.0,38.0,0.4933333333333333,171.83707200380607,10805.033242613305,,,,,91950.0,91974.0,92031.0,92051.0,92075.0,92089.0,92096.0,92127.0,92318.0,92392.0,0.11260068132829516,-0.08710504367711878,0.06214012822146346,-0.046935716749118464,0.01602328577909304
91,91,92979.69864360055,1006.0618877853972,10.191861603456228,93063.75339099858,-1554.180331028061,25.47965400864057,93103.94536896244,20869.46385304551,6.446639034209594,93132.21809034076,-8486.249256267942,19.685462735846595,93376.87957362762,10221.29595238314,28.997436564670185,0.9080021777666356,64.0,56.0,114.0,261.0,375.0,8.0,1018.0,1022.0,23.0,7.0,16.0,0.3043478260869565,171.49214060872382,1161.544097735694,63.0,44.0,19.0,0.6984126984126984,174.2098798897543,1292.4411925415495,14.0,7.0,7.0,0.5,1330.978809786384,14273.165983411473,39.0,17.0,22.0,0.4358974358974359,302.8333004416015,8781.671277192125,71.0,35.0,36.0,0.4929577464788732,163.71961895470625,11044.843326680751,,,,,92974.0,92982.0,93038.0,93078.0,93097.0,93111.0,93117.0,93152.0,93342.0,93413.0,0.17045883825916758,-0.11209116240360457,0.0637763777334487,-0.035685176253564425,0.016017501079844412
92,92,93979.12330450072,1620.2689160032282,12.739827004320285,94063.17805189872,-1207.7760020800174,22.931688321597623,94104.382160722,21149.234519896865,6.341779845217454,94133.32873009844,-8275.174591725869,15.826899417041352,94376.95881659626,10907.802771789486,30.28589061056621,0.9240912853435876,85.0,58.0,92.0,265.0,357.0,27.0,999.0,1000.0,28.0,7.0,21.0,0.25,170.48921779837104,1813.9092532724624,54.0,40.0,14.0,0.7407407407407407,156.52362529217538,773.7155120958523,14.0,7.0,7.0,0.5,1361.2319707342954,15971.085638950568,32.0,15.0,17.0,0.46875,345.3891830066851,8822.934588348999,74.0,36.0,38.0,0.4864864864864865,147.55108712447102,11404.214215858,,,,,93972.0,93999.0,94057.0,94076.0,94097.0,94111.0,94118.0,94149.0,94341.0,94414.0,0.10522279117649343,-0.1295965684221348,0.06436317917103193,-0.04173799346203894,0.013527113591206275
93,93,94996.3416384268,1080.8750071928434,14.995118421283202,95073.054747398,-1702.381429846986,31.85066542020121,95116.94898091163,23633.44227547896,6.824001772029926,95143.64337214704,-8377.152660110802,17.857984093256366,95389.3878774192,10917.02147130997,29.108460339114593,0.9166139303905708,62.0,42.0,114.0,264.0,378.0,20.0,1019.0,1014.0,20.0,10.0,10.0,0.5,152.46618987172812,1057.377942476805,64.0,42.0,22.0,0.65625,156.93621398069018,1337.7602853647725,15.0,8.0,7.0,0.5333333333333333,1445.900414907437,16670.04991722056,32.0,13.0,19.0,0.40625,414.6818406927016,10597.223764828355,75.0,36.0,39.0,0.48,159.89487504880697,11565.962358577282,,,,,94986.0,95006.0,95048.0,95093.0,95109.0,95124.0,95131.0,95162.0,95354.0,95426.0,0.14105811389579664,-0.092186281657687,0.06118027150059477,-0.0495015260575682,0.014646382758247029
94,94,96017.12330450072,1552.4273392787798,12.739827004320285,96100.17805189872,-1444.5385553590113,21.27194363377154,96143.39945246073,23057.185120849903,6.722727802821126,96169.72081680312,-8122.002936889925,16.410789593610403,96414.7013685666,11075.576692171308,30.60042001333638,0.9268265936378788,85.0,59.0,93.0,265.0,358.0,26.0,1019.0,1027.0,32.0,12.0,20.0,0.375,158.35689465801858,1611.2618680398405,59.0,39.0,20.0,0.6610169491525424,166.19414684701732,789.7349132571397,15.0,8.0,7.0,0.5333333333333333,1439.8440393487067,17162.238275433476,31.0,13.0,18.0,0.4193548387096774,427.78739312222655,10553.6859279422,76.0,37.0,39.0,0.4868421052631579,165.9565150422271,11516.202105059358,,,,,96010.0,96036.0,96095.0,96114.0,96135.0,96150.0,96157.0,96188.0,96379.0,96453.0,0.10200599451668209,-0.11504999034498811,0.06244665304121187,-0.05267018449097419,0.014984006671140861
95,95,97033.51026898185,1511.1948849877697,14.509430835716936,97113.60271279886,-1253.5942437103022,20.38372319966494,97155.16110937118,22107.23076587423,6.45548751910765,97182.47940829814,-8390.546795781926,17.257098960140095,97427.45198678534,10778.126493999736,29.88264407873017,0.9247924032928332,84.0,59.0,94.0,265.0,359.0,25.0,1018.0,1010.0,26.0,11.0,15.0,0.4230769230769231,180.07738037570283,1464.5123521907362,20.0,9.0,11.0,0.45,170.82614259136912,1236.26232767567,14.0,7.0,7.0,0.5,1400.3597668620685,15764.71119044639,34.0,14.0,20.0,0.4117647058823529,348.4365318906627,9741.93533112224,75.0,36.0,39.0,0.48,163.54734133474685,11225.819807460632,,,,,97023.0,97048.0,97107.0,97125.0,97148.0,97162.0,97169.0,97201.0,97392.0,97466.0,0.11916224847277737,-0.1362690866270809,0.06334397020108598,-0.04152727353428597,0.015174004631119785
96,96,97986.972626301,1061.0900295109575,12.529774626918206,98072.60271279886,-1460.5196807054313,20.383723206912453,98110.6074966374,20803.456756504136,6.239697627454583,98138.48195379908,-8406.951201066951,18.58288252874087,98383.03814591252,10451.60871547344,29.77941271361549,0.9171924412309072,87.0,62.0,94.0,263.0,357.0,25.0,951.0,956.0,31.0,11.0,20.0,0.3548387096774194,159.41316319297306,925.982591924192,60.0,44.0,16.0,0.7333333333333333,154.46706223536123,1622.164359925907,14.0,8.0,6.0,0.5714285714285714,1336.2682796720298,13945.532690568556,39.0,17.0,22.0,0.4358974358974359,286.1846591545953,8410.646244638852,74.0,36.0,38.0,0.4864864864864865,149.72178616614548,11256.77319603122,,,,,97977.0,98002.0,98064.0,98084.0,98103.0,98117.0,98124.0,98158.0,98348.0,98421.0,0.15023528518729415,-0.105761712269946,0.06423299239700872,-0.03404143218034556,0.014325238366844404
97,97,98912.60472793884,1381.6122293753288,13.643298559361952,98991.60271279886,-1541.2940289099736,20.38372320691245,99034.34389095852,22382.469126862143,6.540567343625692,99061.50891171762,-8337.645506000452,17.695227676587116,99305.28619265812,10867.240102822938,29.58779058947409,0.922276356458592,82.0,57.0,98.0,262.0,360.0,25.0,927.0,925.0,33.0,17.0,16.0,0.5151515151515151,165.08654022564576,1326.538494691555,58.0,40.0,18.0,0.6896551724137931,138.57438670367506,1451.3277806713045,14.0,7.0,7.0,0.5,1405.8802016313175,15801.748148812769,34.0,14.0,20.0,0.4117647058823529,333.0959281391064,9013.047291031022,77.0,37.0,40.0,0.4805194805194805,162.27507660599835,11114.275551502684,,,,,98901.0,98926.0,98983.0,99003.0,99027.0,99041.0,99048.0,99081.0,99269.0,99343.0,0.11948833161406416,-0.0899078203797863,0.06281166718751603,-0.039950838387094206,0.014932501267165785
98,98,99865.39728720114,1292.3839317634574,14.879206083996896,99949.60271279886,-1339.6444970422522,20.383723206912453,99989.28430090888,23383.996344074498,6.716192567887375,100015.92685932004,-8408.249213452644,16.75666553111576,100259.88247528336,11163.935693405454,29.854909673617968,0.9317147622161872,62.0,36.0,119.0,263.0,382.0,26.0,951.0,954.0,38.0,12.0,26.0,0.3157894736842105,144.9330001275603,993.5876851165806,60.0,44.0,16.0,0.7333333333333333,143.31260592980283,1096.7764726911314,15.0,8.0,7.0,0.5333333333333333,1487.3195990099257,17503.866408145725,32.0,13.0,19.0,0.40625,420.02399982108693,10274.33116302351,78.0,40.0,38.0,0.5128205128205128,160.14279924894794,11697.289095124648,,,,,99854.0,99880.0,99916.0,99961.0,99981.0,99996.0,100003.0,100035.0,100225.0,100298.0,0.1121439199029651,-0.10697808728078011,0.06360416659006245,-0.0499538000311737,0.014344654398497155
99,99,100845.82194810128,1604.7139605876073,16.576140372580003,100928.60271279886,-891.3143085998857,14.203395810272893,100970.23494450512,22947.91459536921,6.672065866614103,100996.75371663547,-7836.908970857759,15.137571638924038,101240.16943755253,11117.76445262492,30.937618104932504,0.931547300979428,90.0,53.0,91.0,264.0,355.0,37.0,980.0,981.0,38.0,13.0,25.0,0.3421052631578947,148.46588845505644,2034.524333345682,18.0,7.0,11.0,0.3888888888888889,141.90894017811945,825.9994657468117,15.0,8.0,7.0,0.5333333333333333,1437.686413766978,17668.547809665164,30.0,13.0,17.0,0.4333333333333333,432.3370560294162,9837.862073112055,75.0,37.0,38.0,0.4933333333333333,159.48473588103008,12041.92542131316,,,,,100833.0,100870.0,100923.0,100940.0,100962.0,100977.0,100985.0,101014.0,101204.0,101278.0,0.09251859963921037,-0.15921312920583092,0.06264998101644917,-0.055166782928971085,0.014345036410928413
100,100,101808.08063667642,1746.0417489838428,15.5441950292068,101889.30135639945,-1215.6149052081037,10.191861603403847,101928.01756829518,20613.785550875495,6.0227481697831555,101957.32873009844,-7858.021409948651,15.548196500778912,102198.46791858494,10801.819587607904,30.9851049464669,0.926097394093114,89.0,52.0,92.0,264.0,356.0,37.0,965.0,957.0,37.0,16.0,21.0,0.4324324324324324,150.74863605715876,1742.2041662326071,18.0,8.0,10.0,0.4444444444444444,166.04600581577213,1028.223703765098,15.0,8.0,7.0,0.5333333333333333,1365.4908448530005,15550.544678828664,33.0,16.0,17.0,0.4848484848484848,304.59697947801726,8135.456852077814,79.0,40.0,39.0,0.5063291139240507,146.77269396343928,11487.70913421961,,,,,101792.0,101829.0,101881.0,101895.0,101920.0,101935.0,101942.0,101973.0,102163.0,102237.0,0.08633736057278761,-0.1365942496298582,0.06624163434139375,-0.03876255403076176,0.013587774983005667
101,101,102729.12330450072,1516.2130309408226,12.739827004248111,102812.17805189872,-1299.2001531194778,12.636056208450691,102852.38742549998,19688.632641403725,6.131737606363764,102881.90406919828,-7982.571439477608,16.766885445822226,103123.73243152363,10616.91167803768,30.50151367418128,0.9253669314309402,84.0,56.0,93.0,262.0,355.0,28.0,920.0,924.0,29.0,8.0,21.0,0.2758620689655172,176.25813247223152,1664.688346228366,45.0,32.0,13.0,0.7111111111111111,173.80780124391814,734.9911946795748,14.0,7.0,7.0,0.5,1299.1071909412265,14775.758327072956,35.0,17.0,18.0,0.4857142857142857,289.6258944671741,7792.654145662082,77.0,39.0,38.0,0.5064935064935064,161.22501887293845,11433.533782775208,,,,,102722.0,102750.0,102806.0,102825.0,102845.0,102859.0,102866.0,102899.0,103090.0,103161.0,0.1162489233870137,-0.1337806194269547,0.06598260095570584,-0.03628228029815511,0.01518567958010343
102,102,103684.15041104092,1423.8092250996328,13.55923751640077,103765.60271279886,-1397.9541332819713,20.383723103383144,103806.781644479,21922.47096897422,6.518536333190562,103835.32873009844,-8176.618383913109,15.600897260963867,104079.38347749642,11080.614088200737,30.06538385585691,0.927135315619976,88.0,63.0,93.0,264.0,357.0,25.0,958.0,955.0,25.0,14.0,11.0,0.56,172.99178374421214,1880.9264679719192,40.0,29.0,11.0,0.725,137.53469387887645,1474.6266569169334,15.0,8.0,7.0,0.5333333333333333,1407.0788344981306,16223.376166806627,31.0,14.0,17.0,0.4516129032258064,356.22320271467737,9078.25044879562,77.0,39.0,38.0,0.5064935064935064,151.7962399591536,11319.292886830928,,,,,103670.0,103695.0,103758.0,103777.0,103799.0,103814.0,103821.0,103851.0,104041.0,104115.0,0.12149927159806598,-0.0983828371793478,0.06418431738326848,-0.043566079030362984,0.01369926240106086
103,103,104658.12330450072,1104.4934260945315,12.385928631028088,104744.87669549928,-1555.441627140153,12.739827004203502,104783.80177072083,23325.81584041374,6.692058925696855,104810.22986175264,-8316.743623629345,15.972641609497296,105054.92629786038,11135.492486391482,29.81782157697205,0.9306919395981444,61.0,38.0,116.0,265.0,381.0,23.0,971.0,977.0,30.0,9.0,21.0,0.3,145.09133498777288,1352.344963324615,54.0,44.0,10.0,0.8148148148148148,148.0904787311969,1340.9539529100084,15.0,8.0,7.0,0.5333333333333333,1474.3402535649482,17271.92333671036,31.0,12.0,19.0,0.3870967741935484,453.0415878737913,10591.66018076254,74.0,36.0,38.0,0.4864864864864865,165.41042820557638,12003.828239588109,,,,,104651.0,104674.0,104712.0,104752.0,104776.0,104791.0,104798.0,104828.0,105019.0,105093.0,0.13136459806810546,-0.09520799504606109,0.06320637458735923,-0.05447343436036909,0.01485434329983357
104,104,105616.972626301,1283.2469785607132,12.699577358055604,105695.47940829814,-1550.0009101141443,22.913829066961465,105740.0557875926,22194.030913483784,6.490189360573665,105767.90406919828,-8533.087602953725,16.260095511438518,106011.24874892578,10803.161015556863,30.03668143442263,0.9260576297318732,50.0,25.0,128.0,264.0,392.0,25.0,958.0,958.0,26.0,10.0,16.0,0.3846153846153846,139.76408992784303,1198.7913440582895,60.0,39.0,21.0,0.65,133.87954953064775,1053.7713830928724,15.0,8.0,7.0,0.5333333333333333,1417.4540162361873,16071.187679052193,33.0,14.0,19.0,0.4242424242424242,355.2554320478122,9049.533280177482,77.0,38.0,39.0,0.4935064935064935,169.64216909505805,11180.001655092805,,,,,105607.0,105632.0,105657.0,105714.0,105732.0,105747.0,105754.0,105785.0,105978.0,106049.0,0.10891441184969873,-0.08637385220682785,0.06386645227996983,-0.04163269482020091,0.015703012187892825
105,105,106531.24660900142,1773.990166474062,15.144540350469144,106609.87669549928,-1058.3302457990226,11.447356953532427,106650.78225145304,20059.645776322035,6.023213234490311,106679.90406919828,-7668.514680991369,15.44246839373286,106920.46461305273,10797.407238077652,31.9709299254007,0.9242037262991668,90.0,57.0,90.0,262.0,352.0,33.0,913.0,909.0,39.0,19.0,20.0,0.4871794871794871,139.65025528161104,1469.5094730402668,19.0,8.0,11.0,0.4210526315789473,156.76123891359288,907.9789999832262,15.0,8.0,7.0,0.5333333333333333,1321.2607825418224,14731.290678475783,35.0,17.0,18.0,0.4857142857142857,290.88405771200814,6981.959293151769,81.0,40.0,41.0,0.4938271604938271,171.03460479533425,11612.898286001277,,,,,106517.0,106550.0,106607.0,106620.0,106643.0,106658.0,106664.0,106697.0,106885.0,106959.0,0.07872098612540585,-0.14812128778880418,0.06586660588500569,-0.03793225543833781,0.015840340280226836
106,106,107430.7260172996,1089.2073926229623,7.64389620259217,107500.60271279886,-1462.6141012966948,20.38372315496483,107543.32204293112,21101.00014365891,6.468336532958751,107571.19759346049,-8296.609136696876,17.463277232479115,107814.11901305284,10553.534657056754,29.80234569081735,0.9122355318855632,70.0,59.0,97.0,261.0,358.0,11.0,905.0,892.0,27.0,20.0,7.0,0.7407407407407407,158.44418348400217,584.4822479742327,47.0,29.0,18.0,0.6170212765957447,174.30220617732175,1027.3135305226097,14.0,7.0,7.0,0.5,1338.4309314017617,15068.068518444268,36.0,15.0,21.0,0.4166666666666667,309.77828451672156,8686.294057613515,75.0,36.0,39.0,0.48,151.2039269811082,11077.443070391711,,,,,107424.0,107435.0,107494.0,107512.0,107536.0,107550.0,107557.0,107591.0,107778.0,107852.0,0.1454674147064377,-0.11917169814156203,0.0634297389834375,-0.03733793883895721,0.01432732557333327
107,107,108373.972626301,1299.9179878285745,13.58506509778274,108459.60271279886,-1192.50560589171,20.383723206867806,108500.28081154388,23060.080318267923,6.785509817827587,108526.86550501174,-8212.962890003175,16.963578140611865,108770.17391566516,10737.0885373791,30.80359862361009,0.9281404534982902,87.0,68.0,94.0,263.0,357.0,19.0,939.0,957.0,30.0,10.0,20.0,0.3333333333333333,180.17647884130992,1314.713353131036,40.0,29.0,11.0,0.725,152.65743792172998,1140.0134790744382,15.0,8.0,7.0,0.5333333333333333,1421.716621906608,16836.71278005335,32.0,13.0,19.0,0.40625,411.2765370550528,10091.192252206018,77.0,39.0,38.0,0.5064935064935064,154.9299526267529,11643.47602909796,,,,,108364.0,108383.0,108451.0,108471.0,108492.0,108507.0,108514.0,108545.0,108734.0,108808.0,0.13860603555635276,-0.12801402120669997,0.06165271769588508,-0.050076512284702876,0.014429419305558876
108,108,109358.41061703608,1644.3991575632683,18.1459902326341,109424.39728720114,-1059.529444091224,17.097345396412095,109479.81315136667,23377.13720229673,6.756058143360729,109506.03173565258,-7963.871147359901,14.838616602463995,109748.94215213507,11370.481123794363,32.352423544562434,0.9325166490729216,70.0,33.0,111.0,267.0,378.0,37.0,987.0,980.0,37.0,16.0,21.0,0.4324324324324324,157.7648583185368,1880.2363445782707,40.0,14.0,26.0,0.35,153.09188456127512,1082.4517020619955,15.0,8.0,7.0,0.5333333333333333,1456.8317985181752,17742.176100931592,30.0,12.0,18.0,0.4,444.5255046396891,10433.465708015672,80.0,39.0,41.0,0.4875,153.86434660777158,12283.98050729602,,,,,109342.0,109379.0,109412.0,109429.0,109472.0,109487.0,109494.0,109523.0,109712.0,109790.0,0.09594073166050426,-0.14449044848638878,0.06231865715255528,-0.05581776706508536,0.013531911704755251
109,109,110320.96519948576,1698.0908625427394,16.68624282501241,110397.45203459916,-1161.9635286950995,15.287792386125684,110441.39686181227,20800.02028126027,6.166834127694506,110469.47940829814,-8074.725590280187,16.656094781155698,110711.64646406456,10696.425470140994,31.398749323035613,0.9204902232768988,87.0,55.0,94.0,263.0,357.0,32.0,959.0,962.0,33.0,14.0,19.0,0.4242424242424242,139.5528541060338,1738.289490851282,58.0,39.0,19.0,0.6724137931034483,129.43617315593303,672.6492993755007,14.0,7.0,7.0,0.5,1353.367981977463,15310.725691568328,35.0,15.0,20.0,0.4285714285714285,311.3840153613694,8329.701733392863,79.0,40.0,39.0,0.5063291139240507,168.57178637125563,11062.02442439518,,,,,110307.0,110339.0,110394.0,110409.0,110434.0,110448.0,110455.0,110488.0,110675.0,110751.0,0.08218220660881825,-0.11139435099248905,0.06506570492129649,-0.038562798435675956,0.01575963735191936
110,110,111222.75339099858,1519.3793830621078,15.671244895536262,111297.3013564037,-1421.7337363898623,10.19186160319124,111339.4617117784,19961.655639514986,6.20646331840559,111367.58562228116,-7998.2217797765,18.252909497133096,111610.285042575,10466.65718110052,30.143884413063702,0.919851754183109,89.0,58.0,92.0,261.0,353.0,31.0,910.0,898.0,33.0,17.0,16.0,0.5151515151515151,134.95113170479706,1220.620770810018,48.0,30.0,18.0,0.625,150.36407740551073,876.747265095901,14.0,7.0,7.0,0.5,1270.5700253741138,13922.387120877516,38.0,18.0,20.0,0.4736842105263157,273.6441885591641,7756.376613428545,78.0,39.0,39.0,0.5,159.21919624904058,10566.520982493545,,,,,111206.0,111237.0,111295.0,111309.0,111332.0,111346.0,111351.0,111387.0,111574.0,111648.0,0.08881990450128456,-0.10576106732004738,0.06365053321824488,-0.034213128379494716,0.015212038905462596
111,111,112103.75339099858,1758.0545866522602,17.820172309612627,112182.30135639945,-989.1070844755474,9.755377173373745,112221.16927406656,20545.597380981537,6.22210375825274,112249.90406919828,-8172.150166565569,15.527291520916709,112490.79271055582,10868.649167330936,31.13542153692294,0.9253773380199676,91.0,58.0,91.0,262.0,353.0,33.0,881.0,881.0,54.0,34.0,20.0,0.6296296296296297,153.63039135362234,1204.8437754640331,16.0,7.0,9.0,0.4375,155.25208892183693,738.9032477187466,15.0,8.0,7.0,0.5333333333333333,1348.536523660078,15406.15471637479,33.0,15.0,18.0,0.4545454545454545,321.3830656359905,8332.317057733992,77.0,39.0,38.0,0.5064935064935064,157.96558580688767,11546.771187227703,,,,,112085.0,112118.0,112176.0,112188.0,112213.0,112228.0,112235.0,112267.0,112453.0,112529.0,0.08738658772033348,-0.15696186121663055,0.06563627713781538,-0.03932662262507776,0.014534058775372175
112,112,113026.46390041668,1736.8929747442617,18.274090538704797,113107.60271279886,-1229.9150851273962,16.159053704212212,113149.1012219481,22151.651209371452,6.512054376094873,113177.32873009844,-8119.464143954284,14.60319128165826,113418.4429441511,11176.486031343304,31.544628099602345,0.9287272347012662,98.0,58.0,92.0,263.0,355.0,40.0,917.0,929.0,53.0,28.0,25.0,0.5283018867924528,142.70046200518797,1827.4783192831096,18.0,7.0,11.0,0.3888888888888889,151.28620720130263,1406.8422355675675,15.0,8.0,7.0,0.5333333333333333,1429.5178107808526,16936.42123984734,30.0,14.0,16.0,0.4666666666666667,372.2103482018327,9353.88706929916,79.0,40.0,39.0,0.5063291139240507,143.1978423464777,12192.404390281778,,,,,113003.0,113043.0,113101.0,113119.0,113141.0,113156.0,113163.0,113193.0,113380.0,113456.0,0.08215846576626233,-0.12300540828445258,0.06453323940817932,-0.04584173802639166,0.012812420822152339
113,113,113987.39728719588,1436.3310309154786,17.228929553614744,114065.75339099858,-1168.3905152572786,24.231814598650967,114109.34453114306,23172.612958781538,6.759095512010842,114135.72984449602,-8273.824752174314,15.817190866272812,114379.24961768008,10817.697437732406,30.231706075535676,0.927313858328046,84.0,58.0,94.0,261.0,355.0,26.0,959.0,961.0,51.0,31.0,20.0,0.6078431372549019,152.69463557141017,1141.31896934013,57.0,40.0,17.0,0.7017543859649122,157.5226272282706,988.6709444137788,14.0,7.0,7.0,0.5,1447.6765771101775,17528.134270705894,30.0,12.0,18.0,0.4,414.8299649807792,10324.213759771796,76.0,37.0,39.0,0.4868421052631579,154.20880361516507,11487.892155058791,,,,,113976.0,114002.0,114060.0,114080.0,114102.0,114116.0,114124.0,114154.0,114342.0,114415.0,0.10630880506291558,-0.13482018654831707,0.06247360104297445,-0.050137630105322725,0.014255233565442569
114,114,114913.17805189872,1537.3264026252862,14.468456573935857,114991.87669549928,-1539.863289372874,12.739826957488985,115030.38542523154,19814.49746910266,5.988099988731086,115059.90406919828,-8293.140703547704,17.893806919400287,115300.9960346834,10491.37162452694,29.841110501135653,0.9196060568703864,87.0,56.0,95.0,262.0,357.0,31.0,933.0,919.0,34.0,18.0,16.0,0.5294117647058824,147.2343437530349,1204.3476750469304,38.0,28.0,10.0,0.7368421052631579,151.4356972536648,1434.9575577231822,14.0,7.0,7.0,0.5,1322.7511820987152,14321.19962199496,36.0,18.0,18.0,0.5,266.32666111051145,8168.093118256914,79.0,40.0,39.0,0.5063291139240507,171.0217114154236,10896.886134206075,,,,,114895.0,114926.0,114982.0,114999.0,115023.0,115037.0,115043.0,115077.0,115265.0,115339.0,0.09577298841781641,-0.09834359861604249,0.06675673628167057,-0.03211408929750585,0.016301177532936265
115,115,115800.62359958013,1673.78736941877,17.391982210610063,115881.60271279886,-1128.4041389841668,20.38372320691244,115922.79950972972,20480.204498134382,6.324481562567948,115950.68747024512,-8178.912667837447,17.475466645161326,116192.22359385985,10236.848334342483,30.886607903512157,0.9261269065066472,92.0,58.0,92.0,262.0,354.0,34.0,884.0,893.0,34.0,16.0,18.0,0.4705882352941176,154.98246991750818,2047.7030325373307,53.0,40.0,13.0,0.7547169811320755,154.92339794370764,846.0725502527067,15.0,8.0,7.0,0.5333333333333333,1336.1764713686475,14596.7023144694,36.0,16.0,20.0,0.4444444444444444,317.04706550518483,8232.80870402082,79.0,39.0,40.0,0.4936708860759494,168.7100743565652,10580.806502329164,,,,,115785.0,115819.0,115877.0,115895.0,115915.0,115930.0,115936.0,115969.0,116154.0,116231.0,0.09259388184493621,-0.13729424821427516,0.06524234030428577,-0.038763962690533775,0.016480665615663977
116,116,116723.75339099858,1701.8968462299044,16.98840225884879,116800.87669549928,-1226.965526354593,10.39012346320158,116838.66047685024,21798.22446557191,6.406967829154999,116866.90406919828,-8068.512472332362,15.698865453335204,117107.48638366631,10871.53011526026,31.201733028865025,0.9238962958946624,90.0,56.0,90.0,262.0,352.0,34.0,927.0,917.0,52.0,37.0,15.0,0.7115384615384616,160.93876268619977,1096.969627579561,19.0,7.0,12.0,0.3684210526315789,169.83354542454668,751.7751402017344,15.0,8.0,7.0,0.5333333333333333,1406.4926861338258,15932.29597050778,33.0,15.0,18.0,0.4545454545454545,323.25755943081305,8345.992665210284,76.0,36.0,40.0,0.4736842105263157,173.400191396829,11744.188219145435,,,,,116704.0,116738.0,116794.0,116808.0,116831.0,116846.0,116853.0,116884.0,117072.0,117146.0,0.09456434627205308,-0.13841753641533427,0.06452326832193322,-0.04006408375016976,0.015949934329246702
117,117,117654.38925076014,1338.0308861755525,15.746951019401914,117735.30135639945,-1617.4311972198852,10.191861603456228,117778.02972862848,23506.4368239497,6.6382100400616295,117804.47940829814,-8130.419953702501,16.00025602682384,118046.9360504942,10948.322806490743,30.55592277886566,0.9273606615992036,90.0,63.0,90.0,261.0,351.0,27.0,925.0,939.0,28.0,11.0,17.0,0.3928571428571428,164.77243638488957,1441.684530740472,58.0,40.0,18.0,0.6896551724137931,164.4710079469337,917.7852132569822,15.0,8.0,7.0,0.5333333333333333,1486.3181152592042,17589.082103982622,32.0,12.0,20.0,0.375,429.8371045923232,10428.857860909777,75.0,37.0,38.0,0.4933333333333333,146.41762401739683,11580.920195806342,,,,,117643.0,117670.0,117733.0,117747.0,117770.0,117785.0,117792.0,117823.0,118011.0,118084.0,0.12314546553992707,-0.10168655595961917,0.06323026013644306,-0.0528677616949639,0.013373520913229991
118,118,118574.66099975049,1282.9050730471054,15.653091423924668,118638.80384869735,-1721.2892266431843,22.611792030101775,118694.82359736592,23729.454412219267,6.602871505238128,118721.47940829814,-8383.507267733095,17.905761593230462,118963.22284742052,10876.271821300314,29.687542473767593,0.926294772808708,50.0,24.0,128.0,260.0,388.0,26.0,919.0,915.0,32.0,18.0,14.0,0.5625,152.92224963514764,787.0891254932972,59.0,27.0,32.0,0.4576271186440678,165.69993293579168,1682.1883546607846,15.0,8.0,7.0,0.5333333333333333,1475.815809432936,16617.190031873426,33.0,13.0,20.0,0.3939393939393939,416.0577889503124,11121.832694418956,77.0,39.0,38.0,0.5064935064935064,173.20726244073526,11234.350767746864,,,,,118562.0,118588.0,118612.0,118646.0,118687.0,118701.0,118708.0,118740.0,118929.0,119000.0,0.11919997266199342,-0.09626501483364047,0.062193415145397446,-0.04962813004906175,0.015925242149752328
119,119,119380.39728720114,1959.0951343143863,18.47737412178297,119465.87669549928,-1133.1369265058856,12.739827002365514,119504.76379327412,23692.12573090154,6.67848065591049,119531.32541806632,-8180.830902041353,15.752521408884212,119770.40569760298,11597.956962273249,31.31668421781,0.9398185326448644,90.0,59.0,91.0,258.0,349.0,31.0,805.0,811.0,51.0,25.0,26.0,0.4901960784313725,150.34692683877304,1811.430925143337,18.0,8.0,10.0,0.4444444444444444,160.8042555632915,1118.385081168666,15.0,8.0,7.0,0.5333333333333333,1507.4869267992858,17760.55684825206,31.0,12.0,19.0,0.3870967741935484,427.8098475405816,10125.991704158048,76.0,38.0,38.0,0.5,165.43977559484375,12670.96425606134,,,,,119369.0,119400.0,119459.0,119473.0,119497.0,119512.0,119519.0,119550.0,119735.0,119808.0,0.07674304540161554,-0.1419107009945777,0.06362818363879764,-0.05229418046446,0.014264561951126334
120,120,120251.32873009844,1909.535130977573,18.23624586395332,120331.027373699,-940.3522393294088,17.830473159712643,120372.39032899056,23355.24533896282,6.762002468907639,120398.08567783648,-8091.16692074224,15.290116595329115,120639.39583671992,10873.699606841472,30.94236128660574,0.9356729171288498,92.0,59.0,89.0,263.0,352.0,33.0,879.0,867.0,52.0,29.0,23.0,0.5576923076923077,147.9676317340794,1695.1337761232671,19.0,7.0,12.0,0.3684210526315789,131.32492275859155,871.455281620545,15.0,8.0,7.0,0.5333333333333333,1472.097553884355,17654.716047645452,30.0,12.0,18.0,0.4,436.5977479469172,10388.101355875471,78.0,39.0,39.0,0.5,156.4978485720521,10998.499985977567,,,,,120234.0,120267.0,120326.0,120341.0,120364.0,120379.0,120386.0,120415.0,120602.0,120678.0,0.07748882402510626,-0.1396550327271438,0.06303070391765489,-0.05395979989334666,0.014392327747732464
121,121,121147.05763337464,1628.261222895571,15.262325961776906,121219.63008649784,-1346.9965167531195,16.473855867237123,121267.80075464622,20330.9306893847,6.082444337433814,121295.47940829814,-8202.839327374048,17.505853432682976,121535.78673724108,10333.18894309298,30.3878050037304,0.9217306562914592,70.0,38.0,111.0,259.0,370.0,32.0,887.0,896.0,33.0,14.0,19.0,0.4242424242424242,137.75920772653555,1589.7038950070196,58.0,35.0,23.0,0.603448275862069,144.7270756621951,863.4961891585865,15.0,8.0,7.0,0.5333333333333333,1336.5548828176766,14008.115314305978,38.0,17.0,21.0,0.4473684210526316,283.96781830693084,7597.665547344777,77.0,38.0,39.0,0.4935064935064935,166.02480181255322,10906.045308316889,,,,,121133.0,121165.0,121203.0,121241.0,121260.0,121275.0,121279.0,121314.0,121500.0,121573.0,0.08460510254095191,-0.10744428353167076,0.06573997537237812,-0.03461823485427657,0.016067140814601023
122,122,121997.2953688058,1740.0185455902572,15.83066659754068,122073.60271279886,-1229.3436820728664,14.481989369775286,122117.36220141336,20656.172962600067,6.258756240508657,122145.05474740088,-8259.979026618006,17.578232527303676,122384.45027970849,10425.201513289816,30.329141178586283,0.916607246334583,88.0,53.0,96.0,258.0,354.0,35.0,859.0,850.0,37.0,17.0,20.0,0.4594594594594595,135.69827135016203,1453.4287568848483,58.0,39.0,19.0,0.6724137931034483,131.9963325667485,625.4688685360148,15.0,8.0,7.0,0.5333333333333333,1332.950504125521,14044.484615863994,38.0,17.0,21.0,0.4473684210526316,245.02901520714855,8228.24646708016,78.0,38.0,40.0,0.4871794871794871,166.80558164235111,10654.707974142051,,,,,121981.0,122016.0,122069.0,122087.0,122110.0,122124.0,122129.0,122165.0,122351.0,122423.0,0.07798668105812047,-0.10737138400888997,0.06453037097137755,-0.029664605008988026,0.01600022612797566
123,123,122858.30135639945,1549.9487819796811,10.191861603455996,122933.027373699,-1415.449206904137,17.835757793212668,122971.72431847145,22524.799169221904,6.537642567214723,122998.47940829814,-8856.429351419114,16.528600329982076,123239.00176848516,10620.922340481386,30.327550209419982,0.9210913656106468,82.0,57.0,96.0,259.0,355.0,25.0,858.0,854.0,34.0,22.0,12.0,0.6470588235294118,172.7427544058684,1139.482911965444,54.0,44.0,10.0,0.8148148148148148,180.42677335438583,1230.5121719079489,15.0,8.0,7.0,0.5333333333333333,1449.7810077085426,15566.228921102116,33.0,13.0,20.0,0.3939393939393939,392.3637398781129,9991.576237895868,78.0,40.0,38.0,0.5128205128205128,165.00299826122458,11389.39937862743,,,,,122839.0,122864.0,122921.0,122943.0,122964.0,122979.0,122985.0,123017.0,123204.0,123276.0,0.11145062108777021,-0.12746962058003783,0.06436377065192825,-0.04430270081872694,0.015535656223783851
124,124,123777.06434948368,1486.9301319494098,17.580722396813076,123861.30135639945,-1261.9100599196536,10.191861603456228,123899.8825410988,22900.05121968857,6.700488475038261,123925.55437367062,-8394.062274201548,15.711688529980156,124166.18804000528,10742.820301501824,32.33538455721057,0.9278860455705464,90.0,59.0,91.0,262.0,353.0,31.0,919.0,927.0,39.0,14.0,25.0,0.358974358974359,174.48696582909076,1506.4098282383666,20.0,10.0,10.0,0.5,176.87806294622453,1035.4388809936515,15.0,8.0,7.0,0.5333333333333333,1435.4244919216735,16301.742896344536,32.0,13.0,19.0,0.40625,444.96668938114175,10293.633467355072,81.0,40.0,41.0,0.4938271604938271,134.70531853815095,11300.646092878294,,,,,123763.0,123794.0,123853.0,123867.0,123892.0,123907.0,123914.0,123944.0,124129.0,124206.0,0.1173471181193518,-0.14016693309940523,0.06268215202451388,-0.053009696002459965,0.012539101907840664
125,125,124754.17805189911,1544.124869413662,19.402064726402266,124812.11641036726,-1382.584469489569,22.931688607441895,124872.26352622382,22454.808413739574,6.648286977646107,124898.21350228216,-8309.679357889754,15.801947582112092,125139.80048239164,10408.218915555772,31.698212109474568,0.9282642620502554,68.0,37.0,112.0,263.0,375.0,31.0,979.0,972.0,35.0,21.0,14.0,0.6,161.69733961034373,1266.042000976791,20.0,8.0,12.0,0.4,150.18840482824837,1551.4284737593462,15.0,8.0,7.0,0.5333333333333333,1402.5734651076643,16288.121193766689,31.0,12.0,19.0,0.3870967741935484,427.08392487505006,10579.928486631105,79.0,39.0,40.0,0.4936708860759494,167.1931919502877,10724.18859421385,,,,,124736.0,124767.0,124804.0,124823.0,124864.0,124879.0,124886.0,124916.0,125102.0,125179.0,0.1047177872808588,-0.10862873708084964,0.06246205441901977,-0.05139595723023279,0.01606357373021876
126,126,125685.82194810128,1417.7494570045733,15.058909046745969,125763.17805189872,-1241.3841813250503,22.386674075431657,125806.92006228912,20116.55833959186,6.10573170572328,125834.59733806268,-8132.346104799949,17.66248678273782,126075.94718168298,9925.378273545686,30.42800329161996,0.9174015663405806,84.0,57.0,96.0,261.0,357.0,27.0,924.0,937.0,37.0,17.0,20.0,0.4594594594594595,132.294034935385,1153.081148554499,61.0,40.0,21.0,0.6557377049180327,182.3608833208071,757.5565498697185,14.0,7.0,7.0,0.5,1300.5710120357764,13632.386450671358,37.0,17.0,20.0,0.4594594594594595,299.4460334818765,7850.555673472778,75.0,37.0,38.0,0.4933333333333333,152.1636218750214,10620.417033679903,,,,,125673.0,125700.0,125757.0,125776.0,125800.0,125814.0,125819.0,125853.0,126039.0,126114.0,0.0933127036527994,-0.14690124625734763,0.06465176547998734,-0.036821604691066295,0.015330762987702565
127,127,126583.17805189872,1467.6650897544391,15.95261390310273,126656.027373699,-1212.3698298099675,17.83575780214316,126697.74377349643,20098.924334259613,6.252497227723766,126725.47940829814,-8138.756504850641,17.10147082745159,126966.93220345066,10355.955468995548,30.374160789721124,0.9212846116403232,87.0,56.0,92.0,260.0,352.0,31.0,905.0,889.0,37.0,23.0,14.0,0.6216216216216216,156.1697460221491,1276.074870788631,40.0,27.0,13.0,0.675,164.03059892911668,952.3959902800495,15.0,8.0,7.0,0.5333333333333333,1293.2222859011213,13549.097862343766,37.0,16.0,21.0,0.4324324324324324,277.56483245541574,8413.073996722014,74.0,37.0,37.0,0.5,147.58137154552284,11028.19228578254,,,,,126565.0,126596.0,126652.0,126667.0,126690.0,126705.0,126711.0,126744.0,126931.0,127004.0,0.10640693650911767,-0.13529749330270582,0.06434286056277946,-0.034104083626287265,0.014250869655374943
128,128,127512.7260172996,1483.3806033477529,7.64389620259217,127580.17805189872,-1425.77212930861,21.98993156289134,127622.2679952154,22142.902857321,6.6450337357878855,127649.47940829814,-8080.545169653412,17.23270356255207,127891.80178332498,10576.97917193229,29.956218288478553,0.9205483197932496,70.0,37.0,114.0,260.0,374.0,33.0,927.0,925.0,33.0,29.0,4.0,0.8787878787878788,152.14221852571708,1018.0405500271032,53.0,39.0,14.0,0.7358490566037735,130.81707973939962,1122.3273699175877,15.0,8.0,7.0,0.5333333333333333,1391.1126153703856,15897.36991822741,34.0,13.0,21.0,0.3823529411764705,375.66897577598104,9977.8852135232,76.0,39.0,37.0,0.5131578947368421,186.29244985015288,11387.547922576125,,,,,127484.0,127517.0,127554.0,127593.0,127614.0,127629.0,127636.0,127668.0,127857.0,127928.0,0.1025645193029735,-0.0917517442305706,0.06282431099183768,-0.04649054833414094,0.017613010938369793
129,129,128481.45203459916,1508.9557405177443,15.28779240518434,128551.75339099858,-1437.75688101045,24.22593297290384,128595.77740557736,22817.77025292753,6.742401686969989,128622.52048772076,-8154.289490326251,16.700786956159337,128864.79118458422,10673.558874033242,30.325452189784464,0.9273518927788156,82.0,54.0,96.0,262.0,358.0,28.0,970.0,975.0,39.0,25.0,14.0,0.6410256410256411,155.96168120688097,867.5798133429631,48.0,28.0,20.0,0.5833333333333334,163.41749462289775,1064.1447143763098,15.0,8.0,7.0,0.5333333333333333,1414.8584473001963,16276.477949662894,31.0,13.0,18.0,0.4193548387096774,408.96866717195945,9807.697902595137,77.0,38.0,39.0,0.4935064935064935,154.16066535817728,11489.51720546514,,,,,128462.0,128490.0,128544.0,128566.0,128588.0,128602.0,128610.0,128640.0,128828.0,128902.0,0.1033573596753529,-0.11366142411229399,0.06200686708722862,-0.05015380771766011,0.01444322996458296
130,130,129458.32873009844,1728.1107459574105,16.976658313754196,129533.30135639945,-1359.3555240882044,10.191861603456228,129575.72401633036,21917.808603492653,6.512170164768348,129602.7225704992,-7822.77619071765,15.923746604906269,129844.58510715606,10623.206450958593,31.322666694953178,0.9323791632873688,90.0,57.0,90.0,262.0,352.0,33.0,979.0,980.0,46.0,24.0,22.0,0.5217391304347826,123.83096665963065,1339.5075195431095,57.0,40.0,17.0,0.7017543859649122,126.7278738535032,931.2588396750662,15.0,8.0,7.0,0.5333333333333333,1394.525659581666,16530.073803163985,32.0,13.0,19.0,0.40625,374.2724180125253,9186.260702912616,79.0,39.0,40.0,0.4936708860759494,158.7186991086529,10764.68516475861,,,,,129441.0,129474.0,129531.0,129547.0,129568.0,129583.0,129590.0,129621.0,129808.0,129883.0,0.07165684661663604,-0.09322643827008144,0.06362523210278628,-0.04784393786653764,0.014940752572339476
131,131,131275.7533910167,1406.0032812778347,14.430195384509297,131355.02737369903,-1291.04173235821,17.835757797731233,131394.51549347726,20250.65575495789,6.245395648936651,131423.9040691983,-7990.9618362729,17.480892561389133,131663.906168552,10445.492266000769,30.04141148470776,0.917752958712634,85.0,58.0,93.0,261.0,354.0,27.0,1817.0,1817.0,33.0,18.0,15.0,0.5454545454545454,155.1622950871964,1015.2590107865028,53.0,41.0,12.0,0.7735849056603774,132.50511996285522,1108.5858189893177,15.0,8.0,7.0,0.5333333333333333,1316.2039414844096,14122.110701334528,34.0,16.0,18.0,0.4705882352941176,297.90032471505947,8113.672250518482,76.0,38.0,38.0,0.5,172.4187154143637,11147.669996232318,,,,,131263.0,131290.0,131348.0,131365.0,131387.0,131402.0,131408.0,131441.0,131626.0,131702.0,0.1103569935812514,-0.10263426552511364,0.06499562075475844,-0.037279658046021215,0.016506518890983497
132,132,132196.7260172996,1394.698364287538,7.643896202592091,132266.60271279886,-1505.513457294488,20.383723206843797,132306.94327863597,22952.05138448739,6.725179238113953,132334.11847203685,-8058.537232565897,17.26237818010296,132575.42182821236,10577.366456087802,30.06762107412353,0.9222354922326113,70.0,59.0,92.0,261.0,353.0,11.0,918.0,913.0,31.0,26.0,5.0,0.8387096774193549,158.53994313669338,909.1207543610984,60.0,44.0,16.0,0.7333333333333333,160.69837355702342,1315.3953950132136,15.0,8.0,7.0,0.5333333333333333,1432.9950145230791,16804.994644972307,33.0,13.0,20.0,0.3939393939393939,433.4220506971621,9946.826081254749,77.0,38.0,39.0,0.4935064935064935,152.602093982066,10895.730362572993,,,,,132190.0,132201.0,132260.0,132278.0,132299.0,132314.0,132321.0,132352.0,132537.0,132613.0,0.11367328391302824,-0.10673991174134671,0.06243428922835185,-0.05378420899336806,0.014427229558094386
133,133,133150.02737374153,1365.3996903586155,17.835757636101118,133208.5603582069,-1466.545018754018,21.784503647880353,133266.04596473897,22211.198907013397,6.555823759810201,133293.02253951866,-7996.604657689734,17.13212674562733,133534.8342298761,10344.821393839064,30.22323515617404,0.9296895769524186,62.0,37.0,114.0,262.0,376.0,25.0,955.0,958.0,38.0,21.0,17.0,0.5526315789473685,171.3605811698521,1360.046958305138,20.0,12.0,8.0,0.6,163.0127886221013,1910.573719324676,15.0,8.0,7.0,0.5333333333333333,1392.8785842240914,16113.87271586235,32.0,13.0,19.0,0.40625,402.11504519761974,9745.840615012474,79.0,40.0,39.0,0.5063291139240507,151.9956761667668,10814.11825003502,,,,,133135.0,133160.0,133197.0,133217.0,133258.0,133273.0,133280.0,133311.0,133500.0,133573.0,0.12550213858979645,-0.11115430248475944,0.06271064385382082,-0.050285722804982724,0.01469292415790658
134,134,135773.30135639946,1504.3639137414327,10.191861603456228,135847.17805189872,-1510.9980593797693,22.93168856605547,135888.22228739064,21150.44150836265,6.498813214547391,135916.9040691983,-8388.852371321298,17.062028451202686,136156.74403451,10509.695370259082,29.0446355460178,0.919147966183616,70.0,57.0,93.0,259.0,352.0,13.0,2622.0,2623.0,13.0,2.0,11.0,0.1538461538461538,177.9149071079806,1214.0375721424462,54.0,40.0,14.0,0.7407407407407407,160.26773073617372,1090.944291265295,15.0,8.0,7.0,0.5333333333333333,1352.946949631652,15401.49704648352,33.0,15.0,18.0,0.4545454545454545,330.9913862167914,9045.688841375511,75.0,38.0,37.0,0.5066666666666667,166.41824393413657,11068.302353100353,,,,,135771.0,135784.0,135841.0,135860.0,135880.0,135895.0,135902.0,135934.0,136124.0,136193.0,0.11826587003506141,-0.10606746298665666,0.06396778758007068,-0.03945609858964035,0.015834735267881896
135,135,136709.30135639946,1742.903596561017,10.191861603456228,136779.60271279886,-1055.0575656187818,20.35793031376439,136821.2659196866,22825.731371221165,6.767278914901826,136848.41307181024,-7812.017075778811,15.51996786036658,137088.72630982267,11036.787269293298,30.873311672458257,0.9253910526221376,70.0,58.0,92.0,262.0,354.0,12.0,936.0,934.0,39.0,25.0,14.0,0.6410256410256411,147.10011823138873,1149.8505015563592,40.0,29.0,11.0,0.725,150.97034725089435,888.4291477746967,15.0,8.0,7.0,0.5333333333333333,1430.506653586992,17621.448494047887,31.0,13.0,18.0,0.4193548387096774,442.7649464356321,10200.364799419482,78.0,39.0,39.0,0.5,160.25046110579916,11412.562703363714,,,,,136703.0,136715.0,136773.0,136791.0,136813.0,136828.0,136836.0,136865.0,137050.0,137127.0,0.08439945761867555,-0.1430920474584262,0.06267079158701501,-0.05667741661861269,0.014519665659557488
136,136,137685.32873009844,1473.0397431653334,15.895972636628178,137766.30135639946,-1381.1698858803331,10.191861603314768,137803.34693087687,22786.485974336352,6.685010595005272,137829.97347589448,-7948.507194963153,14.880556190615811,138071.46144033418,10908.752417482909,31.340627820605985,0.932025551244022,84.0,51.0,94.0,264.0,358.0,33.0,979.0,982.0,34.0,17.0,17.0,0.5,156.52703908059297,1229.987472302225,42.0,34.0,8.0,0.8095238095238095,143.30173610595932,1125.9065584804234,15.0,8.0,7.0,0.5333333333333333,1461.427196027373,18134.381545316977,30.0,12.0,18.0,0.4,438.8007560642872,9932.98516251295,78.0,38.0,40.0,0.4871794871794871,155.55132301445107,11802.245952738856,,,,,137668.0,137701.0,137752.0,137772.0,137795.0,137810.0,137818.0,137846.0,138035.0,138110.0,0.10626124638310212,-0.1037538810908995,0.06413569857473105,-0.05520542981232357,0.014259313719977436
137,137,138651.2739827004,1378.8242034761531,7.64389620259217,138736.60271279886,-1693.315376902616,20.383723206692995,138775.382011919,20765.25461192939,6.323231010792565,138803.52389294314,-8320.760526693011,19.210498279207272,139045.58166589122,9964.609000258975,29.331202532147625,0.9123454498178936,81.0,61.0,94.0,261.0,355.0,20.0,960.0,972.0,30.0,10.0,20.0,0.3333333333333333,159.70081760262292,1255.0786418608948,62.0,46.0,16.0,0.7419354838709677,163.22673733281457,1778.303248797857,14.0,7.0,7.0,0.5,1334.3909226149722,14631.19531281199,36.0,16.0,20.0,0.4444444444444444,314.37279619945696,8665.796772821264,77.0,39.0,38.0,0.5064935064935064,151.40884018118683,10249.258921543074,,,,,138647.0,138667.0,138728.0,138748.0,138768.0,138782.0,138789.0,138822.0,139011.0,139083.0,0.11582391518802851,-0.09639476470791057,0.06426075420468866,-0.037781738242670074,0.015194659436938448
