Unnamed: 0,cycle,p_center,p_height,p_width,q_center,q_height,q_width,r_center,r_height,r_width,s_center,s_height,s_width,t_center,t_height,t_width,r_squared,pr_interval,pr_segment,qrs_duration,st_segment,qt_interval,p_duration,pp_interval,rr_interval,fwhm_p,rise_time_p,decay_time_p,rise_decay_symmetry_p,sharpness_deriv_p,sharpness_diff_p,fwhm_q,rise_time_q,decay_time_q,rise_decay_symmetry_q,sharpness_deriv_q,sharpness_diff_q,fwhm_r,rise_time_r,decay_time_r,rise_decay_symmetry_r,sharpness_deriv_r,sharpness_diff_r,fwhm_s,rise_time_s,decay_time_s,rise_decay_symmetry_s,sharpness_deriv_s,sharpness_diff_s,fwhm_t,rise_time_t,decay_time_t,rise_decay_symmetry_t,sharpness_deriv_t,sharpness_diff_t,Average_Heart_Rate,SDNN,RMSSD,NN50,p_on,p_off,q_on,q_off,r_on,r_off,s_on,s_off,t_on,t_off,sharpness_deriv_p_norm,sharpness_deriv_q_norm,sharpness_deriv_r_norm,sharpness_deriv_s_norm,sharpness_deriv_t_norm
0,0,0.0,0.0,0.0,0.0,0.0,0.0,0.0,0.0,0.0,0.0,0.0,0.0,0.0,0.0,0.0,0.0,0.0,0.0,0.0,0.0,0.0,0.0,0.0,0.0,0.0,0.0,0.0,0.0,0.0,0.0,0.0,0.0,0.0,0.0,0.0,0.0,0.0,0.0,0.0,0.0,0.0,0.0,0.0,0.0,0.0,0.0,0.0,0.0,0.0,0.0,0.0,0.0,0.0,0.0,59.186604212727765,388.9817579844008,610.1194870775308,564.0,,,,,,,,,,,,,,,
1,1,3073.8989335944816,1247.0691069537463,7.7173895124810175,3166.9726263010075,-3490.5865303642386,17.83575780573325,3188.771989348378,21226.36090205092,8.45678210888691,3213.7286044354973,-4779.553018699613,17.8357578060484,3461.5931846813996,7381.112775249762,29.86851991427238,0.9497108929033738,90.0,69.0,80.0,266.0,346.0,21.0,,,21.0,10.0,11.0,0.4761904761904761,72.33527081124527,1111.31001900402,18.0,13.0,5.0,0.7222222222222222,620.8727261897072,3210.266101703848,19.0,10.0,9.0,0.5263157894736842,1134.608855519935,16510.173478945748,30.0,9.0,21.0,0.3,458.7847942515244,9716.956673113584,78.0,40.0,38.0,0.5128205128205128,54.40058435825294,7541.928175911841,0.0,0.0,0.0,0.0,3064.0,3085.0,3154.0,3171.0,3179.0,3198.0,3205.0,3234.0,3424.0,3500.0,0.05800421998099274,-0.17787060162777857,0.053452820328250786,-0.09598905848655014,0.007370241590220403
2,2,4071.0470780242463,1427.045291501821,8.242683896304264,4164.123304500719,-3717.5815930127455,12.0280219149338,4184.9142729735595,22442.67890550999,8.843740709491613,4206.602712798849,-4503.876920123433,20.383723206912453,4458.440090049174,7608.308426874548,32.60839819294369,0.961500168023877,92.0,68.0,77.0,271.0,348.0,24.0,996.0,996.0,24.0,12.0,12.0,0.5,73.1311131517178,1315.2568892163977,18.0,14.0,4.0,0.7777777777777778,682.40718092777,4772.202858104816,20.0,10.0,10.0,0.5,1175.3036274814162,18325.124273298738,27.0,5.0,22.0,0.1851851851851851,641.6999701580494,12202.684581610018,82.0,40.0,42.0,0.4878048780487805,53.544001986960666,7965.701818821677,0.0,0.0,0.0,0.0,4059.0,4083.0,4151.0,4167.0,4175.0,4195.0,4202.0,4228.0,4419.0,4499.0,0.05124652566195337,-0.18356212603655164,0.052369132599088375,-0.14247724383650853,0.007037569849012582
3,3,5123.346529698797,1271.5715808046068,7.361153021198534,5215.547965400863,-3491.4606902226274,15.287792404963406,5236.2422044357445,19280.192557732735,8.327355013528416,5260.36983515257,-4625.019195543796,15.28779240518434,5507.254378288899,7597.854699933903,34.65177810757866,0.9320002161698876,89.0,67.0,79.0,270.0,349.0,22.0,1051.0,1051.0,23.0,11.0,12.0,0.4782608695652174,69.75906420275105,1141.3295642080095,19.0,15.0,4.0,0.7894736842105263,627.7224750822814,4214.205792188624,19.0,9.0,10.0,0.4736842105263157,1084.3100066308882,15972.907467298146,28.0,7.0,21.0,0.25,502.03902722203503,10191.196021412608,90.0,45.0,45.0,0.5,53.71105018502021,7939.111009935597,0.0,0.0,0.0,0.0,5113.0,5135.0,5202.0,5219.0,5227.0,5246.0,5253.0,5281.0,5465.0,5551.0,0.05486050903922366,-0.17978792567825122,0.056239583882994076,-0.10854852834032547,0.00706923892417783
4,4,6050.772258639934,1496.669839718532,8.415362475649854,6144.547965400863,-3545.871077164889,11.117053062587852,6165.250221751753,20639.33133590436,8.737109343948319,6186.027373698993,-4563.94852519071,17.83575780604517,6436.369558578939,7613.722491025337,32.4157199317805,0.96150182865973,93.0,70.0,74.0,271.0,345.0,23.0,931.0,929.0,25.0,13.0,12.0,0.52,75.83248220316949,1364.110316485691,18.0,15.0,3.0,0.8333333333333334,657.4898479276939,5069.758794768884,20.0,10.0,10.0,0.5,1107.8564683733218,17120.693048835703,27.0,4.0,23.0,0.1481481481481481,657.0475487285674,12073.196534253037,82.0,40.0,42.0,0.4878048780487805,58.16159845128268,7929.10458328574,0.0,0.0,0.0,0.0,6039.0,6062.0,6132.0,6148.0,6155.0,6175.0,6182.0,6206.0,6396.0,6477.0,0.050667475344749885,-0.18542407031148794,0.05367695543731521,-0.14396471500543753,0.007639048904112353
5,5,7221.017806338776,796.9752705243019,5.907193600797362,7316.547965400863,-3930.176741323264,15.287792405180973,7337.702326661792,22620.42200113883,8.8170537753553,7359.6542677145635,-4842.709342490496,17.8357578060484,7614.086503533291,7573.018812277312,32.18151173508988,0.9503171079983398,91.0,73.0,78.0,274.0,352.0,18.0,1170.0,1173.0,18.0,9.0,9.0,0.5,62.8909253884432,657.7615814958099,19.0,16.0,3.0,0.8421052631578947,700.2400069129748,4936.186461005916,19.0,10.0,9.0,0.5263157894736842,1174.0465545406817,17750.143866840055,26.0,5.0,21.0,0.1923076923076923,629.6975606410257,12038.50479777374,82.0,41.0,41.0,0.5,56.29093237975139,7876.453030761152,0.0,0.0,0.0,0.0,7212.0,7230.0,7303.0,7320.0,7328.0,7347.0,7355.0,7381.0,7574.0,7655.0,0.07891201611195474,-0.1781701060795573,0.051902062414289796,-0.13003001338857692,0.007433090260979284
6,6,8295.935507897217,1031.5384951378464,7.331108116649875,8391.972626301007,-3601.896981765514,12.08434339598472,8413.583874120288,21990.6036617591,8.839735049884368,8435.027373698993,-4719.466060289761,17.8357578060484,8688.308209378403,7586.180904074752,32.673166963819064,0.9547448607459466,94.0,72.0,77.0,273.0,350.0,22.0,1073.0,1076.0,22.0,11.0,11.0,0.5,63.619641034761486,911.961893277746,17.0,13.0,4.0,0.7647058823529411,653.1884949981323,4417.11745629429,20.0,11.0,9.0,0.55,1168.4262174418222,17595.24004413362,26.0,4.0,22.0,0.1538461538461538,663.5839512573835,12355.52046234674,82.0,41.0,41.0,0.5,56.16351074836078,8043.321673126298,0.0,0.0,0.0,0.0,8285.0,8307.0,8379.0,8396.0,8403.0,8423.0,8431.0,8456.0,8648.0,8729.0,0.061674519501339474,-0.1813456904250393,0.053132976038928616,-0.14060572589786596,0.00740339723749453
7,7,10083.064505023523,2134.6782436829835,14.397546108730689,10175.668876319807,-3176.0721014953024,7.163677519662633,10197.810099165805,19279.41818964203,8.604665797512475,10218.45203459914,-4093.991973874265,13.301011501634436,10463.529864872866,8542.230189064625,39.25030995689048,0.9510533738754828,98.0,63.0,69.0,276.0,345.0,35.0,1792.0,1783.0,35.0,16.0,19.0,0.4571428571428571,61.94186391645804,2305.3059449690422,15.0,11.0,4.0,0.7333333333333333,610.3706794832535,4609.017398220258,20.0,11.0,9.0,0.55,1108.3919178153442,16539.32932739399,23.0,4.0,19.0,0.1739130434782608,649.3831360014641,11383.66845290298,94.0,47.0,47.0,0.5,66.70613469080575,9261.05913952259,0.0,0.0,0.0,0.0,10067.0,10102.0,10165.0,10179.0,10187.0,10207.0,10215.0,10234.0,10420.0,10510.0,0.029016955646481445,-0.1921778410496064,0.0574909422531658,-0.15861856597313592,0.0078089835106761605
8,8,11212.70325156912,886.5472564622106,7.2512588164243645,11308.54796540086,-3865.5873662043778,11.05565233662373,11330.054312340806,21951.699107187233,8.941638060271876,11351.027373699011,-4860.171567190885,17.835757806043866,11603.635811732733,7725.363007785711,33.75375564455094,0.9499918114308292,93.0,73.0,76.0,274.0,350.0,20.0,1126.0,1133.0,20.0,10.0,10.0,0.5,55.79339246104289,841.3618194009762,17.0,14.0,3.0,0.8235294117647058,680.1977067488175,4874.029578376206,20.0,10.0,10.0,0.5,1171.1985085585054,18253.907882378153,28.0,4.0,24.0,0.1428571428571428,686.8921433120845,12567.777486338073,86.0,43.0,43.0,0.5,55.725404272876645,8022.235015649001,0.0,0.0,0.0,0.0,11203.0,11223.0,11296.0,11312.0,11320.0,11340.0,11347.0,11372.0,11562.0,11646.0,0.06293335414931839,-0.17596231628227407,0.05335343304587488,-0.14133084271119653,0.00721330560346691
9,9,12352.558099246377,1070.132633905988,7.785534807428224,12446.653779186929,-3491.745582479983,8.284542107721741,12469.880857742251,21699.624105483013,8.658228989630011,12491.60271279885,-4176.908141098861,20.38372281231387,12743.10198278916,7550.172139581535,32.926444986913964,0.9547587511087516,94.0,73.0,77.0,271.0,348.0,21.0,1139.0,1140.0,22.0,11.0,11.0,0.5,54.766435957064765,987.5109182199704,16.0,11.0,5.0,0.6875,613.5745528676412,3352.590612213018,20.0,10.0,10.0,0.5,1174.021506727428,18150.088252479287,27.0,5.0,22.0,0.1851851851851851,622.4098791631288,11727.092787325271,84.0,42.0,42.0,0.5,59.938846173174866,7899.274050533586,0.0,0.0,0.0,0.0,12342.0,12363.0,12436.0,12452.0,12460.0,12480.0,12487.0,12513.0,12703.0,12784.0,0.05117724123332924,-0.1757214374226701,0.05410331077720276,-0.14901210611717816,0.00793873902012742
10,10,13431.97236410086,999.7847667614352,6.262839232401838,13526.54796540086,-3644.977488768348,15.287792405179122,13547.28388644055,19335.8073204634,8.310078346645827,13572.54796540086,-4816.204510928117,15.28779240518434,13822.045251601854,7471.371840454171,31.992505491265675,0.9413915757217016,90.0,72.0,81.0,268.0,349.0,18.0,1080.0,1077.0,18.0,9.0,9.0,0.5,72.39951838802884,905.9229926823512,20.0,16.0,4.0,0.8,632.351845735319,4144.322652522706,19.0,9.0,10.0,0.4736842105263157,1091.5521541420903,16127.239839144915,32.0,9.0,23.0,0.28125,408.98454807184936,8726.512028647814,82.0,41.0,41.0,0.5,51.06770767655708,7701.631440869751,0.0,0.0,0.0,0.0,13423.0,13441.0,13513.0,13530.0,13538.0,13557.0,13564.0,13594.0,13783.0,13862.0,0.07241510452549686,-0.1734858027748734,0.05645237026058297,-0.08491843466029127,0.0068351179364475
11,11,14353.42336151554,1473.0453179414967,9.194365708964254,14447.972626301009,-3638.123712163468,12.130855743926306,14468.84281862637,19156.75932336631,8.454941266157258,14493.155601826797,-4559.642280681115,15.28779240518434,14742.512252727596,7449.872745830528,30.611158906679144,0.9584928341384308,94.0,68.0,79.0,267.0,346.0,26.0,924.0,922.0,27.0,13.0,14.0,0.4814814814814814,58.73314466138675,1416.990520612463,17.0,13.0,4.0,0.7647058823529411,622.1560866787028,3858.76202798918,19.0,10.0,9.0,0.5263157894736842,1096.6921666081005,16126.82570678301,28.0,7.0,21.0,0.25,487.34628791921654,9926.758969463095,78.0,39.0,39.0,0.5,55.77929875254834,7696.484013176461,0.0,0.0,0.0,0.0,14341.0,14367.0,14435.0,14452.0,14459.0,14478.0,14486.0,14514.0,14704.0,14781.0,0.03987191972034047,-0.17101015135868697,0.05724831366808574,-0.10688257058762451,0.007487282085961314
12,12,0.0,0.0,0.0,0.0,0.0,0.0,0.0,0.0,0.0,0.0,0.0,0.0,0.0,0.0,0.0,0.0,0.0,0.0,0.0,0.0,0.0,0.0,0.0,0.0,0.0,0.0,0.0,0.0,0.0,0.0,0.0,0.0,0.0,0.0,0.0,0.0,0.0,0.0,0.0,0.0,0.0,0.0,0.0,0.0,0.0,0.0,0.0,0.0,0.0,0.0,0.0,0.0,0.0,0.0,0.0,0.0,0.0,0.0,,15194.0,15509.0,15542.0,15549.0,15568.0,15575.0,15607.0,15800.0,15873.0,,,,,
13,13,16546.533105686944,1315.666531850855,11.033644403519713,16643.54796540086,-4006.6074307879057,10.391603193609434,16664.972660983545,21754.410694994054,8.90769276407268,16686.027373698995,-4474.244715698195,16.694858752948196,16939.714972173708,7954.703642831381,34.40579331377389,0.959259868700678,97.0,70.0,74.0,277.0,351.0,27.0,2194.0,2196.0,27.0,13.0,14.0,0.4814814814814814,56.23537551007252,1331.278406057567,17.0,14.0,3.0,0.8235294117647058,696.248777337364,5064.106834260622,20.0,10.0,10.0,0.5,1178.6206641668325,18539.41759216062,26.0,4.0,22.0,0.1538461538461538,681.4366304404556,12122.961349056191,86.0,43.0,43.0,0.5,57.941471560379945,8356.765563595525,0.0,0.0,0.0,0.0,16534.0,16561.0,16631.0,16647.0,16655.0,16675.0,16682.0,16705.0,16898.0,16982.0,0.042742879102474124,-0.17377514252761359,0.054178468940923645,-0.15230204732646568,0.007283925858456793
14,14,17607.348728654415,1456.3555807313942,9.711544748793852,17701.908664171227,-3763.658980611886,8.327556590488992,17724.22362903044,19035.973335052207,8.4403938119608,17747.408621936258,-4661.4444354775915,15.28779240513633,17997.899687107296,7729.658555293564,33.60526535088817,0.944633302938349,95.0,71.0,77.0,272.0,349.0,24.0,1058.0,1059.0,25.0,11.0,14.0,0.44,70.85897858989901,1452.7071202027414,16.0,11.0,5.0,0.6875,601.217296127836,3216.639821855991,19.0,10.0,9.0,0.5263157894736842,1117.376798626883,16577.18437223082,27.0,6.0,21.0,0.2222222222222222,552.2651225854031,10905.038858939984,87.0,44.0,43.0,0.5057471264367817,60.47795401287634,8174.953230169989,0.0,0.0,0.0,0.0,17596.0,17620.0,17691.0,17707.0,17714.0,17733.0,17741.0,17768.0,17957.0,18040.0,0.04865499849584332,-0.15974276607549912,0.05869816998374245,-0.11847510578098748,0.007824143017476333
15,15,18544.088327243844,1225.1570056884968,7.297127736722354,18636.972626301005,-3473.4361313095997,17.8357578060484,18657.78921345428,20030.83204808439,8.32959132069596,18682.53764628294,-4737.4881440228455,17.8357578060484,18928.4926706072,7287.5542501391155,32.94323323853638,0.9400504606491774,89.0,68.0,82.0,265.0,347.0,21.0,937.0,933.0,21.0,10.0,11.0,0.4761904761904761,74.17456639391519,1119.9175709562974,19.0,15.0,4.0,0.7894736842105263,615.921145305314,3621.062481687346,19.0,10.0,9.0,0.5263157894736842,1084.804049433082,15234.873071481075,31.0,9.0,22.0,0.2903225806451613,430.180591917305,9281.828796251892,84.0,41.0,43.0,0.4880952380952381,54.65909292194889,7584.57000096545,0.0,0.0,0.0,0.0,18534.0,18555.0,18623.0,18641.0,18648.0,18667.0,18674.0,18705.0,18889.0,18970.0,0.060542906786246214,-0.17732329659192306,0.05415671435060657,-0.0908035184130332,0.007500334274822788
16,16,19482.84756322344,2007.137312355166,15.171953765737882,19578.685970420047,-3845.921247031174,8.19718482551728,19600.67032253545,20478.46781348055,8.889062427085445,19621.45203459914,-4573.634463390425,12.853534016282609,19870.550859781873,7958.253118665927,36.64863172263674,0.9628449905741278,99.0,66.0,71.0,276.0,347.0,33.0,942.0,943.0,34.0,15.0,19.0,0.4411764705882353,66.73610126657294,2269.1343787295264,17.0,13.0,4.0,0.7647058823529411,669.4087938369647,4789.984711017195,20.0,11.0,9.0,0.55,1169.8598120827376,17706.535049935443,22.0,3.0,19.0,0.1363636363636363,693.4972846513272,11975.420304440046,89.0,44.0,45.0,0.4943820224719101,57.869944852662925,8517.486623933482,0.0,0.0,0.0,0.0,19468.0,19501.0,19567.0,19582.0,19590.0,19610.0,19618.0,19638.0,19829.0,19914.0,0.033249394974509794,-0.17405681261770742,0.05712633497476032,-0.1516293639560428,0.007271689400897554
17,17,20596.49651470962,1929.9847561779388,12.02024553540149,20689.54796540086,-3732.0661119631463,8.120111215688858,20712.003485033187,21430.77097464127,8.862274241589159,20732.45203459914,-4611.476062353344,15.287792404274024,20986.037160763837,8295.06851851813,37.373427554647414,0.963342372890091,97.0,67.0,72.0,279.0,351.0,30.0,1111.0,1111.0,31.0,14.0,17.0,0.4516129032258064,65.98087667566273,2009.9506270906488,16.0,12.0,4.0,0.75,663.8697074108824,4707.394990198947,21.0,11.0,10.0,0.5238095238095238,1185.131357026331,18347.05540143284,26.0,3.0,23.0,0.1153846153846153,715.6584818067181,12442.435136776385,91.0,46.0,45.0,0.5054945054945055,56.854338272566686,8820.085783527435,0.0,0.0,0.0,0.0,20582.0,20612.0,20679.0,20693.0,20701.0,20722.0,20729.0,20751.0,20942.0,21030.0,0.03418725275650804,-0.1778826225191581,0.05530045365277247,-0.15519076151107697,0.006853992603634745
18,18,21672.964104080285,2131.3636497689167,14.378653116338803,21766.899669491173,-3529.176871029309,7.043147828072249,21788.97498509098,21065.797492408772,8.838962918913609,21809.45203459914,-4263.71750673301,13.174314770928495,22059.805029939773,8149.729073611713,38.07483886767638,0.9653287165968272,98.0,66.0,70.0,279.0,349.0,32.0,1077.0,1077.0,32.0,15.0,17.0,0.46875,70.94490078229714,2312.5428722303577,14.0,11.0,3.0,0.7857142857142857,668.9463797787431,5035.561646973,21.0,11.0,10.0,0.5238095238095238,1181.012139121921,18610.948886202656,23.0,3.0,20.0,0.1304347826086956,703.804865643567,12020.288795348855,92.0,46.0,46.0,0.5,60.17662185739273,8722.621977243418,0.0,0.0,0.0,0.0,21658.0,21690.0,21756.0,21770.0,21778.0,21799.0,21806.0,21826.0,22016.0,22105.0,0.03328615498814058,-0.18954742259308763,0.056063015869563367,-0.1650683621821005,0.007383880042373516
19,19,22650.447550525143,1692.5902896947505,10.223027359316628,22743.196045504188,-3343.624477263067,9.080193937328048,22764.757102044936,19211.73989660319,8.604175571553704,22784.45203459914,-4597.790023305893,15.28779240517844,23035.001863703754,8135.047038213676,36.06656577856309,0.9469172124387414,95.0,67.0,74.0,273.0,347.0,28.0,975.0,976.0,28.0,13.0,15.0,0.4642857142857143,66.30364844260617,1741.8487423301517,16.0,12.0,4.0,0.75,582.0852035293077,3755.5117357529352,19.0,10.0,9.0,0.5263157894736842,1085.4188123265717,15542.84318763069,29.0,3.0,26.0,0.1034482758620689,675.5095812178241,11943.457180194162,90.0,45.0,45.0,0.5,60.39164503799308,8624.006425832045,0.0,0.0,0.0,0.0,22637.0,22665.0,22732.0,22747.0,22755.0,22774.0,22781.0,22806.0,22993.0,23079.0,0.03917288716961958,-0.17408809137734724,0.05649768413315254,-0.14692049393158688,0.00742363808768512
20,20,23548.539278089407,1591.7472864736296,9.469585250074218,23641.972626301005,-3754.9281922817913,10.145807125517427,23663.55966436485,21400.04524155452,8.811062959775002,23684.027373736182,-4932.514169623359,17.835757801589786,23935.176116128903,7693.273230827852,32.248145566614134,0.9560160886405098,95.0,67.0,75.0,270.0,345.0,28.0,901.0,899.0,28.0,14.0,14.0,0.5,68.29644907213319,1436.174984722824,17.0,13.0,4.0,0.7647058823529411,648.1366538867206,4091.4943487852174,20.0,11.0,9.0,0.55,1160.2657360629512,16901.575282471862,28.0,4.0,24.0,0.1428571428571428,691.2425234678557,12728.186457526415,82.0,41.0,41.0,0.5,59.26401804922668,8103.3359143912685,0.0,0.0,0.0,0.0,23535.0,23563.0,23630.0,23646.0,23653.0,23673.0,23680.0,23705.0,23896.0,23975.0,0.04290659054518492,-0.17260960015665747,0.054217910428056106,-0.14013999751381115,0.0077033554211682976
21,21,24742.66979402162,1017.8041348142892,6.873586941676178,24837.972626301005,-3554.6255691367546,17.835757794918663,24859.131803148033,23416.792240829476,8.734983199957496,24881.44520511379,-4690.811200631488,20.383723206912453,25135.09568905017,7534.884505020614,33.065704685893714,0.9492010131177172,92.0,72.0,80.0,273.0,353.0,20.0,1190.0,1196.0,21.0,11.0,10.0,0.5238095238095238,64.95652389701034,834.473325983748,19.0,15.0,4.0,0.7894736842105263,691.6165010850002,4400.259179526593,20.0,10.0,10.0,0.5,1184.6128861171503,18392.983332894844,29.0,5.0,24.0,0.1724137931034483,650.6996318133581,12549.371749898351,85.0,43.0,42.0,0.5058823529411764,49.008517818329466,7733.372164485907,0.0,0.0,0.0,0.0,24732.0,24752.0,24824.0,24842.0,24849.0,24869.0,24876.0,24904.0,25093.0,25177.0,0.06382025939486133,-0.19456803188780308,0.05058817936863536,-0.13871793256692136,0.006504216194113435
22,22,25823.22336436841,1414.124054230894,9.357177195095591,25918.547965399284,-3864.606594599167,9.87394600420926,25939.78767880116,20502.669676970727,8.77982589561302,25961.027373698995,-4730.103249641119,15.069228592605224,26213.386800313307,8001.5099904909775,34.33921419095598,0.950292985133988,95.0,70.0,73.0,277.0,350.0,25.0,1083.0,1081.0,26.0,13.0,13.0,0.5,61.09619040776524,1382.093968168848,17.0,14.0,3.0,0.8235294117647058,668.2962255058459,4912.064676509906,19.0,10.0,9.0,0.5263157894736842,1147.8838773370262,17185.887631663667,23.0,4.0,19.0,0.1739130434782608,655.0458034786357,12071.724338821972,87.0,43.0,44.0,0.4942528735632184,56.87087483173594,8249.717162063887,0.0,0.0,0.0,0.0,25811.0,25836.0,25906.0,25922.0,25930.0,25949.0,25957.0,25979.0,26171.0,26256.0,0.04320426501831475,-0.17292736250044125,0.055987044390924716,-0.13848446194664674,0.007107517818426958
23,23,26780.2054255977,1987.2422372337617,29.151210696735085,26877.123304500717,-2681.757031118364,5.9905373838277685,26898.823862080106,18696.177631382267,8.490311012074676,26918.45203459914,-3852.868767629821,11.759760681330086,27167.21643114003,8274.849346968393,41.687951638714026,0.9452521672065608,102.0,65.0,64.0,283.0,347.0,37.0,963.0,958.0,39.0,16.0,23.0,0.4102564102564102,63.57895277918553,2932.2758186517576,13.0,10.0,3.0,0.7692307692307693,591.9595238209675,4715.114317025597,20.0,11.0,9.0,0.55,1089.0652657899857,16115.779917066124,20.0,3.0,17.0,0.15,670.5492003855314,11062.170522104294,96.0,47.0,49.0,0.4895833333333333,61.173282180147545,8985.485390136135,0.0,0.0,0.0,0.0,26766.0,26803.0,26868.0,26880.0,26888.0,26908.0,26915.0,26932.0,27123.0,27215.0,0.03199355951073551,-0.2207357031051037,0.058250690984126455,-0.17403894106625253,0.007392676242807881
24,24,27737.994319099707,1450.715190196522,8.571321573131605,27832.54796540086,-4059.2629321476606,13.503438670060914,27852.96167497213,22410.103033347423,8.85860559229506,27874.11615411916,-5282.698101774424,17.8357578060484,28127.679175045396,7653.401887954241,30.412763430293495,0.9590855165777268,93.0,69.0,76.0,271.0,347.0,24.0,952.0,955.0,24.0,12.0,12.0,0.5,72.07222132858986,1357.6864770207235,20.0,17.0,3.0,0.85,714.1120540128335,5412.785748078411,20.0,10.0,10.0,0.5,1170.5984949030124,17671.43999571079,28.0,4.0,24.0,0.1428571428571428,687.8945408188858,13028.017660496169,79.0,40.0,39.0,0.5063291139240507,58.17140442876222,7871.265418002568,0.0,0.0,0.0,0.0,27726.0,27750.0,27819.0,27836.0,27843.0,27863.0,27870.0,27895.0,28089.0,28166.0,0.04968047609595,-0.17592160595396897,0.05223530178157145,-0.1302165157966961,0.007600725178213721
25,25,28874.053787310702,1335.6307895248026,7.963618427638632,28967.54796540086,-3843.7564520115807,15.287792395966225,28988.87928768515,22682.6346036844,8.735849845706747,29011.90619250756,-4953.966124753671,17.8357578060484,29265.9533896743,7564.503043013356,32.065457814570195,0.9554731074785768,91.0,69.0,78.0,274.0,352.0,22.0,1135.0,1136.0,22.0,11.0,11.0,0.5,67.28468386907069,1267.683875156661,19.0,15.0,4.0,0.7894736842105263,700.4893973450982,4700.212364829098,20.0,10.0,10.0,0.5,1190.7636019267218,18101.918570553076,26.0,6.0,20.0,0.2307692307692307,601.3050240572051,11921.384032526692,82.0,41.0,41.0,0.5,54.51314851763867,7880.732854519629,0.0,0.0,0.0,0.0,28863.0,28885.0,28954.0,28971.0,28979.0,28999.0,29006.0,29032.0,29227.0,29306.0,0.05037670918997725,-0.18224083812035125,0.05249670608075232,-0.12137850944370439,0.007206441481702822
26,26,29904.90677682067,1700.9729102165943,10.520554381277666,29998.199440956996,-3626.9620391497183,9.771700126505255,30019.86112044019,21126.05532162689,8.730962253982312,30041.027373698995,-4453.2097234748035,16.907512077171965,30292.83551209554,8143.756754932166,36.403294790137785,0.9561152590900656,94.0,67.0,74.0,277.0,351.0,27.0,1033.0,1031.0,29.0,14.0,15.0,0.4827586206896552,70.60260705767179,1645.7603598923874,16.0,12.0,4.0,0.75,632.1407223980299,4144.137303806528,20.0,10.0,10.0,0.5,1163.837166908909,17709.952868809014,24.0,4.0,20.0,0.1666666666666666,663.018404140376,12091.438428139483,94.0,49.0,45.0,0.5212765957446809,47.84970471963128,8438.757892574164,0.0,0.0,0.0,0.0,29892.0,29919.0,29986.0,30002.0,30010.0,30030.0,30037.0,30060.0,30246.0,30337.0,0.04150719075748335,-0.1742893130875516,0.055090131555107724,-0.1488855107463989,0.005875630395106251
27,27,30823.254655078676,1042.4499432543466,6.435179793608563,30914.972626301005,-3045.6256806698702,17.835757806048388,30936.388286015874,20218.13297319891,8.350181715350567,30957.50368153623,-4780.872801790007,17.8357578060484,31209.045766787098,7224.370385719667,31.42254238056585,0.9117871436348732,89.0,69.0,78.0,269.0,347.0,20.0,917.0,916.0,20.0,10.0,10.0,0.5,68.32284735710205,928.9038727452872,17.0,13.0,4.0,0.7647058823529411,582.7414909350401,3258.2851292779087,18.0,9.0,9.0,0.5,1079.7358399163872,15493.39173660095,28.0,6.0,22.0,0.2142857142857142,591.3991269896887,11639.813918860542,81.0,40.0,41.0,0.4938271604938271,55.838273839020864,7487.292497415658,0.0,0.0,0.0,0.0,30813.0,30833.0,30902.0,30919.0,30927.0,30945.0,30952.0,30980.0,31171.0,31249.0,0.06554065046405015,-0.19133720031112592,0.05340432973448545,-0.12370107959539584,0.007729154356398415
28,28,31717.39282331211,1531.1745281542576,8.869205173572869,31809.972626301005,-3491.323434387361,17.835757805898545,31831.65073308728,21731.676690113323,8.527862407801997,31855.206024344643,-4795.418414540902,15.28779240518434,32103.9926846588,7671.433799493221,31.915411535934325,0.9487898556500765,92.0,67.0,76.0,271.0,347.0,25.0,894.0,895.0,25.0,12.0,13.0,0.48,70.4886217154748,1428.6851390084903,18.0,14.0,4.0,0.7777777777777778,649.4213666593785,3846.878149917056,19.0,10.0,9.0,0.5263157894736842,1172.671890934164,17091.530014167038,24.0,6.0,18.0,0.25,577.2061353251576,11263.45774887316,82.0,41.0,41.0,0.5,62.20185852673667,8050.707647343951,0.0,0.0,0.0,0.0,31705.0,31730.0,31797.0,31814.0,31822.0,31841.0,31849.0,31873.0,32064.0,32144.0,0.04603565460329644,-0.1860100843889118,0.05396140885289642,-0.12036616733483047,0.008108244189090931
29,29,32805.91705224119,815.6098689602875,6.7163583686948,32901.54796540086,-3853.864070687114,11.875435813375702,32923.08650920485,22176.09039810508,8.832505513093448,32944.027373699,-4882.353828041947,17.8357578060484,33196.79175980967,7667.792679828858,33.446786588910946,0.9453646088136872,93.0,73.0,76.0,274.0,350.0,20.0,1087.0,1092.0,20.0,10.0,10.0,0.5,57.717813341031,692.0999391892407,18.0,14.0,4.0,0.7777777777777778,681.7239014234144,4668.472365381506,20.0,10.0,10.0,0.5,1180.7098726308243,18265.896001081368,28.0,4.0,24.0,0.1428571428571428,688.8851185466563,12671.196904324112,85.0,42.0,43.0,0.4941176470588235,62.32219526738781,8111.406642629701,0.0,0.0,0.0,0.0,32796.0,32816.0,32889.0,32905.0,32913.0,32933.0,32940.0,32965.0,33157.0,33239.0,0.07076644795214133,-0.1768936031264508,0.05324247202436163,-0.14109692636162985,0.008127788252717707
30,30,33891.47170907247,1036.469797257893,7.651986660481109,33986.54796540086,-4012.106123066653,10.355293939100935,34008.2055430142,22072.996165438544,8.903342102411758,34029.0278290693,-4986.640706481329,17.83575780603319,34283.145425229755,8052.949188665812,32.24779166775457,0.9617571104638388,93.0,72.0,77.0,273.0,350.0,21.0,1086.0,1085.0,21.0,10.0,11.0,0.4761904761904761,56.29055193876082,980.8724809710444,18.0,14.0,4.0,0.7777777777777778,686.0298964449944,4634.6760018377645,20.0,10.0,10.0,0.5,1186.7270255323267,18449.04551625408,29.0,4.0,25.0,0.1379310344827586,694.9647131357094,12846.474035472687,82.0,41.0,41.0,0.5,55.55558476030292,8359.717060902834,0.0,0.0,0.0,0.0,33881.0,33902.0,33974.0,33990.0,33998.0,34018.0,34025.0,34051.0,34243.0,34324.0,0.054309881568844864,-0.17098996771317393,0.05376374900071247,-0.13936530703574393,0.006898787445287135
31,31,35855.75192926278,1605.725435271634,11.168806052926763,35952.54796540086,-4037.658023763525,11.322845923530306,35973.508296945256,19451.018292140696,8.483476816436411,35998.54796540086,-4971.597784698143,15.28779240518434,36247.46518320352,7857.787963518168,31.34230005437732,0.9602163235700544,97.0,70.0,79.0,268.0,347.0,27.0,1968.0,1965.0,29.0,14.0,15.0,0.4827586206896552,64.26081497381054,1598.1496451867336,18.0,14.0,4.0,0.7777777777777778,656.0256799493037,4162.777951195347,19.0,10.0,9.0,0.5263157894736842,1129.0799600947264,16118.159973804846,29.0,9.0,20.0,0.3103448275862069,443.0157625361026,9312.592946760502,80.0,40.0,40.0,0.5,55.89949637876995,8194.334052231106,0.0,0.0,0.0,0.0,35843.0,35870.0,35940.0,35956.0,35964.0,35983.0,35990.0,36019.0,36208.0,36287.0,0.04001980261522095,-0.16247678136392005,0.058047344521337384,-0.0891093329994717,0.007113897274690786
32,32,36898.2758908866,1386.562401345448,9.256259330227271,36993.34935468071,-3859.663030422023,8.653880218114557,37015.28999887484,21485.145254261493,8.908795859660085,37035.45203459914,-4760.25229289117,15.287792405177957,37290.19702539819,8317.083003369791,33.821730588703915,0.9668929695606986,97.0,71.0,73.0,277.0,350.0,26.0,1040.0,1042.0,26.0,13.0,13.0,0.5,61.61576770024624,1359.6669239907983,15.0,11.0,4.0,0.7333333333333333,648.1679036901353,4199.081991601447,20.0,10.0,10.0,0.5,1185.6823482650902,18649.860409431058,27.0,3.0,24.0,0.1111111111111111,724.5171220382043,12628.736266473288,86.0,43.0,43.0,0.5,58.85072770079372,8656.91401524818,0.0,0.0,0.0,0.0,36885.0,36911.0,36982.0,36997.0,37005.0,37025.0,37032.0,37055.0,37249.0,37332.0,0.04443778919755613,-0.16793380628859286,0.055186145321959826,-0.1522014123327409,0.007075885581152607
33,33,0.0,0.0,0.0,0.0,0.0,0.0,0.0,0.0,0.0,0.0,0.0,0.0,0.0,0.0,0.0,0.0,0.0,0.0,0.0,0.0,0.0,0.0,0.0,0.0,0.0,0.0,0.0,0.0,0.0,0.0,0.0,0.0,0.0,0.0,0.0,0.0,0.0,0.0,0.0,0.0,0.0,0.0,0.0,0.0,0.0,0.0,0.0,0.0,0.0,0.0,0.0,0.0,0.0,0.0,0.0,0.0,0.0,0.0,,37745.0,38056.0,38077.0,38084.0,38103.0,38110.0,38143.0,38334.0,38408.0,,,,,
34,34,38941.95924613975,1664.2739733269525,10.979740475613175,39035.371483438925,-3429.8457100331484,7.812146664929158,39057.438544380544,18932.92820090309,8.461692957356696,39076.45203460184,-4678.361515183486,15.287792404967323,39328.70920799008,8514.521294325794,37.36658750022264,0.9390544976392938,97.0,69.0,69.0,280.0,349.0,28.0,2043.0,2042.0,28.0,14.0,14.0,0.5,62.199266163745705,1693.3299417516937,15.0,10.0,5.0,0.6666666666666666,567.807582672442,3034.7113514859348,19.0,10.0,9.0,0.5263157894736842,1087.6707402633276,15899.774657472131,30.0,3.0,27.0,0.1,687.610340687995,11943.885400890016,92.0,46.0,46.0,0.5,65.57922758617445,9146.916228463717,0.0,0.0,0.0,0.0,38928.0,38956.0,39025.0,39040.0,39047.0,39066.0,39073.0,39094.0,39286.0,39374.0,0.03737321328134862,-0.1655490161004806,0.05744862752986336,-0.14697674355784085,0.007702045167222431
35,35,39852.529060387635,1009.4575489178692,7.252850509477335,39947.1233045007,-3957.3362328319695,10.58548201234509,39967.75503746628,20391.52548741543,8.689565494202382,39991.30187256641,-5075.014268594264,15.287792405030997,40239.80141321768,7807.955453510693,32.884228582786974,0.9580392155342744,93.0,72.0,76.0,270.0,346.0,21.0,910.0,910.0,21.0,11.0,10.0,0.5238095238095238,63.120703566584645,895.2258741197586,18.0,14.0,4.0,0.7777777777777778,667.3511748608762,4595.228372777936,19.0,10.0,9.0,0.5263157894736842,1158.578145614955,16996.157040926944,26.0,6.0,20.0,0.2307692307692307,578.5597397112296,11489.877287251362,85.0,43.0,42.0,0.5058823529411764,52.108820531263945,8040.09032576594,0.0,0.0,0.0,0.0,39842.0,39863.0,39935.0,39950.0,39958.0,39977.0,39985.0,40011.0,40199.0,40281.0,0.06252932937521698,-0.16863646038570315,0.056816648971650896,-0.11400159863422132,0.006673811196993221
36,36,40833.590581774675,1655.0685861790712,11.208646540534923,40928.24423716135,-3552.264966367463,7.0480280619376465,40950.4708603504,20859.245281179592,8.711490993839691,40971.45203459919,-4369.280095503063,13.783407587664286,41221.647615044654,8072.742114942994,37.213470397550694,0.9512972183841484,98.0,71.0,70.0,278.0,348.0,27.0,983.0,983.0,27.0,14.0,13.0,0.5185185185185185,67.69762013520823,1660.176549758371,14.0,10.0,4.0,0.7142857142857143,639.9011803426006,4215.058585489922,20.0,10.0,10.0,0.5,1184.050347322201,18918.252348373568,23.0,4.0,19.0,0.1739130434782608,685.4940841719683,12021.20341030731,90.0,45.0,45.0,0.5,60.29418480733066,8611.220004382145,0.0,0.0,0.0,0.0,40820.0,40847.0,40918.0,40932.0,40940.0,40960.0,40968.0,40988.0,41180.0,41266.0,0.04090321132340291,-0.1801389216179338,0.05676381534237575,-0.1568894804609781,0.007468860512182536
37,37,41891.59089865599,1119.2630209187046,7.986592542824872,41984.2868968025,-3820.579581688093,8.953847047503102,42006.81744217573,21552.05460764748,8.717979329204104,42028.027373699,-4794.661264228993,17.835757803968885,42280.65805718376,8294.860880213153,36.353588772804095,0.9456557323833508,93.0,70.0,75.0,277.0,352.0,23.0,1059.0,1056.0,24.0,12.0,12.0,0.5,59.760849709226314,993.3516302632502,16.0,11.0,5.0,0.6875,619.4877717246214,3165.041091802911,19.0,10.0,9.0,0.5263157894736842,1183.7985239774998,17738.257061842887,25.0,4.0,21.0,0.16,676.3023985129927,12609.870806852448,89.0,45.0,44.0,0.5056179775280899,59.994319901988305,8795.38118101727,0.0,0.0,0.0,0.0,41880.0,41903.0,41973.0,41989.0,41997.0,42016.0,42024.0,42048.0,42238.0,42325.0,0.053393035052809915,-0.16214497263551453,0.054927409266931036,-0.14105321757735179,0.0072327095979512835
38,38,43787.01691104357,1457.2579551993456,8.666782471828558,43881.972626301,-3912.7248590318854,13.534836573996223,43902.89988286933,20414.44820076104,8.511542739270826,43926.56544589987,-4954.048617675846,15.28779240518434,44174.703610485856,8043.409544356082,34.80067653443048,0.950682096978036,93.0,70.0,77.0,270.0,347.0,23.0,1893.0,1897.0,23.0,11.0,12.0,0.4782608695652174,68.21601982668713,1398.021099036148,18.0,14.0,4.0,0.7777777777777778,649.1948915379527,3968.360329891517,19.0,10.0,9.0,0.5263157894736842,1143.105136020073,16797.214875956088,26.0,7.0,19.0,0.2692307692307692,522.2559882254784,10449.772299256483,88.0,45.0,43.0,0.5113636363636364,62.36660476100945,8489.38872078419,0.0,0.0,0.0,0.0,43776.0,43799.0,43869.0,43886.0,43893.0,43912.0,43920.0,43946.0,44133.0,44216.0,0.0468112180024816,-0.16591887110063272,0.05599490737043084,-0.10542003692940963,0.007753752238659909
39,39,44865.51360763826,474.08611117197296,4.1447217052897445,44958.972626301,-3729.6135376657912,17.8357578060484,44980.447959281024,22819.687213754707,8.592307148315628,45004.85870974295,-4994.583866263768,20.383723206912453,45257.007298315235,7507.547376639197,31.395350723431356,0.934538647207026,86.0,73.0,81.0,271.0,352.0,13.0,1079.0,1077.0,13.0,7.0,6.0,0.5384615384615384,64.50550235610409,334.2351328215632,18.0,14.0,4.0,0.7777777777777778,662.0525796409199,3666.137453091007,19.0,9.0,10.0,0.4736842105263157,1183.171815639065,18199.463554241196,29.0,8.0,21.0,0.2758620689655172,526.6238893116285,11036.039254301371,82.0,41.0,41.0,0.5,56.70032058914397,7672.75961540645,0.0,0.0,0.0,0.0,44859.0,44872.0,44945.0,44963.0,44971.0,44990.0,44997.0,45026.0,45217.0,45297.0,0.1360628392944103,-0.17751238109653336,0.05184873064017726,-0.10543899219887824,0.007552442594711436
40,40,45943.16841189078,1591.1812552758167,11.867103465104671,46038.917299143155,-3834.45832406024,8.023826500672724,46061.572850296456,21266.174014983982,8.668649284201996,46083.027373699,-4468.62778887605,16.13529984433072,46335.61825354397,8118.200751895832,35.58031587826993,0.956063226213288,99.0,70.0,73.0,278.0,351.0,29.0,1079.0,1081.0,30.0,14.0,16.0,0.4666666666666667,61.6336467475352,1609.2947198748886,15.0,11.0,4.0,0.7333333333333333,643.3104169742146,3737.788480196036,20.0,11.0,9.0,0.55,1188.4135146413385,17736.859313185865,25.0,5.0,20.0,0.2,658.7995137774693,12076.02001851943,88.0,44.0,44.0,0.5,55.6319900849202,8489.864780913369,0.0,0.0,0.0,0.0,45929.0,45958.0,46028.0,46043.0,46051.0,46071.0,46079.0,46101.0,46294.0,46379.0,0.03873452288554743,-0.16777087207796917,0.05588280777745877,-0.1474276992631715,0.0068527487537098095
41,41,46991.2096340816,1238.4294507658915,9.278818266342208,47086.3746413788,-3610.740589157445,7.920419568947319,47108.64931598175,19818.14346535907,8.548924735245611,47129.186259746035,-4609.1082649694035,15.287792404848377,47380.987978013385,7987.882812523425,35.48669056486652,0.9465206217229112,96.0,72.0,72.0,277.0,349.0,24.0,1048.0,1047.0,25.0,12.0,13.0,0.48,58.60032104992121,1172.6790317445434,15.0,10.0,5.0,0.6666666666666666,590.9421041989626,3204.962903632073,20.0,11.0,9.0,0.55,1136.4993964321627,16182.578039481396,27.0,4.0,23.0,0.1481481481481481,664.883767604379,11960.304100479294,90.0,45.0,45.0,0.5,57.06342764717826,8406.080849234228,0.0,0.0,0.0,0.0,46980.0,47004.0,47076.0,47091.0,47098.0,47118.0,47125.0,47148.0,47339.0,47425.0,0.04731825540298688,-0.16366229852498407,0.057346410798705526,-0.1442543176209797,0.007143748723718637
42,42,48942.940401125445,1439.497415276601,8.828684938934977,49036.08846512112,-3769.38005727211,9.527310610258455,49057.843643545995,21553.544549095062,8.786112118306585,49079.027373700024,-4989.146220074054,17.835757806041215,49333.37461846944,7823.397181531339,32.725355969848714,0.966373245446408,93.0,68.0,77.0,273.0,350.0,25.0,1950.0,1949.0,25.0,12.0,13.0,0.48,69.6831957183109,1363.6436007303946,16.0,12.0,4.0,0.75,646.568602920264,4047.567717744542,19.0,10.0,9.0,0.5263157894736842,1177.7640486458574,17534.03704750265,28.0,4.0,24.0,0.1428571428571428,672.3801553482019,12689.773680078966,84.0,42.0,42.0,0.5,57.56282458489665,8148.158961972348,0.0,0.0,0.0,0.0,48931.0,48956.0,49024.0,49040.0,49048.0,49067.0,49075.0,49101.0,49292.0,49374.0,0.04840800336200756,-0.17153181507204765,0.05464363626888026,-0.13476858077296874,0.00735777862854579
43,43,50039.68567443585,1601.4154488681072,13.121293050389864,50135.55032576002,-3802.2853570336338,8.309151011246128,50158.38876259998,21572.00978690957,8.662400091414087,50180.027373699,-4413.6793576968785,17.835757805726466,50432.75474974111,7939.413937536132,35.59086111588573,0.9596083744755944,100.0,69.0,74.0,277.0,351.0,31.0,1099.0,1101.0,32.0,15.0,17.0,0.46875,56.57132409482511,1665.7676157920632,15.0,11.0,4.0,0.7333333333333333,649.7383279082387,3743.953430478268,20.0,10.0,10.0,0.5,1192.200649825182,18863.384544646793,26.0,5.0,21.0,0.1923076923076923,651.9840355841754,12054.108190354103,89.0,45.0,44.0,0.5056179775280899,56.736516019112486,8321.283725644904,0.0,0.0,0.0,0.0,50025.0,50056.0,50125.0,50140.0,50148.0,50168.0,50176.0,50199.0,50391.0,50476.0,0.035325826371170675,-0.1708810010028112,0.05526609071671379,-0.14771893985619974,0.007146184399187497
44,44,51149.8991435127,1231.1179785609968,7.349092593844186,51241.972626301,-3701.901012012257,13.339927360446236,51263.41794463866,22832.993858035457,8.75708825804739,51284.60271279886,-5151.719517839201,20.383723206912453,51538.65503370881,7828.469385115152,33.07409336135345,0.94848031631524,90.0,68.0,79.0,272.0,351.0,22.0,1108.0,1105.0,22.0,11.0,11.0,0.5,70.2136946931661,1111.6566536982402,17.0,13.0,4.0,0.7647058823529411,670.3548219419476,3892.5396701324134,19.0,9.0,10.0,0.4736842105263157,1188.589683834784,18522.040898448893,29.0,5.0,24.0,0.1724137931034483,669.1659973991831,13028.807206221056,85.0,43.0,42.0,0.5058823529411764,50.84449220951683,8084.93424611836,0.0,0.0,0.0,0.0,51139.0,51161.0,51229.0,51246.0,51254.0,51273.0,51280.0,51308.0,51498.0,51580.0,0.05703246635650306,-0.18108394032328817,0.052055796590883406,-0.12989177595597307,0.006494819064655375
45,45,53043.73026439156,1114.9031298260966,7.207457321568357,53135.972626301,-3614.6448671833127,17.83575779751739,53157.74370679745,22036.67678263534,8.544460289049592,53179.45427902447,-5019.662567827214,17.8357578060484,53430.90142361769,7828.705206851399,30.356687485915153,0.944062248349108,90.0,69.0,77.0,269.0,346.0,21.0,1894.0,1895.0,21.0,11.0,10.0,0.5238095238095238,68.72384128073051,995.6564879951832,19.0,14.0,5.0,0.7368421052631579,633.6516556730342,3230.387931935325,19.0,10.0,9.0,0.5263157894736842,1159.8209628629809,16582.977294858545,28.0,5.0,23.0,0.1785714285714285,654.0526865897367,12691.192692137163,78.0,39.0,39.0,0.5,62.60779020671386,8159.244678377011,0.0,0.0,0.0,0.0,53033.0,53054.0,53123.0,53140.0,53148.0,53167.0,53174.0,53200.0,53393.0,53469.0,0.06164108741128936,-0.17530122016296523,0.05263139148897928,-0.13029813812222973,0.007997208804327156
46,46,54108.446390815865,1681.168345735655,9.639023004909236,54200.42511919002,-3560.346279530338,9.629413400809325,54222.777637163694,22186.518358777063,8.729621614468178,54244.60271279886,-4615.1809934323455,20.383723206912453,54497.97920204722,7789.708889034957,33.53761340338862,0.9631540954055,93.0,67.0,77.0,274.0,351.0,26.0,1063.0,1065.0,26.0,12.0,14.0,0.4615384615384615,68.11336740813387,1650.2776826180009,16.0,11.0,5.0,0.6875,613.999954992592,3284.0804137101823,19.0,10.0,9.0,0.5263157894736842,1193.2303230921218,18140.757641439806,27.0,5.0,22.0,0.1851851851851851,637.2615739896206,12204.421972567698,84.0,42.0,42.0,0.5,53.84124821875184,8107.291647042612,0.0,0.0,0.0,0.0,54096.0,54122.0,54189.0,54205.0,54213.0,54232.0,54240.0,54266.0,54457.0,54540.0,0.04051549482293425,-0.17245512284091302,0.05378177430980629,-0.13807943283188212,0.0069118434315999285
47,47,55185.42143852369,1791.3831996511333,11.093729840227065,55279.54796536753,-3925.103150400064,9.483555433910832,55301.03888234782,20791.44018040455,8.78072531315382,55321.45203460211,-4903.028844005709,15.287792404562984,55574.83551219046,8373.531675720797,36.24938237954839,0.9595709734722836,96.0,68.0,72.0,279.0,351.0,28.0,1080.0,1077.0,28.0,13.0,15.0,0.4642857142857143,68.34086499698216,1843.520242323666,16.0,13.0,3.0,0.8125,672.1310616721313,4781.481977528762,19.0,10.0,9.0,0.5263157894736842,1166.0843605646864,17534.271214377644,27.0,4.0,23.0,0.1481481481481481,707.1878746253756,12597.33475397397,92.0,47.0,45.0,0.5108695652173914,59.45988621543893,8784.54481831158,0.0,0.0,0.0,0.0,55172.0,55200.0,55268.0,55283.0,55291.0,55310.0,55318.0,55340.0,55531.0,55619.0,0.038149774437033546,-0.1712390823674595,0.0560848286817425,-0.14423489992108887,0.007100932858216076
48,48,56145.36060746641,1962.294304622252,12.047578810646392,56238.15870952481,-3081.866923084491,7.454439661979241,56260.58712930982,18627.535272519788,8.300502987589493,56280.45203459914,-4245.145198131805,15.287792405184002,56533.52065016039,7614.469938539262,33.78296710897672,0.9621578103316452,97.0,66.0,67.0,280.0,347.0,31.0,958.0,960.0,31.0,14.0,17.0,0.4516129032258064,68.08350511327458,2015.745324206792,15.0,10.0,5.0,0.6666666666666666,540.3756036717909,3153.536263545524,20.0,11.0,9.0,0.55,1075.9303797633384,14835.498495444552,23.0,4.0,19.0,0.1739130434782608,664.8553782052004,11589.69603659027,84.0,42.0,42.0,0.5,54.426624904061434,7956.665708332255,0.0,0.0,0.0,0.0,56131.0,56162.0,56228.0,56243.0,56250.0,56270.0,56277.0,56295.0,56493.0,56575.0,0.034695868480534006,-0.17534034309663027,0.057760211644886865,-0.15661546241051746,0.007147789057330297
49,49,57082.66180865057,1901.5382095482544,11.685866305395844,57177.97262630094,-3765.7776965903886,9.097967122551152,57199.888601572675,21117.707144382784,8.836368600157027,57220.45203459946,-4785.452171519841,15.287792387918373,57469.796494095615,7945.760239619254,34.06532210305457,0.9613856105842264,98.0,68.0,74.0,272.0,346.0,30.0,937.0,940.0,31.0,15.0,16.0,0.4838709677419355,64.1303198008383,1847.1265378414976,16.0,12.0,4.0,0.75,649.1709425169744,4481.2498552764055,19.0,10.0,9.0,0.5263157894736842,1173.4146211302211,17825.17759135077,27.0,4.0,23.0,0.1481481481481481,701.4832519787241,12564.220310519702,85.0,42.0,43.0,0.4941176470588235,56.96475812318125,8330.090751082767,0.0,0.0,0.0,0.0,57068.0,57098.0,57166.0,57182.0,57190.0,57209.0,57217.0,57240.0,57430.0,57512.0,0.03372549627392112,-0.17238695292734538,0.05556543677339252,-0.14658661853388366,0.007169201738449497
50,50,58239.05976308044,853.2485212855548,5.999270572854538,58334.54796540086,-3817.4846123035377,15.287792405172578,58355.880576684394,23303.831093381737,8.777136217375975,58377.60271279886,-5051.396231137433,20.383723206912453,58632.92542640231,7645.112386560614,32.27893352155548,0.9475303477499908,91.0,73.0,79.0,273.0,352.0,18.0,1156.0,1156.0,18.0,9.0,9.0,0.5,65.76226742268402,716.8024329971341,20.0,16.0,4.0,0.8,699.6986851915664,4616.742274151257,20.0,10.0,10.0,0.5,1194.7878641768486,18084.412062052535,28.0,5.0,23.0,0.1785714285714285,654.2266801887888,12650.05836400688,82.0,41.0,41.0,0.5,59.44142584646085,7951.6338036135885,0.0,0.0,0.0,0.0,58230.0,58248.0,58321.0,58338.0,58346.0,58366.0,58373.0,58400.0,58593.0,58673.0,0.07707281733533236,-0.18328788620037315,0.051270019053483745,-0.1295140294392379,0.0077750885586657
51,51,59351.26663114441,985.51663997661,8.356184551741778,59446.972626301,-3503.539219079099,11.913191222541064,59468.17507583659,22009.165173364156,8.695555500856434,59489.60271279886,-4502.711921256225,20.207303013618123,59743.4046411653,8072.809182069894,34.10487778000544,0.9464741214397794,94.0,71.0,78.0,274.0,352.0,23.0,1116.0,1112.0,25.0,12.0,13.0,0.48,56.10236041462285,849.737630162845,18.0,14.0,4.0,0.7777777777777778,658.1201595100553,4362.975067089539,20.0,10.0,10.0,0.5,1166.057440054395,18188.96551567765,27.0,5.0,22.0,0.1851851851851851,639.4963061036632,12274.132325345616,87.0,43.0,44.0,0.4942528735632184,52.779983139151774,8361.88395385849,0.0,0.0,0.0,0.0,59340.0,59363.0,59434.0,59451.0,59458.0,59478.0,59485.0,59512.0,59702.0,59786.0,0.056926852514590086,-0.18784438202551115,0.05298053928304271,-0.14202469917845606,0.006537994637155392
52,52,61215.05984008988,1451.4571277597538,7.970591864548747,61306.54796540086,-3686.190980869705,15.287792405184318,61327.56102158823,21850.565345168656,8.588461671816109,61349.20743739433,-5014.327570853703,17.8357578060484,61600.69707891612,7786.069914938626,30.824623873437552,0.9548499952821518,89.0,66.0,77.0,269.0,346.0,23.0,1862.0,1859.0,23.0,11.0,12.0,0.4782608695652174,72.6081750944048,1317.0146908066172,19.0,15.0,4.0,0.7894736842105263,673.2869781255528,4489.432103310297,19.0,10.0,9.0,0.5263157894736842,1159.9403667482372,16424.851550052175,27.0,5.0,22.0,0.1851851851851851,648.7810174808233,12563.836916187203,79.0,40.0,39.0,0.5063291139240507,63.83364602235088,8121.651222988152,0.0,0.0,0.0,0.0,61204.0,61227.0,61293.0,61310.0,61318.0,61337.0,61344.0,61370.0,61562.0,61639.0,0.05002433327567286,-0.18265113815852813,0.053085142119890724,-0.12938544766240043,0.00819844243883264
53,53,62350.77869501227,1039.068383403551,6.531806753975993,62443.54796540086,-4006.0663706635414,13.215839917028532,62464.562516444035,21797.940985304107,8.658352156314178,62490.433950652274,-4857.48558721862,15.28779240518434,62741.49109792608,7822.505641176681,32.271418554460695,0.954273370704526,89.0,70.0,79.0,273.0,352.0,19.0,1134.0,1138.0,19.0,10.0,9.0,0.5263157894736842,66.59753676657333,876.868336398402,18.0,15.0,3.0,0.8333333333333334,714.8696645771473,5109.61388130999,19.0,10.0,9.0,0.5263157894736842,1207.8175087535217,18367.10583927176,27.0,8.0,19.0,0.2962962962962963,494.8369712614057,10081.566337899443,84.0,42.0,42.0,0.5,57.094705858974095,8095.220611427481,0.0,0.0,0.0,0.0,62341.0,62360.0,62430.0,62447.0,62455.0,62474.0,62482.0,62509.0,62701.0,62782.0,0.06409350705910982,-0.1784467850588158,0.05540970633730116,-0.10187101173567202,0.007298774648168329
54,54,63441.2925158171,2042.9468216519845,12.025640397203752,63534.04072616992,-3024.0024164206357,6.62814179950155,63556.629423304694,20286.0854430663,8.486657334442159,63577.027373699,-4235.534915739563,15.867879659095218,63830.81963902988,7909.524553703744,35.81071389863812,0.959372950733414,99.0,68.0,69.0,281.0,350.0,31.0,1091.0,1091.0,31.0,15.0,16.0,0.4838709677419355,69.6760160318738,2062.882240211846,14.0,10.0,4.0,0.7142857142857143,589.4637546456138,3980.8741056660137,20.0,11.0,9.0,0.55,1132.3781316167997,16502.38658046129,25.0,4.0,21.0,0.16,668.596366990503,11869.417945929028,90.0,45.0,45.0,0.5,55.71109674086862,8348.229412624187,0.0,0.0,0.0,0.0,63426.0,63457.0,63525.0,63538.0,63546.0,63566.0,63573.0,63594.0,63788.0,63875.0,0.03410564352112298,-0.1949283345293531,0.05582043587437625,-0.15785405628600752,0.0070435455838848285
55,55,64380.14370597965,1836.5832612467807,11.375485209619145,64474.01211878013,-3447.666153686383,8.255685702592256,64495.95592705468,18940.65424629802,8.509953658686307,64515.51310782839,-4709.7538143976235,15.287792405173745,64766.52051368832,7980.404477827199,34.87908412321543,0.9477138825993664,96.0,68.0,74.0,271.0,345.0,28.0,942.0,939.0,31.0,15.0,16.0,0.4838709677419355,69.87509464120882,1750.719521026545,15.0,11.0,4.0,0.7333333333333333,581.7635721250537,3434.921383226107,19.0,10.0,9.0,0.5263157894736842,1086.938130881774,15473.201650929062,26.0,4.0,22.0,0.1538461538461538,643.1843942215293,11748.90866898591,85.0,43.0,42.0,0.5058823529411764,65.7914709490549,8620.88558974813,0.0,0.0,0.0,0.0,64367.0,64395.0,64463.0,64478.0,64486.0,64505.0,64512.0,64537.0,64726.0,64808.0,0.03804624386796028,-0.16874127197698904,0.0573865145705945,-0.13656433426633202,0.00824412736620685
56,56,65376.951452677014,1779.6298463425126,10.748725340114564,65470.41724080083,-3755.813936391247,8.302717137788513,65492.550398383246,21023.82901897787,8.792491253566451,65513.45203459914,-4655.251408478113,14.397254113266712,65765.31346885602,8371.382906985704,36.01169390977851,0.9573960901435236,95.0,67.0,71.0,278.0,349.0,28.0,994.0,997.0,28.0,13.0,15.0,0.4642857142857143,70.8189104887228,1761.3902839023065,15.0,11.0,4.0,0.7333333333333333,633.0320916787394,3988.8899368319326,20.0,11.0,9.0,0.55,1179.355819141213,17563.261833512217,25.0,4.0,21.0,0.16,701.1814432847284,12364.909072103814,88.0,44.0,44.0,0.5,59.19206666761757,8849.773762487694,0.0,0.0,0.0,0.0,65364.0,65392.0,65459.0,65474.0,65482.0,65502.0,65510.0,65530.0,65723.0,65808.0,0.039794180028093776,-0.16854724499131735,0.05609614776055435,-0.15062160595832513,0.007070763256835775
57,57,66550.39320931048,2213.6231647387344,15.960119403197016,66643.05829779037,-3950.3174051957494,7.616951097063437,66665.63791755955,21197.011576832247,8.690761230363073,66688.59719223002,-4813.465886796612,15.287792405184288,66940.95022721193,8186.741306500933,34.70962561666513,0.965173250592254,100.0,64.0,74.0,277.0,351.0,36.0,1175.0,1173.0,36.0,17.0,19.0,0.4722222222222222,64.81428121944785,2383.6666120509517,14.0,10.0,4.0,0.7142857142857143,655.4026527585391,3760.4785233349166,20.0,11.0,9.0,0.55,1202.4925814097398,17914.50165343222,24.0,6.0,18.0,0.25,575.358910924151,11234.3827346017,88.0,44.0,44.0,0.5,59.24236908008073,8720.14323771025,0.0,0.0,0.0,0.0,66533.0,66569.0,66633.0,66647.0,66655.0,66675.0,66683.0,66707.0,66898.0,66984.0,0.02927972667249244,-0.16591139028385546,0.05672934493860594,-0.11953110803223238,0.007236379758700511
58,58,67623.19959618717,1473.8815204575474,9.708057009373867,67717.46818432961,-3435.6258877999267,8.592071749168765,67739.55284677056,19230.678966287367,8.52939553632343,67759.45203459915,-4551.681550348432,15.287792405138902,68013.60212209923,8026.954529755689,35.81829068506384,0.9555484903042712,95.0,70.0,73.0,278.0,351.0,25.0,1072.0,1074.0,25.0,12.0,13.0,0.48,63.69551910903886,1479.3209937208903,16.0,11.0,5.0,0.6875,562.6903674105175,3139.0265753785397,20.0,11.0,9.0,0.55,1097.7114562407544,15340.501689241892,29.0,4.0,25.0,0.1379310344827586,673.9646123304271,11994.919520043217,89.0,45.0,44.0,0.5056179775280899,58.48665655169431,8424.599582246325,0.0,0.0,0.0,0.0,67611.0,67636.0,67706.0,67722.0,67729.0,67749.0,67756.0,67779.0,67971.0,68057.0,0.04321617323030512,-0.16378103605769714,0.05708126364987498,-0.1480693684027247,0.0072862822798965615
59,59,68525.74758045156,1807.9104547368408,11.217290013217394,68619.02725348828,-3384.136754419493,7.878100556181316,68641.51906431725,20125.6753129163,8.52741763508308,68662.02737370213,-4595.149491791912,17.835757784693584,68913.9675877868,7742.015156876403,32.23846020942164,0.963153840148852,98.0,68.0,77.0,268.0,345.0,30.0,903.0,902.0,30.0,15.0,15.0,0.5,63.947173871983786,1789.4446831335613,15.0,10.0,5.0,0.6666666666666666,584.5309955336642,3250.439166726658,20.0,11.0,9.0,0.55,1124.945477449208,15815.90671629672,30.0,4.0,26.0,0.1333333333333333,647.3726940639482,12094.256293199176,82.0,41.0,41.0,0.5,54.907909960828995,8149.313153622999,0.0,0.0,0.0,0.0,68511.0,68541.0,68609.0,68624.0,68631.0,68651.0,68658.0,68686.0,68874.0,68954.0,0.03537076391390852,-0.1727267654802364,0.05589603627994724,-0.1408817482913925,0.007092198716772103
60,60,69620.95095693834,964.5684334042288,8.057855668666605,69717.54796540085,-3891.1686388796343,11.706988309612449,69738.90959500287,22303.08288385965,8.845395111945498,69760.027373699,-4633.058467419756,17.83575780604837,70014.62741855209,7739.089467310855,32.54952326630268,0.9541285885811156,94.0,72.0,75.0,277.0,352.0,22.0,1093.0,1098.0,24.0,12.0,12.0,0.5,56.39249665572177,840.9768124524619,17.0,14.0,3.0,0.8235294117647058,694.0835375673693,4943.212857027563,20.0,10.0,10.0,0.5,1185.85686722736,18406.853923399853,26.0,4.0,22.0,0.1538461538461538,692.2718309804561,12517.990347489618,83.0,42.0,41.0,0.5060240963855421,53.308302353547575,8008.651065756445,0.0,0.0,0.0,0.0,69610.0,69632.0,69704.0,69721.0,69729.0,69749.0,69756.0,69779.0,69974.0,70056.0,0.0584639665810927,-0.17837405725165728,0.05317008744497577,-0.14942005067464564,0.006888187890670672
61,61,70726.88157382114,1072.328303307107,8.933816929605056,70823.13670137012,-3904.934800235344,9.915869491332211,70844.72382469004,21366.879488313953,8.782191499927583,70866.027373699,-4837.260103121,17.8357578060484,71119.25523427984,8132.103170400629,34.27032567117935,0.9562926885387112,96.0,72.0,77.0,274.0,351.0,24.0,1107.0,1106.0,24.0,12.0,12.0,0.5,52.10751951549683,1083.0889245341607,16.0,12.0,4.0,0.75,649.7269274213578,3921.5858632866702,19.0,10.0,9.0,0.5263157894736842,1170.3838420333454,17424.618031831935,27.0,4.0,23.0,0.1481481481481481,664.8377785798624,12450.544953371636,88.0,44.0,44.0,0.5,58.82131531149535,8523.259223758725,0.0,0.0,0.0,0.0,70715.0,70739.0,70811.0,70827.0,70835.0,70854.0,70862.0,70888.0,71078.0,71162.0,0.04859287902295872,-0.16638611415027976,0.054775609263554646,-0.13744098196227017,0.007233222953392205
62,62,71745.71634052596,1413.654636792687,8.924444690449612,71839.88029280723,-3497.7394122855753,8.694962310343803,71861.6873434318,18575.58022857363,8.470993683928958,71881.45203459915,-4554.497383068579,15.287792395080087,72135.2448502395,7580.702096378779,34.652500927570635,0.9399168876754298,96.0,70.0,72.0,277.0,349.0,26.0,1019.0,1016.0,26.0,13.0,13.0,0.5,62.21620590972107,1290.7773528704631,16.0,12.0,4.0,0.75,583.8833574315978,3448.5220274521607,19.0,10.0,9.0,0.5263157894736842,1071.318129033462,14879.90007615454,28.0,4.0,24.0,0.1428571428571428,658.2586972874336,11757.61493962945,88.0,44.0,44.0,0.5,53.59130363708652,7923.191419355399,0.0,0.0,0.0,0.0,71733.0,71759.0,71829.0,71844.0,71852.0,71871.0,71878.0,71901.0,72094.0,72178.0,0.044010895087415264,-0.16693163458110877,0.05767346784600146,-0.14452938313995337,0.007069438022460547
63,63,72684.10998956027,1627.7850605587792,9.435514087462746,72776.972626301,-3740.458602761575,9.012846440408978,72798.96288462814,20225.559622714885,8.694822394565758,72819.45203459915,-4740.9123686434405,15.22744042311614,73071.3374239533,7823.755738768536,33.378733954046425,0.9591338396481852,94.0,69.0,71.0,275.0,346.0,25.0,941.0,938.0,25.0,12.0,13.0,0.48,67.0020510222935,1585.6566281864425,16.0,12.0,4.0,0.75,625.0516450051545,3815.7607616155574,19.0,10.0,9.0,0.5263157894736842,1138.4240741886288,16965.799886033143,26.0,4.0,22.0,0.1538461538461538,690.3954694644192,12263.335533669577,84.0,42.0,42.0,0.5,57.73974654635919,8276.663265268073,0.0,0.0,0.0,0.0,72672.0,72697.0,72766.0,72781.0,72789.0,72808.0,72816.0,72837.0,73031.0,73112.0,0.041161485410913724,-0.16710561762230966,0.05628640667673242,-0.14562502231231247,0.007380054857828098
64,64,73840.07159703842,1335.970902234612,9.722971952166947,73935.93770261983,-3820.1399535948663,9.386103774183525,73957.92771773462,21940.19100775532,8.829913598879033,73979.027373699,-4417.079230422562,17.592316513833715,74234.04716971121,7960.704961665164,33.342574239407824,0.9551952554698516,97.0,72.0,73.0,278.0,351.0,25.0,1153.0,1159.0,25.0,12.0,13.0,0.48,59.14677910347321,1354.4538019776378,16.0,12.0,4.0,0.75,665.5090621733063,4319.700006966021,20.0,10.0,10.0,0.5,1190.3687426815618,18570.573255758456,25.0,4.0,21.0,0.16,682.9778598411062,12335.03923126668,84.0,42.0,42.0,0.5,53.77363642432956,8192.576794199387,0.0,0.0,0.0,0.0,73828.0,73853.0,73925.0,73940.0,73948.0,73968.0,73975.0,73998.0,74193.0,74276.0,0.0442725054898586,-0.17421064941535516,0.05425516770846688,-0.1546220532194911,0.006754883729930568
65,65,74942.17058334617,1529.5008267319356,11.027867302826053,75035.43478333837,-3454.3801072664573,9.0205135808201,75057.30239501754,20046.577000591653,8.614039661539978,75077.45203459915,-4589.241194763833,15.287792404820188,75330.90623725687,8036.5119995899,34.746951129666954,0.9493422755956784,96.0,67.0,71.0,279.0,350.0,29.0,1103.0,1099.0,29.0,14.0,15.0,0.4827586206896552,59.03151035322028,1525.1349296103435,15.0,11.0,4.0,0.7333333333333333,592.9779871390518,3697.802189163289,20.0,10.0,10.0,0.5,1129.5155696203788,17097.7481682278,27.0,4.0,23.0,0.1481481481481481,687.6635198415584,12222.05860354419,89.0,45.0,44.0,0.5056179775280899,56.85010172791617,8370.241230682586,0.0,0.0,0.0,0.0,74928.0,74957.0,75024.0,75039.0,75047.0,75067.0,75074.0,75095.0,75289.0,75374.0,0.03859527848661065,-0.17165973886072747,0.05634456044974872,-0.1498425318386314,0.0070739770849365
66,66,76738.90199555625,780.5958748354166,5.472455383137824,76828.60271279886,-4741.662267743987,20.383723206912453,76856.40930673805,21404.86999198732,8.28131874863955,76884.39728720114,-5846.136451077922,20.383723206912453,77132.0324070445,7289.064332542644,27.618172555009743,0.920711921240002,82.0,65.0,96.0,260.0,356.0,17.0,1797.0,1799.0,17.0,9.0,8.0,0.5294117647058824,71.72503645558886,574.8362719191255,64.0,53.0,11.0,0.828125,363.72435627218294,2158.6112618688007,19.0,9.0,10.0,0.4736842105263157,1170.940244788824,16756.527461320908,37.0,12.0,25.0,0.3243243243243243,355.03541415761936,8829.691036130143,73.0,37.0,36.0,0.5068493150684932,58.41700497277546,7423.663212616356,0.0,0.0,0.0,0.0,76730.0,76747.0,76812.0,76840.0,76847.0,76866.0,76873.0,76908.0,77095.0,77168.0,0.09188498013868138,-0.07670819550909044,0.054704384807156156,-0.06072992259565841,0.0080143352161083
67,67,77876.13786086971,1123.1291300714845,7.812848129629738,77971.54796538754,-4184.696324135413,10.161921117507662,77992.78773036515,21962.48246693318,8.892018085414854,78015.06555857343,-5188.5075530358245,17.835757802335227,78267.32136447767,8057.571769963391,35.99259327028991,0.9526943352411076,94.0,72.0,77.0,275.0,352.0,22.0,1136.0,1136.0,22.0,11.0,11.0,0.5,62.91769401425911,1121.227747472169,17.0,14.0,3.0,0.8235294117647058,708.3329159889142,4965.414465510633,19.0,10.0,9.0,0.5263157894736842,1197.592479793712,17988.41429715488,27.0,5.0,22.0,0.1851851851851851,648.8207766104223,12512.353865095816,90.0,44.0,46.0,0.4888888888888889,56.71406646812432,8480.099373969106,0.0,0.0,0.0,0.0,77865.0,77887.0,77959.0,77975.0,77983.0,78002.0,78010.0,78036.0,78225.0,78311.0,0.056020000131467115,-0.1692674596012079,0.05452901244642144,-0.12504959662837797,0.0070386051886674045
68,68,79919.28152343255,1180.4036038661973,7.266423504530524,80012.972626301,-3438.7821490493916,17.8357578060484,80034.05341320568,20074.66573389717,8.3048648274798,80058.4344445545,-4703.224982534667,17.8357578060484,80307.83739101287,7671.93128290621,30.81156922265735,0.9486432643789614,90.0,70.0,79.0,267.0,346.0,20.0,2044.0,2042.0,21.0,10.0,11.0,0.4761904761904761,69.97163709156051,1055.1083256436025,18.0,14.0,4.0,0.7777777777777778,609.2239056215435,3366.180713373976,18.0,9.0,9.0,0.5,1088.2902823338916,15527.214934263186,29.0,8.0,21.0,0.2758620689655172,497.51156644646215,10299.754088728218,79.0,40.0,39.0,0.5063291139240507,58.954426945744885,7918.887955178129,0.0,0.0,0.0,0.0,79910.0,79930.0,80000.0,80017.0,80025.0,80043.0,80050.0,80079.0,80269.0,80346.0,0.059277722350542766,-0.17716269284169567,0.054212124712804254,-0.105780941437835,0.007684431047642585
69,69,80947.92488603354,1006.7725610665756,6.285439795965943,81041.54796540085,-4007.233628566982,15.287792404744245,81062.56438042337,22006.98802767713,8.647952744077982,81086.30435066174,-5045.280891043828,17.835757805985974,81338.72413345627,7796.619575069307,32.05527154237969,0.951176325891175,89.0,71.0,79.0,272.0,351.0,18.0,1027.0,1028.0,20.0,10.0,10.0,0.5,69.61425762897542,845.876456321694,20.0,16.0,4.0,0.8,690.2857573591505,4571.36068671603,19.0,10.0,9.0,0.5263157894736842,1171.2856295278896,17016.391100579764,28.0,7.0,21.0,0.25,574.1769538270158,11655.424709228038,81.0,41.0,40.0,0.5061728395061729,55.567443821361515,8062.340338211177,0.0,0.0,0.0,0.0,80939.0,80957.0,81028.0,81045.0,81053.0,81072.0,81080.0,81107.0,81299.0,81379.0,0.06914596237627496,-0.17225992326431988,0.05322335014927168,-0.11380475462650073,0.007127120066117572
70,70,82058.13241299329,842.1708499071491,6.720829035010755,82154.54796540085,-4040.774342976283,15.287792405184067,82174.89840144242,22120.65329270004,8.572138347066506,82200.38232100666,-4798.385352984847,20.38372320691215,82451.53186278454,7692.402071245051,32.7458064263426,0.9400192493465016,91.0,72.0,82.0,270.0,352.0,19.0,1110.0,1113.0,19.0,9.0,10.0,0.4736842105263157,54.45687860834373,834.6774347335972,20.0,17.0,3.0,0.85,702.0125981269433,4921.353427249797,20.0,10.0,10.0,0.5,1168.2948997156404,17526.07544766973,30.0,8.0,22.0,0.2666666666666666,489.17561407037823,10423.708703509168,83.0,42.0,41.0,0.5060240963855421,54.062981905297114,8024.791005997636,0.0,0.0,0.0,0.0,82049.0,82068.0,82140.0,82158.0,82165.0,82185.0,82192.0,82222.0,82411.0,82492.0,0.06466250715558215,-0.17373219550039687,0.05281466529296336,-0.10194587930835639,0.007028101418071971
71,71,83083.62398566335,1324.3440972753228,39.223337032863384,83179.12330450071,-2445.9073202304767,5.8034032062411045,83201.47856123299,18575.949225470285,8.48690121047914,83220.87669549929,-3728.746910140635,11.114244370127672,83471.98619029527,8177.584582138676,39.17514633265927,0.9427705817437048,110.0,67.0,63.0,285.0,348.0,43.0,1030.0,1026.0,43.0,23.0,20.0,0.5348837209302325,45.754630141710486,1949.784093510341,12.0,8.0,4.0,0.6666666666666666,557.2479494748317,4432.690671747363,20.0,10.0,10.0,0.5,1072.430939590426,16908.668549222526,17.0,3.0,14.0,0.1764705882352941,650.3050036618332,10813.998514684186,95.0,47.0,48.0,0.4947368421052631,60.17534877533817,8753.701802634623,0.0,0.0,0.0,0.0,83061.0,83104.0,83171.0,83182.0,83191.0,83211.0,83218.0,83234.0,83427.0,83519.0,0.034548898761164175,-0.22782872632407122,0.05773222819321501,-0.17440309555289876,0.0073585724697696215
72,72,0.0,0.0,0.0,0.0,0.0,0.0,0.0,0.0,0.0,0.0,0.0,0.0,0.0,0.0,0.0,0.0,0.0,0.0,0.0,0.0,0.0,0.0,0.0,0.0,0.0,0.0,0.0,0.0,0.0,0.0,0.0,0.0,0.0,0.0,0.0,0.0,0.0,0.0,0.0,0.0,0.0,0.0,0.0,0.0,0.0,0.0,0.0,0.0,0.0,0.0,0.0,0.0,0.0,0.0,0.0,0.0,0.0,0.0,,83825.0,84142.0,84162.0,84169.0,84188.0,84195.0,84228.0,84417.0,84491.0,,,,,
73,73,85156.61552967921,1258.3308181018194,9.373562030834782,85252.972626301,-3981.609766571064,10.376268047683608,85274.48202354474,21516.696954639672,8.763391053920259,85296.027373699,-4560.266569846208,17.835757798519776,85547.57169425978,8251.928918370728,35.67813467096791,0.9451629598272616,96.0,72.0,74.0,277.0,351.0,24.0,2071.0,2073.0,24.0,12.0,12.0,0.5,57.184303571171725,1192.5007093980485,17.0,13.0,4.0,0.7647058823529411,669.8519902376205,4097.60638280465,20.0,10.0,10.0,0.5,1172.0616382604182,18697.85129869645,25.0,4.0,21.0,0.16,658.3696477983264,12136.269865395208,90.0,45.0,45.0,0.5,54.39919825329049,8658.05040949865,0.0,0.0,0.0,0.0,85145.0,85169.0,85241.0,85257.0,85264.0,85284.0,85292.0,85315.0,85505.0,85592.0,0.045444570496519926,-0.16823647456905166,0.05447219156040979,-0.14437086905218557,0.00659230087794202
74,74,86252.30846033756,1611.6072473411048,12.49077987984189,86349.12120765893,-3721.244205943281,9.119787918280036,86370.85897170944,20493.387378535303,8.74360829009643,86391.45203459915,-4543.071082413579,15.287792405152642,86646.27281879545,8122.0926785418815,36.88781556718829,0.9454412094567772,98.0,70.0,73.0,279.0,352.0,28.0,1098.0,1096.0,29.0,13.0,16.0,0.4482758620689655,61.67034277823525,1747.7088575842313,16.0,12.0,4.0,0.75,634.7337444930221,4182.392146921929,19.0,10.0,9.0,0.5263157894736842,1148.974604005688,17272.371350073256,26.0,4.0,22.0,0.1538461538461538,681.7378801553316,12149.36712290361,92.0,46.0,46.0,0.5,56.4214217791794,8553.482995901188,0.0,0.0,0.0,0.0,86240.0,86268.0,86338.0,86353.0,86361.0,86380.0,86388.0,86411.0,86603.0,86690.0,0.03826635979701723,-0.17057030105126528,0.05606562657421484,-0.15006101991103946,0.006946660671361417
75,75,88134.2066377176,693.4599077003649,5.87760448471608,88229.972626301,-3855.6946991880136,17.835757806041514,88250.6138391972,21936.69703727988,8.517537778885583,88275.39477856191,-4959.273533765167,20.38372320689989,88525.64184581231,7578.8364960763965,30.64163612922827,0.934030113471744,90.0,73.0,81.0,267.0,348.0,17.0,1877.0,1880.0,19.0,9.0,10.0,0.4736842105263157,56.43004092948832,578.3092458667273,20.0,16.0,4.0,0.8,668.9289196672219,3952.712322615803,19.0,10.0,9.0,0.5263157894736842,1147.9521346812037,16200.696332976506,30.0,8.0,22.0,0.2666666666666666,513.2380357370996,10876.071232141632,79.0,40.0,39.0,0.5063291139240507,55.4370124584099,7808.968482140762,0.0,0.0,0.0,0.0,88126.0,88143.0,88216.0,88234.0,88241.0,88260.0,88267.0,88297.0,88488.0,88564.0,0.08137462642450416,-0.17349115317872402,0.05233021784137965,-0.10349056817348817,0.007314712817344712
76,76,89123.37126715355,557.7460430023773,4.998967289766242,89219.54796540085,-4201.356841978895,15.28779240518434,89240.09980466634,22003.120442082763,8.613854575496218,89264.30023729207,-4971.6918690229195,17.8357578060484,89516.06639751916,7463.642328523101,31.509805413089648,0.93408439146479,89.0,74.0,79.0,272.0,351.0,15.0,991.0,990.0,15.0,7.0,8.0,0.4666666666666667,51.96179507289587,534.9898120211553,20.0,17.0,3.0,0.85,703.7569786898165,4916.126299707137,20.0,10.0,10.0,0.5,1172.8030567914143,17782.483094413274,27.0,7.0,20.0,0.2592592592592592,554.825334254694,11236.37254545339,81.0,40.0,41.0,0.4938271604938271,51.23134809396109,7720.728880824467,0.0,0.0,0.0,0.0,89116.0,89131.0,89205.0,89223.0,89230.0,89250.0,89257.0,89284.0,89477.0,89556.0,0.09316389730563161,-0.16750707096765852,0.05330166963719986,-0.11159688670805198,0.006864121542664907
77,77,90137.53588555356,733.3393239275932,6.141825816610918,90234.54796540084,-3806.6547056414097,12.931536938016192,90255.39223842368,20958.345581786085,8.635314088575711,90276.027373699,-4713.326868178699,17.8357578060484,90529.68809375857,7587.519797647178,34.37342712008323,0.9379351874686012,92.0,75.0,75.0,277.0,352.0,17.0,1014.0,1015.0,17.0,9.0,8.0,0.5294117647058824,55.199397026809784,671.565890284905,19.0,15.0,4.0,0.7894736842105263,659.9027446157608,4454.77934463622,19.0,9.0,10.0,0.4736842105263157,1121.7198004273537,17144.380365955567,28.0,4.0,24.0,0.1428571428571428,666.407819509186,12260.739560241542,89.0,45.0,44.0,0.5056179775280899,55.2018421815383,7839.525409038865,0.0,0.0,0.0,0.0,90129.0,90146.0,90221.0,90238.0,90246.0,90265.0,90272.0,90296.0,90487.0,90573.0,0.07527129014597878,-0.17335503102968441,0.05352139061024873,-0.1413879915709508,0.007275347366955918
78,78,91036.40726030986,1839.2569052728395,12.219580400732893,91130.84999499832,-3284.4173338432497,7.261789638589121,91153.0005098657,18887.584576928155,8.406915049953634,91172.45203459916,-4402.472792722792,15.287792405184058,91424.66571604888,8161.515786727053,37.083823573479776,0.9419003324552958,99.0,69.0,71.0,277.0,348.0,30.0,898.0,897.0,30.0,14.0,16.0,0.4666666666666667,67.82223191504099,1975.3384090977409,14.0,10.0,4.0,0.7142857142857143,584.8579830708669,3605.740359826536,19.0,10.0,9.0,0.5263157894736842,1083.8655231749956,15546.427418744914,27.0,3.0,24.0,0.1111111111111111,667.9001555731594,11766.2488799118,90.0,45.0,45.0,0.5,57.7316860531481,8767.352605349954,0.0,0.0,0.0,0.0,91022.0,91052.0,91121.0,91135.0,91143.0,91162.0,91169.0,91192.0,91382.0,91469.0,0.03687480075274209,-0.17807054452075288,0.05738507847631164,-0.15171022900520503,0.007073647538247276
79,79,91924.16127435202,1224.0026491336175,7.923683977811622,92020.54796540084,-3518.3613021937035,15.287792405184222,92041.43833316155,22421.566782833223,8.643690448188748,92062.60271279886,-4652.485435437762,20.383723206912453,92312.42437742908,7955.603683216315,33.367703406930104,0.942830122694224,94.0,72.0,77.0,270.0,347.0,22.0,888.0,889.0,22.0,11.0,11.0,0.5,65.38352605879449,1168.0914147107756,18.0,15.0,3.0,0.8333333333333334,685.9262603264675,4713.317943432174,19.0,9.0,10.0,0.4736842105263157,1157.1771014036203,18118.797081045646,27.0,5.0,22.0,0.1851851851851851,648.1878771791661,12402.040420333336,85.0,42.0,43.0,0.4941176470588235,57.324785430072794,8343.324359410239,0.0,0.0,0.0,0.0,91913.0,91935.0,92007.0,92024.0,92032.0,92051.0,92058.0,92084.0,92272.0,92354.0,0.05341779783326019,-0.19495617459718861,0.05161000177247193,-0.1393207751370804,0.007205585862831387
80,80,92932.10562357843,1167.4882618373815,10.384896238691963,93029.972626301,-3802.2859135276153,10.074163761236312,93051.47570360202,21482.03833215196,8.764364998065334,93073.027373699,-4602.194731712444,17.040995571397183,93324.45370197692,7933.115464881662,35.32457625602174,0.9541434746593036,98.0,71.0,74.0,276.0,350.0,27.0,1008.0,1010.0,27.0,12.0,15.0,0.4444444444444444,48.86231794237357,1182.9924952425968,17.0,13.0,4.0,0.7647058823529411,661.9502584019777,4431.836800787159,20.0,10.0,10.0,0.5,1177.5353524495597,18735.851768623907,25.0,5.0,20.0,0.2,661.7598929657714,12144.116245954365,90.0,45.0,45.0,0.5,60.00718482435532,8326.348491262797,0.0,0.0,0.0,0.0,92920.0,92947.0,93018.0,93034.0,93041.0,93061.0,93069.0,93092.0,93281.0,93368.0,0.04185251324537905,-0.17409270987405723,0.05481487995890753,-0.14379224077715966,0.007564138589687153
81,81,93989.5825307808,485.79755457696103,4.887794315449586,94083.027373699,-4554.360079087808,17.8357578060484,94109.82283822048,19675.496393675927,8.211344831240266,94134.54796540084,-5880.506554908208,15.28779240518434,94386.63117364034,6893.06262945226,29.897070959400512,0.9248793790972116,90.0,74.0,87.0,265.0,352.0,16.0,1060.0,1058.0,18.0,9.0,9.0,0.5,54.23290086462875,246.7848307961129,24.0,14.0,10.0,0.5833333333333334,385.7502355834968,1798.9956870528135,19.0,10.0,9.0,0.5263157894736842,1139.589670748439,15358.85180210337,35.0,10.0,25.0,0.2857142857142857,435.9353611483548,10041.838151779844,80.0,41.0,39.0,0.5125,51.34918643518198,7141.577043126222,0.0,0.0,0.0,0.0,93982.0,93998.0,94072.0,94093.0,94100.0,94119.0,94126.0,94159.0,94349.0,94424.0,0.11163683380797478,-0.08469910786253831,0.05791923354547357,-0.07413228045541385,0.007449400824501476
82,82,94957.68674370115,1712.6231885729414,11.387268333532178,95051.27762512096,-3352.0648121716504,7.978888400131776,95073.47823077525,18515.805464910783,8.410684511708721,95093.45203459916,-4180.599504716229,14.727552549180968,95343.68713478462,7854.755425903826,36.833667291885206,0.9476140438144326,97.0,69.0,69.0,278.0,347.0,28.0,968.0,964.0,28.0,14.0,14.0,0.5,64.78268340488188,1667.9756920305174,15.0,10.0,5.0,0.6666666666666666,556.665025760107,3061.6823611167656,20.0,10.0,10.0,0.5,1071.6063570471867,16139.785786804146,24.0,4.0,20.0,0.1666666666666666,651.7607449496355,11395.70439665371,90.0,45.0,45.0,0.5,58.63417749010114,8385.081061238701,0.0,0.0,0.0,0.0,94944.0,94972.0,95041.0,95056.0,95063.0,95083.0,95090.0,95110.0,95302.0,95388.0,0.037826583125306526,-0.16606630747078815,0.05787522228390134,-0.15590126349447478,0.007464799896472175
83,83,95951.80510829444,627.3755804436598,5.184841178403268,96046.7860272825,-3748.455451805142,17.835757806048242,96068.23726225634,22387.79273242577,8.652085020064355,96091.2368072734,-4787.366913038955,17.83575780603472,96342.85909459971,7379.445828232245,30.89071341738842,0.9445107955644202,89.0,73.0,78.0,271.0,349.0,16.0,991.0,995.0,16.0,8.0,8.0,0.5,60.80351571728339,517.5473700846561,19.0,15.0,4.0,0.7894736842105263,661.2175800363334,4152.532288989547,20.0,10.0,10.0,0.5,1165.6084196024815,17839.777982792355,27.0,6.0,21.0,0.2222222222222222,600.8306025814895,11794.083362913256,80.0,40.0,40.0,0.5,59.06533293393274,7689.144110502329,0.0,0.0,0.0,0.0,95944.0,95960.0,96033.0,96051.0,96058.0,96078.0,96085.0,96111.0,96305.0,96382.0,0.09691724959120197,-0.17639734246218963,0.052064463591100306,-0.12550335361700748,0.008004033677970899
84,84,0.0,0.0,0.0,0.0,0.0,0.0,0.0,0.0,0.0,0.0,0.0,0.0,0.0,0.0,0.0,0.0,0.0,0.0,0.0,0.0,0.0,0.0,0.0,0.0,0.0,0.0,0.0,0.0,0.0,0.0,0.0,0.0,0.0,0.0,0.0,0.0,0.0,0.0,0.0,0.0,0.0,0.0,0.0,0.0,0.0,0.0,0.0,0.0,0.0,0.0,0.0,0.0,0.0,0.0,0.0,0.0,0.0,0.0,,96807.0,97128.0,97146.0,97154.0,97173.0,97180.0,97207.0,97400.0,97479.0,,,,,
85,85,98071.9125486009,1457.664965119868,13.104417147544476,98169.8190979205,-3412.3606697189757,8.778226305594032,98191.98032220436,19949.848223859484,8.548245888160231,98212.027373699,-4472.772292882756,17.83575780604697,98466.25683913658,7552.961766190619,34.48811734447962,0.961530090824565,100.0,70.0,75.0,275.0,350.0,30.0,2126.0,2124.0,30.0,13.0,17.0,0.4333333333333333,56.00813521926529,1568.0987526017218,15.0,11.0,4.0,0.7333333333333333,592.3316417346537,3496.054920569574,19.0,10.0,9.0,0.5263157894736842,1111.421255720929,16337.695999842534,29.0,4.0,25.0,0.1379310344827586,661.4160781137714,12055.401929944026,88.0,44.0,44.0,0.5,51.70151538478965,7971.045935653235,0.0,0.0,0.0,0.0,98059.0,98089.0,98159.0,98174.0,98182.0,98201.0,98208.0,98234.0,98424.0,98509.0,0.03842318815329391,-0.1735841252042783,0.05571076247044821,-0.14787608999596102,0.006845197551008605
86,86,98964.0305334731,1524.514384971267,10.775451547724373,99059.54796540084,-3583.5666819909034,10.03420176677597,99080.61640819228,18769.40102898875,8.518178002429297,99102.9870740384,-4304.2838614476195,15.287792405143936,99349.47741453214,7604.172023625427,34.612434934658566,0.9495996664961738,97.0,70.0,77.0,267.0,344.0,27.0,887.0,888.0,27.0,13.0,14.0,0.4814814814814814,63.69640389506585,1545.401657940443,18.0,14.0,4.0,0.7777777777777778,630.067427920848,4360.067529026906,19.0,10.0,9.0,0.5263157894736842,1080.5830429793032,15661.386845690016,28.0,6.0,22.0,0.2142857142857142,550.69287053328,10661.387401055576,86.0,42.0,44.0,0.4883720930232558,56.63717007855909,8018.166840791894,0.0,0.0,0.0,0.0,98951.0,98978.0,99048.0,99063.0,99071.0,99090.0,99097.0,99125.0,99308.0,99392.0,0.04178143841933401,-0.1758213210004522,0.057571525128072905,-0.12794064895805238,0.0074481705440898605
87,87,99886.7763128056,1302.2592829834243,7.690534842373368,99980.54796540084,-3854.661563105357,14.066324572495178,100001.41670954964,21313.557072436328,8.576439009569782,100025.51458539769,-4717.384873817109,17.8357578060484,100275.43415755224,7736.280285110203,31.936581641566157,0.955179913672038,91.0,69.0,80.0,268.0,348.0,22.0,923.0,921.0,22.0,11.0,11.0,0.5,68.05285689086118,1199.748187432,19.0,15.0,4.0,0.7894736842105263,685.6596918865903,4570.729574606228,19.0,9.0,10.0,0.4736842105263157,1145.1257412661696,17874.69711948518,29.0,8.0,21.0,0.2758620689655172,497.53104930533954,10207.806170396423,82.0,41.0,41.0,0.5,55.61890481305402,8155.033653380352,0.0,0.0,0.0,0.0,99876.0,99898.0,99967.0,99984.0,99992.0,100011.0,100018.0,100047.0,100235.0,100315.0,0.05225753256675183,-0.1778780524986519,0.05372757524116417,-0.10546755514199933,0.007189360101146042
88,88,100988.24167823832,1171.56509030585,8.601573451986745,101085.12330450072,-4097.210265362773,11.922421662402026,101105.62469429376,21567.044284900185,8.753752978538937,101129.65561785288,-4753.125567043222,17.8357578060484,101381.95493158196,7244.144620308282,31.652266923283204,0.9629201834959988,96.0,72.0,78.0,272.0,350.0,24.0,1100.0,1105.0,24.0,12.0,12.0,0.5,60.71108444454224,1088.3745721612736,17.0,14.0,3.0,0.8235294117647058,685.6669234220752,4694.978170350001,19.0,10.0,9.0,0.5263157894736842,1172.7299983722207,17666.263970995737,27.0,7.0,20.0,0.2592592592592592,525.4385166381967,10660.930536063675,80.0,40.0,40.0,0.5,48.19650735020047,7571.972508523392,0.0,0.0,0.0,0.0,100976.0,101000.0,101072.0,101088.0,101096.0,101115.0,101123.0,101150.0,101342.0,101422.0,0.051820496314628955,-0.16734970358211904,0.05437601846968379,-0.11054589432297628,0.0066531674719864185
89,89,102043.76557948292,805.8740659112196,6.101371188404125,102139.972626301,-3467.0725110087315,17.835757806047866,102160.55539243022,19799.981317640515,8.208528008522515,102185.54796540084,-4400.33511421367,15.28779240518434,102436.05489003038,7557.300863281387,32.67024972734524,0.9426681233729532,91.0,73.0,79.0,272.0,351.0,18.0,1056.0,1054.0,18.0,9.0,9.0,0.5,59.74529789141214,702.6665703682402,18.0,14.0,4.0,0.7777777777777778,640.0856962455841,3710.966251835702,19.0,10.0,9.0,0.5263157894736842,1102.4373300425757,15490.473477559626,30.0,9.0,21.0,0.3,415.6192760752435,8673.946624798347,83.0,41.0,42.0,0.4939759036144578,57.05661787543359,7899.549927079475,0.0,0.0,0.0,0.0,102035.0,102053.0,102126.0,102144.0,102151.0,102170.0,102177.0,102205.0,102396.0,102477.0,0.07413726339965639,-0.18461849131022462,0.05567870556829135,-0.09445173271752366,0.007549867195661647
90,90,103009.7220133468,1211.0726239000287,8.25700643463037,103104.54796540084,-4071.8363635499218,10.36511019304796,103125.4156952486,20517.23511735453,8.799996899279742,103147.17604902484,-4863.858460806705,15.287792405178216,103397.91164891694,7557.262903702495,31.74712744000708,0.9505274651945402,93.0,71.0,75.0,271.0,346.0,22.0,966.0,965.0,22.0,11.0,11.0,0.5,62.28473441268708,1135.1944032079402,17.0,14.0,3.0,0.8235294117647058,688.8288734281334,5057.416182426775,20.0,10.0,10.0,0.5,1150.4144013329214,17944.44385406894,26.0,5.0,21.0,0.1923076923076923,634.4799264232792,12015.1117146116,80.0,40.0,40.0,0.5,55.96442107850907,7848.595851919809,0.0,0.0,0.0,0.0,102999.0,103021.0,103092.0,103108.0,103115.0,103135.0,103142.0,103167.0,103360.0,103438.0,0.051429396704642666,-0.16916909520096637,0.05607063499310597,-0.13044785976729392,0.007405382317861494
91,91,104048.4200380123,820.5694060405981,6.312811532053126,104144.54796540084,-3854.972006812604,13.55641683403522,104165.42057320714,21928.53697982873,8.738145394802205,104187.4823859945,-4792.271217498472,17.8357578060484,104440.77834510629,7699.726592611216,32.05195634944087,0.9528177662483484,92.0,73.0,78.0,272.0,350.0,19.0,1038.0,1041.0,19.0,9.0,10.0,0.4736842105263157,56.44441098406104,764.980369252263,18.0,15.0,3.0,0.8333333333333334,694.5740684265365,4923.318753952875,19.0,9.0,10.0,0.4736842105263157,1159.1295744526738,18255.79245811159,28.0,5.0,23.0,0.1785714285714285,649.5788515868074,12335.486562209742,81.0,41.0,40.0,0.5061728395061729,57.430599709022864,8020.307942654052,0.0,0.0,0.0,0.0,104039.0,104058.0,104131.0,104148.0,104156.0,104175.0,104182.0,104209.0,104401.0,104481.0,0.06878688209497835,-0.18017616397708405,0.05285941216775726,-0.13554718047153486,0.007458784285163347
92,92,105112.17581881292,1352.0417140111124,10.296827856462418,105207.54796540084,-3939.6664406808186,8.818978026863842,105229.52775704846,20920.988443976148,8.825683431479911,105250.20609694008,-4724.099056144896,15.28779240517469,105502.12201234535,7795.5085018225855,36.141146069687714,0.9584859323622016,96.0,70.0,74.0,276.0,350.0,26.0,1066.0,1063.0,27.0,13.0,14.0,0.4814814814814814,57.89638510050885,1352.7465077080346,17.0,13.0,4.0,0.7647058823529411,670.2590603860228,4565.72341121693,20.0,11.0,9.0,0.55,1167.0829329318028,17190.986318280356,27.0,4.0,23.0,0.1481481481481481,680.336485635192,12311.457195755353,90.0,45.0,45.0,0.5,51.55803122680785,8155.188564452141,0.0,0.0,0.0,0.0,105100.0,105126.0,105196.0,105211.0,105219.0,105239.0,105246.0,105270.0,105459.0,105546.0,0.042821448850677256,-0.17013091602501113,0.05578526731932903,-0.14401401781578665,0.006613812455563818
93,93,106131.4240538762,1125.9214191315243,9.001506067711787,106227.54796540084,-4050.5158734382712,9.788567097000543,106248.97244456138,20690.076158798925,8.831730823125893,106270.54634998189,-4799.181159826683,15.287792405165808,106521.74699841117,7824.646506295696,34.96940267384185,0.9547516467823738,96.0,72.0,76.0,273.0,349.0,24.0,1019.0,1020.0,24.0,12.0,12.0,0.5,53.691113063014534,1099.447573131415,18.0,14.0,4.0,0.7777777777777778,683.7537802283572,4790.88037004664,20.0,10.0,10.0,0.5,1159.7497751844685,17694.062955558336,25.0,5.0,20.0,0.2,615.0216254879646,11739.254956145627,86.0,43.0,43.0,0.5,57.36216342857078,8268.825284631868,0.0,0.0,0.0,0.0,106119.0,106143.0,106215.0,106231.0,106239.0,106259.0,106266.0,106291.0,106480.0,106564.0,0.04768637682053246,-0.1688065919484854,0.056053431910218394,-0.12815136686987982,0.007330959089642873
94,94,107139.7759056456,1196.4293090028714,9.088698904783096,107235.22589150538,-3881.4709912796698,8.784856043359763,107256.96868570712,20840.42178941561,8.821410433816226,107277.45203459937,-4761.28572677481,15.287792405135734,107530.11155937365,7839.337392953226,33.895365696599,0.9467025226696386,96.0,72.0,73.0,275.0,348.0,24.0,1009.0,1008.0,24.0,12.0,12.0,0.5,53.11393697301927,1146.4386644875017,15.0,11.0,4.0,0.7333333333333333,642.2628467963311,4121.559920185773,19.0,10.0,9.0,0.5263157894736842,1165.00514827033,17700.71547201435,27.0,4.0,23.0,0.1481481481481481,695.3211256312155,12440.899045014405,85.0,42.0,43.0,0.4941176470588235,59.4923537615837,8226.462311669584,0.0,0.0,0.0,0.0,107128.0,107152.0,107224.0,107239.0,107247.0,107266.0,107274.0,107297.0,107489.0,107572.0,0.04439371099767316,-0.16546892872296992,0.055901226954149764,-0.1460364207342395,0.007588951818180619
95,95,108067.87030801288,1519.2394041199343,10.711591748167296,108161.07901286056,-3125.702792144236,8.030185613311673,108183.6877201047,18955.285353955613,8.345713018123451,108204.027373699,-4234.456399858553,17.835757805935074,108456.68483389584,7555.457796104531,34.24707314734115,0.9498380837761032,97.0,70.0,76.0,271.0,347.0,27.0,929.0,926.0,28.0,14.0,14.0,0.5,60.91939282127565,1446.7170414988077,15.0,10.0,5.0,0.6666666666666666,536.3407401081229,2836.238802942858,19.0,10.0,9.0,0.5263157894736842,1070.8079192129237,15036.066634984963,29.0,4.0,25.0,0.1379310344827586,621.9499861449926,11519.624168312786,87.0,45.0,42.0,0.5172413793103449,49.82673461073082,7756.7846042799265,0.0,0.0,0.0,0.0,108054.0,108081.0,108151.0,108166.0,108174.0,108193.0,108200.0,108227.0,108414.0,108498.0,0.040098612934914665,-0.17159044726072387,0.05649125820147393,-0.14687835401157234,0.006594800203426543
96,96,108943.8367709733,405.4642554582981,4.013819473970773,109038.1561691193,-4128.7397286685855,17.8357578060484,109059.48226115666,21128.45148392494,8.40173980919497,109085.972626301,-5204.2990095121095,17.8357578060484,109332.2692264662,7278.39565473611,29.467933203247505,0.9371675010058216,86.0,74.0,83.0,263.0,346.0,12.0,875.0,876.0,13.0,7.0,6.0,0.5384615384615384,64.76748316426296,295.16682303928235,19.0,14.0,5.0,0.7368421052631579,632.8469214805323,2874.104492164172,19.0,9.0,10.0,0.4736842105263157,1139.9774920476789,17071.37229209352,32.0,10.0,22.0,0.3125,404.0541748076618,9046.179415477767,77.0,38.0,39.0,0.4935064935064935,51.1366508730907,7458.343161197921,0.0,0.0,0.0,0.0,108938.0,108950.0,109024.0,109043.0,109050.0,109069.0,109076.0,109107.0,109295.0,109370.0,0.15973660388646582,-0.15327847311039136,0.05395461626305187,-0.07763853961295374,0.0070258135582139825
97,97,109944.45302610594,874.9761484840019,6.827297132192171,110040.54796540084,-3700.369111968743,14.23556642805589,110061.65044539614,21780.248738904524,8.646129633961998,110085.11445280373,-4856.916637648054,17.8357578060484,110335.76580260372,7301.369610640928,31.063722933308625,0.9485036666279404,93.0,74.0,78.0,269.0,347.0,19.0,1001.0,1003.0,20.0,9.0,11.0,0.45,54.57710725135371,830.5757342515548,18.0,15.0,3.0,0.8333333333333334,679.5482061088253,4715.03166958117,19.0,10.0,9.0,0.5263157894736842,1163.9891089528012,17229.2626469023,27.0,6.0,21.0,0.2222222222222222,571.0931637129454,11473.640804670811,80.0,40.0,40.0,0.5,51.0359231985607,7468.277933349816,0.0,0.0,0.0,0.0,109935.0,109954.0,110028.0,110044.0,110052.0,110071.0,110079.0,110106.0,110296.0,110375.0,0.062375537145686666,-0.18364335706695994,0.05344241578259157,-0.11758348069764182,0.006989910923586386
98,98,111028.80885022377,918.1789490654004,7.13369599972828,111124.54796540084,-3952.549406682295,14.70613230848016,111145.3675872392,22276.310861317255,8.715523798328498,111167.75886559744,-4827.651481512985,17.8357578060484,111419.25118548366,7588.723872988235,33.1226470595762,0.9379418357723852,92.0,72.0,78.0,272.0,350.0,20.0,1083.0,1083.0,20.0,10.0,10.0,0.5,56.81472881885679,872.8357167392712,19.0,16.0,3.0,0.8421052631578947,705.8441633439962,5005.500763913801,19.0,9.0,10.0,0.4736842105263157,1171.0658161174802,18338.225059186836,27.0,6.0,21.0,0.2222222222222222,602.4668171026492,11870.696797319535,85.0,42.0,43.0,0.4941176470588235,50.72724563046947,7891.520914746732,0.0,0.0,0.0,0.0,111019.0,111039.0,111111.0,111128.0,111136.0,111155.0,111162.0,111189.0,111378.0,111461.0,0.06187762078044546,-0.17857946624289517,0.05257000691936977,-0.12479501045378616,0.006684555464065719
99,99,112090.82316354796,706.7626060944193,5.736577441667119,112186.54796540084,-3794.009213352978,15.287792405066613,112207.1656145146,19991.00950752837,8.303177084006032,112233.4800291072,-4711.0672094362,17.83575780604798,112482.3459789051,7250.567706382997,32.024466848179365,0.937277431991867,91.0,74.0,82.0,268.0,350.0,17.0,1063.0,1062.0,18.0,9.0,9.0,0.5,57.96517289365588,650.0434581207237,19.0,15.0,4.0,0.7894736842105263,651.8186843236087,4043.237717877935,19.0,9.0,10.0,0.4736842105263157,1113.6329384214232,16356.979004896646,32.0,9.0,23.0,0.28125,405.30513419266094,8954.878159684726,85.0,43.0,42.0,0.5058823529411764,61.30880621203687,7554.986628739392,0.0,0.0,0.0,0.0,112082.0,112099.0,112173.0,112190.0,112198.0,112217.0,112224.0,112255.0,112442.0,112523.0,0.08201505341938263,-0.1718020826173904,0.055706688449227264,-0.08603255189839801,0.008455724943863914
100,100,113032.08366584811,1197.3835821059672,8.086214389698172,113125.97262629685,-3620.319227381266,10.469252379587315,113146.88599058049,19289.57974662387,8.5038419184694,113170.05634784326,-4482.88960178594,17.835757800211848,113418.92859773817,7375.301029956616,32.11089632140514,0.9505942673961656,93.0,71.0,79.0,266.0,345.0,22.0,941.0,940.0,22.0,11.0,11.0,0.5,60.92894201039999,1123.0631355176097,17.0,13.0,4.0,0.7647058823529411,616.824098905608,3850.263034510244,19.0,10.0,9.0,0.5263157894736842,1087.408283601863,15890.58247721045,30.0,7.0,23.0,0.2333333333333333,529.1674432684205,10608.16458739985,83.0,42.0,41.0,0.5060240963855421,55.51516869579324,7684.316973436039,0.0,0.0,0.0,0.0,113021.0,113043.0,113114.0,113130.0,113137.0,113156.0,113163.0,113193.0,113379.0,113459.0,0.05088506550527252,-0.1703783727800666,0.05637283434296619,-0.11804159599594094,0.0075271732598174105
101,101,114026.95834697117,1602.7154186478442,10.524856269244024,114122.82596845413,-3875.9087968027657,9.13521202385949,114144.69416121756,20830.454101128675,8.780726803253383,114166.027373699,-4278.459157667023,15.482325359793068,114418.46228209916,7909.691134205128,33.97641537411687,0.9613480501343444,97.0,70.0,72.0,276.0,348.0,27.0,994.0,997.0,27.0,13.0,14.0,0.4814814814814814,67.38249078356786,1599.2985606786865,16.0,12.0,4.0,0.75,659.3855996953811,4404.473514740736,20.0,11.0,9.0,0.55,1164.142021445006,17731.83016530033,24.0,4.0,20.0,0.1666666666666666,650.7000170875136,11637.72765785098,83.0,41.0,42.0,0.4939759036144578,60.414930789530565,8365.186726834021,0.0,0.0,0.0,0.0,114014.0,114041.0,114111.0,114127.0,114134.0,114154.0,114162.0,114183.0,114378.0,114459.0,0.04204270452480962,-0.17012412682138128,0.0558865407250977,-0.15208746726527833,0.00763808975147825
102,102,115085.10445512242,1147.7123976445273,8.18349884821595,115180.16439603838,-3664.999358469442,7.874148354546297,115202.86018677588,21351.953003952935,8.690055832469973,115224.027373699,-4316.4722719919655,16.760633744990155,115476.4763353316,7801.42091016892,34.188496345632764,0.9620030888853344,97.0,73.0,73.0,275.0,348.0,24.0,1058.0,1058.0,24.0,12.0,12.0,0.5,62.04753409873128,1086.742195278227,16.0,11.0,5.0,0.6875,623.2756396787248,3606.203641457765,20.0,11.0,9.0,0.55,1175.9620931409015,18066.73537270959,25.0,4.0,21.0,0.16,664.6411380585679,11961.101176172097,86.0,43.0,43.0,0.5,57.31401479059993,8224.189356700535,0.0,0.0,0.0,0.0,115073.0,115097.0,115170.0,115184.0,115192.0,115212.0,115220.0,115243.0,115435.0,115518.0,0.05406191849636952,-0.17006159584677633,0.05507515368374935,-0.15397785417763132,0.0073466122967282554
103,103,116081.60652879073,1077.3792641275902,7.178341988722265,116175.54796540068,-3720.482569746984,15.287792405178442,116195.92544101096,19825.711554153455,8.336615528494075,116221.1263870104,-4812.272196228915,17.835757806018453,116468.64217745385,7847.789100665607,34.02694384399684,0.9408876532277782,91.0,70.0,81.0,268.0,349.0,21.0,998.0,994.0,22.0,11.0,11.0,0.5,62.615225239340134,891.961196045319,20.0,16.0,4.0,0.8,644.7566727461457,4215.466900735408,18.0,9.0,9.0,0.5,1094.551368996303,15628.218240169988,32.0,9.0,23.0,0.28125,442.59547437544205,9541.199464148363,86.0,43.0,43.0,0.5,52.02679479502376,8258.625642892932,0.0,0.0,0.0,0.0,116071.0,116092.0,116162.0,116179.0,116187.0,116205.0,116212.0,116243.0,116428.0,116511.0,0.058118090188085184,-0.17329920532055956,0.055208680203308824,-0.09197224436354144,0.006629484320700097
104,104,116971.1145537952,1801.839967449173,9.635256930998809,117063.0843684414,-3593.9463169403157,8.766057559409358,117084.7470309522,19131.96960196772,8.575520978393262,117105.81800708828,-4592.518880767494,15.28779240515392,117356.315206134,7796.341196439566,33.58979510233489,0.9662681461957046,94.0,67.0,74.0,270.0,344.0,27.0,890.0,888.0,27.0,13.0,14.0,0.4814814814814814,79.70983028837641,1674.3754156297623,16.0,12.0,4.0,0.75,607.320639213181,3664.1407994562646,19.0,10.0,9.0,0.5263157894736842,1097.9210727521747,15805.2700212471,26.0,5.0,21.0,0.1923076923076923,608.0119991853586,11452.054833785252,82.0,41.0,41.0,0.5,63.07278196805852,8308.420469171224,0.0,0.0,0.0,0.0,116958.0,116985.0,117052.0,117067.0,117075.0,117094.0,117101.0,117126.0,117317.0,117396.0,0.0442380187632423,-0.16898433801042964,0.05738672471229798,-0.13239183440956234,0.008090048957434367
105,105,117951.83838076788,1702.4546579909988,9.961364193709954,118045.54796540084,-4062.098646700811,10.525280846496583,118066.60512886792,20888.86523134089,8.84568338460744,118088.77195372326,-4756.949927506035,15.28779240495769,118338.43211187406,8121.307893144964,34.506780421216284,0.9607426165161456,94.0,68.0,75.0,272.0,347.0,26.0,980.0,982.0,26.0,13.0,13.0,0.5,67.2018108474209,1615.2445323446896,18.0,15.0,3.0,0.8333333333333334,694.1586279056705,5147.690059616224,19.0,10.0,9.0,0.5263157894736842,1164.1279879271815,17457.000211960032,25.0,5.0,20.0,0.2,606.7367997721977,11625.52998989155,86.0,43.0,43.0,0.5,56.69317307085645,8626.36067685409,0.0,0.0,0.0,0.0,117939.0,117965.0,118033.0,118049.0,118057.0,118076.0,118084.0,118108.0,118297.0,118380.0,0.0394734805605473,-0.1708866987928661,0.05572959445305657,-0.12754744300835988,0.006980793465386289
106,106,119084.79501626232,1630.3898891629383,13.491621732853709,119182.82978679014,-3731.504288132668,7.731263364290986,119204.9411180752,20950.587208326895,8.817603424921193,119226.027373699,-4185.510639126229,13.496731307947565,119476.97894130596,7815.320026360012,35.41081944511916,0.9492550017061864,101.0,71.0,71.0,277.0,348.0,30.0,1135.0,1138.0,30.0,14.0,16.0,0.4666666666666667,61.82109510277969,1728.029074908049,15.0,11.0,4.0,0.7333333333333333,665.5247096210712,4770.162936450442,21.0,11.0,10.0,0.5238095238095238,1182.6280152003203,18637.641258163138,22.0,4.0,18.0,0.1818181818181818,662.9834096993238,11597.571968623466,89.0,44.0,45.0,0.4943820224719101,60.88989402850945,8326.181149120279,0.0,0.0,0.0,0.0,119071.0,119101.0,119172.0,119186.0,119194.0,119215.0,119222.0,119243.0,119436.0,119520.0,0.037917982387954685,-0.17835292638886804,0.056448442396415506,-0.15839964746517257,0.007791094136022084
107,107,120134.24518198847,1314.294831664932,8.43577758834533,120229.54796540084,-3578.169745457534,10.564843595434922,120250.75966879274,19691.812127179994,8.628990973812728,120270.45203460104,-4531.8408471799585,15.287792397012886,120523.35076693902,8034.314562959334,36.74381205690545,0.939988804115404,94.0,70.0,71.0,279.0,350.0,24.0,1047.0,1046.0,24.0,11.0,13.0,0.4583333333333333,66.9127074776538,1210.3282155884224,18.0,14.0,4.0,0.7777777777777778,633.5097886160372,4525.875203815076,19.0,10.0,9.0,0.5263157894736842,1098.6081060553706,16000.34278731948,28.0,3.0,25.0,0.1071428571428571,690.5683895139832,11903.435597162928,90.0,45.0,45.0,0.5,56.44158050126301,8598.003450581196,0.0,0.0,0.0,0.0,120123.0,120147.0,120217.0,120233.0,120241.0,120260.0,120267.0,120288.0,120480.0,120567.0,0.05091148946609615,-0.1770485565756835,0.055790096866656376,-0.1523814301518786,0.007025064809072337
108,108,0.0,0.0,0.0,0.0,0.0,0.0,0.0,0.0,0.0,0.0,0.0,0.0,0.0,0.0,0.0,0.0,0.0,0.0,0.0,0.0,0.0,0.0,0.0,0.0,0.0,0.0,0.0,0.0,0.0,0.0,0.0,0.0,0.0,0.0,0.0,0.0,0.0,0.0,0.0,0.0,0.0,0.0,0.0,0.0,0.0,0.0,0.0,0.0,0.0,0.0,0.0,0.0,0.0,0.0,0.0,0.0,0.0,0.0,,120847.0,121165.0,121187.0,121194.0,121212.0,121219.0,121252.0,121442.0,121514.0,,,,,
109,109,122155.98758524166,1987.9549055981288,12.971858425223685,122250.20139964324,-3601.856133005073,7.618493486007808,122272.54528953206,21019.549588425263,8.823949982078968,122293.45203459916,-4075.0952462227606,13.912128235021822,122545.26129777904,8193.25694077257,35.58973150598202,0.966091479184962,100.0,67.0,70.0,278.0,348.0,33.0,2023.0,2022.0,33.0,16.0,17.0,0.4848484848484848,66.9761771841209,1956.1968261417849,15.0,11.0,4.0,0.7333333333333333,639.5419854123699,4246.894598607211,20.0,11.0,9.0,0.55,1172.4979516428184,18029.73588000409,24.0,3.0,21.0,0.125,688.7521999219613,11689.254817614385,87.0,43.0,44.0,0.4942528735632184,55.33029665847568,8684.521021514109,0.0,0.0,0.0,0.0,122140.0,122173.0,122240.0,122254.0,122262.0,122282.0,122290.0,122310.0,122503.0,122588.0,0.03369099419484535,-0.1775590034127188,0.055781307145062346,-0.16901499432691086,0.006753150433148555
110,110,123260.9988155909,1467.655507677058,8.344396603993845,123354.54796540084,-4117.073955861157,10.670491388969356,123375.43399141972,21790.766445119105,8.881291797064094,123397.58440226108,-4766.869687892763,17.83575780581322,123650.55243473491,7785.829439866659,32.988333459795726,0.9518698928692844,92.0,69.0,77.0,273.0,350.0,23.0,1103.0,1103.0,23.0,11.0,12.0,0.4782608695652174,73.74124793251914,1393.8501483524462,18.0,15.0,3.0,0.8333333333333334,705.946540281216,5285.065046164168,20.0,10.0,10.0,0.5,1174.5886697500816,18758.88772097659,26.0,5.0,21.0,0.1923076923076923,615.8234106348341,11842.998809391844,83.0,42.0,41.0,0.5060240963855421,54.94403842864416,8109.73582828615,0.0,0.0,0.0,0.0,123250.0,123273.0,123342.0,123358.0,123365.0,123385.0,123393.0,123419.0,123611.0,123692.0,0.05024424842668537,-0.1714680250706245,0.05390304525122276,-0.12918822014349302,0.0070569280836423175
111,111,124316.4802910783,1620.2723876384352,10.849404108474571,124408.80032723027,-3516.243407255035,8.464712270424208,124431.20288634008,19478.913720572193,8.517004085268285,124451.66938535956,-4539.693334426874,17.835757805982762,124702.99496936383,7768.505148674613,35.08890842579606,0.9545890169896488,94.0,67.0,77.0,271.0,348.0,27.0,1058.0,1056.0,29.0,13.0,16.0,0.4482758620689655,65.60803953674342,1586.366467211916,16.0,11.0,5.0,0.6875,587.5734414887231,3027.068463308573,19.0,10.0,9.0,0.5263157894736842,1094.9484981537762,16140.789225578284,30.0,5.0,25.0,0.1666666666666666,616.7262491577536,11701.384314140549,89.0,45.0,44.0,0.5056179775280899,54.71170646775415,8174.106964826839,0.0,0.0,0.0,0.0,124304.0,124331.0,124398.0,124413.0,124421.0,124440.0,124447.0,124475.0,124662.0,124746.0,0.04049198149477068,-0.16710260736682445,0.05621198973725995,-0.13585196261624002,0.007042758602932577
112,112,125232.40940481237,1347.4644296401298,8.624626544977682,125325.54796540084,-3619.346781015365,15.28779240518434,125345.89750370686,19196.257582994593,8.321010308621096,125370.54796540084,-4632.273166127616,15.28779240518434,125618.33542827592,7252.772666290165,32.32138110686264,0.9519493978279684,91.0,68.0,79.0,267.0,346.0,23.0,913.0,915.0,23.0,11.0,12.0,0.4782608695652174,62.14486770449127,1352.1556853681172,19.0,16.0,3.0,0.8421052631578947,640.4843153641608,4364.930227290792,19.0,10.0,9.0,0.5263157894736842,1077.5947990288212,15556.478308328424,30.0,9.0,21.0,0.3,435.226308822365,8967.639577021295,84.0,42.0,42.0,0.5,55.99050608653694,7678.707759289488,0.0,0.0,0.0,0.0,125221.0,125244.0,125312.0,125329.0,125336.0,125355.0,125362.0,125391.0,125578.0,125658.0,0.04611985766562197,-0.1769613010623095,0.05613567094366514,-0.09395523390219143,0.007719876061574725
113,113,126157.1526113489,1932.2017412408863,10.85232545358059,126249.02360950352,-3696.3601265896505,8.736641422698241,126271.40975243977,21483.25830914152,8.76401148654845,126292.027373699,-4648.885678975745,17.835757806045972,126542.6043950272,7958.58340566968,34.59303459277678,0.9619523711842682,95.0,65.0,74.0,273.0,347.0,30.0,925.0,925.0,30.0,14.0,16.0,0.4666666666666667,67.50469308401422,1938.784635559825,15.0,11.0,4.0,0.7333333333333333,635.9592537721857,3751.432566452343,20.0,10.0,10.0,0.5,1170.900705692092,18443.96894184385,27.0,4.0,23.0,0.1481481481481481,685.7375126982796,12556.184365439762,85.0,43.0,42.0,0.5058823529411764,54.719847423531455,8422.585499302957,0.0,0.0,0.0,0.0,126143.0,126173.0,126238.0,126253.0,126261.0,126281.0,126288.0,126312.0,126501.0,126585.0,0.0349366692117055,-0.17205013364294044,0.054502938466920184,-0.1475057809658514,0.006875576297227612
114,114,127232.28764448232,962.9823807690652,6.192469650741688,127324.972626301,-4027.039993533501,13.62186533832485,127346.35726240205,22606.566309685903,8.824270376448379,127367.027373699,-4985.84087636434,17.8357578060484,127620.0260841114,7775.845791256335,34.046711446073076,0.9388878879331708,89.0,70.0,76.0,275.0,351.0,19.0,1075.0,1075.0,19.0,9.0,10.0,0.4736842105263157,64.44778207807526,871.7531892033445,18.0,14.0,4.0,0.7777777777777778,682.6257775312359,4048.208544978368,20.0,10.0,10.0,0.5,1185.7171385424515,18616.684960768187,28.0,4.0,24.0,0.1428571428571428,704.1581938744935,12843.148000667525,88.0,44.0,44.0,0.5,55.98887921331758,8040.793406900126,0.0,0.0,0.0,0.0,127223.0,127242.0,127312.0,127329.0,127336.0,127356.0,127363.0,127388.0,127578.0,127663.0,0.06692519340447893,-0.16951055331642492,0.05245012100906385,-0.14123158186066367,0.007200358741202803
115,115,129124.30693612584,2283.705281451192,14.251995273413357,129217.12084486776,-3311.50856270405,7.104232740377357,129239.3630685614,19966.089433220437,8.568818320705457,129260.02737369902,-4261.549165784748,15.596000325295185,129506.83551209555,8126.71860006531,37.38981430871898,0.9567688324062964,99.0,65.0,74.0,270.0,344.0,34.0,1894.0,1893.0,35.0,17.0,18.0,0.4857142857142857,62.274951162090225,2393.7289176241657,14.0,10.0,4.0,0.7142857142857143,599.740858840517,3876.547741278028,20.0,10.0,10.0,0.5,1125.4200565903116,17410.24826575965,26.0,4.0,22.0,0.1538461538461538,632.5761373563666,11668.081579124726,93.0,47.0,46.0,0.5053763440860215,58.33520634502489,8563.527544841556,0.0,0.0,0.0,0.0,129108.0,129142.0,129207.0,129221.0,129229.0,129249.0,129256.0,129281.0,129462.0,129551.0,0.0272692591587463,-0.18110805014823572,0.05636657395302404,-0.14843807093326827,0.007178199371214365
116,116,130148.2016785289,1667.739062108455,9.76561996847428,130239.54796540082,-3742.977521996684,8.344598612713417,130261.82087310244,21225.84268311252,8.875375318808317,130282.45203459916,-4434.841727504968,15.287792403863918,130536.01364128328,7846.433939612865,34.59436717347215,0.9668439012802832,94.0,67.0,74.0,275.0,349.0,27.0,1025.0,1022.0,27.0,13.0,14.0,0.4814814814814814,71.36084872230175,1588.9530486984231,16.0,12.0,4.0,0.75,664.158876301233,4791.410628962396,20.0,11.0,9.0,0.55,1172.975856244704,18093.688260760235,26.0,3.0,23.0,0.1153846153846153,693.3045054887777,12133.93777773943,86.0,43.0,43.0,0.5,53.0646824030888,8155.604200522152,0.0,0.0,0.0,0.0,130135.0,130162.0,130229.0,130243.0,130251.0,130271.0,130279.0,130303.0,130494.0,130578.0,0.04278897721090919,-0.17744132108678515,0.05526168613215693,-0.15633128487740403,0.0067629043730542075
117,117,131280.77514420904,2059.9135531982847,14.76966210253074,131374.4565224996,-3668.737076885971,7.360677656558408,131396.69233087264,20240.97590659208,8.736945667354075,131418.02737369903,-4079.803591803759,12.386052572477984,131667.41085119543,7956.810407048899,38.9416858157611,0.9580789808850576,97.0,65.0,69.0,280.0,349.0,32.0,1131.0,1135.0,33.0,15.0,18.0,0.4545454545454545,68.79277649413511,2258.8757851097935,14.0,10.0,4.0,0.7142857142857143,629.6845476808608,3868.5300720013374,20.0,11.0,9.0,0.55,1166.6468638472347,17927.823718169275,20.0,4.0,16.0,0.2,646.2006025477907,11192.98940850683,96.0,48.0,48.0,0.5,55.88706842051312,8452.842948384758,0.0,0.0,0.0,0.0,131267.0,131299.0,131364.0,131378.0,131386.0,131406.0,131414.0,131433.0,131623.0,131713.0,0.03339595313955061,-0.17163523427395289,0.057637876218571124,-0.1583901254084864,0.007023802951368936
118,118,132264.3898872432,2154.120458536543,12.990620694088094,132357.51001286547,-3042.112495238001,6.8998824280253945,132379.38978734447,18168.416585844836,8.401905015929907,132399.45203459918,-3850.637008399614,12.494216222380402,132648.8571519424,8268.15402547422,40.23118700792245,0.9432141873571414,98.0,68.0,65.0,282.0,347.0,30.0,985.0,983.0,32.0,15.0,17.0,0.46875,75.88266010080652,2228.6548434473343,14.0,11.0,3.0,0.7857142857142857,596.0738976904909,4428.132357019391,20.0,10.0,10.0,0.5,1071.1142173071098,16402.983309477604,21.0,4.0,17.0,0.1904761904761904,642.5017964325518,10941.87297009287,94.0,46.0,48.0,0.4893617021276595,63.63684404968926,9039.593753624682,0.0,0.0,0.0,0.0,132250.0,132280.0,132348.0,132361.0,132369.0,132389.0,132396.0,132413.0,132606.0,132695.0,0.03522674871783138,-0.19594078083028182,0.05895473676784931,-0.1668559760452689,0.007696620533872961
119,119,133154.21172238592,1307.732528455586,8.72352249769096,133246.56559547447,-4522.918043915225,17.8357578060484,133267.99123884225,21421.432339942545,8.462739448958226,133295.39728720114,-6000.661006600231,20.383723206912453,133541.8710172402,7467.610200366421,28.39602281169727,0.9188707941323084,90.0,65.0,89.0,257.0,346.0,25.0,887.0,889.0,25.0,12.0,13.0,0.48,57.86290867810442,1242.0469304392138,21.0,16.0,5.0,0.7619047619047619,659.0035597634239,2734.5793256754664,18.0,9.0,9.0,0.5,1148.5963876212554,15921.34784898885,40.0,11.0,29.0,0.275,373.6476035087741,9400.326106444998,74.0,38.0,36.0,0.5135135135135135,62.39554884898707,7648.875827619306,0.0,0.0,0.0,0.0,133142.0,133167.0,133232.0,133252.0,133259.0,133277.0,133284.0,133321.0,133505.0,133578.0,0.04424674573663753,-0.14570318395443735,0.05361902833544772,-0.062267740686866434,0.008355490869880359
120,120,134268.3428556155,1494.5992103202018,9.426086843459547,134361.54796540082,-4121.927371902831,9.757425747399806,134383.34161821817,20902.090262386333,8.76635613859891,134407.0077735701,-4623.174145221604,15.287792405160712,134658.86143367545,7770.7167639705885,33.68111149874837,0.9627540795733192,94.0,68.0,75.0,275.0,350.0,26.0,1116.0,1115.0,26.0,12.0,14.0,0.4615384615384615,63.921236429537366,1437.7709086377604,17.0,13.0,4.0,0.7647058823529411,684.6632691414728,4518.090774905438,20.0,10.0,10.0,0.5,1183.662828614374,18880.24948549411,24.0,6.0,18.0,0.25,559.7538826348149,10880.47583149299,85.0,43.0,42.0,0.5058823529411764,55.64652549147716,8068.054689667733,0.0,0.0,0.0,0.0,134256.0,134282.0,134350.0,134365.0,134373.0,134393.0,134401.0,134425.0,134618.0,134700.0,0.04276814545877013,-0.16610270084050693,0.056628921498075975,-0.1210756646952965,0.007161054402276729
121,121,135352.56066116728,1607.4916113275735,12.543031251772792,135446.34033571472,-3381.4286574198363,7.518702657483256,135468.77324586926,19645.66592900324,8.47695904759043,135489.02737369903,-4220.64159378401,16.10581868832097,135739.90416047748,7876.564870457586,38.17816750135046,0.9498018398307734,98.0,67.0,73.0,276.0,349.0,31.0,1083.0,1085.0,31.0,15.0,16.0,0.4838709677419355,55.66741330200803,1681.123396346595,15.0,10.0,5.0,0.6666666666666666,567.7318710418001,3153.095408572177,20.0,11.0,9.0,0.55,1111.882727044636,16195.731169713648,26.0,4.0,22.0,0.1538461538461538,651.6044198154287,11624.22867053242,93.0,46.0,47.0,0.4946236559139785,63.16052866410543,8465.757951950309,0.0,0.0,0.0,0.0,135338.0,135369.0,135436.0,135451.0,135458.0,135478.0,135485.0,135509.0,135698.0,135785.0,0.03462998681282957,-0.16789704251072443,0.05659684589276987,-0.15438515811792342,0.008018791148537338
122,122,136286.15878202612,1226.0526531022122,7.892065502824025,136381.54796540082,-3518.748047252071,15.287792398087928,136402.1536544785,19744.980399220403,8.390598896340203,136425.71295862837,-4501.652211469263,17.8357578060484,136675.00594640963,7296.464926956959,31.87346974184059,0.948680696020913,93.0,70.0,80.0,268.0,348.0,23.0,933.0,934.0,23.0,11.0,12.0,0.4782608695652174,64.16470254897811,1146.3941567394777,19.0,15.0,4.0,0.7894736842105263,634.3934208479243,4161.093922793162,19.0,9.0,10.0,0.4736842105263157,1072.5874295108863,15797.587415150056,30.0,8.0,22.0,0.2666666666666666,482.5376223561936,10004.061666388168,82.0,41.0,41.0,0.5,53.87489562007271,7530.992667963701,0.0,0.0,0.0,0.0,136275.0,136298.0,136368.0,136385.0,136393.0,136412.0,136418.0,136448.0,136636.0,136716.0,0.052334377635924335,-0.18028952693653275,0.0543220306034457,-0.10719122661826011,0.007383698292173057
123,123,137250.6498443003,1950.5227455761717,13.709895050711191,137344.82816143494,-3625.119352779848,8.020966353782358,137367.20437811065,20848.036390005684,8.767586636010565,137388.02737369903,-4522.847599872614,15.011099028017815,137638.9269214345,8121.99652005981,34.747742838104436,0.969158096193938,98.0,66.0,72.0,275.0,347.0,32.0,965.0,965.0,32.0,15.0,17.0,0.46875,66.50657576832322,2080.659347854492,15.0,11.0,4.0,0.7333333333333333,636.6704424307762,4294.919132858175,20.0,10.0,10.0,0.5,1164.1871053499212,18111.1919282194,24.0,4.0,20.0,0.1666666666666666,671.5712501591868,12049.344681111115,85.0,42.0,43.0,0.4941176470588235,54.01872282756831,8569.678428245596,0.0,0.0,0.0,0.0,137236.0,137268.0,137334.0,137349.0,137357.0,137377.0,137384.0,137406.0,137598.0,137681.0,0.034096795804694706,-0.17562744298130725,0.055841571051171976,-0.14848416519232296,0.006650916765865657
124,124,138327.38352859177,1203.920109701417,7.329342856888451,138421.54796540082,-3635.4326365237953,15.28779240518434,138442.0863897813,22671.52762338933,8.702597120485162,138463.60271279886,-4478.375093899396,20.383723206912453,138715.55252212327,7812.201251719807,34.241150573322514,0.9485923938773008,91.0,70.0,76.0,274.0,350.0,21.0,1075.0,1075.0,21.0,10.0,11.0,0.4761904761904761,67.7882914082323,1123.0665729590685,19.0,16.0,3.0,0.8421052631578947,702.9865090031825,5258.944611770442,20.0,10.0,10.0,0.5,1164.3210424422664,18077.44388126234,26.0,5.0,21.0,0.1923076923076923,642.9474013585815,12161.390185525015,87.0,44.0,43.0,0.5057471264367817,52.377443968757504,8213.580996413275,0.0,0.0,0.0,0.0,138317.0,138338.0,138408.0,138425.0,138432.0,138452.0,138459.0,138484.0,138673.0,138758.0,0.05630630376715312,-0.19337079772584617,0.051356091295810244,-0.14356711706315703,0.00670456920925161
125,125,140259.95702739997,1087.7137083889652,6.729622662502563,140352.97262630097,-3752.028521630686,17.8357578060484,140373.71309400367,20755.46774817822,8.39173560976317,140399.2525630979,-4562.256235697415,17.8357578060484,140645.5218319872,7365.354377160494,30.969081223863107,0.9446343354036002,89.0,69.0,81.0,265.0,346.0,20.0,1933.0,1932.0,20.0,10.0,10.0,0.5,73.38813404734664,999.0668664061956,19.0,15.0,4.0,0.7894736842105263,652.4875908109254,3788.309953140938,19.0,10.0,9.0,0.5263157894736842,1118.2682254594256,16128.33790238375,30.0,9.0,21.0,0.3,441.91697470013446,9317.54038413239,80.0,41.0,39.0,0.5125,61.777316014633534,7654.463925871172,0.0,0.0,0.0,0.0,140250.0,140270.0,140339.0,140357.0,140364.0,140383.0,140390.0,140420.0,140607.0,140685.0,0.06747008287322524,-0.17390262015581504,0.053878247362436814,-0.09686369021589605,0.008387555146864508
126,126,141339.83377656227,1064.4811437554326,8.098992309810736,141435.12330450068,-3966.937072269648,9.682092701103608,141456.18687357398,20680.028306956072,8.916825334891307,141478.0273736992,-4239.919845532514,13.08145398337616,141730.52629554018,7986.723355247565,35.23950796300988,0.9522506753678583,95.0,71.0,71.0,279.0,350.0,24.0,1081.0,1082.0,24.0,12.0,12.0,0.5,56.18506552755637,1002.980008677504,16.0,13.0,3.0,0.8125,677.0294336638867,4954.5504312460525,20.0,10.0,10.0,0.5,1168.440849539319,18876.769674096067,21.0,4.0,17.0,0.1904761904761904,636.5808741223901,11259.64100457565,86.0,43.0,43.0,0.5,53.00834961575753,8472.624357867711,0.0,0.0,0.0,0.0,141328.0,141352.0,141423.0,141438.0,141446.0,141466.0,141474.0,141494.0,141689.0,141773.0,0.052781644707522446,-0.1706680548064581,0.05650093085928197,-0.1501398369106288,0.006637058435350604
127,127,142173.54923028295,84.07669240037788,1.2131600911946625,142498.02737375288,-4277.004603862795,17.8357578060484,142524.68485955158,21407.30103729415,8.275361900921721,142552.39728720114,-5271.853826896704,20.383723206912453,142800.25190210683,7081.862574578247,29.30132843841735,0.9135037821538952,315.0,311.0,86.0,265.0,351.0,4.0,834.0,1068.0,4.0,2.0,2.0,0.5,17.71120043162988,1214.9039801347542,22.0,12.0,10.0,0.5454545454545454,410.0963626627599,1363.6962019558734,19.0,10.0,9.0,0.5263157894736842,1177.0235618300646,16626.873231771522,34.0,11.0,23.0,0.3235294117647059,371.7847316770402,8659.836281742604,78.0,39.0,39.0,0.5,52.7772417778289,7249.2004255646225,0.0,0.0,0.0,0.0,142172.0,142176.0,142487.0,142508.0,142515.0,142534.0,142541.0,142573.0,142763.0,142838.0,0.21065529489776025,-0.09588401244468607,0.054982342696052386,-0.07052257970056287,0.007452452122875597
128,128,143417.06911123468,869.0040720376466,5.895584563520956,143510.97262630097,-3575.883917655851,12.1485371317269,143531.82081965124,19435.115388158258,8.462536102524615,143554.47899783606,-4597.300339643546,17.8357578060484,143805.95888928688,7523.383904475814,32.48160878676284,0.927830519488504,89.0,72.0,80.0,268.0,348.0,17.0,1243.0,1008.0,17.0,8.0,9.0,0.4705882352941176,64.87739538851311,804.0979013330677,17.0,13.0,4.0,0.7647058823529411,609.8263158619011,3685.48100414535,19.0,10.0,9.0,0.5263157894736842,1081.262333283785,15549.357653846835,30.0,6.0,24.0,0.2,568.6030928688032,11317.62788663337,82.0,41.0,41.0,0.5,58.84480326387917,7926.027728806821,0.0,0.0,0.0,0.0,143409.0,143426.0,143498.0,143515.0,143522.0,143541.0,143548.0,143578.0,143767.0,143846.0,0.07465718225737211,-0.17053862203157563,0.05563446944815126,-0.12368195481283045,0.007821587202119408
129,129,144312.7479751616,1479.459057142639,8.994541012991235,144405.97262630097,-3261.221302071533,17.835757805633847,144427.42114226802,20830.24892673492,8.337036799566693,144452.27002351894,-4478.69803162819,17.8357578060484,144699.76439526293,7802.411841989121,32.04640521847694,0.9553528919831112,93.0,68.0,80.0,266.0,346.0,25.0,896.0,895.0,25.0,13.0,12.0,0.52,66.49266694327773,1431.0100203992768,17.0,13.0,4.0,0.7647058823529411,630.453597361501,3505.494301700586,19.0,9.0,10.0,0.4736842105263157,1124.9386691608038,17085.41057425482,29.0,8.0,21.0,0.2758620689655172,479.59521075439744,9893.597652354816,82.0,42.0,40.0,0.5121951219512195,55.9451413313978,8132.65295498888,0.0,0.0,0.0,0.0,144300.0,144325.0,144393.0,144410.0,144418.0,144437.0,144444.0,144473.0,144660.0,144739.0,0.04494390474833328,-0.19331825073049655,0.05400505164952604,-0.10708362282242212,0.007170236904225672
130,130,145310.60080697338,671.0304255445402,5.241496317218329,145403.97262630097,-3861.9809778510785,17.83575780604236,145425.3014637563,22510.45600442434,8.6387205718954,145449.62208403516,-4807.955878868859,20.38372320686737,145698.51582091005,7388.584556049472,31.095505094974623,0.9409453680691928,87.0,71.0,82.0,266.0,348.0,16.0,998.0,998.0,16.0,8.0,8.0,0.5,62.39487642892661,553.5419439224345,19.0,15.0,4.0,0.7894736842105263,660.6621313018819,3703.786960111093,19.0,9.0,10.0,0.4736842105263157,1163.7172898961087,17884.29224450553,30.0,8.0,22.0,0.2666666666666666,500.2494858489525,10620.484374801736,80.0,40.0,40.0,0.5,52.408586935163626,7709.141317148365,0.0,0.0,0.0,0.0,145303.0,145319.0,145390.0,145408.0,145416.0,145435.0,145442.0,145472.0,145660.0,145738.0,0.09298367712357195,-0.1710681992197419,0.05169674437814075,-0.10404618895268301,0.007093183618268754
131,131,146336.31041119108,1697.9455865151829,9.949689536095171,146429.86282138602,-3813.004255611918,8.314484523735695,146452.09088646676,21153.439962352935,8.81533247512602,146472.45203459918,-4323.184648400666,15.28779220663876,146724.81088216763,7990.823476858403,35.23442755708877,0.9622364658493884,96.0,69.0,72.0,276.0,348.0,27.0,1027.0,1027.0,28.0,13.0,15.0,0.4642857142857143,67.02281032925366,1654.278372696754,16.0,12.0,4.0,0.75,652.3675783262274,4367.591211495686,20.0,10.0,10.0,0.5,1171.5355989128095,18418.913342084936,27.0,3.0,24.0,0.1111111111111111,705.0940488773929,12077.682434827442,86.0,43.0,43.0,0.5,57.84556255229648,8474.065030570611,0.0,0.0,0.0,0.0,146323.0,146350.0,146419.0,146434.0,146442.0,146462.0,146469.0,146491.0,146683.0,146767.0,0.03947288467989687,-0.17109017839832813,0.05538274630498904,-0.16309598275850598,0.007238998924180777
132,132,147373.59677967592,1855.135097525172,10.388087311517452,147465.22328152537,-3548.437746272814,8.503136005869106,147487.47138854812,18661.812958592047,8.347684431960479,147511.3204349205,-4314.647407330842,15.28779240518434,147760.6449009515,7610.413321763544,34.826267513044606,0.9621848118770956,94.0,67.0,78.0,270.0,348.0,27.0,1036.0,1035.0,27.0,13.0,14.0,0.4814814814814814,70.24129201606269,1815.7084931114305,15.0,10.0,5.0,0.6666666666666666,572.6570621318167,2974.9865847084484,19.0,9.0,10.0,0.4736842105263157,1101.4078286404451,16827.78106620023,29.0,7.0,22.0,0.2413793103448276,503.68553198075807,9952.460162785968,87.0,44.0,43.0,0.5057471264367817,49.54148101990731,7786.872938845609,0.0,0.0,0.0,0.0,147361.0,147388.0,147455.0,147470.0,147478.0,147497.0,147504.0,147533.0,147719.0,147803.0,0.03786316808396732,-0.1613828684843973,0.05901933703249063,-0.11673851520867418,0.006509696507314949
133,133,149215.073132719,1782.7755759398094,10.88703233476754,149308.1477961247,-3593.588987051772,7.719244420249276,149330.4478255536,20285.9664395567,8.714712377307444,149351.45203459918,-4261.196072033278,14.038748522890767,149600.58345164618,7541.517455767791,33.77254848578995,0.9664903221226708,96.0,68.0,70.0,275.0,345.0,28.0,1844.0,1843.0,29.0,14.0,15.0,0.4827586206896552,70.87730762227687,1732.1153186014324,15.0,11.0,4.0,0.7333333333333333,622.119205235277,4019.111431830977,20.0,10.0,10.0,0.5,1149.6685769501485,18242.052309411516,23.0,4.0,19.0,0.1739130434782608,666.0181681249173,11743.20524849588,84.0,42.0,42.0,0.5,53.8708724292788,7919.219017768071,0.0,0.0,0.0,0.0,149202.0,149230.0,149298.0,149312.0,149320.0,149340.0,149348.0,149368.0,149560.0,149643.0,0.03975671900537068,-0.17311918738533086,0.05667309863573212,-0.15629840938230266,0.007143240434732148
134,134,150358.8511054204,1723.964737258828,10.874654873328616,150451.5729160251,-3917.8730638741713,8.871138257241826,150473.9109205822,21556.396847177053,8.787314869131933,150495.33223197935,-4687.141837494606,17.83575780604729,150750.06723655705,7664.134912945426,32.107487348620076,0.9670082699766764,94.0,66.0,76.0,274.0,350.0,28.0,1141.0,1144.0,28.0,13.0,15.0,0.4642857142857143,64.66314463221063,1717.7578430802057,16.0,12.0,4.0,0.75,662.6472127067402,4179.9539628838,19.0,10.0,9.0,0.5263157894736842,1184.9777193159885,18080.110090226357,28.0,4.0,24.0,0.1428571428571428,671.2722012185056,12421.298771422811,81.0,40.0,41.0,0.4938271604938271,54.79543305982864,7894.517630847629,0.0,0.0,0.0,0.0,150346.0,150374.0,150440.0,150456.0,150464.0,150483.0,150491.0,150516.0,150711.0,150790.0,0.0375083916942684,-0.16913442623163613,0.05497104769952168,-0.1432156790837201,0.007149591399712202
135,135,151374.445300287,1453.1772130633983,8.377610917568875,151467.54796540082,-3711.535465033091,11.715201429059208,151488.21711727246,18679.35535426778,8.424880816307596,151511.72000213942,-4499.601058382555,15.28779240518434,151762.88257048553,7388.743021544596,32.50181493586264,0.9525720822934506,92.0,68.0,77.0,272.0,349.0,24.0,1017.0,1014.0,24.0,11.0,13.0,0.4583333333333333,69.2052120404714,1332.5858400889415,19.0,15.0,4.0,0.7894736842105263,627.7054411760331,4260.031247258945,19.0,9.0,10.0,0.4736842105263157,1076.3045058282237,16014.19350642585,27.0,7.0,20.0,0.2592592592592592,494.87012346758667,9911.178256745576,84.0,42.0,42.0,0.5,55.16038140874779,7744.64595343212,0.0,0.0,0.0,0.0,151363.0,151387.0,151455.0,151471.0,151479.0,151498.0,151505.0,151532.0,151723.0,151804.0,0.047623380974012114,-0.16912284608074912,0.05762000269363226,-0.10998088876027484,0.007465462156135005
136,136,152252.93841350905,1738.8508958828218,10.231378159156709,152345.97262630097,-3978.911973010291,11.748404172470146,152366.79495834542,20037.94366968259,8.585710296621041,152388.70233021356,-4711.357911140688,17.8357578060484,152637.03310109754,7811.743466881914,33.8131988540037,0.9494697720281122,94.0,66.0,79.0,266.0,345.0,28.0,878.0,879.0,29.0,14.0,15.0,0.4827586206896552,64.46504099958412,1627.730525907683,17.0,13.0,4.0,0.7647058823529411,642.7175473421581,3667.884385154687,19.0,10.0,9.0,0.5263157894736842,1108.7073115118444,16103.19438193453,29.0,6.0,23.0,0.2068965517241379,580.3796720452697,11422.286490016591,84.0,42.0,42.0,0.5,58.43652308483824,8301.95259827182,0.0,0.0,0.0,0.0,152239.0,152267.0,152333.0,152350.0,152357.0,152376.0,152383.0,152412.0,152597.0,152678.0,0.03707335755597087,-0.1615309792480538,0.05533039366655764,-0.12318734492085136,0.007480599347966478
137,137,153206.2739827004,369.3890984778233,3.611118185665825,153296.04240039506,-4146.0428368790535,17.8357578060484,153321.03197211385,21365.10141614875,8.353048085644618,153347.97262630097,-5310.855751557036,17.8357578060484,153594.04829975354,7225.322646181456,30.195551786317807,0.93236655139752,83.0,72.0,84.0,263.0,347.0,11.0,951.0,954.0,11.0,4.0,7.0,0.3636363636363636,61.36458773608248,388.1649447697487,19.0,11.0,8.0,0.5789473684210527,500.84333499769974,31.66691482131091,19.0,10.0,9.0,0.5263157894736842,1178.3409666401465,17241.26307503671,31.0,10.0,21.0,0.3225806451612903,388.9464947541579,9025.552200986824,79.0,40.0,39.0,0.5063291139240507,54.11093752588549,7463.939468000042,0.0,0.0,0.0,0.0,153202.0,153213.0,153285.0,153304.0,153311.0,153330.0,153338.0,153369.0,153556.0,153632.0,0.1661245228647877,-0.12080032809663663,0.05515260347650402,-0.07323612482604648,0.0074890686790966806
138,138,154298.29780556753,1344.0762780814812,8.4148048419652,154391.54796540082,-3967.4084532451498,10.711060197638307,154412.74889094583,20681.037707107975,8.759588419835621,154436.02278596416,-4558.027255412031,15.28779240518434,154686.52389028465,7929.756450569859,35.76934974041587,0.9585414246417744,92.0,69.0,76.0,275.0,351.0,23.0,1094.0,1092.0,23.0,11.0,12.0,0.4782608695652174,66.60022074578991,1290.5737629673033,17.0,14.0,3.0,0.8235294117647058,683.6487469888893,4905.696882181557,20.0,10.0,10.0,0.5,1158.5166213981004,17729.9492312011,25.0,6.0,19.0,0.24,570.084417212773,10973.416929508565,89.0,45.0,44.0,0.5056179775280899,55.57344043090352,8327.315032604361,0.0,0.0,0.0,0.0,154287.0,154310.0,154379.0,154395.0,154403.0,154423.0,154430.0,154455.0,154643.0,154730.0,0.049550923434832354,-0.17231619961632574,0.05601830226342674,-0.12507262139248423,0.0070082152935365145
139,139,155264.58065172008,2084.447621442888,11.03448107198732,155356.0780405317,-3036.187246518906,7.0874094954177895,155378.39981856913,18767.979543900103,8.326379068160007,155398.02737369903,-4223.953994163418,16.868557694331987,155648.2601729957,7629.943026924261,35.87040343502828,0.9393843344558512,95.0,67.0,73.0,272.0,345.0,28.0,967.0,965.0,28.0,14.0,14.0,0.5,79.10946226121574,2003.114975299316,15.0,10.0,5.0,0.6666666666666666,547.8120496255324,3286.4825972807,19.0,10.0,9.0,0.5263157894736842,1067.165394220871,15767.265931954946,28.0,4.0,24.0,0.1428571428571428,641.2706883908457,11565.145774395754,93.0,48.0,45.0,0.5161290322580645,54.64023713347397,7965.243960042946,0.0,0.0,0.0,0.0,155251.0,155279.0,155346.0,155361.0,155368.0,155387.0,155394.0,155419.0,155603.0,155691.0,0.03795224281359246,-0.18042762357743844,0.05686096320196155,-0.15181763089203665,0.007161290319031416
