Unnamed: 0,cycle,p_center,p_height,p_width,q_center,q_height,q_width,r_center,r_height,r_width,s_center,s_height,s_width,t_center,t_height,t_width,r_squared,pr_interval,pr_segment,qrs_duration,st_segment,qt_interval,p_duration,pp_interval,rr_interval,fwhm_p,rise_time_p,decay_time_p,rise_decay_symmetry_p,sharpness_deriv_p,sharpness_diff_p,fwhm_q,rise_time_q,decay_time_q,rise_decay_symmetry_q,sharpness_deriv_q,sharpness_diff_q,fwhm_r,rise_time_r,decay_time_r,rise_decay_symmetry_r,sharpness_deriv_r,sharpness_diff_r,fwhm_s,rise_time_s,decay_time_s,rise_decay_symmetry_s,sharpness_deriv_s,sharpness_diff_s,fwhm_t,rise_time_t,decay_time_t,rise_decay_symmetry_t,sharpness_deriv_t,sharpness_diff_t,Average_Heart_Rate,SDNN,RMSSD,NN50,p_on,p_off,q_on,q_off,r_on,r_off,s_on,s_off,t_on,t_off,sharpness_deriv_p_norm,sharpness_deriv_q_norm,sharpness_deriv_r_norm,sharpness_deriv_s_norm,sharpness_deriv_t_norm
0,0,,,,,,,,,,,,,,,,,,,,,,,,,,,,,,,,,,,,,,,,,,,,,,,,,,,,,,,86.08567978858979,241.47014806587808,349.601453542711,207.0,,,,,,,,,,,,,,,
1,1,1258.779328010742,3064.2323366609107,12.523147746527844,1320.9206818190105,-2386.0828370472727,1.134352372901828,1348.2233947826694,30626.487267868728,8.061495774242253,1375.2618169768132,-7293.617569086929,9.906685463994323,1551.6848338988418,11692.497363663217,37.46106541688863,0.9639518134849392,70.0,46.0,69.0,205.0,274.0,24.0,,,24.0,10.0,14.0,0.4166666666666667,400.8884559958847,3639.31886003849,4.0,2.0,2.0,0.5,640.0858486901151,3004.2747351618427,17.0,8.0,9.0,0.4705882352941176,1884.6456776051443,30476.08484189833,22.0,9.0,13.0,0.4090909090909091,908.0472252980646,14143.06917717662,85.0,43.0,42.0,0.5058823529411764,377.41107917805016,11933.332390069343,,,,,1249.0,1273.0,1319.0,1323.0,1340.0,1357.0,1366.0,1388.0,1515.0,1593.0,0.13082834849028852,-0.26825801634037477,0.061536462249864,-0.12449888093210527,0.03227805552908918
2,2,1926.178051898704,3088.281062208344,14.024533470482613,1959.575339099856,-1135.7062495950283,2.547965400855538,2013.7017131311368,29951.332773732276,7.946121538986719,2042.641713260412,-7475.91224467434,9.107916622213908,2218.898138549432,11385.61470597476,36.156029239420086,0.9628080004890068,38.0,19.0,96.0,204.0,300.0,19.0,671.0,666.0,20.0,6.0,14.0,0.3,424.8870948226637,2519.927372694192,3.0,1.0,2.0,0.3333333333333333,396.7891138517321,2224.4725581596367,18.0,9.0,9.0,0.5,1896.4313154856995,28358.872039344493,23.0,11.0,12.0,0.4782608695652174,757.2534939687973,10106.7590664663,80.0,39.0,41.0,0.4875,453.07633956512024,12155.424248001527,,,,,1921.0,1940.0,1959.0,1962.0,2006.0,2023.0,2033.0,2055.0,2181.0,2259.0,0.13758044888532223,-0.34937653463932217,0.06331709275885364,-0.10129245357424392,0.039793753017776205
3,3,2598.7533909985605,3410.531394908123,16.081133595861985,2659.424660899979,-1953.783162948873,0.3928921992540953,2685.6957803198097,28614.0755880881,8.261856112303589,2713.140272222874,-6499.842596348351,9.211370426822583,2890.8626802757963,11583.790887504176,37.73750587100904,0.9596116417265086,78.0,45.0,69.0,208.0,277.0,33.0,673.0,672.0,45.0,25.0,20.0,0.5555555555555556,387.6448168097651,1620.5668647448106,2.0,1.0,1.0,0.5,525.9024293856179,3605.261574872333,18.0,10.0,8.0,0.5555555555555556,1766.4563775209288,27913.0092516527,22.0,8.0,14.0,0.3636363636363636,812.7761030598376,12915.31150931953,85.0,40.0,45.0,0.4705882352941176,344.8487125660335,12061.169567357894,,,,,2580.0,2613.0,2658.0,2660.0,2677.0,2694.0,2705.0,2727.0,2859.0,2935.0,0.11366111960983954,-0.26917133864121634,0.06173382648979567,-0.12504550548908058,0.02976993593159847
4,4,3304.7533909985605,3407.1946440392853,12.765937678419256,3358.5753390998566,-1201.9391035032038,2.547965400864056,3392.3943033885553,30152.60630929013,8.01228633234823,3420.4029527514967,-6557.39673399738,9.812093937957195,3599.1048219650984,11785.653593234483,36.86727234088096,0.9679263392383272,65.0,38.0,77.0,209.0,286.0,27.0,706.0,706.0,32.0,18.0,14.0,0.5625,305.8479026765718,3146.5894400878697,3.0,2.0,1.0,0.6666666666666666,365.857516870608,436.58495048945906,17.0,8.0,9.0,0.4705882352941176,1852.5041364236272,30592.585519602973,23.0,9.0,14.0,0.391304347826087,760.1155751103722,12016.08109382716,85.0,40.0,45.0,0.4705882352941176,321.7714615610416,12243.81117654307,,,,,3292.0,3319.0,3357.0,3360.0,3384.0,3401.0,3411.0,3434.0,3559.0,3643.0,0.0897653156421918,-0.30438939527324627,0.06143761230527073,-0.11591727722824646,0.02730196157689154
5,5,4061.003373173533,2419.2537835125463,10.046407935310492,4117.150678199713,-1452.4036450319225,5.095930801633512,4148.067053734553,29361.187849921687,7.950134628821693,4175.880079711266,-7865.819435229367,11.67295595276949,4363.232799296688,10936.027551016145,30.48145095082563,0.9486564129892716,58.0,39.0,75.0,205.0,280.0,19.0,753.0,756.0,19.0,3.0,16.0,0.1578947368421052,293.90593916103916,2897.6339508304254,7.0,1.0,6.0,0.1428571428571428,393.2367862033797,1562.2789124091,16.0,8.0,8.0,0.5,1888.7869124002389,28350.90887369337,26.0,11.0,15.0,0.4230769230769231,689.9437447314657,13135.160652025006,72.0,38.0,34.0,0.5277777777777778,305.89240568814097,10166.646507751931,,,,,4058.0,4077.0,4116.0,4122.0,4140.0,4156.0,4165.0,4191.0,4326.0,4396.0,0.12148619593530749,-0.27074896675485605,0.0643293766605998,-0.08771416003288245,0.027971071237811423
6,6,4815.849321800287,1745.882533710162,5.095930801728113,4869.766750586257,-2588.9485628561497,7.64389620259217,4909.772347590841,27194.813376909548,7.681175974464789,4938.1215375032525,-7472.059822544304,12.405560883202035,5117.964525289252,10311.266663401862,31.042539075701537,0.9362255568989706,54.0,50.0,85.0,204.0,289.0,4.0,753.0,761.0,11.0,4.0,7.0,0.3636363636363636,295.73016084168427,1756.3123443209856,8.0,3.0,5.0,0.375,354.6346535192398,2671.808309186993,15.0,8.0,7.0,0.5333333333333333,1819.107595157174,24538.57105913807,26.0,11.0,15.0,0.4230769230769231,715.1805932823037,11396.23546237788,78.0,40.0,38.0,0.5128205128205128,371.383296099936,10572.431139705066,,,,,4813.0,4817.0,4867.0,4874.0,4902.0,4917.0,4927.0,4952.0,5079.0,5156.0,0.16938720396797274,-0.136980185163665,0.06689171092829539,-0.09571398118688754,0.036017233209388294
7,7,5542.825708766542,2628.623369960121,15.789029243597984,5576.849321761706,-1686.7266848599106,5.095930801728113,5635.863908079333,28110.574894809983,7.921180768957838,5663.641538250951,-6694.326551466219,11.150527621202745,5843.834929304014,11251.623323325952,34.20312050002299,0.9575797277708288,38.0,10.0,104.0,206.0,310.0,28.0,731.0,726.0,40.0,18.0,22.0,0.45,267.92396488352125,2238.0182481982715,4.0,3.0,1.0,0.75,391.3631147637964,2585.3526291373996,17.0,9.0,8.0,0.5294117647058824,1845.4355315644789,25567.588016236663,24.0,10.0,14.0,0.4166666666666667,705.8791353791761,11673.578465510702,85.0,40.0,45.0,0.4705882352941176,356.10543557595696,11247.3979475251,,,,,5536.0,5564.0,5574.0,5578.0,5628.0,5644.0,5654.0,5678.0,5807.0,5884.0,0.10192558125494636,-0.23202521088726397,0.06564915653522259,-0.10544438338230924,0.03164924965428838
8,8,6261.698643600575,2124.2170042777443,10.191861603456228,6324.328730098417,-2239.36383913801,12.006452577874269,6367.745462727558,29472.23883663327,7.781191927339893,6395.0414363994,-7555.303719453529,11.892596573387998,6583.657460196832,11247.890311136647,31.680756756763063,0.9412561050022088,62.0,49.0,91.0,206.0,297.0,13.0,714.0,733.0,14.0,6.0,8.0,0.4285714285714285,330.95359883728383,3595.302151957392,42.0,24.0,18.0,0.5714285714285714,299.38292460418086,2037.5526139658257,16.0,9.0,7.0,0.5625,1942.814462620717,26973.832915902283,24.0,10.0,14.0,0.4166666666666667,783.3468518306464,14439.78491761909,81.0,46.0,35.0,0.5679012345679012,293.43990385062745,11334.12000019667,,,,,6256.0,6269.0,6318.0,6342.0,6359.0,6375.0,6385.0,6409.0,6538.0,6615.0,0.15580027754735515,-0.13369105965354036,0.06592015195689328,-0.10368171564217481,0.026088439319157452
9,9,7024.8184831741755,2402.7758576213414,5.095930801728113,7094.150678199713,-2408.9194093652527,5.095930801728113,7127.401153606649,29919.124035332577,7.93341719071391,7154.060218433896,-8166.636283767357,13.133481514562709,7337.409514094465,10575.468047766855,31.33230292516056,0.9383475390071324,77.0,66.0,75.0,206.0,281.0,11.0,765.0,758.0,11.0,9.0,2.0,0.8181818181818182,413.6163179328864,3780.175792217315,25.0,16.0,9.0,0.64,361.2121533752108,553.5159111058774,16.0,8.0,8.0,0.5,1972.615612169222,27340.309672378364,24.0,9.0,15.0,0.375,829.9443832851878,16268.358968949966,74.0,37.0,37.0,0.5,355.3690405339439,10891.822537701844,,,,,7016.0,7027.0,7093.0,7102.0,7119.0,7135.0,7145.0,7168.0,7303.0,7374.0,0.1721410328894977,-0.1499477948373498,0.06593159645448472,-0.10162622093686846,0.03360315013281938
10,10,7745.698643600575,2922.2321840469563,10.191861603456228,7806.301356399425,-1448.2641081674835,9.655712372497684,7845.546706234752,27693.775219409312,7.955840874240756,7873.478930790117,-7380.827868727019,12.674605550409645,8054.982093114233,10888.944437737957,33.68147390723085,0.953517751634168,70.0,56.0,85.0,205.0,290.0,14.0,719.0,719.0,44.0,16.0,28.0,0.3636363636363636,443.46637958386657,2444.50307073468,13.0,2.0,11.0,0.1538461538461538,391.7518373935673,1427.483360790062,17.0,9.0,8.0,0.5294117647058824,1874.0143074888545,24502.930940249236,25.0,9.0,16.0,0.36,775.7820252395055,13615.933696254488,80.0,41.0,39.0,0.5125,279.688871949618,11348.202567818496,,,,,7734.0,7748.0,7804.0,7812.0,7837.0,7853.0,7864.0,7889.0,8016.0,8094.0,0.1517560384163987,-0.2704975115963196,0.06766915282014142,-0.10510772491071596,0.025685581697000547
11,11,9107.52672891254,3565.927541763666,15.198513672012549,9166.424660899746,-700.5236042094972,0.8010052626952983,9196.257513866967,27241.77988587167,8.375603332384458,9223.302070732092,-5939.044829086336,9.40704762316014,9411.808138396544,11642.7836441194,38.42348546555495,0.9417541914380116,67.0,42.0,70.0,211.0,281.0,25.0,1367.0,1351.0,31.0,15.0,16.0,0.4838709677419355,365.80514412688865,4722.8610767527325,3.0,1.0,2.0,0.3333333333333333,442.348200425338,2358.3554852374364,16.0,8.0,8.0,0.5,1681.612543916218,29048.879771993357,22.0,8.0,14.0,0.3636363636363636,830.728167897031,11666.840188798646,99.0,59.0,40.0,0.5959595959595959,304.1397204613712,10290.33830788594,,,,,9098.0,9123.0,9165.0,9168.0,9188.0,9204.0,9215.0,9235.0,9360.0,9446.0,0.10258344844157033,-0.6314536694655762,0.061729173018843314,-0.1398757193797492,0.026122594884341748
12,12,9784.669695040488,3786.6437167172194,16.371243726629324,9832.222244857432,-1359.5105423592863,0.6837864334483333,9874.28467320113,29269.90120717132,8.269065183446548,9901.660447292965,-6065.488341164833,9.512595139456598,10081.086040515376,11879.544501236838,39.5671426989207,0.9603497220344334,59.0,28.0,84.0,211.0,295.0,31.0,679.0,679.0,31.0,13.0,18.0,0.4193548387096774,314.06640942597636,3494.560956693001,2.0,1.0,1.0,0.5,294.73341410647055,1364.8005394293425,17.0,8.0,9.0,0.4705882352941176,1792.7059255910092,31076.715972349095,24.0,10.0,14.0,0.4166666666666667,742.6257368173782,10649.294540959738,86.0,41.0,45.0,0.4767441860465116,365.19165071721005,12820.1937253713,,,,,9772.0,9803.0,9831.0,9833.0,9866.0,9883.0,9893.0,9915.0,10040.0,10126.0,0.08294057559189964,-0.21679376873017253,0.0612474197607399,-0.12243461615075206,0.030741216608026357
13,13,10477.708948526544,4002.4736631697856,16.033001740924384,10525.1861720931,-575.2053389053583,0.799378527398073,10566.906460847027,30183.239378243074,8.522924635594519,10592.698643600574,-6565.540329952271,10.191861603456228,10772.87817616848,12369.193018167029,39.64396155330026,0.9605334287568296,59.0,30.0,84.0,211.0,295.0,29.0,691.0,692.0,36.0,19.0,17.0,0.5277777777777778,310.3331971947099,4124.35499423259,3.0,1.0,2.0,0.3333333333333333,324.69512818989745,256.7347578266106,18.0,9.0,9.0,0.5,1869.593629263979,29820.8910229667,25.0,9.0,16.0,0.36,793.2165107141152,12651.931576523348,94.0,46.0,48.0,0.4893617021276595,266.97175991956465,12606.919883590972,,,,,10465.0,10494.0,10524.0,10527.0,10558.0,10575.0,10587.0,10608.0,10731.0,10819.0,0.0775353502136325,-0.5644855953663555,0.061941450545948844,-0.12081511510871817,0.021583603677899982
14,14,11144.75339099856,3236.206341682749,15.10998701292311,11190.7604000797,-1191.7489453133735,1.0185470100627685,11230.521330709978,27740.33860534809,8.383400180912904,11256.695074134535,-6618.782819356954,10.253771110478157,11436.71303072068,11629.42373232391,37.55597853253387,0.9516157762565388,63.0,30.0,80.0,210.0,290.0,33.0,668.0,663.0,36.0,20.0,16.0,0.5555555555555556,250.9060923951658,3023.126442270842,3.0,2.0,1.0,0.6666666666666666,323.860382344049,260.51246678726886,17.0,9.0,8.0,0.5294117647058824,1786.333281808931,25305.340726491653,25.0,9.0,16.0,0.36,801.0816048449058,12760.191776497451,91.0,44.0,47.0,0.4835164835164835,323.12187939777664,11787.918434117551,,,,,11126.0,11159.0,11189.0,11192.0,11222.0,11238.0,11248.0,11269.0,11397.0,11479.0,0.0775309315612739,-0.27175218708407506,0.06439479010052682,-0.12103155923202427,0.027784857344191647
15,15,11798.467363735152,3259.1162254997366,17.726251496243076,11849.57533909986,-1606.8969073215983,0.5193217633998692,11890.575847087968,27731.61099381027,8.35180192883624,11916.569942395829,-6209.388579652717,10.947798383851032,12097.337019012872,11741.686550899674,37.48051898201109,0.9588070285041956,58.0,31.0,84.0,211.0,295.0,27.0,649.0,660.0,27.0,8.0,19.0,0.2962962962962963,376.75427716217473,5362.682852974719,3.0,2.0,1.0,0.6666666666666666,291.33788698098823,884.2763069778579,17.0,9.0,8.0,0.5294117647058824,1744.1732653086176,26205.53353491317,24.0,9.0,15.0,0.375,728.0203932784392,12282.53517958228,88.0,42.0,46.0,0.4772727272727273,299.9258463852902,12296.594348760464,,,,,11790.0,11817.0,11848.0,11851.0,11882.0,11899.0,11908.0,11932.0,12058.0,12143.0,0.11560013546445559,-0.18130465349304514,0.06289476892265361,-0.11724510133961634,0.025543676803594217
16,16,12481.799674495807,3179.3100719564713,14.41918734077306,12544.10069451012,-942.0528539081304,0.7371538936482501,12571.288134943032,28526.639728538314,8.160294055088146,12598.62433998492,-6102.500542960863,9.609471124256276,12777.835512095537,11944.691963473284,39.31537538373726,0.958008191938816,79.0,43.0,69.0,210.0,279.0,36.0,689.0,682.0,37.0,19.0,18.0,0.5135135135135135,230.90908261752688,3134.862349441499,2.0,1.0,1.0,0.5,502.5307603275307,4334.872384238693,17.0,8.0,9.0,0.4705882352941176,1750.640663903462,29890.83754544948,25.0,11.0,14.0,0.44,742.9409595586536,10341.661390123523,85.0,41.0,44.0,0.4823529411764706,361.2578963055085,13562.208075241568,,,,,12464.0,12500.0,12543.0,12545.0,12563.0,12580.0,12588.0,12612.0,12737.0,12822.0,0.07262867647112851,-0.533442214248138,0.061368625276677954,-0.12174369413463211,0.030244220395991003
17,17,13219.698643600574,1858.3668110039164,9.320493195133883,13261.999392798294,-2069.560463603937,13.064162197320076,13307.094832257944,27854.830775059112,8.11617492057731,13334.526296924085,-7826.924350037327,11.36991203985927,13515.956294760766,11090.2730470015,33.57999864728094,0.9460003316712,33.0,19.0,102.0,208.0,310.0,14.0,731.0,735.0,15.0,7.0,8.0,0.4666666666666667,298.4100208266597,2017.3230195301503,34.0,15.0,19.0,0.4411764705882353,239.66930873226755,2478.4530205670862,16.0,8.0,8.0,0.5,1828.6902951456875,26710.912792709052,25.0,11.0,14.0,0.44,738.9130700366458,12718.276834413016,83.0,39.0,44.0,0.4698795180722891,447.27375129970625,10829.393233123685,,,,,13214.0,13228.0,13247.0,13281.0,13299.0,13315.0,13324.0,13349.0,13482.0,13557.0,0.16057649063666518,-0.11580686476533616,0.06565074151457691,-0.09440656853073096,0.040330274052236846
18,18,13912.001463513678,2869.1309458989235,13.452958698003522,13942.319591445925,-1516.2717122408071,5.095930801715625,13998.7743108994,28825.635201523208,8.121170254311904,14027.037189934856,-6983.990882286362,9.707732459892505,14206.085311719333,11580.03127019563,37.45376237360752,0.9609060291965822,36.0,23.0,98.0,210.0,308.0,13.0,692.0,692.0,25.0,10.0,15.0,0.4,428.3515986837113,2914.559056898578,5.0,3.0,2.0,0.6,468.7245306588797,2401.329718027891,17.0,9.0,8.0,0.5294117647058824,1858.674191817402,28544.763980011412,20.0,9.0,11.0,0.45,798.9164391259773,12789.503575183897,80.0,38.0,42.0,0.475,430.17181859749815,12580.956347681344,,,,,13903.0,13916.0,13939.0,13944.0,13991.0,14007.0,14018.0,14037.0,14168.0,14247.0,0.14929663607580834,-0.30912964139268934,0.06447990404454941,-0.11439253753212726,0.037147725127881365
19,19,14562.72601729957,3957.0267400240746,7.64389189977762,14607.424549136147,-2547.8738235618166,0.3217138244528385,14649.879284539038,27628.50394355391,8.10526174402262,14677.655988796703,-6300.326934888257,9.803591008646627,14856.457138509842,11683.149775315627,36.79041939587454,0.9570759291904752,55.0,39.0,86.0,206.0,292.0,16.0,654.0,651.0,16.0,12.0,4.0,0.75,365.47479503247007,3675.938475684284,2.0,1.0,1.0,0.5,361.1409198531167,1266.9867269047636,17.0,9.0,8.0,0.5294117647058824,1728.578791163635,28526.162496139023,27.0,12.0,15.0,0.4444444444444444,729.537596159976,10987.921838382104,84.0,41.0,43.0,0.4880952380952381,384.1560863539844,13079.292674686669,,,,,14551.0,14567.0,14606.0,14608.0,14642.0,14658.0,14669.0,14692.0,14816.0,14898.0,0.09236096166240376,-0.14174207392588126,0.06256505219012899,-0.11579360939511549,0.032881208727259185
20,20,15204.367349274842,3230.13310887994,13.825711156189293,15253.732585164538,-1376.6438432885225,1.874490899814721,15294.0615445263,28488.8938938369,8.078730322604862,15322.29754237983,-6711.302899460544,8.834349940062195,15499.33332017028,12050.35296595989,37.75332962433694,0.9600039017073472,53.0,33.0,84.0,210.0,294.0,20.0,641.0,644.0,25.0,9.0,16.0,0.36,373.08669344919144,3950.8525219444864,5.0,3.0,2.0,0.6,341.3576756581228,1169.8835498714436,17.0,8.0,9.0,0.4705882352941176,1756.9774201290832,28835.373361216924,23.0,10.0,13.0,0.4347826086956521,768.4582582886142,11479.847152085187,91.0,44.0,47.0,0.4835164835164835,344.65755473222504,12176.658477790255,,,,,15198.0,15218.0,15251.0,15256.0,15286.0,15302.0,15312.0,15335.0,15466.0,15545.0,0.11550195638177913,-0.24796368161767146,0.06167236350686034,-0.11450209740203844,0.02860144891239464
21,21,15897.271015090912,2988.6762753146772,11.906179212267684,15945.575339100104,-1333.4118635542814,2.547965400864052,15988.51333600506,29393.872983950365,8.071079970059069,16016.418487463085,-6844.779828901162,9.80412880058257,16195.531016687431,11852.63733402935,37.88777037810945,0.9634884779112348,58.0,39.0,84.0,209.0,293.0,19.0,691.0,695.0,20.0,11.0,9.0,0.55,360.3699253057942,2816.6138896590865,3.0,1.0,2.0,0.3333333333333333,349.4396307692641,1790.8874543578856,17.0,9.0,8.0,0.5294117647058824,1880.9931697779016,28387.37646689356,24.0,11.0,13.0,0.4583333333333333,792.4582507847856,11814.527143274689,85.0,42.0,43.0,0.4941176470588235,407.3579036834286,12231.265718276733,,,,,15887.0,15906.0,15945.0,15948.0,15980.0,15997.0,16007.0,16029.0,16154.0,16238.0,0.12057844079076477,-0.26206428810211263,0.06399269571604127,-0.11577556482368319,0.03436854534592815
22,22,16604.035983922626,2383.380726915411,10.500248171422486,16632.15067819972,-1531.326967925361,5.095930790812207,16692.43348926725,27903.914593918853,7.841114211676213,16720.34636665011,-7501.249229250345,10.597914872958311,16903.109494795972,11255.73937438113,33.704486871633485,0.9568648914387474,36.0,20.0,104.0,209.0,313.0,16.0,708.0,703.0,16.0,10.0,6.0,0.625,348.932703654598,3133.642187042651,5.0,2.0,3.0,0.4,373.9177815006328,2627.4958491695634,16.0,8.0,8.0,0.5,1743.405034003662,28023.36124117141,24.0,10.0,14.0,0.4166666666666667,849.1627492001406,13060.63623019574,80.0,38.0,42.0,0.475,389.17734190386255,11432.40014462881,,,,,16594.0,16610.0,16630.0,16635.0,16685.0,16700.0,16710.0,16734.0,16865.0,16943.0,0.14640241893127554,-0.2441789306481136,0.062478869340562175,-0.11320284438609483,0.034575902031781056
23,23,18538.09683682789,3488.9851435069168,15.16326723128488,18572.06965883668,-1929.5906147129413,1.3375959420516808,18626.923784468632,29079.621704056444,8.194429574161083,18654.995023428935,-6256.509448161699,9.781422519864272,18833.112543914016,12029.499015846726,39.031960263438535,0.9647636812088892,46.0,13.0,99.0,208.0,307.0,33.0,1938.0,1935.0,39.0,20.0,19.0,0.5128205128205128,263.9922023676197,3459.112508295598,4.0,2.0,2.0,0.5,393.5663347932796,2573.5147880706754,16.0,8.0,8.0,0.5,1835.4566339011403,29712.11590753014,23.0,9.0,14.0,0.391304347826087,694.644588228154,11361.192772311717,85.0,41.0,44.0,0.4823529411764706,231.56022698689017,13307.445528044682,,,,,18524.0,18557.0,18570.0,18574.0,18619.0,18635.0,18646.0,18669.0,18792.0,18877.0,0.0756644673190757,-0.2039636448230907,0.06311831194300249,-0.11102749767799935,0.019249365803334847
24,24,19216.41796949337,3846.9815218573312,18.435507035183235,19263.863178974567,-1426.8951346882793,1.0375352326752707,19306.65411145014,29969.290991511814,8.37272216853559,19333.82365067782,-6471.342827867311,9.207116263878431,19514.260172995684,12050.179043159522,40.51791179357812,0.9623231409945228,59.0,27.0,85.0,210.0,295.0,32.0,674.0,680.0,32.0,13.0,19.0,0.40625,292.7323544136337,4086.421204773184,4.0,2.0,2.0,0.5,272.29573859024674,939.5001198789928,18.0,9.0,9.0,0.5,1880.324226164204,29305.001734392623,20.0,7.0,13.0,0.35,736.4267987748733,12298.248972741709,97.0,48.0,49.0,0.4948453608247423,298.5350050576147,12873.293263231804,,,,,19203.0,19235.0,19262.0,19266.0,19298.0,19316.0,19327.0,19347.0,19475.0,19557.0,0.07609403703927901,-0.19083093912835628,0.06274169871742269,-0.11379814334725477,0.024774321110779086
25,25,19867.104003410503,3543.7574890411547,12.129551049301067,19916.802627272904,-1413.5394993448658,1.878599590692045,19956.568386296374,28530.421071155575,8.29970642234844,19982.70603571152,-6565.912984934565,11.705981415873689,20172.08212109698,11578.701659310293,35.855951037913535,0.9514079060478958,59.0,32.0,84.0,204.0,288.0,27.0,652.0,649.0,27.0,12.0,15.0,0.4444444444444444,320.42392344340294,3744.26650819216,6.0,3.0,3.0,0.5,347.2235612638878,305.2259409223909,17.0,9.0,8.0,0.5294117647058824,1859.4724592781365,25800.476822358774,24.0,9.0,15.0,0.375,820.4991307787316,14228.101767500391,87.0,52.0,35.0,0.5977011494252874,311.9066888792921,12112.052959872024,,,,,19855.0,19882.0,19914.0,19920.0,19949.0,19965.0,19974.0,19998.0,20122.0,20202.0,0.09041925821230533,-0.2456412158449168,0.06517507942278757,-0.12496344874830968,0.026937967490378488
26,26,20498.72601729957,3407.686282413753,7.64389620259217,20551.876695499283,-1700.614484304197,5.467139203709125,20586.212170943894,27599.93695137432,8.069590224699002,20613.624763886135,-7299.336609097467,11.052249462047918,20802.657460196835,11324.303406476496,33.671505711376525,0.94070923472178,55.0,43.0,81.0,207.0,288.0,12.0,632.0,630.0,20.0,9.0,11.0,0.45,371.20907542775586,2862.2512098908983,19.0,11.0,8.0,0.5789473684210527,366.5256075012482,1012.1637574259272,17.0,8.0,9.0,0.4705882352941176,1818.688581651685,27926.001837480417,22.0,9.0,13.0,0.4090909090909091,798.8209552380595,12865.630256765451,85.0,52.0,33.0,0.611764705882353,363.69752610723447,10264.172913084887,,,,,20491.0,20503.0,20546.0,20559.0,20578.0,20594.0,20605.0,20627.0,20754.0,20834.0,0.10893287840006763,-0.21552539442895044,0.06589466435578667,-0.10943747329619731,0.03211654731002984
27,27,21113.584645174746,2864.079600775258,15.381745989453524,21142.424660900146,-1726.1522862082495,2.5479654006292662,21204.400013009265,29205.737987581437,8.05988852753794,21232.762046966443,-7081.547300641176,9.580975400377383,21409.840422686757,11667.576524064554,35.67653135428915,0.9634774200267208,36.0,12.0,104.0,210.0,314.0,24.0,612.0,619.0,25.0,10.0,15.0,0.4,378.91712674503896,2408.803144552242,3.0,1.0,2.0,0.3333333333333333,335.9760700645637,3014.869007634702,17.0,8.0,9.0,0.4705882352941176,1764.9788900936244,30964.1508633138,22.0,10.0,12.0,0.4545454545454545,704.2933161914342,11362.908164989583,90.0,45.0,45.0,0.5,303.96840280890046,11669.885662336612,,,,,21105.0,21129.0,21141.0,21144.0,21196.0,21213.0,21223.0,21245.0,21370.0,21455.0,0.1322997889592428,-0.19463871916109163,0.060432607141929114,-0.09945472172835254,0.026052402757501612
28,28,21735.108553491373,3801.601597238957,13.2526551926346,21788.9687084864,-1253.1372562525062,1.1431805781830209,21826.10474033748,30516.538582493275,8.179085461026371,21852.90232707672,-7304.158762722763,10.424422869392064,22030.96931211067,11673.632863998217,37.51265984495572,0.962757885425977,65.0,38.0,80.0,209.0,289.0,27.0,622.0,621.0,27.0,13.0,14.0,0.4814814814814814,351.02184706196664,3858.34670134295,4.0,2.0,2.0,0.5,370.3385552568847,361.1593983757796,16.0,8.0,8.0,0.5,1962.664676259764,29754.600316392716,24.0,9.0,15.0,0.375,891.0887761000573,14381.336092319809,87.0,41.0,46.0,0.4712643678160919,354.0048282850181,12770.112356418424,,,,,21722.0,21749.0,21787.0,21791.0,21818.0,21834.0,21844.0,21867.0,21993.0,22076.0,0.09233525346709352,-0.29552912373252577,0.06431478691314307,-0.12199745447042928,0.030325163760869855
29,29,22355.020645312547,3380.681994575356,13.184289834526371,22401.424660900146,-887.6769736783398,2.54796540049141,22446.405470032892,28390.84638166708,8.241590887655883,22473.26931318101,-7104.291494974367,10.56797284821034,22651.743157522687,11337.505063787044,35.86709129237847,0.9638599083476016,51.0,31.0,90.0,203.0,293.0,20.0,620.0,620.0,20.0,7.0,13.0,0.35,380.8585290273532,3880.297462072991,3.0,2.0,1.0,0.6666666666666666,378.2244093904183,1590.6186272791874,17.0,8.0,9.0,0.4705882352941176,1782.816544056558,27787.52681391793,24.0,8.0,16.0,0.3333333333333333,760.2561002192552,14034.906747284174,78.0,38.0,40.0,0.4871794871794871,289.90667645382797,11597.032771444046,,,,,22348.0,22368.0,22399.0,22402.0,22438.0,22455.0,22465.0,22489.0,22614.0,22692.0,0.11265730690981257,-0.42608338461584605,0.06279547006417471,-0.1070136410868088,0.025570588486863353
30,30,22965.010206535702,3062.3584600864597,11.049315155535565,23020.424660899203,-1583.2269137144608,0.9087240248821966,23056.042047774,27111.03241514814,8.092715083377534,23084.017725033853,-7250.454161369104,10.188249974100682,23260.895685661668,10806.377310106003,34.48895611287971,0.9632757717754292,64.0,44.0,78.0,203.0,281.0,20.0,611.0,610.0,20.0,10.0,10.0,0.5,324.48585800246235,3016.708297354739,3.0,1.0,2.0,0.3333333333333333,355.24513678342083,454.6047266573162,16.0,8.0,8.0,0.5,1705.945289464155,27138.36100396784,23.0,10.0,13.0,0.4347826086956521,667.6639716133456,11984.515660248591,85.0,41.0,44.0,0.4823529411764706,402.6434071008596,10414.59556606523,,,,,22955.0,22975.0,23019.0,23022.0,23048.0,23064.0,23074.0,23097.0,23221.0,23300.0,0.10595946301900305,-0.22438043069263428,0.06292439414852263,-0.09208581376470222,0.037259795354758894
31,31,23576.674966831608,2619.8715014646887,13.095566377417772,23640.541957928235,-1303.3989849857733,1.6165115698229653,23669.24081836644,29082.725868451467,7.830938006917574,23697.546077843475,-7269.178717759936,10.466682115485304,23878.109494795972,11514.59547646024,33.49663510770194,0.9645290321918748,70.0,50.0,72.0,208.0,280.0,20.0,613.0,614.0,20.0,9.0,11.0,0.45,327.6361076595827,2992.3887551852176,6.0,3.0,3.0,0.5,469.8355738734045,3309.9223714882582,16.0,8.0,8.0,0.5,1875.3581266222416,29999.58516724437,23.0,11.0,12.0,0.4782608695652174,620.3319528905329,10837.808847590542,79.0,38.0,41.0,0.4810126582278481,270.5270901944413,12226.889706829052,,,,,23568.0,23588.0,23638.0,23642.0,23661.0,23677.0,23687.0,23710.0,23840.0,23918.0,0.12505808299239546,-0.36046949497857156,0.06448357472077966,-0.08533728182730577,0.023494276524736884
32,32,24208.39393792544,3184.064530127263,10.766165025753653,24258.57533910029,-1479.5467679111991,2.5479654008640567,24298.644907157857,30251.23849885624,8.060665885373421,24325.54029822048,-7425.99243127224,10.950614023475186,24505.30290838327,11566.778343262657,34.99862460170769,0.9708218967934408,58.0,39.0,82.0,206.0,288.0,19.0,631.0,628.0,19.0,8.0,11.0,0.4210526315789473,299.29511044459133,3933.48786439846,5.0,1.0,4.0,0.2,304.64469065488834,1533.513817364139,18.0,10.0,8.0,0.5555555555555556,1973.7607183999687,27097.033410751385,23.0,9.0,14.0,0.391304347826087,789.320890765916,13553.366116175355,85.0,43.0,42.0,0.5058823529411764,265.37563369696346,11438.780622850234,,,,,24200.0,24219.0,24258.0,24263.0,24290.0,24307.0,24317.0,24340.0,24468.0,24546.0,0.09399781556331363,-0.20590406282660528,0.06524561691828233,-0.10629163685138414,0.0229429168452543
33,33,24841.4534913698,2908.9492693878447,12.785164723189911,24878.150678199716,-1296.2614517939849,5.095930801728113,24929.179852349393,28463.752865893675,7.993537584143687,24957.69161700805,-7545.519156026096,9.608022360496577,25135.260172995684,11090.270702721864,36.253984417068224,0.9628119685837048,47.0,24.0,91.0,210.0,301.0,23.0,632.0,631.0,23.0,11.0,12.0,0.4782608695652174,226.60231370880908,3387.510226427862,5.0,1.0,4.0,0.2,296.3087166486206,1735.8604953751476,16.0,8.0,8.0,0.5,1797.181450741928,29359.22894987436,19.0,9.0,10.0,0.4736842105263157,701.2825253302465,12129.695689619768,79.0,36.0,43.0,0.4556962025316455,301.61740041405653,11651.4131076891,,,,,24830.0,24853.0,24877.0,24882.0,24921.0,24937.0,24949.0,24968.0,25100.0,25178.0,0.07789833810216118,-0.22858715441899372,0.06313930068214503,-0.09294026174066226,0.027196576936578398
34,34,26072.178051898707,3569.8545830919547,13.20244324289372,26129.849321800284,-1808.451057111036,2.9179820867152593,26161.228520500223,28793.649724530595,8.092883446746619,26190.075600332613,-6617.463676290971,9.894524531489315,26366.962904598884,11316.299911654722,37.54855242955136,0.9683390151504236,67.0,42.0,76.0,208.0,284.0,25.0,1235.0,1232.0,27.0,13.0,14.0,0.4814814814814814,339.80069664287424,3731.014279719136,7.0,3.0,4.0,0.4285714285714285,409.2346398546642,562.7448173146513,17.0,8.0,9.0,0.4705882352941176,1776.4722073764087,29928.54864291814,24.0,10.0,14.0,0.4166666666666667,625.7993307267403,10310.29140731841,87.0,42.0,45.0,0.4827586206896552,230.72385420626227,11881.334181693972,,,,,26060.0,26085.0,26127.0,26134.0,26153.0,26170.0,26180.0,26203.0,26326.0,26411.0,0.09518614518705773,-0.22629013831782002,0.06169666660433647,-0.09456785278155017,0.020388630206648946
35,35,26714.87653261183,3302.5174231227024,15.11132999618402,26776.575339099854,-1271.6769303364756,1.3083492909347092,26803.829117006575,29615.85195748866,7.940550647762241,26832.07753830955,-7523.051160771242,9.28659478721938,27010.363023880094,11543.002651410025,37.355027019531306,0.964577158655556,69.0,44.0,70.0,206.0,276.0,25.0,639.0,643.0,25.0,9.0,16.0,0.36,268.23499066185843,4472.113604845613,3.0,2.0,1.0,0.6666666666666666,473.37152883973744,3438.15134725353,16.0,8.0,8.0,0.5,1931.56771367819,29636.609637501177,23.0,10.0,13.0,0.4347826086956521,712.6996161149417,12278.074616032423,78.0,33.0,45.0,0.4230769230769231,365.523666709196,11640.570499786643,,,,,26706.0,26731.0,26775.0,26778.0,26796.0,26812.0,26822.0,26845.0,26977.0,27051.0,0.08122137033518759,-0.3722419724280813,0.06522073774716362,-0.09473544721206943,0.031666255111233624
36,36,27354.432572432783,2998.112523302505,12.891414574356732,27403.150678199716,-1140.906633269003,5.09593080172205,27445.483607223618,28805.040248886184,8.036592598095893,27473.958970512824,-7348.666121036272,10.010648617613224,27651.81937466148,11196.973559016333,36.473443858934054,0.9651217374552332,56.0,33.0,87.0,208.0,295.0,23.0,639.0,642.0,23.0,9.0,14.0,0.391304347826087,318.5599031066791,3524.1411247816923,5.0,2.0,3.0,0.4,407.38839422699795,1843.9268612456124,17.0,8.0,9.0,0.4705882352941176,1752.2330650237302,30052.33557099921,26.0,11.0,15.0,0.4230769230769231,648.7240155173182,11368.335302668407,85.0,41.0,44.0,0.4823529411764706,394.74457928422896,12198.19571986447,,,,,27345.0,27368.0,27401.0,27406.0,27437.0,27454.0,27463.0,27488.0,27611.0,27696.0,0.10625348469435578,-0.35707426212408033,0.06083077995669472,-0.08827779148385617,0.03525457814146234
37,37,29243.57772695331,3118.8511955362146,15.62385301269001,29294.860902070435,-877.6029224893769,0.5790749989113111,29333.336681918445,29033.09293831631,8.340198650970652,29360.464708524563,-6641.342353554774,9.428470405606737,29539.3994390986,12205.60212683794,40.006626764566874,0.9624570270235706,59.0,33.0,79.0,209.0,288.0,26.0,1891.0,1887.0,39.0,21.0,18.0,0.5384615384615384,344.9731767347661,3515.7560717511333,2.0,1.0,1.0,0.5,365.4963445485961,138.3521708697233,18.0,9.0,9.0,0.5,1790.5994872740057,30370.1536493493,20.0,7.0,13.0,0.35,816.7820216687055,13609.525163945797,86.0,42.0,44.0,0.4883720930232558,365.9173594746031,12938.775310401776,,,,,29235.0,29261.0,29294.0,29296.0,29324.0,29342.0,29353.0,29373.0,29502.0,29582.0,0.11060905285526325,-0.41647120261614706,0.06167443100458887,-0.12298447786410582,0.029979459896535225
38,38,29936.655558701932,2480.551610880804,9.866302283965002,29974.424660900146,-1930.2535434221363,2.5479654008640567,30023.929912305193,29057.14841265566,8.017969029695816,30051.299467315217,-7742.204137998129,11.3648390728701,30231.684833895823,11019.997356450933,33.97392480107041,0.9641015384252548,44.0,31.0,91.0,209.0,300.0,13.0,693.0,691.0,14.0,9.0,5.0,0.6428571428571429,308.3078001564028,3350.007394318616,11.0,1.0,10.0,0.0909090909090909,299.841571271925,3041.5637516952593,16.0,8.0,8.0,0.5,1893.760265443633,28839.304963116538,23.0,10.0,13.0,0.4347826086956521,799.2670462966236,13977.200630043586,79.0,37.0,42.0,0.4683544303797468,390.40499585695744,11743.589590800446,,,,,29929.0,29942.0,29973.0,29984.0,30016.0,30032.0,30041.0,30064.0,30195.0,30273.0,0.1242900163028366,-0.15533792039585506,0.06517364465877241,-0.10323507776989291,0.03542695912067715
39,39,30612.49891074995,3213.4424095416844,13.704480283232764,30660.30135639943,-1347.2906434929616,6.7154285988082325,30701.24589793579,28839.29192498361,8.107028550268637,30728.802631211405,-7192.817403936544,10.649520985166246,30907.67387120777,11609.268641701625,37.255943543316,0.9642112502301156,57.0,30.0,85.0,210.0,295.0,27.0,678.0,677.0,31.0,11.0,20.0,0.3548387096774194,330.2925674684347,3873.2809493745126,8.0,2.0,6.0,0.25,304.3441120033282,1336.9162539219578,16.0,8.0,8.0,0.5,1811.800712750223,28666.546174314695,24.0,10.0,14.0,0.4166666666666667,750.6868982522486,13122.734479878343,91.0,46.0,45.0,0.5054945054945055,334.9131829174369,11615.731530652538,,,,,30601.0,30628.0,30658.0,30666.0,30693.0,30709.0,30719.0,30743.0,30868.0,30953.0,0.10278465439047421,-0.22589343544633478,0.06282403595286096,-0.10436618310947342,0.02884877534097162
40,40,31282.21378280162,3395.3470658628075,14.772870625725568,31333.389067177413,-1727.325571447595,1.3080003239371778,31371.45056426966,28311.09072502566,8.19502594891155,31399.6274530255,-6753.292738381087,9.471348136295656,31577.86237215277,11700.19838613836,37.74534083449702,0.9622681417965112,62.0,31.0,82.0,206.0,288.0,31.0,667.0,670.0,31.0,12.0,19.0,0.3870967741935484,238.6897762458831,4096.0127864365695,3.0,1.0,2.0,0.3333333333333333,307.96547385996377,1152.295625112744,17.0,8.0,9.0,0.4705882352941176,1762.0154654123148,30713.51363034239,23.0,9.0,14.0,0.391304347826087,669.6396400906299,11248.86112743976,87.0,44.0,43.0,0.5057471264367817,282.3379493615425,12456.881632511138,,,,,31270.0,31301.0,31332.0,31335.0,31363.0,31380.0,31391.0,31414.0,31535.0,31620.0,0.07029908036374141,-0.17829034604163913,0.06223763974783129,-0.0991575022780898,0.024131039495538662
41,41,31957.444728827333,3377.077447886151,15.77481607323259,31992.319585459805,-1482.9583397813626,0.6528190633650857,32047.68797542881,28567.68115609063,8.4134363380467,32074.098393364697,-6783.708539102935,9.712798081152403,32253.635022103143,12094.754623397212,39.01901120333629,0.9617601483350434,50.0,14.0,96.0,211.0,307.0,36.0,674.0,677.0,36.0,16.0,20.0,0.4444444444444444,259.35267296227954,3724.192444703697,3.0,1.0,2.0,0.3333333333333333,402.7423442350277,1945.007305652332,18.0,9.0,9.0,0.5,1806.638204413289,27735.26412662754,23.0,9.0,14.0,0.391304347826087,819.1431525681116,12143.979428114842,87.0,42.0,45.0,0.4827586206896552,251.10059263757745,13092.524093500557,,,,,31941.0,31977.0,31991.0,31994.0,32039.0,32057.0,32066.0,32087.0,32212.0,32298.0,0.07679796420559405,-0.27158034951568855,0.06324063176643631,-0.12075152519398093,0.02076111508304809
42,42,32671.19724155904,2525.654911141291,9.157515640468588,32712.849321800284,-2220.5814687945635,5.095930801728113,32758.14422789266,29208.31575098357,7.986671216273258,32785.28862151292,-8336.716886833923,11.584627746219244,32966.98875548584,11317.74526650477,33.31079208396273,0.957826917297648,47.0,30.0,88.0,208.0,296.0,17.0,713.0,710.0,25.0,11.0,14.0,0.44,258.6294096623766,2321.406161073348,33.0,12.0,21.0,0.3636363636363636,266.1686578659344,1621.3012460963887,17.0,9.0,8.0,0.5294117647058824,1930.4318326063703,28212.841258153865,23.0,10.0,13.0,0.4347826086956521,841.670886462375,15356.831826011672,86.0,42.0,44.0,0.4883720930232558,276.1888569097209,11161.138228876298,,,,,32663.0,32680.0,32710.0,32714.0,32750.0,32766.0,32775.0,32798.0,32931.0,33006.0,0.10240092916949899,-0.11986439660348211,0.06609185716370396,-0.10095951414538447,0.024403169571867882
43,43,33370.69864360057,2619.8966428096423,10.191861603456228,33430.150678199716,-1558.0789408196697,4.237285433782341,33460.9730745014,28293.03227109335,8.241612092001603,33488.001284253565,-8592.07644552668,11.465102051631233,33670.04788964806,11395.326882225709,34.51140172079368,0.9568500620712196,64.0,44.0,72.0,209.0,281.0,20.0,699.0,703.0,30.0,11.0,19.0,0.3666666666666666,273.3183911624562,1844.054094512336,6.0,1.0,5.0,0.1666666666666666,434.6260402592708,2125.306277836011,16.0,8.0,8.0,0.5,1834.4585329085216,26982.261614156057,26.0,11.0,15.0,0.4230769230769231,818.1509197349296,14450.231544861024,84.0,43.0,41.0,0.5119047619047619,367.9391626109102,10646.3541885244,,,,,33365.0,33385.0,33429.0,33435.0,33453.0,33469.0,33477.0,33501.0,33631.0,33710.0,0.10432411214105863,-0.2789499484734862,0.06483781997388685,-0.09522155964532719,0.032288600968947825
44,44,34017.19183038633,3573.784050323607,13.804782526881308,34064.150679397935,-1537.1682371792665,2.0362647196868964,34107.494019958176,27716.02835086999,8.231660158107566,34135.670359368036,-7307.284616803048,9.486683127164712,34314.20312047699,11529.257862955184,37.845123325751466,0.9557643440424995,50.0,31.0,87.0,209.0,296.0,19.0,651.0,647.0,20.0,7.0,13.0,0.35,353.0297727001168,3422.4144927492407,6.0,3.0,3.0,0.5,440.02929432536826,2166.1901706815006,17.0,8.0,9.0,0.4705882352941176,1672.3148740700938,29457.00812423262,20.0,8.0,12.0,0.4,801.1154424658828,12444.556648378884,83.0,40.0,43.0,0.4819277108433735,372.5943413575207,12848.6091823488,,,,,34011.0,34030.0,34061.0,34067.0,34099.0,34116.0,34128.0,34148.0,34274.0,34357.0,0.09878318547763115,-0.2862596843224074,0.060337464405054296,-0.10963244002070531,0.03231728752938284
45,45,,,,,,,,,,,,,,,,,,,,,,,,,,,,,,,,,,,,,,,,,,,,,,,,,,,,,,,,,,,,34977.0,35231.0,35276.0,35293.0,35308.0,35316.0,35344.0,35477.0,35540.0,,,,,
46,46,35813.64125735733,3277.2897152508344,10.191861603456228,35868.424660900135,-2122.0066709620664,2.5479654008640567,35904.8380994395,30203.02689018162,7.897430358378604,35932.888742264055,-7432.434428774595,11.18293844894,36116.65746019684,11822.551749631844,33.281176312962025,0.9520969761354816,58.0,42.0,79.0,202.0,281.0,16.0,1793.0,1797.0,16.0,5.0,11.0,0.3125,383.0793187957202,2476.3594325313456,11.0,1.0,10.0,0.0909090909090909,368.7882744259881,1362.9089555563332,16.0,8.0,8.0,0.5,2004.8076521681328,29020.56579942099,25.0,11.0,14.0,0.44,779.199902927578,13086.126236754186,83.0,47.0,36.0,0.5662650602409639,394.5755698211238,12028.368112738684,,,,,35809.0,35825.0,35867.0,35878.0,35897.0,35913.0,35922.0,35946.0,36076.0,36148.0,0.11688906141347971,-0.17379223141593067,0.06637770642848563,-0.10483777696186776,0.03337482281127768
47,47,36447.105790639536,3503.147626501856,13.182215146459498,36507.15067819971,-1337.6486538311804,4.90194394480809,36537.74680760452,30891.719136620533,7.982245917206332,36565.539197425824,-7954.032205068903,10.230790726102406,36744.26017299569,11922.277423789354,36.45681255393013,0.9674455634620156,76.0,44.0,72.0,209.0,281.0,32.0,633.0,633.0,37.0,17.0,20.0,0.4594594594594595,359.7542480951537,2958.4554119740405,6.0,1.0,5.0,0.1666666666666666,430.6830081302939,1341.643991556702,18.0,9.0,9.0,0.5,2024.3749043627645,29764.8870634859,24.0,12.0,12.0,0.5,752.6009493705045,12118.947061124163,79.0,36.0,43.0,0.4556962025316455,343.13577400972093,12233.993922379186,,,,,36430.0,36462.0,36506.0,36510.0,36529.0,36546.0,36555.0,36578.0,36708.0,36787.0,0.10269457255342507,-0.3219702026363709,0.06553131262814613,-0.09461879584682735,0.028781059340645617
48,48,37084.15067819971,4093.8367964054737,5.095930801728113,37134.41122730149,-1244.963484272871,1.4336977018111168,37168.90398585667,28881.425230484212,8.119590747937183,37197.350084699865,-7094.497621468514,9.698184881089048,37373.99738229327,11526.532629612411,35.75093540140064,0.9569300003521852,64.0,45.0,78.0,207.0,285.0,19.0,639.0,631.0,20.0,17.0,3.0,0.85,436.1103817324056,2572.4614497331913,5.0,2.0,3.0,0.4,439.138370614289,417.2190343722493,17.0,8.0,9.0,0.4705882352941176,1805.7547905093304,28772.92339404248,25.0,11.0,14.0,0.44,768.4474920549035,12002.884561631028,88.0,44.0,44.0,0.5,339.92185401351685,12005.749487111125,,,,,37068.0,37087.0,37132.0,37137.0,37161.0,37178.0,37188.0,37210.0,37338.0,37417.0,0.10652852163411232,-0.3527319284153708,0.06252304988755765,-0.10831598416912852,0.029490382314993454
49,49,38315.5571715867,3075.693251481558,10.191861603456228,38366.84932180029,-1137.7470154752289,5.095930801727693,38405.630927692386,28754.54813357061,7.874184668966606,38434.581319342375,-6821.75914188858,9.482438346470223,38611.1288078797,11590.59631925842,35.31012195874442,0.964984664177963,58.0,44.0,84.0,204.0,288.0,14.0,1231.0,1236.0,14.0,10.0,4.0,0.7142857142857143,298.19757431058036,3789.6264917241824,6.0,3.0,3.0,0.5,323.8752713321999,1093.7446882043912,17.0,9.0,8.0,0.5294117647058824,1862.8830747816965,27099.85979677397,24.0,11.0,13.0,0.4583333333333333,675.77986790815,9226.021037167224,79.0,38.0,41.0,0.4810126582278481,266.480340275509,11979.424986852531,,,,,38306.0,38320.0,38364.0,38369.0,38397.0,38414.0,38424.0,38448.0,38574.0,38652.0,0.09695296309764927,-0.28466369669791614,0.06478568420300793,-0.09906240514394102,0.02299108112606226
50,50,38994.898736541,3411.282837941321,16.00909029782671,39045.424660900135,-1301.2439015306754,0.9793104510643764,39084.22018898541,29803.18468317977,8.36011211433586,39111.568368191336,-6485.313509139101,9.447764584805691,39290.96691732137,12080.887594189837,40.12832994310893,0.9663893654795253,59.0,32.0,82.0,211.0,293.0,27.0,679.0,679.0,27.0,10.0,17.0,0.3703703703703703,262.3879591445464,3967.6598220131577,3.0,1.0,2.0,0.3333333333333333,331.1097764376083,1113.4179074038616,18.0,9.0,9.0,0.5,1847.1417111293977,30965.77292417512,23.0,9.0,14.0,0.391304347826087,706.4331235327257,11752.074645860312,93.0,45.0,48.0,0.4838709677419355,316.33440510813034,12569.920527041866,,,,,38985.0,39012.0,39044.0,39047.0,39076.0,39093.0,39103.0,39126.0,39253.0,39337.0,0.07691767924552842,-0.25445635214744766,0.061977997679284316,-0.10892813778967207,0.026184698983563733
51,51,39684.32873009842,3541.926419299351,14.987408669973531,39724.42466089648,-1479.8987996464773,0.4190991685658546,39773.699258608736,30261.783271359614,8.239344660905289,39801.178051898714,-6994.061806253477,10.182722855463911,39981.07422934145,12169.52408902651,37.18686262138852,0.9674261175155988,45.0,21.0,91.0,210.0,301.0,24.0,694.0,690.0,39.0,20.0,19.0,0.5128205128205128,316.8716938711446,2892.1240011953305,3.0,1.0,2.0,0.3333333333333333,285.08747644729556,991.162514035379,17.0,9.0,8.0,0.5294117647058824,1905.9490969899489,29658.61772533963,25.0,10.0,15.0,0.4,750.8645747090482,12714.785578564206,80.0,37.0,43.0,0.4625,313.71971492510914,13170.550417051263,,,,,39678.0,39702.0,39723.0,39726.0,39765.0,39782.0,39791.0,39814.0,39945.0,40024.0,0.08946309334506922,-0.19263984572147644,0.06298204834457918,-0.10735744057018354,0.025779127649535296
52,52,40352.43761986856,3620.947342107014,17.25547259689646,40403.582259294075,-602.1374132850491,0.6120981132235113,40441.72218970297,28579.80700440036,8.331122644595624,40469.43290215714,-6065.470641193427,9.661513450938108,40648.149787175535,11857.566511504412,40.134188461998,0.9525138709274216,56.0,30.0,85.0,205.0,290.0,26.0,667.0,668.0,40.0,21.0,19.0,0.525,428.8980291877407,3640.684167385567,3.0,2.0,1.0,0.6666666666666666,395.666231126561,191.48682049776312,17.0,9.0,8.0,0.5294117647058824,1848.065718792575,29112.92816573847,24.0,8.0,16.0,0.3333333333333333,751.6293341591088,11787.95192548455,84.0,41.0,43.0,0.4880952380952381,402.9724652361402,11760.425553981617,,,,,40344.0,40370.0,40400.0,40405.0,40433.0,40450.0,40462.0,40485.0,40609.0,40690.0,0.11844912081437968,-0.6571028844860275,0.06466333794724481,-0.12391937553113275,0.033984415338945764
53,53,41004.88612357185,3451.974804440173,16.44820108345465,41069.902153685274,-1251.1912266623026,0.9719238332435328,41096.28487876505,28107.00106800086,8.064977994355168,41122.97529389165,-7060.217271325474,9.427953078586055,41302.98150467822,11691.231961833211,37.59353651607502,0.9574172735220506,77.0,45.0,68.0,209.0,277.0,32.0,651.0,654.0,32.0,14.0,18.0,0.4375,294.07467318064977,4358.778983185684,4.0,2.0,2.0,0.5,585.2641390824439,3951.253979479218,17.0,8.0,9.0,0.4705882352941176,1735.8368752307335,28369.208818005587,22.0,9.0,13.0,0.4090909090909091,792.2772690449585,13479.585921182092,91.0,45.0,46.0,0.4945054945054945,282.5891173708805,10990.77073423832,,,,,40991.0,41023.0,41068.0,41112.0,41088.0,41105.0,41114.0,41136.0,41265.0,41345.0,0.08519027218923794,-0.46776553944012517,0.06175816733457707,-0.11221712287279477,0.024171029904582433
54,54,41665.340628800426,3272.751005252928,15.550892568725144,41722.424660900135,-1502.886735483492,0.9906831398241208,41756.25554412531,28622.563289312344,8.132726673757768,41784.19864561234,-7307.160708886604,9.562583114572556,41962.73249456787,11955.537326095156,37.473557794168066,0.964518687688087,64.0,39.0,76.0,211.0,287.0,25.0,659.0,660.0,25.0,8.0,17.0,0.32,359.4988817290813,4277.391362471143,3.0,1.0,2.0,0.3333333333333333,422.9813410490291,565.116344822696,17.0,8.0,9.0,0.4705882352941176,1790.3596209159548,28998.40046182183,22.0,9.0,13.0,0.4090909090909091,735.691211941248,12752.53521188817,85.0,40.0,45.0,0.4705882352941176,341.42254154145206,12686.703317280811,,,,,41657.0,41682.0,41721.0,41724.0,41748.0,41765.0,41775.0,41797.0,41923.0,42008.0,0.10984608396791193,-0.28144592074861335,0.06255063890746901,-0.10068085830472252,0.028557691070583223
55,55,42360.52755265833,3101.913300562486,12.312329576444425,42421.19471426812,-1620.8901659584128,1.1780993117764782,42449.263394320056,29395.158466270823,7.969608011418794,42477.178051898714,-7564.074708611099,9.85614526319239,42657.36403484595,11656.771250728383,36.84186228804604,0.962689232820122,70.0,51.0,70.0,210.0,280.0,19.0,693.0,693.0,32.0,12.0,20.0,0.375,380.7711436527536,2190.159371034495,3.0,1.0,2.0,0.3333333333333333,499.34433598657375,2384.4010601135574,17.0,8.0,9.0,0.4705882352941176,1825.175715713539,29595.19258909559,24.0,11.0,13.0,0.4583333333333333,844.2471407675522,12861.288527212992,79.0,36.0,43.0,0.4556962025316455,362.38909046467353,12764.773182263758,,,,,42350.0,42369.0,42420.0,42423.0,42441.0,42458.0,42466.0,42490.0,42621.0,42700.0,0.12275363840237134,-0.3080679656609043,0.0620910316849565,-0.11161274488820738,0.031088290459678477
56,56,43016.27670965605,3648.017605630405,17.7324515286212,43066.605409048,-737.5666971525412,1.290980574092305,43107.00165057189,28867.678210593687,8.317236881576164,43135.46150878904,-6693.951323753409,9.343322170160915,43313.22821822214,11732.160206319426,40.73039601599742,0.9606453284752238,55.0,37.0,85.0,206.0,291.0,18.0,659.0,658.0,38.0,19.0,19.0,0.5,364.8075306089842,4563.798105073029,5.0,3.0,2.0,0.6,329.05819544294206,31.211906369070675,18.0,9.0,9.0,0.5,1761.6833511372815,29613.213087384614,23.0,9.0,14.0,0.391304347826087,765.7374305477373,11855.50965401866,84.0,41.0,43.0,0.4880952380952381,369.8807456825174,12691.50533933823,,,,,43009.0,43027.0,43064.0,43069.0,43098.0,43116.0,43126.0,43149.0,43275.0,43355.0,0.1000015816935573,-0.44614025648569555,0.06102615313519705,-0.11439244080406244,0.03152707934241167
57,57,44924.178051898714,3047.5991325168648,12.289394434883004,44966.849321770875,-993.4879376267304,5.095930788737487,45013.638012502845,28186.736845797303,7.898518664738796,45042.112891463184,-7333.916677710783,10.16417015089704,45220.330359402265,11318.113887021527,35.59501499607587,0.964571844045675,45.0,26.0,92.0,207.0,299.0,19.0,1910.0,1907.0,32.0,18.0,14.0,0.5625,311.86949111725426,2776.674969722275,6.0,5.0,1.0,0.8333333333333334,294.25704035838305,713.0622186019931,16.0,8.0,8.0,0.5,1858.7596705717551,26820.84174739681,24.0,10.0,14.0,0.4166666666666667,639.8710169083927,11768.85257245968,86.0,42.0,44.0,0.4883720930232558,371.61503511205615,11775.418232388976,,,,,44919.0,44938.0,44964.0,44968.0,45006.0,45022.0,45032.0,45056.0,45180.0,45263.0,0.10233284548145159,-0.2961858208981499,0.06594447880719828,-0.08724819834033384,0.03283365398347748
58,58,45579.234997332635,3938.8700804822543,15.246079154203931,45629.424660900135,-784.83559303504,1.684989620310733,45670.26686586421,29582.820092765865,8.503064656962746,45695.9400567515,-7239.956918613901,10.297364381507364,45883.10949479597,12033.92980042836,38.74612107464537,0.9541541162930972,63.0,31.0,82.0,213.0,295.0,32.0,652.0,656.0,38.0,20.0,18.0,0.5263157894736842,269.8379630874719,4339.339162346494,6.0,1.0,5.0,0.1666666666666666,253.8728923438117,875.8010247277862,17.0,9.0,8.0,0.5294117647058824,1882.204378173632,29212.96085946459,25.0,9.0,16.0,0.36,873.3866900544127,14442.461213755434,91.0,51.0,40.0,0.5604395604395604,268.9076571354516,11920.42778285664,,,,,45565.0,45597.0,45628.0,45634.0,45661.0,45678.0,45688.0,45710.0,45833.0,45923.0,0.06850643904823446,-0.3234727051076508,0.06362491379359411,-0.12063423855588684,0.022345789080960035
59,59,46236.086014235414,3424.695956218435,16.691541114641097,46276.77800981641,-771.4537119156886,0.7921696018237796,46327.06986967528,28974.09822406751,8.468205428306245,46353.82133491837,-6920.247291998393,10.190952827221,46533.26017299569,12112.18724564553,38.93037752631489,0.9621779034018808,49.0,20.0,96.0,207.0,303.0,29.0,661.0,657.0,40.0,19.0,21.0,0.475,299.6812211363739,3109.5627479658892,3.0,2.0,1.0,0.6666666666666666,171.7856233694817,990.3872227928932,17.0,8.0,9.0,0.4705882352941176,1813.888313556215,28607.93157003636,25.0,10.0,15.0,0.4,733.2248423342488,13225.726166097284,85.0,42.0,43.0,0.4941176470588235,268.4934978191583,12496.421553458811,,,,,46224.0,46253.0,46273.0,46278.0,46319.0,46336.0,46346.0,46369.0,46492.0,46576.0,0.08750593482385609,-0.22267781036778,0.06260378837431764,-0.10595356081885218,0.02216721822193467
60,60,46866.345714630486,3186.5025134357284,10.649737756203685,46916.30364343706,-2469.719675278526,0.8581976056088114,46956.36934810278,28245.643652728104,7.956644332557687,46983.38094392755,-6847.967511446014,11.223407670764391,47161.51131800351,11059.252942424791,35.98215259069508,0.9563207838580924,57.0,39.0,82.0,206.0,288.0,18.0,627.0,629.0,18.0,8.0,10.0,0.4444444444444444,349.1219920224666,3941.2940683803454,3.0,1.0,2.0,0.3333333333333333,533.068758850181,2335.2299420856693,16.0,8.0,8.0,0.5,1803.8067358945991,27438.6713538406,24.0,9.0,15.0,0.375,893.0020462741262,13871.390714984322,91.0,44.0,47.0,0.4835164835164835,397.9225349228832,11158.698540266152,,,,,46858.0,46876.0,46915.0,46918.0,46948.0,46964.0,46974.0,46997.0,47124.0,47203.0,0.10956275432089295,-0.2158418075484876,0.06386141374832428,-0.13040395486420178,0.03598095974425167
61,61,47472.15067819971,3159.551247899498,5.095930801728113,47526.15331873758,-2025.9046777633232,5.095930801728113,47563.49905095783,27162.31615371886,7.869057335141693,47592.18898964462,-7419.424256423465,11.167158361704647,47774.383477496405,10747.750799343808,33.08983585351489,0.941561421900306,61.0,50.0,80.0,205.0,285.0,11.0,605.0,607.0,17.0,8.0,9.0,0.4705882352941176,350.18175316225285,3147.4302449492525,13.0,7.0,6.0,0.5384615384615384,421.44501631746806,1183.4830371809103,17.0,8.0,9.0,0.4705882352941176,1741.6657320168308,27295.752582140223,24.0,11.0,13.0,0.4583333333333333,652.955590312219,11421.874655797368,85.0,45.0,40.0,0.5294117647058824,308.1535722185515,10199.26070769804,,,,,47464.0,47475.0,47525.0,47531.0,47556.0,47572.0,47581.0,47605.0,47735.0,47810.0,0.1108327498707474,-0.20802805825136828,0.0641206634279741,-0.0880062344119106,0.028671447447159406
62,62,48104.10336276291,3341.3828064080344,7.64389620259217,48135.84932180029,-1583.2277559617132,5.095930801728113,48193.31370374632,28420.498665313815,7.930683145831841,48222.39463175655,-7328.8159047357085,10.06808005436408,48399.77321329694,11483.29759784134,34.85794213865278,0.9623947646394062,38.0,25.0,100.0,209.0,309.0,13.0,632.0,631.0,13.0,9.0,4.0,0.6923076923076923,327.2567573094302,4142.122123766474,31.0,3.0,28.0,0.0967741935483871,337.30399259641683,2014.583476779855,16.0,8.0,8.0,0.5,1789.2689948811085,29228.4720728971,22.0,9.0,13.0,0.4090909090909091,757.2967803643246,12270.61183701284,91.0,45.0,46.0,0.4945054945054945,410.95563603160633,10597.667206245109,,,,,48095.0,48108.0,48133.0,48144.0,48185.0,48201.0,48213.0,48233.0,48361.0,48442.0,0.09794051632809746,-0.21304830674316055,0.062956988051193,-0.10333139625938444,0.0357872494838816
63,63,48746.91191808716,3741.643105527311,14.17788764525379,48793.83190351293,-970.7824934586232,0.5839613040946419,48836.932549054785,30056.900868180313,8.188955832513864,48864.67222318532,-7189.872087535428,10.175093822416349,49042.09330546913,12112.591838305329,38.39127131040069,0.9609303812586124,57.0,31.0,84.0,210.0,294.0,26.0,646.0,643.0,27.0,12.0,15.0,0.4444444444444444,325.7561275392311,4027.258029786525,2.0,1.0,1.0,0.5,317.70049712830667,795.2060053728153,16.0,8.0,8.0,0.5,1927.0036737313208,30606.966799180896,22.0,10.0,12.0,0.4545454545454545,732.6077221741233,12722.85239708561,86.0,40.0,46.0,0.4651162790697674,315.2293816025345,12581.715870868951,,,,,48736.0,48762.0,48793.0,48795.0,48829.0,48845.0,48855.0,48877.0,49002.0,49087.0,0.0870623195082424,-0.32726228508347915,0.06411185511715015,-0.10189440274524401,0.026024932220174456
64,64,49389.724096362515,3939.4199434870543,15.192246919216128,49433.24317612454,-1352.9892336067965,0.2802990246848613,49479.00065509695,29361.03706755763,8.390936630060555,49506.26242253834,-7029.304122382906,9.72294608998238,49683.82323420313,11701.550749660151,39.49657289551568,0.9621627061348462,51.0,25.0,86.0,209.0,295.0,26.0,639.0,642.0,26.0,9.0,17.0,0.3461538461538461,325.5189507761886,5068.270518016223,2.0,1.0,1.0,0.5,362.4618404119281,1313.5413661770078,18.0,9.0,9.0,0.5,1807.3758470600008,29315.37245813776,22.0,8.0,14.0,0.3636363636363636,895.6626287235251,13467.726620667994,91.0,43.0,48.0,0.4725274725274725,374.42361008392584,12028.306753737786,,,,,49381.0,49407.0,49432.0,49434.0,49470.0,49488.0,49498.0,49518.0,49647.0,49727.0,0.08263118820687321,-0.2678970618603357,0.06155694851313866,-0.12741839208116365,0.031997776883957045
65,65,50019.027373699,2579.3467714365793,12.14804154389627,50062.27398270016,-1140.4635933763532,7.64389619486084,50102.03920640434,28125.727531855668,7.877500158878478,50130.09224933661,-6827.470667822615,11.756231575867856,50307.594360556504,11030.187694636592,33.290808579425416,0.9513600130519404,51.0,29.0,84.0,204.0,288.0,22.0,632.0,624.0,39.0,27.0,12.0,0.6923076923076923,387.6522442689975,1605.271760621927,8.0,5.0,3.0,0.625,357.08733168092675,1059.3062402347225,16.0,8.0,8.0,0.5,1801.1527230512845,28100.6808327906,23.0,11.0,12.0,0.4782608695652174,711.193596901427,11680.600034497234,75.0,36.0,39.0,0.48,342.74647143552625,12464.241661023318,,,,,50007.0,50029.0,50058.0,50064.0,50094.0,50110.0,50120.0,50142.0,50272.0,50346.0,0.15029085990368513,-0.3131071730433467,0.0640393291519755,-0.10416648148387249,0.031073494026052348
66,66,50618.93767675862,3291.442114438294,12.889078960757525,50679.15067819971,-1177.268084262623,4.771812273524435,50712.564399229195,29506.274746572868,7.692087672420863,50740.45904987037,-7339.219721678813,10.005436822999927,50918.24382207272,11454.732567270456,34.524390290424854,0.962342042812964,67.0,47.0,76.0,205.0,281.0,20.0,599.0,610.0,35.0,16.0,19.0,0.4571428571428571,291.2988541357754,3319.820950324653,9.0,1.0,8.0,0.1111111111111111,327.43688577667103,83.38076653209953,17.0,9.0,8.0,0.5294117647058824,1889.2954626728472,27676.427342738076,24.0,10.0,14.0,0.4166666666666667,779.8812953348736,12921.705797640929,80.0,39.0,41.0,0.4875,381.54857339030815,13180.828352058645,,,,,50611.0,50631.0,50678.0,50684.0,50704.0,50721.0,50730.0,50754.0,50880.0,50959.0,0.0885018918783226,-0.27813281456768596,0.06403029453564915,-0.10626215386783369,0.033309251975074894
67,67,51267.30277791805,4125.981961260556,17.735015544258193,51327.080501581935,-633.0477108008841,1.910843755076413,51357.98016565856,30894.239766253388,8.520038119460981,51384.21590200261,-7385.939401878785,9.89678580902502,51562.96806679022,12396.009213171825,41.35062267528,0.9639890455109236,66.0,39.0,74.0,211.0,285.0,27.0,648.0,645.0,44.0,21.0,23.0,0.4772727272727273,340.4227244138683,4394.617937552468,4.0,2.0,2.0,0.5,394.90360952313773,2855.0976870449467,18.0,9.0,9.0,0.5,1954.824803217708,29937.074946194083,24.0,8.0,16.0,0.3333333333333333,878.0733171295459,14749.768676157924,92.0,44.0,48.0,0.4782608695652174,284.9598853373276,12719.491990338149,,,,,51259.0,51286.0,51325.0,51329.0,51350.0,51367.0,51376.0,51399.0,51525.0,51610.0,0.08250708015937702,-0.6238133442162448,0.06327473399597992,-0.11888444642616314,0.02298803432918824
68,68,51922.20825775621,3240.854896968202,13.959235524699126,51970.424660900135,-920.2226086215792,2.547965400863919,52011.543951888685,29305.867675332076,8.060198314137816,52040.04942911746,-7154.882429104163,10.126315867739969,52218.04371149341,11510.86567201174,37.95278211467695,0.9681898201959253,59.0,31.0,84.0,208.0,292.0,28.0,651.0,654.0,28.0,12.0,16.0,0.4285714285714285,313.2289034943216,2944.400264874243,5.0,1.0,4.0,0.2,260.0448127070188,1567.8154246384652,17.0,9.0,8.0,0.5294117647058824,1885.1364073560085,28246.49410583504,25.0,11.0,14.0,0.44,705.8218677367882,11580.216235574875,93.0,47.0,46.0,0.5053763440860215,414.98357270085313,11263.655416427771,,,,,51910.0,51938.0,51969.0,51974.0,52003.0,52020.0,52029.0,52053.0,52178.0,52261.0,0.0966500856879909,-0.2825890282097561,0.06432624443134313,-0.09864898196868926,0.03605146515694914
69,69,52558.38699583955,3730.663090864279,14.176367376045912,52612.424660900135,-502.4150904732665,2.51236782004189,52649.272155472994,27491.80257533747,8.469913719186783,52675.98252916143,-7142.263467939103,10.27722911381357,52854.83674544455,11436.227253752118,38.235777288958566,0.9602428717073586,61.0,42.0,79.0,206.0,285.0,19.0,639.0,637.0,19.0,8.0,11.0,0.4210526315789473,304.2612487521586,4571.6870712353275,3.0,1.0,2.0,0.3333333333333333,300.55441931943614,582.4959079427697,17.0,8.0,9.0,0.4705882352941176,1766.03403760069,26801.726898134293,22.0,8.0,14.0,0.3636363636363636,755.5694865683743,13183.015194374775,89.0,44.0,45.0,0.4943820224719101,364.87649135615726,11957.184878484502,,,,,52550.0,52569.0,52611.0,52614.0,52642.0,52657.0,52668.0,52690.0,52817.0,52896.0,0.08155688180399874,-0.5982193310243109,0.06423856830635673,-0.10578852067836045,0.03190532010776934
70,70,53835.74765557517,3855.232666901366,13.977255931896783,53888.20446787967,-1511.2536356376445,1.1700608996927255,53926.2133277092,29514.56812089558,8.163904582102813,53953.628721068875,-6644.60156881269,10.117517405122118,54132.185287543136,11837.92577562077,38.60706386386784,0.956794033004022,58.0,39.0,82.0,204.0,286.0,19.0,1279.0,1277.0,26.0,8.0,18.0,0.3076923076923077,512.1142501119009,4277.789547476679,2.0,1.0,1.0,0.5,441.71835082677376,1194.602586716499,17.0,9.0,8.0,0.5294117647058824,1862.8252204714563,29856.449925325112,23.0,8.0,15.0,0.3478260869565217,807.670613191391,12187.420353767511,85.0,43.0,42.0,0.5058823529411764,394.8018972937004,12507.558607677263,,,,,53829.0,53848.0,53887.0,53889.0,53917.0,53934.0,53946.0,53969.0,54096.0,54173.0,0.13283614618349648,-0.2922860467696405,0.06311544905014627,-0.12155290348518398,0.03335059745912263
71,71,54493.178051916984,3631.600256991303,15.039450765845224,54547.40177923664,-2017.220847026823,0.3913763434757291,54584.97643360474,30517.08215609693,8.287055625580198,54612.173224680446,-7371.108210509589,9.48982759489002,54790.872084307826,11795.34060085111,38.01137657513904,0.9572245862031524,58.0,39.0,79.0,207.0,286.0,19.0,659.0,659.0,39.0,19.0,20.0,0.4871794871794871,450.34488931863297,2770.487722737434,3.0,1.0,2.0,0.3333333333333333,464.1558643765001,537.0558590288772,17.0,9.0,8.0,0.5294117647058824,1947.31897762492,30803.645353837728,24.0,8.0,16.0,0.3333333333333333,894.8997573824765,14991.770898059942,80.0,38.0,42.0,0.475,478.9265537387053,12860.620496711306,,,,,54488.0,54507.0,54546.0,54549.0,54576.0,54593.0,54604.0,54625.0,54755.0,54832.0,0.12400728534250444,-0.2300967021338384,0.06381078530589039,-0.12140640617737032,0.04060302876749042
72,72,56899.726017299574,2201.9762204768967,6.230092382206291,56963.726017299574,-2976.7022508007676,7.64389620259217,56992.87635197125,28855.955679156665,8.181351851745339,57018.37184956927,-8563.022592020809,15.568208665593271,57197.63410431094,9713.719357552947,29.86918118335788,0.9257640861608036,50.0,39.0,91.0,202.0,293.0,11.0,2404.0,2407.0,11.0,7.0,4.0,0.6363636363636364,389.19605604263415,2617.5731465090566,25.0,21.0,4.0,0.84,500.1586702651854,613.4241516275074,17.0,9.0,8.0,0.5294117647058824,1862.3771929793704,24250.13200552745,25.0,9.0,16.0,0.36,920.5717495018788,17115.997259708627,72.0,33.0,39.0,0.4583333333333333,481.0528711012464,9128.507108927935,,,,,56893.0,56904.0,56943.0,56968.0,56984.0,57000.0,57009.0,57034.0,57165.0,57236.0,0.17674852817363457,-0.16802442035666715,0.06454047870348682,-0.10750546779587916,0.049523035759438686
73,73,57531.726017299574,4312.484308741091,7.64389620259217,57564.022275086456,-1600.1677391491903,1.371785186709744,57620.93090355528,28997.89697351337,8.097323309718458,57648.728390245706,-7520.879321085897,10.275997370539192,57826.30861712677,11419.75072476263,37.828339684501394,0.9567972352472184,38.0,26.0,100.0,207.0,307.0,12.0,632.0,629.0,13.0,8.0,5.0,0.6153846153846154,458.1093225850088,3426.610256164812,4.0,2.0,2.0,0.5,357.74721973971276,2799.9202167167814,17.0,9.0,8.0,0.5294117647058824,1871.5723881738672,28093.34377980054,22.0,9.0,13.0,0.4090909090909091,764.9591722579961,13110.20151551087,85.0,42.0,43.0,0.4941176470588235,363.17175073323136,12360.371019152011,,,,,57524.0,57536.0,57562.0,57566.0,57613.0,57629.0,57640.0,57662.0,57785.0,57869.0,0.10622863523386152,-0.2235685740858187,0.06454165934458483,-0.10171140096787885,0.031802073397778144
74,74,58173.307246431104,3356.9445970125485,14.83525607953524,58223.38538070421,-1365.299711133352,0.6618741821905387,58265.38651199256,27803.618762311544,8.159288802602104,58293.48233059959,-6685.539633495557,9.55848391971109,58469.682746508915,10749.459175368718,39.97863733553751,0.9537538915424968,58.0,39.0,85.0,207.0,292.0,19.0,640.0,645.0,19.0,9.0,10.0,0.4736842105263157,353.71586088977506,4819.396692269791,3.0,1.0,2.0,0.3333333333333333,448.034711233411,1164.6949700169987,17.0,8.0,9.0,0.4705882352941176,1731.0412242118284,29535.71212802617,25.0,11.0,14.0,0.44,823.8106627000884,11102.38734041182,97.0,47.0,50.0,0.4845360824742268,437.70166295576894,10606.402288940812,,,,,58164.0,58183.0,58222.0,58225.0,58257.0,58274.0,58286.0,58307.0,58430.0,58514.0,0.1053683939867694,-0.328158504378128,0.06225956552671105,-0.12322276253852021,0.04071848228036601
75,75,59990.0571799097,2670.8408590794493,12.014728698983744,60041.84932180029,-2076.904667355003,5.095930801728113,60085.33765222655,28791.90969257158,7.851144856649717,60113.48999635606,-8085.934794442421,11.698011102538729,60289.89671527594,10539.21893162138,33.10703515648517,0.956949168915346,58.0,32.0,87.0,206.0,293.0,26.0,1821.0,1819.0,27.0,9.0,18.0,0.3333333333333333,302.8050617480533,2806.7881520712217,43.0,23.0,20.0,0.5348837209302325,286.9842878605861,1834.5458680651257,16.0,8.0,8.0,0.5,1894.63802487162,28516.225625990846,24.0,10.0,14.0,0.4166666666666667,780.122194611839,13668.41385003606,83.0,41.0,42.0,0.4939759036144578,252.52250585487496,11773.673966877685,,,,,59981.0,60007.0,60039.0,60051.0,60077.0,60093.0,60103.0,60126.0,60249.0,60332.0,0.11337443064744045,-0.13817884487980314,0.065804527907381,-0.0964789123884635,0.023960267596037713
76,76,60631.273982700426,4547.429090035639,7.64389620259217,60707.96190461002,-1276.9967435625183,1.045484185325994,60737.83902614599,31073.023880777957,8.055250034922514,60765.39164049393,-7258.66610894229,9.726674691961223,60943.513337401055,11654.017548625554,39.22613169211758,0.9555931220789596,79.0,46.0,72.0,209.0,281.0,33.0,636.0,653.0,33.0,4.0,29.0,0.1212121212121212,443.1578263406078,5899.192543611059,4.0,2.0,2.0,0.5,483.3834857657148,2534.4624628240963,17.0,9.0,8.0,0.5294117647058824,2021.081627638692,29961.275947620772,23.0,9.0,14.0,0.391304347826087,874.8002346419527,14353.626909183824,86.0,43.0,43.0,0.5,423.5930818909171,12690.538865451024,,,,,60627.0,60660.0,60706.0,60710.0,60729.0,60746.0,60757.0,60778.0,60901.0,60987.0,0.0974523884960974,-0.37853149446347795,0.06504296573752356,-0.12051804305535495,0.0363473866521571
77,77,61285.97527668955,3488.061866102857,13.179605766635804,61339.610431342306,-2511.598853377206,0.8250738181312436,61379.99503744427,28070.15560855825,8.05777648288124,61408.23132572776,-7570.269627657186,10.28817576466838,61586.08891420362,11166.763148300372,35.90500154710038,0.9632261716249416,58.0,39.0,83.0,204.0,287.0,19.0,659.0,641.0,37.0,18.0,19.0,0.4864864864864865,357.1330400849774,3187.6991076058193,3.0,2.0,1.0,0.6666666666666666,447.8732112513972,1422.1502859915106,17.0,8.0,9.0,0.4705882352941176,1787.9108065392031,27380.840379644396,23.0,10.0,13.0,0.4347826086956521,801.8964196861345,13201.281114950689,84.0,39.0,45.0,0.4642857142857143,418.61709108976754,11728.029623630257,,,,,61280.0,61299.0,61338.0,61341.0,61372.0,61388.0,61401.0,61421.0,61547.0,61625.0,0.10238724363108706,-0.17832195242849677,0.0636943674795337,-0.10592706193138618,0.03748777380968117
78,78,63077.273982700426,1837.4804007291457,7.643896202592034,63126.273982700426,-2892.818463960805,7.64389620259217,63184.181466107024,27975.26714359856,7.527637569918706,63212.67978600331,-8793.516181567584,10.888575774311144,63389.281660993394,9862.45857091861,30.863342548386477,0.9363990257896132,43.0,31.0,110.0,199.0,309.0,12.0,1787.0,1804.0,13.0,5.0,8.0,0.3846153846153846,359.24018111847454,2573.3397782576876,12.0,10.0,2.0,0.8333333333333334,366.7837190443965,3496.2597632142524,16.0,8.0,8.0,0.5,1878.5805802133968,26662.928860332133,25.0,11.0,14.0,0.44,692.164794340877,11447.487415999263,74.0,32.0,42.0,0.4324324324324324,382.8994371184387,9416.104982411753,,,,,63073.0,63085.0,63116.0,63128.0,63176.0,63192.0,63203.0,63226.0,63358.0,63425.0,0.1955069458024812,-0.1267911290023369,0.06715147957553153,-0.07871308587476639,0.038823933643431736
79,79,63719.30135639943,3287.875662037234,10.19186160345621,63764.18413650356,-2159.662037831034,5.095930801728113,63809.99234117909,29405.178363542553,7.873740703308011,63837.246028071335,-8229.068704336873,10.044363993798656,64014.440968270756,11056.657785855929,33.677925847484396,0.9505034511999888,38.0,27.0,92.0,207.0,299.0,11.0,645.0,627.0,32.0,21.0,11.0,0.65625,339.2280721045356,2930.597809450597,12.0,9.0,3.0,0.75,385.6720172593433,2132.0435919096044,18.0,9.0,9.0,0.5,1907.798717601156,27509.71256504985,18.0,8.0,10.0,0.4444444444444444,898.2148444090174,15977.941279937902,78.0,36.0,42.0,0.4615384615384615,377.02545246850144,11456.887950111255,,,,,63717.0,63728.0,63755.0,63767.0,63802.0,63818.0,63829.0,63847.0,63978.0,64054.0,0.10317545642658002,-0.17857980114642236,0.06487968527225477,-0.10915145767778575,0.034099405061700096
80,80,64333.39728720114,2923.3601127986885,12.6495553581424,64403.15067819971,-1951.84662100406,4.959718012197209,64434.288385903754,28516.652757317584,7.948924084340407,64462.79658312981,-7808.731193427779,10.314567710910165,64638.78386939713,10729.20345076118,35.480286739236355,0.960400938189841,77.0,50.0,76.0,208.0,284.0,27.0,609.0,624.0,34.0,11.0,23.0,0.3235294117647059,271.8309587344128,3592.1699366710927,8.0,5.0,3.0,0.625,432.26210083544504,754.8092568395181,16.0,8.0,8.0,0.5,1838.319317720008,29515.77710788203,23.0,11.0,12.0,0.4782608695652174,723.6984867051282,11894.840269633149,90.0,42.0,48.0,0.4666666666666667,300.7439470835221,11035.077881317804,,,,,64322.0,64349.0,64399.0,64406.0,64426.0,64442.0,64452.0,64475.0,64598.0,64683.0,0.09298579314410037,-0.22146314991343058,0.06446476496959419,-0.09267811489198517,0.028030407705819566
81,81,64932.84932180029,1466.3090617795017,5.095930801728113,65008.726017299574,-2891.4385653673608,7.64389620259217,65038.72309734206,28290.28415259171,8.1193645201525,65063.99664689773,-8454.358976005322,16.308788053687966,65243.49049904129,9188.969051617029,28.30168844492274,0.9199432777804072,55.0,50.0,96.0,198.0,294.0,5.0,602.0,604.0,5.0,3.0,2.0,0.6,328.2141885218949,2656.503089823416,29.0,24.0,5.0,0.8275862068965517,428.54043555889814,401.36939409086017,16.0,9.0,7.0,0.5625,1841.353712086185,23235.11732626955,28.0,10.0,18.0,0.3571428571428571,898.0825689156396,15113.12485397427,79.0,39.0,40.0,0.4936708860759494,250.6086293806315,8646.622482177607,,,,,64930.0,64935.0,64985.0,65013.0,65030.0,65046.0,65054.0,65081.0,65209.0,65279.0,0.22383697753567494,-0.14821011267256565,0.06508784790404787,-0.10622716298947397,0.027272768900721313
82,82,,,,,,,,,,,,,,,,,,,,,,,,,,,,,,,,,,,,,,,,,,,,,,,,,,,,,,,,,,,,65292.0,65559.0,65600.0,65616.0,65632.0,65641.0,65668.0,65797.0,65860.0,,,,,
83,83,66152.16216964112,3402.3896371305077,14.178198535704311,66221.33824791083,-1877.144963699056,2.167108814488415,66248.75245517769,30074.269092970935,7.900067681852815,66276.9164982127,-7809.77948682799,9.639756000155112,66453.01671942297,11251.95302589376,36.07603996767259,0.9684018753209764,83.0,53.0,70.0,205.0,275.0,30.0,1220.0,1211.0,30.0,16.0,14.0,0.5333333333333333,323.2865537120872,4118.208392128317,5.0,2.0,3.0,0.4,483.6168295231485,2927.421435557675,18.0,9.0,9.0,0.5,1968.1057234432303,29588.11571102155,22.0,10.0,12.0,0.4545454545454545,719.124878242714,12185.642875748294,91.0,45.0,46.0,0.4945054945054945,298.49515446944264,10154.746987183982,,,,,66136.0,66166.0,66219.0,66224.0,66240.0,66257.0,66267.0,66289.0,66414.0,66494.0,0.09501749893193867,-0.25763424715486277,0.06544151471675243,-0.09208004905331749,0.02652829724604478
84,84,66826.054747398,3183.297725353371,14.48324564811955,66873.84932180027,-1617.627306333928,5.095930801728113,66917.86487349687,30777.490770060656,7.995243482279838,66945.01507975736,-8482.83310354459,11.171927408137542,67124.21241054984,11361.646333656769,35.622054737158706,0.9661121827626036,64.0,25.0,88.0,205.0,293.0,39.0,680.0,669.0,45.0,24.0,21.0,0.5333333333333333,317.84511317227077,1952.458293655864,12.0,3.0,9.0,0.25,259.6568604968863,1521.2854802695597,17.0,9.0,8.0,0.5294117647058824,2037.6779122794203,27749.356790080503,24.0,10.0,14.0,0.4166666666666667,820.8610273155256,15480.034057777328,82.0,39.0,43.0,0.4756097560975609,298.00669563686995,11071.99042707232,,,,,66807.0,66846.0,66871.0,66883.0,66909.0,66926.0,66935.0,66959.0,67087.0,67164.0,0.0998477492823853,-0.16051711014037812,0.06620675894285727,-0.09676732022141578,0.02622918253968885
85,85,67470.63008649785,3945.9989838611496,18.56488534387302,67533.42466089428,-1278.7697841393283,1.0952841310602577,67564.72079292579,28977.93136048923,8.076855956362204,67592.42601064852,-7408.050142948202,8.90201156351384,67769.86700248792,11791.080250226682,38.652748697846505,0.9531153066935892,78.0,40.0,71.0,209.0,280.0,38.0,645.0,646.0,38.0,17.0,21.0,0.4473684210526316,367.9162216558027,3801.3363624070985,3.0,1.0,2.0,0.3333333333333333,506.3127609577822,1515.117759603834,17.0,9.0,8.0,0.5294117647058824,1871.3631838615656,27865.868553738932,19.0,8.0,11.0,0.4210526315789473,840.2747950000232,14270.866858504163,85.0,43.0,42.0,0.5058823529411764,421.77700834029474,12437.521437262263,,,,,67454.0,67492.0,67532.0,67535.0,67557.0,67573.0,67584.0,67603.0,67733.0,67812.0,0.09323778925452171,-0.3959373823479527,0.0645789087075114,-0.11342725532168399,0.03577085384794885
86,86,68061.15067819973,2045.4911722762647,5.095930801728113,68116.60271279886,-3376.27770550707,16.387644777490642,68160.38412783798,30105.55308602993,8.591631018150396,68182.36838064528,-8824.46669640671,19.595998579242803,68365.44491352601,9196.000855329425,26.991334282725777,0.8992350739288145,54.0,42.0,95.0,198.0,293.0,12.0,585.0,595.0,12.0,9.0,3.0,0.75,443.16594975839536,2281.8807581337232,44.0,26.0,18.0,0.5909090909090909,434.7413221885577,3452.867339257708,16.0,8.0,8.0,0.5,1786.3768852949695,23933.359216515535,32.0,6.0,26.0,0.1875,1014.74824495419,16721.124066748303,68.0,33.0,35.0,0.4852941176470588,333.58844016354146,8693.11762178422,,,,,68052.0,68064.0,68106.0,68128.0,68152.0,68167.0,68177.0,68201.0,68333.0,68399.0,0.21665502924915153,-0.1287634964029908,0.05933712229734498,-0.11499258593920376,0.036275381593751654
87,87,,,,,,,,,,,,,,,,,,,,,,,,,,,,,,,,,,,,,,,,,,,,,,,,,,,,,,,,,,,,68405.0,68652.0,68707.0,68721.0,68735.0,68743.0,68774.0,68911.0,68963.0,,,,,
88,88,,,,,,,,,,,,,,,,,,,,,,,,,,,,,,,,,,,,,,,,,,,,,,,,,,,,,,,,,,,,68971.0,69223.0,69278.0,69290.0,69304.0,69313.0,69341.0,69477.0,69530.0,,,,,
89,89,69780.84932180027,2324.2398927613276,5.095930801728033,69831.69864360057,-3201.7114605383144,10.191861603455587,69887.35797276083,34721.46599291803,8.480381303935133,69906.60271280074,-9774.3632207786,20.383723206909977,70090.86292246328,10447.411351024675,30.02837800784068,0.9350547585990382,43.0,37.0,107.0,201.0,308.0,6.0,1718.0,1728.0,12.0,3.0,9.0,0.25,418.25442966180634,3504.3007531454596,43.0,12.0,31.0,0.2790697674418604,386.4699994810905,3139.9421452548554,17.0,9.0,8.0,0.5294117647058824,1992.172873661223,26151.694045117307,31.0,5.0,26.0,0.1612903225806451,1116.0555927565017,20480.04558764331,79.0,40.0,39.0,0.5063291139240507,415.9842407455634,10220.817811423156,,,,,69778.0,69784.0,69821.0,69834.0,69879.0,69895.0,69902.0,69928.0,70058.0,70129.0,0.17995321006425744,-0.12070731677242146,0.057375828372786944,-0.11418192342023481,0.03981696774146487
90,90,70387.80287722664,2484.4876417547657,5.095930801728113,70445.1855193537,-2940.514687348141,15.73916358885678,70489.97970204898,32038.047802200515,8.383071721913078,70512.75339099858,-8789.38154814723,17.63096519191238,70694.61493998168,10015.371806704752,29.16156550484941,0.9271577218060314,56.0,44.0,98.0,196.0,294.0,12.0,608.0,602.0,12.0,10.0,2.0,0.8333333333333334,393.3688163714838,2970.327763639575,47.0,26.0,21.0,0.5531914893617021,371.7082977658202,1960.335468221249,17.0,9.0,8.0,0.5294117647058824,1981.7633075491308,24269.204153132225,28.0,7.0,21.0,0.25,952.9719552357552,17753.224477098276,71.0,37.0,34.0,0.5211267605633803,410.8175020243853,9423.912323602555,,,,,70378.0,70390.0,70434.0,70459.0,70481.0,70497.0,70507.0,70532.0,70658.0,70728.0,0.1583299549413946,-0.12640926412139086,0.061856556297822066,-0.108423095529018,0.041018697054198736
91,91,,,,,,,,,,,,,,,,,,,,,,,,,,,,,,,,,,,,,,,,,,,,,,,,,,,,,,,,,,,,70743.0,70999.0,71046.0,71060.0,71074.0,71082.0,71113.0,71250.0,71300.0,,,,,
92,92,,,,,,,,,,,,,,,,,,,,,,,,,,,,,,,,,,,,,,,,,,,,,,,,,,,,,,,,,,,,71300.0,71554.0,71617.0,71629.0,71642.0,71650.0,71684.0,71823.0,71865.0,,,,,
93,93,,,,,,,,,,,,,,,,,,,,,,,,,,,,,,,,,,,,,,,,,,,,,,,,,,,,,,,,,,,,71887.0,72146.0,72192.0,72208.0,72223.0,72231.0,72258.0,72389.0,72453.0,,,,,
94,94,72772.75339099858,3778.6088188347208,17.785834419135085,72806.57533909987,-1232.4703854531692,2.5479654007409853,72860.67790769643,31401.996075349416,8.103127784307212,72887.42524310492,-7392.609553975049,10.895473143389232,73065.71467560696,11704.241732468075,38.073795276731104,0.9671960614872946,59.0,19.0,97.0,203.0,300.0,40.0,2389.0,2372.0,43.0,26.0,17.0,0.6046511627906976,309.43372949606584,3335.131814042609,2.0,1.0,1.0,0.5,285.3242492869553,2300.9041238718573,18.0,9.0,9.0,0.5,2031.093633188976,28797.83049867035,25.0,9.0,16.0,0.36,831.5802128972537,15774.252245928454,84.0,43.0,41.0,0.5119047619047619,313.84065630229946,12164.304415443316,,,,,72747.0,72787.0,72806.0,72808.0,72852.0,72869.0,72878.0,72903.0,73027.0,73106.0,0.08189091391352112,-0.23150596773328871,0.06468039892481184,-0.11248804726202646,0.026814266440831604
95,95,73426.972626301,2924.191291043825,15.435832427381929,73486.42466090013,-1369.5216104033652,2.546637263588534,73528.02042724528,28853.87715535563,8.204756022673594,73555.68574650458,-6992.463452587525,10.167597544664371,73732.44495895512,10769.807403241057,37.85560510812543,0.962192416851565,68.0,39.0,85.0,204.0,289.0,29.0,647.0,668.0,44.0,14.0,30.0,0.3181818181818182,317.9911815790097,3795.961812590857,4.0,1.0,3.0,0.25,253.61219792535292,2092.35806745692,17.0,8.0,9.0,0.4705882352941176,1808.6357952458404,28453.54149048472,25.0,11.0,14.0,0.44,725.1899208199967,11940.061999685784,85.0,40.0,45.0,0.4705882352941176,355.14674406379675,11958.484654495996,,,,,73417.0,73446.0,73485.0,73489.0,73520.0,73537.0,73545.0,73570.0,73692.0,73774.0,0.10874499987499073,-0.18518305662271112,0.06268259151128103,-0.1037102196868321,0.032976146254659965
96,96,74659.33289952565,3271.0904113373285,14.428377794767613,74725.42466090013,-2287.9625689438226,1.2514895902226593,74754.81362060543,29860.522423403407,7.863683213156765,74782.4541978803,-6910.372917567299,10.770092864980924,74958.63032601768,11195.68962600461,35.43312678852159,0.9666582809527768,79.0,46.0,73.0,201.0,274.0,33.0,1239.0,1226.0,44.0,20.0,24.0,0.4545454545454545,384.7705410098731,2327.29790209121,3.0,1.0,2.0,0.3333333333333333,506.27990102127575,900.2668152810038,17.0,9.0,8.0,0.5294117647058824,1978.1580166439724,29538.50081171347,26.0,11.0,15.0,0.4230769230769231,759.7958669451793,12697.112493752433,88.0,43.0,45.0,0.4886363636363636,332.4692008170826,11854.292788210216,,,,,74645.0,74678.0,74724.0,74727.0,74746.0,74763.0,74771.0,74797.0,74920.0,74998.0,0.11762760811388467,-0.22127980059349767,0.0662465977183834,-0.10995005276975052,0.029696178790527116
97,97,75306.3485392988,3704.3057319284862,15.964582935289863,75371.64126345918,-1802.2654200635243,1.9001484247544296,75400.07690207574,31006.8008366223,8.347436307256404,75426.54796540085,-7375.2112152547,10.734504283052196,75604.33196783128,11844.093586325183,39.46328619347514,0.9627482007623648,83.0,52.0,72.0,207.0,279.0,31.0,645.0,645.0,43.0,20.0,23.0,0.4651162790697674,390.7406943069251,4526.79756397445,4.0,2.0,2.0,0.5,546.3473392099918,2835.9271527806723,18.0,9.0,9.0,0.5,1928.3730908878144,30324.9112706533,25.0,10.0,15.0,0.4,816.3205415162078,13840.37522221857,87.0,40.0,47.0,0.4597701149425287,341.8745163050094,11653.645265636103,,,,,75287.0,75318.0,75370.0,75374.0,75392.0,75409.0,75418.0,75442.0,75565.0,75649.0,0.10548284147796377,-0.3031447716456407,0.06219193979567871,-0.11068436112416022,0.02886455715781636
98,98,75963.75339099858,3602.778911849461,19.91754933237568,75991.57533909987,-2950.6482036533116,2.5479654008640567,76050.1231604497,30606.99916187871,8.146018430537923,76076.72103238528,-7779.609790989884,10.398900311370776,76253.34654942405,11595.545640809827,39.10460209194281,0.959001029641825,54.0,11.0,102.0,204.0,306.0,43.0,660.0,650.0,51.0,32.0,19.0,0.6274509803921569,308.6569253127223,2021.8343308557376,4.0,3.0,1.0,0.75,343.2607116258642,2742.110551069304,17.0,9.0,8.0,0.5294117647058824,1911.9255448136184,29616.43757671752,23.0,9.0,14.0,0.391304347826087,879.7411582409319,15175.546681997952,87.0,41.0,46.0,0.4712643678160919,364.8277413257518,12717.93574256066,,,,,75935.0,75978.0,75989.0,75993.0,76041.0,76058.0,76068.0,76091.0,76212.0,76295.0,0.08567190295734119,-0.11633400118687813,0.062466938843025774,-0.11308294141691044,0.0314627489405727
99,99,76578.027373699,3657.0309947088713,13.122898153370148,76623.42466090013,-1444.0201982583949,2.547965400860286,76666.67362019137,28690.939798718056,7.854200429770361,76695.19403758501,-7612.554233571715,10.007207171834583,76870.32189849913,10966.91189683207,36.09134448090087,0.960473565653629,66.0,34.0,88.0,203.0,291.0,32.0,613.0,617.0,40.0,23.0,17.0,0.575,324.79646236520796,3635.028951014854,4.0,1.0,3.0,0.25,320.1382092100314,1745.7862243558252,17.0,9.0,8.0,0.5294117647058824,1865.4791523722704,26947.2172668258,25.0,10.0,15.0,0.4,808.3046624486363,13129.969543960382,86.0,40.0,46.0,0.4651162790697674,321.8149816089962,9713.900745556157,,,,,76556.0,76588.0,76622.0,76626.0,76658.0,76675.0,76686.0,76710.0,76837.0,76913.0,0.08881424927355977,-0.2216992598830293,0.06501979947187447,-0.10618047998712121,0.029344174972533197
100,100,77788.45203459915,3228.793737189237,14.480045669990734,77840.15067819973,-1508.0571550789844,5.095930801727889,77880.4647519862,28581.561624521357,7.812670068716945,77908.6278500061,-7393.816216116648,9.848229048246967,78084.73140615829,10618.224557786556,34.96040621827067,0.964109666709286,54.0,33.0,82.0,205.0,287.0,21.0,1210.0,1213.0,36.0,18.0,18.0,0.5,297.83504267023125,3600.9137418633018,6.0,1.0,5.0,0.1666666666666666,278.75763041008645,1487.7381979443378,17.0,8.0,9.0,0.4705882352941176,1817.301472552134,29703.209242796445,23.0,10.0,13.0,0.4347826086956521,690.1317053932763,12210.907567682876,82.0,41.0,41.0,0.5,310.9228769896616,10903.547700340194,,,,,77785.0,77806.0,77839.0,77844.0,77872.0,77889.0,77899.0,77921.0,78048.0,78126.0,0.09224344040307315,-0.18484553418367392,0.06358300139181312,-0.09333903970847475,0.029282002400453627
101,101,78423.67126990156,3462.8648659498804,18.69382125984765,78481.84932180027,-1179.321428612213,5.095930801669956,78522.04780468413,29717.87028245857,8.064149178263708,78549.4608767683,-7414.423052183104,9.568018562669405,78725.76198143,11622.348679339317,38.24452019883225,0.9656166369403998,71.0,28.0,83.0,209.0,292.0,43.0,628.0,643.0,47.0,19.0,28.0,0.4042553191489361,248.67610897532307,3878.821472980136,11.0,3.0,8.0,0.2727272727272727,274.1910347658589,891.1663714408911,18.0,9.0,9.0,0.5,1866.4060591793896,29459.02221932741,23.0,10.0,13.0,0.4347826086956521,859.7940593603712,13415.646948986829,89.0,44.0,45.0,0.4943820224719101,303.13028209053175,12717.113022996116,,,,,78408.0,78451.0,78479.0,78488.0,78513.0,78531.0,78539.0,78562.0,78685.0,78771.0,0.07181224754697726,-0.23249898468182503,0.06280416602669756,-0.11596236865756038,0.026081671652941965
102,102,79050.84932180027,3900.8072371543312,5.095930801728113,79114.84932180027,-1554.4939570727051,5.095930801728113,79154.70345200357,30042.83678813761,8.110969680582567,79182.26608154346,-7909.396060580294,10.888358668262526,79359.57931792024,11270.505386594332,36.57532557023565,0.9571932492491416,64.0,29.0,85.0,204.0,289.0,35.0,631.0,631.0,44.0,11.0,33.0,0.25,379.75010625404815,3845.5610583324024,17.0,3.0,14.0,0.1764705882352941,278.69224021995336,1331.755254258862,18.0,9.0,9.0,0.5,1964.59919356983,27768.09197451586,26.0,11.0,15.0,0.4230769230769231,748.2374871981967,13542.53615355995,87.0,40.0,47.0,0.4597701149425287,357.9011785226306,10543.45490365643,,,,,79048.0,79083.0,79112.0,79117.0,79146.0,79163.0,79172.0,79197.0,79321.0,79401.0,0.09735167188909308,-0.1792816491514471,0.06539326520408853,-0.09460108982623135,0.03175555720405715
103,103,79681.24660900142,3042.578511565937,12.638543186666295,79718.57533909987,-855.391780281749,2.5479653997172425,79775.45048989469,28984.2791633317,7.888892219360739,79803.19040460244,-7337.471175310861,10.310296891947583,79984.68483389584,10335.129215999848,34.18078717287596,0.9581900243566293,50.0,22.0,99.0,210.0,309.0,28.0,627.0,621.0,28.0,14.0,14.0,0.5,251.09244503391017,3103.4912199264545,3.0,2.0,1.0,0.6666666666666666,373.33270444786905,2328.332770170121,17.0,8.0,9.0,0.4705882352941176,1800.2271683627384,29279.9960994375,24.0,10.0,14.0,0.4166666666666667,786.1902286875655,12003.414799635764,86.0,45.0,41.0,0.5232558139534884,236.81517468908012,9701.955211572233,,,,,79667.0,79695.0,79717.0,79720.0,79767.0,79784.0,79794.0,79816.0,79940.0,80026.0,0.08252620074697081,-0.43644644834545954,0.06211046885858813,-0.10714730046680662,0.022913615276572038
104,104,80288.01295868811,3257.8883527711937,7.64389620259217,80338.84932180027,-1919.526069537123,5.095930801728113,80380.02634652554,28692.82036232691,7.632790365767958,80408.30591951418,-7681.648373293678,11.459181687582856,80583.4842128514,10448.062827945692,32.80057064162751,0.9564766909789564,51.0,38.0,85.0,202.0,287.0,13.0,611.0,605.0,13.0,3.0,10.0,0.2307692307692307,318.9427888948577,3562.702163797616,19.0,3.0,16.0,0.1578947368421052,295.6723904897097,1827.5254652381325,16.0,8.0,8.0,0.5,1897.4929337646483,27904.507889637134,26.0,11.0,15.0,0.4230769230769231,705.980508144806,12704.960292685762,77.0,37.0,40.0,0.4805194805194805,326.3567968538474,10617.68395164808,,,,,80285.0,80298.0,80336.0,80340.0,80372.0,80388.0,80397.0,80421.0,80546.0,80623.0,0.09789862461786379,-0.15403405829284128,0.06613127987432069,-0.09190481962169028,0.031236105891412982
105,105,80949.20542559771,3696.420515618213,19.47869713577279,81017.42466090013,-2037.7151369113003,0.6306698131693306,81044.24779328193,30074.550470069586,8.178597106340137,81071.45443055866,-7102.140133599616,10.385218104285626,81249.69297652719,11428.796272784351,38.74929178165428,0.9624399675153326,78.0,44.0,70.0,210.0,280.0,34.0,668.0,664.0,46.0,23.0,23.0,0.5,350.7794132260049,3617.300041291476,3.0,1.0,2.0,0.3333333333333333,504.3652917533428,2987.649131514682,18.0,9.0,9.0,0.5,1900.243889480996,30293.81396402485,24.0,9.0,15.0,0.375,880.3557348255629,14480.286876918428,96.0,49.0,47.0,0.5104166666666666,365.565958405584,10890.710400433089,,,,,80938.0,80972.0,81016.0,81019.0,81035.0,81053.0,81062.0,81086.0,81217.0,81296.0,0.09489705290398713,-0.24751511269521342,0.06318444863779868,-0.1239564016289506,0.03198639206441315
106,106,81644.08545203698,3209.2988810942365,15.91023063143271,81677.84932180027,-1960.5029455063436,5.095930801727971,81735.99131527336,31156.45490895813,7.995942116939777,81763.15846290995,-8195.281239918622,11.305355410756306,81941.46919627434,11278.185743236843,36.33580414550572,0.96243733810799,38.0,18.0,103.0,206.0,309.0,20.0,690.0,692.0,28.0,7.0,21.0,0.25,374.0074394472101,3325.1774755942215,11.0,3.0,8.0,0.2727272727272727,326.2984264868439,2573.865313398377,17.0,9.0,8.0,0.5294117647058824,2044.339499961854,28521.4669257491,25.0,10.0,15.0,0.4,906.3671673116908,15148.931928227275,91.0,44.0,47.0,0.4835164835164835,371.5905841227493,10549.016871501182,,,,,81637.0,81657.0,81675.0,81686.0,81728.0,81744.0,81753.0,81778.0,81904.0,81984.0,0.11653867505157053,-0.16643608071834345,0.06561527959248226,-0.11059622492231772,0.03294772692900363
107,107,82270.87304033486,3618.5500432650383,13.80161730406414,82335.15067819973,-1678.3100389583035,3.949420216673413,82365.58518999656,28666.407584442793,7.899748219998949,82393.40702643394,-8009.02306756329,11.058490745848976,82569.70563524503,11045.174331794791,34.194423335735394,0.9536207632186512,78.0,50.0,72.0,204.0,276.0,28.0,628.0,630.0,34.0,15.0,19.0,0.4411764705882353,417.9194654262319,4096.361712456045,11.0,6.0,5.0,0.5454545454545454,408.4943421176938,1074.0300822226511,17.0,9.0,8.0,0.5294117647058824,1930.005383458517,26676.457233537276,24.0,11.0,13.0,0.4583333333333333,833.3235736224228,13839.478198988125,85.0,40.0,45.0,0.4705882352941176,440.5812362836238,11631.843603024265,,,,,82256.0,82284.0,82334.0,82339.0,82357.0,82374.0,82383.0,82406.0,82530.0,82610.0,0.11549362601854217,-0.2433962334940443,0.06732637766951752,-0.10404809258165339,0.039889025111659905
108,108,82853.84932180027,1872.0947022131288,5.095930801728113,82896.69864360057,-2918.9223566740716,10.191861603456228,82957.00612123062,27013.05668403132,7.453523439669103,82985.60794250382,-8320.657000066145,12.88822878597403,83161.28514528091,9269.160323786047,28.295184746490737,0.9073375943462882,43.0,36.0,108.0,196.0,304.0,7.0,579.0,591.0,8.0,7.0,1.0,0.875,352.82318650487554,1826.089319445343,19.0,11.0,8.0,0.5789473684210527,312.78346082512775,4231.23982482032,16.0,8.0,8.0,0.5,1798.8109834307916,25427.62527131732,25.0,12.0,13.0,0.48,611.2143365773874,11308.687097698948,77.0,38.0,39.0,0.4935064935064935,377.94317952178704,8277.385465923173,,,,,82848.0,82855.0,82891.0,82905.0,82949.0,82965.0,82974.0,82999.0,83130.0,83195.0,0.18846439022971412,-0.1071571705598654,0.06659042715792149,-0.0734574609399869,0.04077426285873258
109,109,,,,,,,,,,,,,,,,,,,,,,,,,,,,,,,,,,,,,,,,,,,,,,,,,,,,,,,,,,,,83188.0,83452.0,83518.0,83529.0,83542.0,83551.0,83592.0,83729.0,83754.0,,,,,
110,110,84031.69864360057,2616.314389807206,10.191861603456228,84075.27398270041,-2565.6624532874757,7.64389620259217,84131.59277726145,30134.935227812268,7.731764827915245,84159.38676344238,-8313.149091651136,13.582192399893971,84335.6194251254,10395.254951915163,30.67781807038688,0.948318210050282,48.0,36.0,105.0,198.0,303.0,12.0,1177.0,1174.0,18.0,16.0,2.0,0.8888888888888888,318.2643292900142,2738.2726570110094,45.0,11.0,34.0,0.2444444444444444,394.3742428743681,2567.1863175102026,16.0,9.0,7.0,0.5625,2043.3929747481857,26123.594081667685,27.0,11.0,16.0,0.4074074074074074,788.9712834269197,15440.452275731304,78.0,41.0,37.0,0.5256410256410257,305.84685594851163,10854.167653453838,,,,,84022.0,84034.0,84070.0,84077.0,84123.0,84139.0,84148.0,84175.0,84296.0,84373.0,0.12164605696086347,-0.15371244271398296,0.06780810907010971,-0.09490642772415578,0.02942177535454906
111,111,84733.63652931782,2985.518105884086,13.216938241131784,84772.15067819973,-1758.1951787166795,5.0959308017270315,84823.82540938459,30365.333128230563,8.016491781843687,84850.89181533267,-8256.548393897088,11.214677944809052,85031.26619308545,11336.543779155754,35.83243281820398,0.964391493061626,49.0,11.0,102.0,207.0,309.0,38.0,708.0,693.0,40.0,21.0,19.0,0.525,250.84361520325095,2489.2995580349952,12.0,9.0,3.0,0.75,300.5613415286164,2281.239054232095,17.0,9.0,8.0,0.5294117647058824,1965.1151543565204,28030.219734386337,26.0,11.0,15.0,0.4230769230769231,783.1327698878197,13955.398163290389,90.0,43.0,47.0,0.4777777777777778,344.98411134860373,11144.516744645303,,,,,84714.0,84752.0,84763.0,84775.0,84815.0,84832.0,84840.0,84865.0,84992.0,85072.0,0.08402012860309549,-0.1709487917877232,0.0647157449601486,-0.09484989762388848,0.030431154156782617
112,112,85435.25037214665,2892.301248926317,15.001807548764749,85466.59637013017,-1886.5247333044767,5.095930801728104,85526.9614458639,28670.526659869483,8.033522605198051,85554.79301385951,-8037.145006552949,11.153092470384689,85733.59137488012,11431.99540927355,34.66711482066003,0.9588389295521652,42.0,10.0,107.0,203.0,310.0,32.0,699.0,703.0,39.0,22.0,17.0,0.5641025641025641,247.12266053366167,3537.7615619802464,14.0,5.0,9.0,0.3571428571428571,263.8670670461835,2122.4218312236612,17.0,9.0,8.0,0.5294117647058824,1822.71419233636,27498.719435221872,24.0,10.0,14.0,0.4166666666666667,706.9380868124724,12299.94299023586,80.0,41.0,39.0,0.5125,308.73695756808536,12085.713886617035,,,,,85420.0,85452.0,85462.0,85468.0,85518.0,85535.0,85545.0,85569.0,85694.0,85772.0,0.08544153574092561,-0.13986939179111016,0.06357449285672304,-0.0879588568124729,0.027006392717551325
113,113,86739.24660900142,3396.5540473697483,17.02428591362388,86810.36521141772,-1139.6200322903176,1.5855994137386962,86838.43012925828,28900.238180555767,7.921035588859977,86866.32535059024,-7156.3166998908355,9.296738499889695,87042.61221792559,11443.526838054368,37.99336422065553,0.9595849899142016,82.0,46.0,73.0,204.0,277.0,36.0,1298.0,1311.0,44.0,16.0,28.0,0.3636363636363636,272.9204346910799,3570.632464536775,6.0,3.0,3.0,0.5,453.7859534775055,2624.1761501852343,17.0,8.0,9.0,0.4705882352941176,1773.535285578382,28920.74042769624,24.0,10.0,14.0,0.4166666666666667,715.3127505791185,12512.999518299435,87.0,41.0,46.0,0.4712643678160919,320.2207805190289,11988.007798973023,,,,,86725.0,86761.0,86807.0,86813.0,86830.0,86847.0,86856.0,86880.0,87010.0,87084.0,0.08035215423774171,-0.3981905728398988,0.06136749719840115,-0.09995543525764171,0.027982700180696474
114,114,87430.10028047573,3768.1714493685736,15.877210964669304,87469.64938008875,-1660.2128663721742,0.7690771064500987,87523.96280652063,30032.578780377193,8.05554456354976,87551.64433577095,-7252.576835704387,9.25041599316588,87730.57205154836,12053.41331068516,38.41443215754135,0.9634414591523484,44.0,27.0,97.0,209.0,306.0,17.0,698.0,686.0,39.0,20.0,19.0,0.5128205128205128,324.66723969851006,3587.2238329968404,3.0,2.0,1.0,0.6666666666666666,401.26639779574055,1752.4716874739613,18.0,9.0,9.0,0.5,1867.92248519266,30112.3932713818,23.0,10.0,13.0,0.4347826086956521,716.3751326726413,11445.211289441198,86.0,41.0,45.0,0.4767441860465116,381.4482079860276,12204.067807969275,,,,,87424.0,87441.0,87468.0,87471.0,87516.0,87533.0,87542.0,87565.0,87691.0,87774.0,0.08616042132395914,-0.24169575234805318,0.062196539925939716,-0.09877525587125548,0.03164648868780429
115,115,88131.95546899799,3046.765929854605,13.441094258539914,88188.15067819973,-1513.0190410664447,5.095930801728113,88227.68738396691,30696.023502459982,7.929942777819247,88254.33531667903,-8425.502164855838,11.304569138784696,88434.20139829077,11130.36908840062,35.2660153440983,0.9596022346983708,70.0,34.0,87.0,206.0,293.0,36.0,694.0,703.0,37.0,21.0,16.0,0.5675675675675675,305.6501188662814,2991.460257287581,9.0,6.0,3.0,0.6666666666666666,364.9910692184478,1269.6747055821916,17.0,9.0,8.0,0.5294117647058824,2074.1369087500875,26793.577203941066,26.0,10.0,16.0,0.3846153846153846,862.9417920934206,15687.309620240643,80.0,38.0,42.0,0.475,370.935066951928,10721.797287883004,,,,,88112.0,88148.0,88182.0,88191.0,88220.0,88235.0,88244.0,88269.0,88397.0,88475.0,0.10031952762477797,-0.2412336258248181,0.06757021503400484,-0.1024202208021373,0.033326394120972457
116,116,88795.82194810128,3654.6470773100946,18.270514226241144,88847.83862587114,-1097.7333435241185,0.5268938178521088,88894.87433258316,28372.893057440862,8.342251476769192,88921.74532108578,-6803.937557137603,10.275598465791688,89099.60305967151,11680.7823259425,39.80016093030127,0.955757754966886,64.0,25.0,89.0,211.0,300.0,39.0,665.0,668.0,42.0,13.0,29.0,0.3095238095238095,367.79262262362306,4181.791833974997,2.0,1.0,1.0,0.5,380.5039574121039,1211.6117685319862,18.0,9.0,9.0,0.5,1749.309124122189,26608.70237679539,22.0,8.0,14.0,0.3636363636363636,790.7040487955336,12794.199301512605,86.0,39.0,47.0,0.4534883720930232,317.79156540020824,11505.85964415957,,,,,88783.0,88822.0,88847.0,88849.0,88887.0,88904.0,88914.0,88936.0,89062.0,89147.0,0.10063697392480563,-0.34662694693280377,0.061654238803942774,-0.1162127139109402,0.027206359688289647
117,117,89432.69864360057,3781.722719523835,10.191861603456228,89493.05365783624,-1243.4918246989832,5.095930801728052,89535.91862359403,27807.80413657116,7.952403796798643,89563.84366431432,-6927.573220412938,10.784525444212504,89743.2601729957,11107.747369045135,35.511771553721196,0.9569904888103622,64.0,44.0,86.0,209.0,295.0,20.0,639.0,640.0,39.0,11.0,28.0,0.282051282051282,382.0256388175506,4110.370175970141,5.0,2.0,3.0,0.4,348.79357776490116,1942.5399120492411,18.0,9.0,9.0,0.5,1761.399956595368,26471.24090182129,24.0,11.0,13.0,0.4583333333333333,714.8470115053843,11106.922714926102,79.0,36.0,43.0,0.4556962025316455,361.8509457474238,11801.998198309582,,,,,89427.0,89447.0,89491.0,89496.0,89527.0,89545.0,89553.0,89577.0,89707.0,89786.0,0.10101894484364847,-0.28049527213364267,0.06334192904785603,-0.10318866199768204,0.03257644720619262
118,118,90075.35548580508,3496.8554588799343,14.053829728054824,90132.14112890347,-1191.6012285816792,7.64389620259217,90172.53298186608,29091.7988282819,8.069309991884818,90199.94337467248,-7435.237693173999,11.140149500976598,90377.38029970496,11382.18395616012,37.10211106188497,0.9629341520008756,64.0,33.0,90.0,205.0,295.0,31.0,641.0,637.0,44.0,20.0,24.0,0.4545454545454545,369.75419130562346,2932.1574369463333,10.0,7.0,3.0,0.7,352.3341104140675,1567.478039671089,18.0,10.0,8.0,0.5555555555555556,1931.7516767032112,25840.2884629994,25.0,10.0,15.0,0.4,852.2804703905648,13836.641010438903,92.0,43.0,49.0,0.4673913043478261,405.3658489750771,11139.29018315125,,,,,90061.0,90092.0,90125.0,90135.0,90164.0,90181.0,90190.0,90215.0,90338.0,90420.0,0.10573905488906257,-0.2956812245262942,0.06640193300199912,-0.11462719896271913,0.035614065853828536
119,119,90765.33684077032,3500.311407539978,14.509326083737715,90819.15067819972,-1502.7190065539903,5.095930801557071,90861.0851775079,30002.574407860346,8.273555749666626,90887.12330450072,-7680.575146873211,10.685711783531186,91068.15553328716,11745.753887932671,37.62207480364216,0.9602505762216916,65.0,31.0,86.0,210.0,296.0,34.0,691.0,689.0,39.0,19.0,20.0,0.4871794871794871,343.7666930930535,2679.874004471997,6.0,3.0,3.0,0.5,354.47658770515807,1632.633075790945,16.0,8.0,8.0,0.5,1921.4757659756108,30282.862106762183,24.0,8.0,16.0,0.3333333333333333,834.1280959663469,14745.053120752344,90.0,42.0,48.0,0.4666666666666667,317.2568304747644,12967.810010736102,,,,,90751.0,90785.0,90816.0,90822.0,90853.0,90869.0,90880.0,90902.0,91027.0,91112.0,0.09821031704566338,-0.23589013392333258,0.06404369637934154,-0.10860229605408174,0.027010342077804565
120,120,91422.09593080172,3777.6192560032578,16.650045118186984,91484.4246607984,-1362.4768845876813,0.7220996245332448,91517.90172145408,31144.44536254587,8.266301172233078,91544.42429443065,-8014.9873709153935,10.884298241801844,91722.64282600932,11958.782529461478,38.53068930856287,0.967134361706097,78.0,39.0,75.0,207.0,282.0,39.0,654.0,657.0,39.0,17.0,22.0,0.4358974358974359,227.2515614702748,3543.7526554901697,3.0,1.0,2.0,0.3333333333333333,311.654462270065,435.9869396519125,18.0,9.0,9.0,0.5,1994.356996736066,29133.611567491294,24.0,9.0,15.0,0.375,911.9930633376842,15703.829080182386,88.0,44.0,44.0,0.5,318.8384666328322,12049.941382652372,,,,,91405.0,91444.0,91483.0,91486.0,91509.0,91526.0,91535.0,91558.0,91684.0,91765.0,0.06015734939648423,-0.2287411007081997,0.06403572044774535,-0.11378596386154072,0.026661448675678025
121,121,92062.75339099858,3567.3129248904593,15.248877211172813,92119.84932154024,-1390.4419208979198,2.4848130496488134,92151.05145548,28900.641805918,8.709094534683016,92175.73847065492,-7502.598948236619,12.310912017227906,92355.66259394633,11491.97533389891,36.68753789228829,0.957714039127356,78.0,40.0,76.0,205.0,281.0,38.0,650.0,633.0,42.0,27.0,15.0,0.6428571428571429,392.3845652459091,2296.522138777228,5.0,3.0,2.0,0.6,450.4020569534274,2200.5492892528373,17.0,9.0,8.0,0.5294117647058824,1773.124372887408,26196.000587760413,25.0,8.0,17.0,0.32,834.8398183364194,15576.644624057568,91.0,44.0,47.0,0.4835164835164835,368.6028954079521,10945.249834893304,,,,,92039.0,92077.0,92117.0,92122.0,92142.0,92159.0,92168.0,92193.0,92317.0,92398.0,0.109994433767808,-0.3239272710237093,0.06135242202560098,-0.11127341659820918,0.03207480739369942
122,122,92655.12330450072,2548.296996964832,12.739827004252716,92703.84932180028,-2238.2025342088778,5.095930801728113,92758.0709446262,28940.84309191691,7.848373356097882,92785.07407800788,-7523.511751160275,13.329913042569569,92962.27760240575,10429.097724432444,32.4539263866281,0.9491170805402758,51.0,25.0,101.0,202.0,303.0,26.0,586.0,606.0,27.0,8.0,19.0,0.2962962962962963,278.56803540514426,3921.177431264136,12.0,11.0,1.0,0.9166666666666666,341.29639010794864,2396.969851478755,17.0,9.0,8.0,0.5294117647058824,1862.6728647448003,26462.49549934722,26.0,11.0,15.0,0.4230769230769231,718.4302203564918,13794.76963885552,77.0,37.0,40.0,0.4805194805194805,276.323038971258,10191.737520462266,,,,,92648.0,92674.0,92699.0,92705.0,92750.0,92766.0,92775.0,92800.0,92926.0,93002.0,0.1093153724769659,-0.15248682140760078,0.06436138915611063,-0.09549134023027153,0.026495392628636587
123,123,93252.14452581364,1724.3572438265992,9.293486383159244,93302.47940829814,-3063.114249101495,18.67728004206879,93346.41888420947,34412.734781437255,8.236551604734899,93368.90406919828,-8694.213738915143,23.299096756784692,93551.1324675537,9939.960333829751,26.89786861610125,0.9233781425508826,47.0,34.0,97.0,197.0,294.0,13.0,599.0,589.0,13.0,7.0,6.0,0.5384615384615384,231.48367131964656,2012.1398526652215,42.0,23.0,19.0,0.5476190476190477,280.5641420754678,3549.251728151577,16.0,8.0,8.0,0.5,2026.020642368968,28030.15932188168,30.0,8.0,22.0,0.2666666666666666,959.5325945488522,18945.810424731713,67.0,32.0,35.0,0.4776119402985074,347.39394410631957,10649.103881929856,,,,,93245.0,93258.0,93292.0,93321.0,93338.0,93354.0,93362.0,93389.0,93519.0,93586.0,0.1342434534075727,-0.09159440989109886,0.058874153863000565,-0.11036450487224644,0.034949228411304205
124,124,93895.17805189872,3487.970998193043,15.582899654163956,93955.15067819972,-1599.2390835996166,1.9712885894890209,93982.65701391525,31582.45533294963,7.995744945462762,94009.86731103148,-7753.576308091309,10.586883683751362,94187.45792484784,12188.751015959308,37.78311413604689,0.9637115062628868,85.0,43.0,72.0,206.0,278.0,42.0,647.0,636.0,47.0,30.0,17.0,0.6382978723404256,273.09158365259856,2147.5779695011283,7.0,4.0,3.0,0.5714285714285714,521.0967681133296,3126.3338253321117,18.0,9.0,9.0,0.5,2002.767278374801,28948.86867577689,23.0,10.0,13.0,0.4347826086956521,808.2842903765874,13954.085335139263,92.0,44.0,48.0,0.4782608695652174,421.64146390025184,12280.964510828377,,,,,93866.0,93908.0,93951.0,93958.0,93974.0,93991.0,94000.0,94023.0,94148.0,94229.0,0.07829525640955005,-0.3258404409054517,0.06341391944550098,-0.10424664158307123,0.03459267182898205
125,125,94555.30135639945,4130.398584511735,10.191861603456228,94600.9330962837,-1910.7721704514215,0.9900768581587986,94640.97536202264,30939.090788792982,7.979647151766638,94669.13605854377,-7085.372720470622,9.601240281730409,94845.43739161282,11613.77254966504,39.476537644465054,0.9612511493667312,58.0,38.0,83.0,208.0,291.0,20.0,658.0,659.0,44.0,27.0,17.0,0.6136363636363636,380.9496643080756,2832.5514199196277,4.0,2.0,2.0,0.5,419.1321840167556,1153.8865274401985,18.0,9.0,9.0,0.5,1939.9646849013072,29998.71646827724,22.0,9.0,13.0,0.4090909090909091,832.259789022374,13403.82921976137,90.0,44.0,46.0,0.4888888888888889,333.4187002146624,12072.794711680996,,,,,94541.0,94561.0,94599.0,94603.0,94632.0,94649.0,94660.0,94682.0,94809.0,94890.0,0.09223072701423286,-0.21935225481002021,0.06270270507121746,-0.11746168082560574,0.02870890563671998
126,126,95199.2673135149,3766.350524087841,21.68844574915001,95239.57533909989,-1326.349848182391,2.5479654008627555,95294.79859472382,29175.986665489116,8.187752655023969,95322.60271279886,-6405.984467951901,9.16811409073808,95498.92121567889,11964.424365917304,40.958553604289826,0.9615236073426756,58.0,19.0,95.0,212.0,307.0,39.0,641.0,654.0,39.0,18.0,21.0,0.4615384615384615,323.1723794850387,4088.3102687945384,2.0,1.0,1.0,0.5,356.47536254239225,2779.257427363073,18.0,9.0,9.0,0.5,1807.734511149549,28992.69165174671,22.0,10.0,12.0,0.4545454545454545,729.4950822962603,10127.69077999088,93.0,44.0,49.0,0.4731182795698925,365.5172206105152,12542.12388266502,,,,,95181.0,95220.0,95239.0,95241.0,95286.0,95304.0,95313.0,95334.0,95460.0,95546.0,0.08580517862535023,-0.2687642050330088,0.061959670186161414,-0.11387712317221586,0.030550339024395783
127,127,95884.75339099858,3392.33175548247,13.28005268674639,95938.9570587307,-1973.2602799640947,1.1343024300338955,95978.98070111463,29768.198650463255,8.176399183236375,96006.69959438995,-7227.594731794974,9.779935883385242,96184.53925305672,11928.003600795988,37.2956817471277,0.9649583391409742,58.0,38.0,83.0,210.0,293.0,20.0,691.0,683.0,32.0,18.0,14.0,0.5625,406.0921988941192,2919.5497886501344,4.0,2.0,2.0,0.5,396.1134685124545,1910.4340509285937,19.0,10.0,9.0,0.5263157894736842,1878.060067553729,28224.959661648805,22.0,9.0,13.0,0.4090909090909091,759.4693883374315,12716.654131621834,89.0,44.0,45.0,0.4943820224719101,361.63882751111737,12014.287824047911,,,,,95879.0,95899.0,95937.0,95941.0,95970.0,95987.0,95998.0,96020.0,96147.0,96230.0,0.11970886934564078,-0.20074060808625924,0.0630894764445044,-0.10507913303390451,0.030318470685822416
128,128,96628.84932180028,2100.0403108568607,5.095930801728113,96696.30135639945,-2513.4400100157955,10.191861603158785,96728.1496787186,30614.22234274597,8.229069289154202,96753.75339099858,-8545.858159439604,14.145179617204574,96936.25666200854,11173.601269385696,31.703997297270345,0.9403860177959176,63.0,58.0,79.0,209.0,288.0,5.0,739.0,750.0,11.0,8.0,3.0,0.7272727272727273,322.59861476931104,2597.287438777281,15.0,8.0,7.0,0.5333333333333333,457.1735453795336,514.5796182753755,17.0,9.0,8.0,0.5294117647058824,1958.9124272470235,27893.566782035243,27.0,10.0,17.0,0.3703703703703703,860.8330344389502,16200.891644110554,79.0,38.0,41.0,0.4810126582278481,373.3630732263982,11620.228853859582,,,,,96626.0,96631.0,96689.0,96702.0,96719.0,96736.0,96744.0,96768.0,96898.0,96977.0,0.1536154392377754,-0.18189156835163953,0.06398700595153897,-0.10073102295620122,0.03341474822887832
129,129,97366.1506782021,2602.732866435122,5.095930801728113,97409.30135639945,-1658.5167390124184,10.006352409486803,97451.831846081,28626.9346543309,7.9445455062965324,97479.972626301,-7895.837452292449,10.935378614429956,97659.77291231036,11229.965013616003,35.31568187887986,0.9559234901123776,42.0,30.0,87.0,209.0,296.0,12.0,739.0,723.0,40.0,28.0,12.0,0.7,333.38546653003294,1025.993278610052,25.0,14.0,11.0,0.56,330.8053841693158,1535.8447170976697,16.0,8.0,8.0,0.5,1859.3690891213616,26724.09027198245,24.0,10.0,14.0,0.4166666666666667,709.8012758752768,12144.372700710002,84.0,41.0,43.0,0.4880952380952381,370.1934666431743,11967.271879777863,,,,,97365.0,97377.0,97407.0,97415.0,97444.0,97460.0,97470.0,97494.0,97623.0,97703.0,0.1280905431476954,-0.19945857427179023,0.06495173554462501,-0.0898956292051321,0.032964792516657494
130,130,98683.52059170186,3910.105840029835,18.956429884088365,98722.67544559154,-1101.4240625457985,5.095930801083247,98779.63553199118,28888.31520266224,8.365611955236403,98805.1118791072,-6880.51928025666,10.503083403110944,98985.41598901869,11844.907437651147,37.08347736796444,0.96234301032327,56.0,12.0,97.0,210.0,307.0,44.0,1311.0,1328.0,46.0,20.0,26.0,0.4347826086956521,265.0229338506862,3053.2670167755305,4.0,2.0,2.0,0.5,355.03379957575123,2262.1556763596764,17.0,9.0,8.0,0.5294117647058824,1844.716415760892,27018.226236919283,23.0,8.0,15.0,0.3478260869565217,859.1068275022695,14230.650252914407,84.0,41.0,43.0,0.4880952380952381,230.50091858902155,13071.12914461394,,,,,98665.0,98709.0,98721.0,98725.0,98771.0,98788.0,98797.0,98818.0,98944.0,99028.0,0.06777896678332984,-0.3223406966024846,0.06385683633052057,-0.12486075432815628,0.01945991725155516
131,131,99385.16467943476,3350.9190194001862,13.772533904444572,99435.42466090011,-1608.176120721915,2.5479654008640567,99477.50065575835,29595.28043740656,8.109107422007211,99505.0538873126,-7448.185655198033,11.02024459413768,99685.2400476831,11654.750914343564,36.32514951173073,0.9646355090388355,65.0,32.0,86.0,209.0,295.0,33.0,707.0,699.0,33.0,16.0,17.0,0.4848484848484848,270.6039885276843,3979.1851174688186,4.0,1.0,3.0,0.25,234.23844915948237,2281.173702937576,17.0,9.0,8.0,0.5294117647058824,1915.8207853107,27334.122302991054,26.0,11.0,15.0,0.4230769230769231,738.3181587439093,13174.282999954685,86.0,42.0,44.0,0.4883720930232558,279.6184496443918,12526.35469663304,,,,,99369.0,99402.0,99434.0,99438.0,99469.0,99486.0,99494.0,99520.0,99643.0,99729.0,0.08075515611120986,-0.14565472409472915,0.06473399667094298,-0.09912724963141092,0.02399179971321943
132,132,100086.972626301,2469.8549452630527,13.789800730508594,100154.15067819972,-1621.4357264880523,5.0957205247534825,100185.52660764422,29099.827556569835,7.970577478250223,100213.62177737131,-8483.556568844815,11.045723521329236,100393.35502378308,11075.592399111822,35.160029278657376,0.960170917310963,76.0,59.0,75.0,206.0,281.0,17.0,699.0,707.0,39.0,12.0,27.0,0.3076923076923077,347.0026161247393,2551.117506969079,6.0,1.0,5.0,0.1666666666666666,439.2663995237724,1089.124221269523,17.0,9.0,8.0,0.5294117647058824,1983.4061791745632,26085.177629988535,26.0,12.0,14.0,0.4615384615384615,679.0170887389253,13865.795092836272,83.0,42.0,41.0,0.5060240963855421,288.749722707297,12041.573364513,,,,,100077.0,100094.0,100153.0,100159.0,100177.0,100194.0,100202.0,100228.0,100351.0,100434.0,0.14049513992319967,-0.27091200246043745,0.06815869184512648,-0.08003920092105726,0.026070815203568933
133,133,100757.5205916993,3500.306170938243,20.479281235493143,100793.57533909989,-1619.409601978374,2.5479654008638666,100855.20271447026,28500.23763334745,8.142038087256475,100882.1368393005,-6184.116029699366,10.675288530070926,101074.93144289729,11381.40307609209,38.16310831233293,0.9236460324449748,53.0,10.0,104.0,206.0,310.0,43.0,668.0,671.0,48.0,21.0,27.0,0.4375,281.62286015230467,3443.602375036945,3.0,2.0,1.0,0.6666666666666666,296.1359545203392,2451.7514065842893,17.0,8.0,9.0,0.4705882352941176,1705.9265938556543,28313.183806424506,23.0,9.0,14.0,0.391304347826087,838.7639666895278,12717.198809901887,85.0,53.0,32.0,0.6235294117647059,343.609661494717,11355.990553269814,,,,,100739.0,100782.0,100792.0,100795.0,100847.0,100864.0,100873.0,100896.0,101022.0,101102.0,0.08045663619100404,-0.18286661642524576,0.059856574383772516,-0.13563199051591912,0.03019044833026848
134,134,101407.30135639945,4353.206747792249,10.191861603456228,101433.42466090011,-2070.7991100014046,0.8486254031937687,101496.6049364405,27836.92301691406,8.035772314491306,101524.75099317018,-7384.023309349432,10.038380968468912,101702.97299220196,11400.741516677384,36.34999575696138,0.958692715631798,44.0,19.0,105.0,209.0,314.0,25.0,657.0,641.0,31.0,25.0,6.0,0.8064516129032258,372.8514008143893,2378.956224298826,3.0,1.0,2.0,0.3333333333333333,444.23014261965886,3488.703783959816,17.0,9.0,8.0,0.5294117647058824,1808.53607230383,27097.723358457763,22.0,10.0,12.0,0.4545454545454545,782.3918323549314,12489.984459314792,84.0,41.0,43.0,0.4880952380952381,395.0317563267659,13095.480621039373,,,,,101388.0,101413.0,101432.0,101435.0,101488.0,101505.0,101515.0,101537.0,101662.0,101746.0,0.08564982607441808,-0.21452111915354144,0.06496896482434286,-0.10595738929538454,0.03464965465175228
135,135,102046.39728720114,3360.9448926902983,17.74552778490198,102092.42466090011,-1076.8186393336248,2.5479654008364885,102149.63798203658,29282.708283941207,8.259651198945972,102176.51706434932,-7335.990216184896,10.28622919540607,102356.09001576614,12087.088449617086,37.842046804116585,0.9595992158636272,56.0,19.0,99.0,209.0,308.0,37.0,634.0,653.0,38.0,12.0,26.0,0.3157894736842105,361.1792670487218,3911.1184609550464,3.0,1.0,2.0,0.3333333333333333,389.07168718221857,2737.957085761567,17.0,9.0,8.0,0.5294117647058824,1869.58960464409,27541.40707432109,22.0,9.0,13.0,0.4090909090909091,848.2026329616347,14384.003121740734,85.0,42.0,43.0,0.4941176470588235,400.89615636626746,13898.796401491036,,,,,102035.0,102072.0,102091.0,102094.0,102141.0,102158.0,102168.0,102190.0,102314.0,102399.0,0.10746360877092889,-0.3613158919899367,0.06384619846345917,-0.115622105259942,0.03316730559533282
136,136,102706.60271279886,4084.013330704709,17.148073357822234,102752.0803456498,-1235.8026099043338,0.7559193169106374,102797.43051846864,30863.387073269103,8.173109995658942,102824.74365546556,-7935.443563605998,9.978441802635691,103003.79256059366,12755.298795247076,39.123132056316926,0.9634746743609814,64.0,33.0,89.0,211.0,300.0,31.0,667.0,647.0,38.0,27.0,11.0,0.7105263157894737,395.92740427114313,4996.955331400691,2.0,1.0,1.0,0.5,329.2488083511021,1177.5031433710833,17.0,8.0,9.0,0.4705882352941176,1962.853448463683,31069.466730946737,24.0,9.0,15.0,0.375,800.2406422498211,14271.422714537584,91.0,44.0,47.0,0.4835164835164835,285.76945087778824,12906.789760297488,,,,,102687.0,102718.0,102751.0,102753.0,102789.0,102806.0,102816.0,102840.0,102960.0,103051.0,0.09694566893169877,-0.26642507930662973,0.06359812174224123,-0.10084384519095217,0.022403979355173763
137,137,103350.87669549928,3659.865546516445,12.739827004320285,103411.42466090011,-2349.56115235256,1.0499226085538866,103439.51445952896,29345.338474034328,7.962532208919756,103468.01714590364,-7564.242300718001,10.727073273127193,103645.60736156044,11791.7724720735,37.27676973096012,0.9628326938794968,79.0,52.0,71.0,209.0,280.0,27.0,643.0,642.0,35.0,27.0,8.0,0.7714285714285715,393.7411282008651,2029.0905923751875,3.0,1.0,2.0,0.3333333333333333,541.0434976491184,1842.2953061875348,17.0,9.0,8.0,0.5294117647058824,1896.0202198252955,28136.639392291923,24.0,11.0,13.0,0.4583333333333333,706.7353263453265,12094.244599252515,85.0,41.0,44.0,0.4823529411764706,379.2239151819997,13057.972931461878,,,,,103331.0,103358.0,103410.0,103413.0,103432.0,103447.0,103457.0,103481.0,103611.0,103690.0,0.10758349540344128,-0.23027427786137186,0.06461061001231774,-0.09343107984235814,0.032160043460821276
138,138,105176.08264693792,3090.143098098183,13.362516805403764,105238.87669549928,-1725.690996920925,6.880151576703932,105271.72750388696,29173.22985406578,7.862638162495984,105299.26316802936,-7956.031577790327,10.303651937299978,105476.08222918544,11514.628787413778,34.60331638519397,0.967058047535689,71.0,32.0,85.0,203.0,288.0,39.0,1826.0,1833.0,41.0,21.0,20.0,0.5121951219512195,228.334530456482,2935.5934287868085,19.0,12.0,7.0,0.631578947368421,368.10055181317074,838.4949596616034,17.0,9.0,8.0,0.5294117647058824,1917.7670618047923,27657.286136032904,24.0,10.0,14.0,0.4166666666666667,809.5789546710621,13630.531673616237,83.0,42.0,41.0,0.5060240963855421,226.81595941118607,11700.358567097956,,,,,105157.0,105196.0,105228.0,105246.0,105263.0,105280.0,105289.0,105313.0,105437.0,105516.0,0.0738912481422008,-0.2133061784931117,0.06573722112354725,-0.1017566291379541,0.01969806961203216
139,139,105841.82194810128,3512.527783170258,16.771936665668136,105909.84932180028,-1278.6841552752514,3.3667657397925095,105942.50700028094,30145.5577540668,8.245738394290719,105969.19236404,-7629.683748035909,10.620494685125877,106148.76243432824,11903.731848334855,37.17260372573892,0.9618899535707068,78.0,39.0,76.0,208.0,284.0,39.0,659.0,670.0,40.0,14.0,26.0,0.35,266.66789709621463,3842.5682780676552,10.0,3.0,7.0,0.3,365.6357535372407,1152.876955593256,19.0,10.0,9.0,0.5263157894736842,1950.4604807870671,27650.91984640665,23.0,9.0,14.0,0.391304347826087,802.9096515709573,14851.308577592928,90.0,44.0,46.0,0.4888888888888889,303.53299193479666,12151.63490835466,,,,,105829.0,105868.0,105907.0,105916.0,105934.0,105951.0,105960.0,105983.0,106108.0,106191.0,0.07591908550130572,-0.28594688690619885,0.06470142289949635,-0.1052349845794917,0.025498977614928055
140,140,106539.69864360055,3874.1291584385385,10.191861603456228,106594.5980297563,-1684.881477554817,1.6493614721868326,106637.56501282028,29176.981770823244,8.184604930112492,106664.76911532014,-7325.505157523286,10.79765824136886,106844.7795530827,11520.670362506606,36.03968069458414,0.9529192983553566,58.0,44.0,85.0,204.0,289.0,14.0,700.0,696.0,26.0,12.0,14.0,0.4615384615384615,584.3503385416744,2074.08888132459,5.0,3.0,2.0,0.6,411.6308610233402,1559.3865613393127,18.0,9.0,9.0,0.5,1881.0168204308052,26470.97329167896,22.0,10.0,12.0,0.4545454545454545,851.0656613579481,13566.378586680004,73.0,31.0,42.0,0.4246575342465753,417.9858811261829,12314.359536449754,,,,,106534.0,106548.0,106592.0,106597.0,106629.0,106646.0,106657.0,106677.0,106814.0,106881.0,0.15083398478567914,-0.24430849677374292,0.06446920504682933,-0.11617842634154787,0.03628138536855418
141,141,107874.30135639945,4324.419815982962,10.191861603456228,107926.42466090011,-1804.7081940723433,1.1592574799857442,107964.96906268928,29508.92870137766,8.124471659147323,107992.1565072447,-7606.609838971213,10.175276805334866,108170.02847401476,12248.429563187112,38.63893376419279,0.9587330691322766,59.0,45.0,80.0,208.0,288.0,14.0,1338.0,1327.0,43.0,22.0,21.0,0.5116279069767442,470.37281148430515,2813.843089930078,3.0,1.0,2.0,0.3333333333333333,426.6637025574297,1297.3638603155998,17.0,9.0,8.0,0.5294117647058824,1903.7287126130325,27778.28319266852,21.0,8.0,13.0,0.3809523809523809,879.6492798257035,15093.807077106663,90.0,43.0,47.0,0.4777777777777778,456.1887076489978,12949.22372815998,,,,,107866.0,107880.0,107925.0,107928.0,107957.0,107973.0,107984.0,108005.0,108134.0,108213.0,0.10877131071914374,-0.23641700301402108,0.06451365049128858,-0.1156427499829116,0.037244669228460245
142,142,108550.75339099858,3686.794705642208,15.733045607052931,108605.42466090011,-1559.8401891751907,0.9916043326105852,108642.59422198866,30085.020624487224,8.108226977913727,108669.89633259778,-7840.476640041759,9.840476331910962,108848.93608487098,12284.681251526095,38.178666136855945,0.9570739736142236,73.0,39.0,78.0,209.0,287.0,34.0,679.0,678.0,45.0,25.0,20.0,0.5555555555555556,388.4428848561065,1960.9916144680992,3.0,1.0,2.0,0.3333333333333333,444.9823760623138,433.3776486031651,17.0,9.0,8.0,0.5294117647058824,1966.129328710206,28096.216282285422,24.0,11.0,13.0,0.4583333333333333,896.7029844065927,14260.146912534414,88.0,41.0,47.0,0.4659090909090909,486.652649130633,13236.494481025522,,,,,108531.0,108565.0,108604.0,108607.0,108634.0,108651.0,108660.0,108682.0,108809.0,108891.0,0.10536059527850578,-0.2852743371727143,0.06535243413161919,-0.11436842752991312,0.03961459309904173
143,143,109225.82270731032,2884.0143740399863,13.73754865721329,109284.57533909989,-2277.3655273666495,2.5479654008552366,109320.920239232,28621.736273847175,8.03716415072001,109349.6027127989,-7509.535500138323,10.36498281964824,109527.97650113596,11141.786094213392,35.94033377443722,0.9562582682227574,65.0,39.0,84.0,207.0,291.0,26.0,668.0,678.0,27.0,15.0,12.0,0.5555555555555556,474.0954714784395,3374.1129792182255,9.0,8.0,1.0,0.8888888888888888,456.972439952637,973.6953769934348,17.0,8.0,9.0,0.4705882352941176,1824.09529894479,27747.91184237816,20.0,9.0,11.0,0.45,749.4204580431417,11649.957639496755,79.0,37.0,42.0,0.4683544303797468,451.0269804834623,12151.144162401146,,,,,109212.0,109238.0,109277.0,109286.0,109313.0,109330.0,109341.0,109361.0,109493.0,109568.0,0.1643873469376357,-0.2006583635614441,0.06373111964599922,-0.09979584729699162,0.04048067129180555
144,144,109876.50550635593,4310.359584096084,20.5589175368936,109943.70195513514,-1899.9501896656773,0.2860085351083978,109971.64008121943,28538.230054020787,8.439771541229328,110000.17805189872,-6075.758070769944,8.737153856296858,110182.10949479598,12853.606058133337,40.81795015369217,0.9505386982342724,85.0,45.0,70.0,209.0,279.0,40.0,651.0,650.0,50.0,24.0,26.0,0.48,460.0598477654057,3688.445451158823,2.0,1.0,1.0,0.5,566.6011739333383,3237.474028812683,19.0,9.0,10.0,0.4736842105263157,1735.1045752758278,27415.764065703657,24.0,11.0,13.0,0.4583333333333333,834.0349917992322,9880.509204292794,85.0,44.0,41.0,0.5176470588235295,539.4324865929486,13442.025246107558,,,,,109858.0,109898.0,109943.0,109945.0,109964.0,109982.0,109994.0,110013.0,110138.0,110222.0,0.10673351927827242,-0.29821896227344763,0.06079930577304204,-0.1372725809823991,0.04196740464529902
145,145,110529.90262644284,3623.6005120714926,18.69301248078252,110590.15067819972,-1248.7716726792207,1.3120622475499368,110625.69002449674,29755.14003436744,8.130640368356831,110653.20818566409,-7674.812034942749,9.223446816293858,110831.7907467787,12331.0884980652,38.79343141104921,0.9585432804785688,71.0,45.0,78.0,209.0,287.0,26.0,659.0,655.0,33.0,20.0,13.0,0.6060606060606061,413.9127256682832,3241.630440139962,5.0,2.0,3.0,0.4,403.33245672057546,520.9181824849652,18.0,9.0,9.0,0.5,1897.687573774762,29565.7430421067,24.0,11.0,13.0,0.4583333333333333,901.4232716258704,13213.268401612982,87.0,42.0,45.0,0.4827586206896552,483.2014463575738,13172.00698892439,,,,,110517.0,110543.0,110588.0,110593.0,110618.0,110634.0,110645.0,110666.0,110795.0,110875.0,0.11422691996244999,-0.3229833487936444,0.06377679861640433,-0.11745216267470382,0.03918562797058752
