Unnamed: 0,cycle,p_center,p_height,p_width,q_center,q_height,q_width,r_center,r_height,r_width,s_center,s_height,s_width,t_center,t_height,t_width,r_squared,pr_interval,pr_segment,qrs_duration,st_segment,qt_interval,p_duration,pp_interval,rr_interval,fwhm_p,rise_time_p,decay_time_p,rise_decay_symmetry_p,sharpness_deriv_p,sharpness_diff_p,fwhm_q,rise_time_q,decay_time_q,rise_decay_symmetry_q,sharpness_deriv_q,sharpness_diff_q,fwhm_r,rise_time_r,decay_time_r,rise_decay_symmetry_r,sharpness_deriv_r,sharpness_diff_r,fwhm_s,rise_time_s,decay_time_s,rise_decay_symmetry_s,sharpness_deriv_s,sharpness_diff_s,fwhm_t,rise_time_t,decay_time_t,rise_decay_symmetry_t,sharpness_deriv_t,sharpness_diff_t,Average_Heart_Rate,SDNN,RMSSD,NN50,p_on,p_off,q_on,q_off,r_on,r_off,s_on,s_off,t_on,t_off,sharpness_deriv_p_norm,sharpness_deriv_q_norm,sharpness_deriv_r_norm,sharpness_deriv_s_norm,sharpness_deriv_t_norm
0,0,0.0,0.0,0.0,0.0,0.0,0.0,0.0,0.0,0.0,0.0,0.0,0.0,0.0,0.0,0.0,0.0,0.0,0.0,0.0,0.0,0.0,0.0,0.0,0.0,0.0,0.0,0.0,0.0,0.0,0.0,0.0,0.0,0.0,0.0,0.0,0.0,0.0,0.0,0.0,0.0,0.0,0.0,0.0,0.0,0.0,0.0,0.0,0.0,0.0,0.0,0.0,0.0,0.0,0.0,67.301230387422,447.8048697486903,638.2768164182899,111.0,,,,,,,,,,,,,,,
1,1,2434.764054667472,3963.7944166564407,16.810093239858954,2570.547965400861,-4545.995093097311,15.287792404509874,2595.883187902567,46380.780940320336,9.614494519800816,2617.4520345991364,-13884.05686669943,9.685500124769268,2878.6256980810485,7262.965936236618,28.394947144746062,0.9775002444135704,142.0,96.0,74.0,284.0,358.0,46.0,,,48.0,22.0,26.0,0.4583333333333333,63.052396779444706,3844.7617216883145,20.0,17.0,3.0,0.85,1044.0427300983165,9920.196993049316,22.0,12.0,10.0,0.5454545454545454,2485.5616203210707,39233.47432342509,18.0,4.0,14.0,0.2222222222222222,1772.2859843577896,29076.896396890017,73.0,38.0,35.0,0.5205479452054794,62.13296295218446,7232.593882111938,0.0,0.0,0.0,0.0,2414.0,2460.0,2556.0,2574.0,2584.0,2606.0,2614.0,2630.0,2842.0,2914.0,0.015907080476850504,-0.22966208909543315,0.05359033569355643,-0.1276490006756292,0.008554764471934078
2,2,3322.4097276438915,3693.3556025402936,17.401615327929825,3455.8212652259767,-4630.179714072956,17.8357578060484,3483.6034010974,46944.67989969901,9.532598961933193,3505.0273736989925,-13933.41178232038,10.144257392961338,3767.0955342382617,7477.75402532232,29.411493647681777,0.9710453244943432,141.0,94.0,75.0,284.0,359.0,47.0,891.0,887.0,47.0,20.0,27.0,0.425531914893617,69.40678316305721,3882.603684644054,19.0,13.0,6.0,0.6842105263157895,801.8777318137088,4843.856091184583,22.0,12.0,10.0,0.5454545454545454,2503.577518044096,37983.90126011586,17.0,4.0,13.0,0.2352941176470588,1732.7633098179358,29143.15338805289,75.0,39.0,36.0,0.52,76.68884332643307,7587.248849084795,0.0,0.0,0.0,0.0,3302.0,3349.0,3443.0,3462.0,3472.0,3494.0,3501.0,3518.0,3729.0,3802.0,0.018792337005220715,-0.17318501253341934,0.05333037787014813,-0.12436030290991462,0.01025559854827232
3,3,4201.287866719385,4204.717125737022,20.091782522875764,4337.972626301007,-4008.6493955494634,17.83575780594378,4364.355118516516,47259.21518742034,9.615968499393064,4385.452034599137,-13862.567860655066,9.65571239555866,4647.689224112298,7901.744898401644,31.180939949281044,0.9799080420477396,146.0,93.0,75.0,287.0,362.0,53.0,876.0,881.0,53.0,24.0,29.0,0.4528301886792453,64.7508609965395,4416.966334029511,19.0,15.0,4.0,0.7894736842105263,917.150535523342,7837.574919131655,21.0,11.0,10.0,0.5238095238095238,2497.068195158004,40974.42349903304,17.0,3.0,14.0,0.1764705882352941,1796.0342726275146,29530.327262635376,78.0,41.0,37.0,0.5256410256410257,65.54439827841907,8149.3774968964035,0.0,0.0,0.0,0.0,4177.0,4230.0,4323.0,4342.0,4353.0,4374.0,4382.0,4398.0,4608.0,4685.0,0.015399576014329305,-0.22879290379986666,0.05283769917158261,-0.1295599986006232,0.008294927148518464
4,4,5093.265075974352,4254.292986577766,19.274274014392883,5229.972626301007,-3933.064925868184,17.8357578060484,5256.304713217184,47183.38116870973,9.591409756262433,5277.452034599137,-13681.209389217582,9.385401083244092,5538.013219065067,7769.5704710336995,30.21488968412582,0.984145537557312,146.0,95.0,74.0,285.0,359.0,51.0,897.0,892.0,52.0,24.0,28.0,0.4615384615384615,69.38307391002354,4435.290208327899,18.0,14.0,4.0,0.7777777777777778,909.495311756463,7787.898430746224,21.0,11.0,10.0,0.5238095238095238,2492.4211947648373,40935.32882225697,17.0,3.0,14.0,0.1764705882352941,1810.449304784915,29190.108600220425,76.0,39.0,37.0,0.5131578947368421,73.99209253000066,7946.986167148441,0.0,0.0,0.0,0.0,5070.0,5121.0,5216.0,5234.0,5245.0,5266.0,5274.0,5290.0,5499.0,5575.0,0.016308955243309796,-0.23124340149449762,0.05282413284145305,-0.1323310866224856,0.009523318284563601
5,5,5998.688406261394,3616.1268811955088,16.520830906547257,6130.6015576987975,-4422.223551932425,17.8357578060484,6159.108020937394,46990.22458512974,9.623932978000322,6180.027373698993,-15121.772545760758,10.659499044385448,6440.414366179653,7286.012361276394,28.9486896401354,0.9751505322881996,141.0,94.0,75.0,284.0,359.0,47.0,902.0,902.0,47.0,22.0,25.0,0.4680851063829787,70.30697439231147,3631.3484995937097,19.0,13.0,6.0,0.6842105263157895,759.4272889514355,4565.435796296752,22.0,12.0,10.0,0.5454545454545454,2476.3708878007515,38258.69925483741,18.0,4.0,14.0,0.2222222222222222,1793.5478613959665,30492.445591252508,75.0,38.0,37.0,0.5066666666666667,63.16153011265593,7329.414604542368,0.0,0.0,0.0,0.0,5977.0,6024.0,6118.0,6137.0,6147.0,6169.0,6176.0,6193.0,6402.0,6477.0,0.019442618221700136,-0.1717297373217554,0.05269970317580499,-0.11860698578611872,0.008668874959414841
6,6,6864.378159108684,4072.1779738545456,17.538963725168934,6999.972626300997,-3851.27274173492,17.835757790680347,7026.681765629556,45376.09958635246,9.776032430431178,7047.452034599137,-15503.70457704746,10.21960607914752,7307.737075777903,7720.499695901186,30.323838848617463,0.9830236429148178,140.0,94.0,76.0,285.0,361.0,46.0,864.0,868.0,46.0,20.0,26.0,0.4347826086956521,65.42223683482867,4109.643285920257,20.0,16.0,4.0,0.8,835.6132691765699,7397.554030063086,21.0,12.0,9.0,0.5714285714285714,2411.390433635817,35396.66107279113,19.0,4.0,15.0,0.2105263157894736,1806.710147748464,30089.08594605232,76.0,39.0,37.0,0.5131578947368421,58.94235698407589,7745.9249958540495,0.0,0.0,0.0,0.0,6844.0,6890.0,6984.0,7004.0,7015.0,7036.0,7044.0,7060.0,7270.0,7345.0,0.016065662467326505,-0.21697068091836652,0.05314230301013088,-0.11653409278858534,0.007634526171326501
7,7,7751.367661678457,4159.619469172542,18.80545754206916,7888.929815154353,-4563.089045691186,15.28779240518433,7915.028278072808,45996.02942159222,9.618598691847906,7936.452034599137,-13128.41232148136,9.38605454627147,8197.83412874323,7258.855788521192,28.49585021614045,0.9804903766689212,146.0,95.0,75.0,283.0,358.0,51.0,885.0,889.0,52.0,23.0,29.0,0.4423076923076923,58.848960070191,4110.463183784851,22.0,18.0,4.0,0.8181818181818182,924.0054868852474,7773.392117048536,21.0,11.0,10.0,0.5238095238095238,2453.020525939658,40014.335319606354,17.0,4.0,13.0,0.2352941176470588,1735.6212527499183,28264.85795788941,74.0,38.0,36.0,0.5135135135135135,70.65022204585254,7267.803499444106,0.0,0.0,0.0,0.0,7728.0,7779.0,7874.0,7893.0,7904.0,7925.0,7933.0,7949.0,8161.0,8232.0,0.014147678773582048,-0.20249560717158552,0.05333113655215031,-0.1322034386374359,0.009732969507064107
8,8,8657.726741468034,3834.5603865291096,17.54464524458256,8793.54796540086,-4937.177611439381,15.287792405143769,8818.664822877714,47131.65166470278,9.592297105545605,8840.027373698993,-13105.164547899423,10.06891935701024,9102.011517781875,7111.915322250987,28.535735815275512,0.9760072736860376,142.0,96.0,73.0,286.0,359.0,46.0,906.0,903.0,48.0,22.0,26.0,0.4583333333333333,68.21205940954778,3739.925597166021,22.0,19.0,3.0,0.8636363636363636,1091.7307816842924,10139.367722871675,22.0,12.0,10.0,0.5454545454545454,2505.96427601571,39259.92538413926,17.0,4.0,13.0,0.2352941176470588,1718.1968734605798,28459.80142347654,72.0,36.0,36.0,0.5,66.971155309166,6997.3511210371435,0.0,0.0,0.0,0.0,8637.0,8683.0,8779.0,8797.0,8807.0,8829.0,8836.0,8852.0,9066.0,9138.0,0.01778875608509861,-0.2211244698093837,0.05316945592832775,-0.13110837847022555,0.009416753754032184
9,9,9553.365937589784,4254.796212966732,18.159502777816822,9686.972626301009,-4072.53090095411,17.83575780597981,9712.800311235944,47166.08187078709,9.588117669449112,9733.876695499284,-13053.542005329551,9.403173904835388,9996.433251394428,7529.983688283375,29.334917161308816,0.9810175482806852,141.0,96.0,72.0,287.0,359.0,45.0,903.0,895.0,47.0,21.0,26.0,0.4468085106382978,83.34510105903168,4372.868128438755,19.0,15.0,4.0,0.7894736842105263,977.848873784826,8689.688343140955,22.0,12.0,10.0,0.5454545454545454,2494.6796906608097,39810.05065430331,17.0,4.0,13.0,0.2352941176470588,1737.396359390891,28129.559874623064,76.0,39.0,37.0,0.5131578947368421,65.58567664979306,7542.386012201125,0.0,0.0,0.0,0.0,9533.0,9578.0,9674.0,9691.0,9701.0,9723.0,9731.0,9746.0,9958.0,10033.0,0.019588505979448032,-0.24010839882288826,0.052891391264914905,-0.13309769552827425,0.008709936085498315
10,10,10447.818980395894,3548.740537284317,16.355115724685657,10581.49293739266,-4639.734495378177,17.8357578060484,10609.318488718382,47177.66911149603,9.546166958976482,10630.45203459914,-13141.512000032224,9.804982406323822,10892.53135263153,7477.677742816752,28.71293320783908,0.9744671276909502,140.0,96.0,75.0,285.0,360.0,44.0,890.0,896.0,46.0,21.0,25.0,0.4565217391304347,78.10026094392784,3450.8624801200863,20.0,13.0,7.0,0.65,739.6252210691498,3835.2227824038846,21.0,11.0,10.0,0.5238095238095238,2491.8186935320205,41050.503318928895,18.0,4.0,14.0,0.2222222222222222,1765.2211811946393,28809.955234006095,73.0,38.0,35.0,0.5205479452054794,66.40567012651523,7507.588869648018,0.0,0.0,0.0,0.0,10428.0,10472.0,10568.0,10588.0,10598.0,10619.0,10627.0,10643.0,10855.0,10928.0,0.02200788142254386,-0.1594111089343409,0.05281775764807393,-0.13432405503950465,0.008880520451727974
11,11,11342.442784512614,4501.873693742201,20.468786865246106,11476.972626301009,-3987.783588054434,9.305567542957098,11504.005869808583,45881.79349939897,9.500838197358714,11525.45203459914,-12955.960621137172,8.43573625462998,11785.86864538217,8193.0266702227,31.19805304270515,0.9879326062714991,147.0,96.0,71.0,285.0,356.0,51.0,899.0,895.0,53.0,24.0,29.0,0.4528301886792453,70.61109788190765,4674.848091139924,17.0,12.0,5.0,0.7058823529411765,845.9609071429152,7235.537333813062,22.0,12.0,10.0,0.5454545454545454,2508.4724518514795,41051.71662843335,16.0,3.0,13.0,0.1875,1784.9932447370231,28215.63518105676,75.0,38.0,37.0,0.5066666666666667,71.07065683379538,8375.726057232503,0.0,0.0,0.0,0.0,11319.0,11370.0,11466.0,11481.0,11492.0,11514.0,11522.0,11537.0,11748.0,11822.0,0.015684824294395494,-0.21213811844680466,0.054672502108801375,-0.1377739016761808,0.0086745301455077
12,12,12233.689852695034,3840.966415018548,15.726858835883368,12368.164703733168,-4237.329309294837,17.8357578060484,12396.465117755592,45152.881033787955,9.70378666962058,12417.45203459914,-15631.869326133572,10.442185675166574,12677.676122139996,7566.556987320472,28.625388303280193,0.9781835189128208,139.0,97.0,76.0,283.0,359.0,42.0,890.0,892.0,42.0,19.0,23.0,0.4523809523809524,64.71863580305265,3786.529095657006,20.0,14.0,6.0,0.7,701.557097772309,4042.561052044646,21.0,11.0,10.0,0.5238095238095238,2393.058255800049,37462.38037592773,19.0,4.0,15.0,0.2105263157894736,1794.705874918095,30479.127507610458,75.0,39.0,36.0,0.52,68.03661173450922,7499.039286332649,0.0,0.0,0.0,0.0,12215.0,12257.0,12354.0,12374.0,12385.0,12406.0,12414.0,12430.0,12640.0,12713.0,0.016849570865810376,-0.16556586627180506,0.05299901581051541,-0.11481070097724534,0.0089917530322603
13,13,13122.161093230829,4164.258135471862,19.969458631978224,13259.123304500716,-4120.383683450908,12.7398270042287,13284.832784884697,45202.09092477307,9.629146117536676,13306.45203459914,-13241.47399027885,8.896143429685932,13567.798872168523,7827.890544291517,30.08626594419841,0.9822143468444784,147.0,94.0,72.0,287.0,359.0,53.0,889.0,888.0,53.0,23.0,30.0,0.4339622641509434,65.84499162798743,4298.222045135108,18.0,14.0,4.0,0.7777777777777778,939.8113139673676,8478.0877294011,22.0,12.0,10.0,0.5454545454545454,2445.8800923958893,39491.14790843486,17.0,4.0,13.0,0.2352941176470588,1734.3721286023024,28128.243766555384,77.0,40.0,37.0,0.5194805194805194,63.576134889538174,7877.829945143034,0.0,0.0,0.0,0.0,13099.0,13152.0,13246.0,13262.0,13273.0,13295.0,13303.0,13318.0,13528.0,13605.0,0.01581193804176272,-0.22808830103420266,0.05410988833384744,-0.13098029191278715,0.008121745511107207
14,14,14072.940239908605,3796.7577460768393,16.500045397931903,14212.723990657423,-4717.410025641528,15.28779240518434,14240.033164004735,47190.914024433114,9.484733810598511,14261.45203459914,-12934.470387919995,10.392166628170212,14525.293399478738,7075.460309901511,27.260521993055928,0.9706450512278524,145.0,101.0,76.0,285.0,361.0,44.0,951.0,956.0,45.0,20.0,25.0,0.4444444444444444,76.01711221686809,3648.985956447844,20.0,15.0,5.0,0.75,853.4681380708728,5841.034923635749,21.0,11.0,10.0,0.5238095238095238,2509.5957054427713,40174.98507584187,18.0,4.0,14.0,0.2222222222222222,1746.0023522835445,28752.46226618465,70.0,36.0,34.0,0.5142857142857142,72.62748037815928,6931.303329110627,0.0,0.0,0.0,0.0,14053.0,14097.0,14198.0,14218.0,14229.0,14250.0,14258.0,14274.0,14490.0,14559.0,0.0200215861271149,-0.18091879515069467,0.0531796375917497,-0.1349883141650859,0.010264700414830005
15,15,15019.553418091871,3581.97795468851,15.982177542206736,15158.972626301009,-4760.936932889714,17.835757806048026,15185.146416287063,47417.93450891797,9.568658121249848,15206.45203459914,-13074.49486393949,9.863617655664424,15469.828929230414,7326.896881376156,28.015185634810795,0.9761396159742708,143.0,101.0,75.0,286.0,361.0,42.0,945.0,945.0,42.0,19.0,23.0,0.4523809523809524,84.45866721932187,3688.8113338184376,21.0,16.0,5.0,0.7619047619047619,943.768346510478,7426.421273284088,21.0,11.0,10.0,0.5238095238095238,2505.992038357981,40844.30345584846,18.0,4.0,14.0,0.2222222222222222,1761.524271384963,28693.506475642556,74.0,38.0,36.0,0.5135135135135135,69.55122397333007,7127.517618718171,0.0,0.0,0.0,0.0,15001.0,15043.0,15144.0,15163.0,15174.0,15195.0,15203.0,15219.0,15433.0,15505.0,0.023578779179467737,-0.19823164217755038,0.05284903411148529,-0.1347298147818612,0.00949258944125699
16,16,15951.604544025053,3922.51803163824,16.834503886257213,16087.54796540086,-4493.233843348657,15.287792389984624,16112.774133340536,46983.43475928437,9.60360762139484,16134.027373698991,-12946.81703558205,9.385837060655549,16396.914126494423,7509.474513231768,27.91188757361022,0.9793039563212622,141.0,97.0,73.0,285.0,358.0,44.0,933.0,927.0,44.0,20.0,24.0,0.4545454545454545,77.58561736732536,3963.578886220922,20.0,17.0,3.0,0.85,1069.0881248234318,10317.47586383513,22.0,12.0,10.0,0.5454545454545454,2497.314608390389,40242.54514236216,17.0,4.0,13.0,0.2352941176470588,1721.3540718079084,28172.608116115574,70.0,36.0,34.0,0.5142857142857142,69.94244246971854,7466.281761105376,0.0,0.0,0.0,0.0,15932.0,15976.0,16073.0,16091.0,16101.0,16123.0,16130.0,16146.0,16362.0,16431.0,0.019779543839323465,-0.23793289245473062,0.0531530872782113,-0.13295577338252865,0.00931389304890499
17,17,16869.176664240913,4339.138089792957,19.371340956013203,17003.972626301005,-3919.559014429736,17.83575780602314,17030.566799270226,46812.83905873892,9.509956889576454,17052.45203459914,-12609.64574040696,8.840245358516258,17314.640427616825,7506.5371109314465,29.190372962406652,0.9810090650882946,142.0,95.0,73.0,285.0,358.0,47.0,918.0,918.0,50.0,21.0,29.0,0.42,83.19541015267994,4523.4783693188,19.0,15.0,4.0,0.7894736842105263,871.8457313596454,7264.253134319331,22.0,12.0,10.0,0.5454545454545454,2491.205587917953,39915.48915575804,17.0,4.0,13.0,0.2352941176470588,1726.830377351861,28041.07298636929,74.0,39.0,35.0,0.527027027027027,67.86027992636724,7498.209256920269,0.0,0.0,0.0,0.0,16849.0,16896.0,16991.0,17008.0,17019.0,17041.0,17049.0,17064.0,17277.0,17349.0,0.019173257091859373,-0.22243464842600202,0.05321628933447265,-0.13694519361621096,0.009040157788275667
18,18,17800.994920144825,3909.621570991303,17.08934190699445,17937.972626301005,-4668.695056408656,17.83575780554282,17963.8360646806,47196.86964012897,9.568452988181631,17985.45203459914,-12886.104458829885,9.00197420431291,18247.00222555654,7472.108554723266,29.656219982873164,0.9821219491288392,141.0,98.0,74.0,287.0,361.0,43.0,928.0,934.0,44.0,20.0,24.0,0.4545454545454545,77.2697665662915,4056.849028718944,20.0,16.0,4.0,0.8,959.8459076129792,7945.933484267264,21.0,11.0,10.0,0.5238095238095238,2506.4500509304785,40701.129421614765,17.0,4.0,13.0,0.2352941176470588,1758.813454908731,28174.289392705003,75.0,38.0,37.0,0.5066666666666667,58.8907372781657,7438.112928105347,0.0,0.0,0.0,0.0,17782.0,17825.0,17923.0,17942.0,17953.0,17974.0,17982.0,17997.0,18209.0,18284.0,0.019764001493039488,-0.2055919043792358,0.05310627738750238,-0.13648915081574925,0.007881408152313274
19,19,18713.85123024344,3636.630233758201,15.65295120191426,18848.664774890083,-4546.2324233083355,17.8357578060484,18877.37178538036,47540.96498504888,9.507167957684027,18898.45203459914,-13409.147290178897,10.332431778161853,19162.229949875546,7094.118555790722,27.328945647899797,0.9719404426546312,142.0,99.0,75.0,285.0,360.0,43.0,915.0,913.0,43.0,20.0,23.0,0.4651162790697674,70.40242454359723,3664.7497646146153,20.0,13.0,7.0,0.65,737.5787367908937,3867.099086261991,21.0,11.0,10.0,0.5238095238095238,2507.843802136822,41053.573885432634,18.0,4.0,14.0,0.2222222222222222,1783.237430893824,29407.14008003679,72.0,37.0,35.0,0.5138888888888888,65.92231021793792,7107.318470958505,0.0,0.0,0.0,0.0,18694.0,18737.0,18836.0,18856.0,18866.0,18887.0,18895.0,18911.0,19126.0,19196.0,0.019359247440133964,-0.16223955753105795,0.052751217879685695,-0.1329866390683843,0.009292530100744857
20,20,19612.64330281481,4060.354236688216,17.304952937181707,19749.397287176875,-4220.006896439917,20.38372320685055,19775.8674487566,46884.346764483234,9.667617372314544,19797.027373698995,-15010.94850776817,10.2762065379198,20059.30129498543,7802.681905711205,29.43769429839592,0.9737411189380094,143.0,95.0,76.0,285.0,361.0,48.0,902.0,898.0,48.0,22.0,26.0,0.4583333333333333,64.99998779046868,3980.837234102093,21.0,16.0,5.0,0.7619047619047619,852.4548069767103,6719.062382551741,22.0,12.0,10.0,0.5454545454545454,2458.359382518663,37387.250185175115,18.0,4.0,14.0,0.2222222222222222,1779.0638284478102,29988.745309224356,74.0,38.0,36.0,0.5135135135135135,68.051790577338,7864.150444897603,0.0,0.0,0.0,0.0,19591.0,19639.0,19734.0,19754.0,19764.0,19786.0,19793.0,19810.0,20022.0,20095.0,0.01600845246534086,-0.20200317864311038,0.052434544835782346,-0.11851774906343489,0.00872158975589242
21,21,20516.286596295133,3708.166634387409,16.588183224398218,20652.972626301005,-4605.967411663283,17.83575780573245,20678.78880677085,47242.32440886667,9.563153249878823,20700.45203459914,-12816.304615127508,9.439389775595195,20962.62234203396,7474.233194701051,27.667455963391593,0.97602285691787,141.0,97.0,74.0,285.0,359.0,44.0,899.0,904.0,44.0,19.0,25.0,0.4318181818181818,65.4537642062534,3670.0483873186095,20.0,16.0,4.0,0.8,966.0969518047222,8115.241311633599,22.0,12.0,10.0,0.5454545454545454,2494.5873854498495,40196.4558081519,17.0,4.0,13.0,0.2352941176470588,1737.3779874445108,28390.481230999027,70.0,36.0,34.0,0.5142857142857142,70.14791815805923,7320.14045365112,0.0,0.0,0.0,0.0,20497.0,20541.0,20638.0,20657.0,20667.0,20689.0,20697.0,20712.0,20928.0,20997.0,0.01765124673720775,-0.20974897680742605,0.052804078052130166,-0.13555997923097318,0.009385299646228787
22,22,21419.591523934552,3828.209223496616,16.55496345996782,21556.85730735644,-5295.538276841657,15.28779240518434,21582.325649431805,47149.916567402455,9.66491439488744,21603.45203459914,-13027.274262425606,9.564166395942411,21864.976715506597,7600.041166100694,28.371259941000137,0.9796215721309908,141.0,98.0,75.0,285.0,360.0,43.0,902.0,903.0,44.0,21.0,23.0,0.4772727272727273,71.79508157874572,3872.030586944614,22.0,18.0,4.0,0.8181818181818182,1028.9241319696453,8660.964391548092,22.0,11.0,11.0,0.5,2504.3467881444326,41806.76757517532,17.0,3.0,14.0,0.1764705882352941,1771.6749908221534,28450.45412436819,72.0,36.0,36.0,0.5,69.39733308014577,7509.02351901142,0.0,0.0,0.0,0.0,21400.0,21443.0,21541.0,21561.0,21571.0,21593.0,21600.0,21616.0,21829.0,21901.0,0.018754220939149562,-0.1943001972942611,0.05311455396881522,-0.13599736638171286,0.00913117857699066
23,23,22309.306298937303,3762.340167344369,16.286457988024114,22445.54796540086,-4619.581817714371,15.28779240518434,22471.654769251876,46397.03880504062,9.751050329375271,22492.45203459914,-15329.492933490264,10.427049857775494,22754.42652946412,7776.011446978059,28.888299039333035,0.976145186667317,140.0,95.0,77.0,283.0,360.0,45.0,895.0,889.0,45.0,20.0,25.0,0.4444444444444444,66.97556149009388,3697.900604711099,22.0,18.0,4.0,0.8181818181818182,974.2524007532191,8961.9118893713,22.0,12.0,10.0,0.5454545454545454,2475.2136510092378,36568.0358537859,19.0,4.0,15.0,0.2105263157894736,1828.4508508796828,30453.601373790843,71.0,36.0,35.0,0.5070422535211268,67.3033909918577,8094.404784504019,0.0,0.0,0.0,0.0,22289.0,22334.0,22429.0,22449.0,22460.0,22481.0,22489.0,22506.0,22718.0,22789.0,0.0178015699035976,-0.2108962324289452,0.05334852643096542,-0.11927666875954361,0.00865525873396359
24,24,23229.735405154897,3677.439389232751,17.188757823791356,23367.972626301005,-3814.762354129725,17.835757806013213,23394.194472348332,47081.93323190413,9.574399923137204,23415.45203459914,-13442.8670461568,9.166105989809973,23678.46669834372,7255.981360583601,28.121209282234787,0.9822189975964876,147.0,100.0,73.0,286.0,359.0,47.0,921.0,923.0,48.0,23.0,25.0,0.4791666666666667,54.62328779722372,3687.105831836007,19.0,15.0,4.0,0.7894736842105263,923.5462908621112,8049.926533473304,21.0,11.0,10.0,0.5238095238095238,2494.658831882456,40855.05950506315,18.0,4.0,14.0,0.2222222222222222,1792.7323847186087,28839.136177518725,73.0,37.0,36.0,0.5068493150684932,64.92899206049357,7157.6476563429715,0.0,0.0,0.0,0.0,23208.0,23255.0,23355.0,23372.0,23383.0,23404.0,23412.0,23428.0,23642.0,23714.0,0.014853620145897263,-0.24209798806007224,0.05298548000556614,-0.13335937776987353,0.008948340525405003
25,25,24153.823213288488,4065.786552904648,17.099313139722476,24290.397287201147,-4243.610111543622,20.38372320690882,24316.9192191704,48216.018192028416,9.452464275684386,24339.027373698995,-11447.418121823692,8.857104716898712,24600.90339655836,7658.369533374472,29.063562921477345,0.9797159502061058,142.0,98.0,74.0,286.0,360.0,44.0,922.0,923.0,44.0,20.0,24.0,0.4545454545454545,77.78182295089476,4148.773362369944,20.0,15.0,5.0,0.75,858.0451613453308,6394.604290727131,21.0,11.0,10.0,0.5238095238095238,2516.745254996036,42272.03808349052,16.0,4.0,12.0,0.25,1654.050637445176,26675.98862572672,74.0,38.0,36.0,0.5135135135135135,67.90494968447935,7607.3717634961,0.0,0.0,0.0,0.0,24134.0,24178.0,24276.0,24295.0,24306.0,24327.0,24335.0,24350.0,24564.0,24636.0,0.019130818093568258,-0.20219698294413174,0.05219728524600836,-0.1444911524889482,0.008866763269721552
26,26,25058.828621868175,4446.329146062526,21.01705608539624,25196.54796540086,-4311.15100587212,10.256650972414745,25222.897084740453,46598.71277154641,9.51784112495802,25244.45203459914,-12080.651546385872,8.429117958503241,25506.934451921778,8315.426156363546,31.59001954710459,0.9873266524100754,150.0,97.0,71.0,288.0,359.0,53.0,906.0,906.0,54.0,25.0,29.0,0.4629629629629629,80.27114860056328,4698.634625536121,17.0,13.0,4.0,0.7647058823529411,970.1020949860322,8884.771028552303,22.0,12.0,10.0,0.5454545454545454,2526.0597673757175,41918.5936581986,16.0,3.0,13.0,0.1875,1740.4180962267883,27506.128468713145,76.0,39.0,37.0,0.5131578947368421,82.60725985268137,8693.506528353631,0.0,0.0,0.0,0.0,25035.0,25088.0,25185.0,25200.0,25211.0,25233.0,25241.0,25256.0,25468.0,25544.0,0.01805335276891228,-0.2250215994904095,0.054208788550875,-0.14406657534522327,0.009934218439239521
27,27,25968.32345470618,3384.2010952543146,13.99686647418793,26096.602712798853,-4194.716502574722,20.383723206912453,26130.376895420395,46218.30865514644,9.537807679880745,26151.027373698995,-15224.748242259237,11.204345110131822,26412.42461580509,6951.310112134481,26.63069564110115,0.9710556056859416,137.0,96.0,78.0,282.0,360.0,41.0,909.0,907.0,42.0,19.0,23.0,0.4523809523809524,69.36612166820936,3191.1224897407565,99.0,88.0,11.0,0.8888888888888888,364.3953627989623,1125.3701407586077,22.0,12.0,10.0,0.5454545454545454,2422.3857230545423,37205.496409396095,19.0,4.0,15.0,0.2105263157894736,1788.0941808234827,30425.86889036817,70.0,35.0,35.0,0.5,70.84484665655017,6908.143994890316,0.0,0.0,0.0,0.0,25949.0,25990.0,26086.0,26108.0,26118.0,26140.0,26147.0,26164.0,26377.0,26446.0,0.020497044861040287,-0.0868700811068629,0.052411821062707975,-0.11744655165201885,0.010191581948398564
28,28,26839.843737221112,4415.981937748698,19.94446110008109,26976.54796540086,-4010.331824541372,11.23367030514513,27003.086781670125,43103.71105189298,9.799531424230194,27024.027373698995,-14700.925225077464,9.415003884454483,27285.33411579473,7895.096009814164,31.048260595204773,0.9862833088486708,149.0,96.0,73.0,286.0,359.0,53.0,878.0,872.0,53.0,25.0,28.0,0.4716981132075472,55.863853219963886,4753.93318564431,17.0,14.0,3.0,0.8235294117647058,905.1609451856036,8231.304794821634,22.0,12.0,10.0,0.5454545454545454,2351.3037818553007,36683.94772092943,17.0,4.0,13.0,0.2352941176470588,1733.711135636467,28355.199837645996,76.0,38.0,38.0,0.5,64.5975422922417,8042.362394099921,0.0,0.0,0.0,0.0,26815.0,26868.0,26964.0,26980.0,26991.0,27013.0,27020.0,27037.0,27247.0,27323.0,0.012650380822989441,-0.225707244384726,0.0545499151807264,-0.1179321103326904,0.008181983121160575
29,29,27708.17527520597,4228.532334379726,20.20405740501278,27847.972626301005,-4165.800754202026,17.83575780604708,27873.41043513587,45820.00739921218,9.517315530535804,27895.052673708033,-12373.389477817822,8.549625351026277,28157.59726752211,7847.011475234623,29.783841927049163,0.9828959266812864,150.0,96.0,73.0,285.0,358.0,54.0,860.0,871.0,54.0,24.0,30.0,0.4444444444444444,75.47697433394933,4523.9638361835205,19.0,15.0,4.0,0.7894736842105263,970.2997737024324,8586.570452839938,22.0,11.0,11.0,0.5,2426.7479041052225,41503.08371865206,16.0,4.0,12.0,0.25,1688.2448744606231,27046.800780346824,73.0,38.0,35.0,0.5205479452054794,70.8895293653702,8110.926462276832,0.0,0.0,0.0,0.0,27684.0,27738.0,27834.0,27852.0,27862.0,27884.0,27891.0,27907.0,28121.0,28192.0,0.017849449493454298,-0.23292035096102354,0.052962625757824455,-0.13644158518465735,0.009033952554943934
30,30,28594.897159887583,4155.412124340611,19.638151418666528,28731.972626301005,-4181.037364499613,17.835757805715026,28758.0226819626,47160.80219250536,9.430106166556577,28780.027373698995,-11273.056839252047,8.581078476494447,29042.53956331808,7513.531333217152,29.957402473072023,0.9784637911242176,148.0,96.0,72.0,288.0,360.0,52.0,885.0,885.0,52.0,24.0,28.0,0.4615384615384615,69.28938483762292,4206.71874274553,18.0,14.0,4.0,0.7777777777777778,939.4535585984544,7652.823421149211,22.0,11.0,11.0,0.5,2481.3633925574604,42174.65826533507,16.0,4.0,12.0,0.25,1645.8374410627448,26248.658047939218,75.0,39.0,36.0,0.52,66.88651881298368,7529.19092560904,0.0,0.0,0.0,0.0,28571.0,28623.0,28719.0,28736.0,28747.0,28769.0,28776.0,28791.0,29004.0,29079.0,0.016674491666363395,-0.22469389213671573,0.05261495303724478,-0.14599744013815724,0.008902141462734027
31,31,29492.313680042193,4671.956902142236,22.987596062977225,29632.123304500717,-4283.55557679781,9.195233932662813,29657.22815422491,46549.88438709079,9.521521572328629,29678.876695499283,-11677.67160895596,8.147135404920077,29941.67058561217,8156.722144218325,32.40964946539007,0.9867609700757842,155.0,97.0,70.0,290.0,360.0,58.0,900.0,899.0,59.0,27.0,32.0,0.4576271186440678,71.03754895862838,5037.35627380384,16.0,13.0,3.0,0.8125,1026.0457487186138,10141.74035124299,22.0,11.0,11.0,0.5,2529.2531356838504,43564.976749650894,16.0,4.0,12.0,0.25,1681.5670617516485,26517.70061672059,81.0,42.0,39.0,0.5185185185185185,74.5341557270113,8143.251172648707,0.0,0.0,0.0,0.0,29465.0,29523.0,29620.0,29635.0,29646.0,29668.0,29676.0,29690.0,29902.0,29980.0,0.015205095091107429,-0.2395313263299921,0.05433425171696587,-0.1439984885738698,0.009137758331003446
32,32,30483.688054599465,4074.118946735315,17.932248568813353,30626.397287201147,-4225.389156134993,20.383723206900473,30652.91237369345,48751.69155390715,9.463515920899615,30674.45203459914,-12336.192762681583,9.315698610975351,30937.63613114993,6998.592532310012,27.846582914928263,0.9742628855258896,150.0,104.0,73.0,286.0,359.0,46.0,991.0,996.0,46.0,21.0,25.0,0.4565217391304347,84.85050315579747,4369.646782421996,18.0,13.0,5.0,0.7222222222222222,876.6425044222034,6224.712978954218,21.0,11.0,10.0,0.5238095238095238,2561.22636382823,41823.05521335776,16.0,3.0,13.0,0.1875,1775.7327316956373,28465.816272211378,73.0,38.0,35.0,0.5205479452054794,61.71868518471904,6889.918324634272,0.0,0.0,0.0,0.0,30463.0,30509.0,30613.0,30631.0,30642.0,30663.0,30671.0,30686.0,30900.0,30972.0,0.020826712294148928,-0.20747024049829232,0.05253615376599099,-0.14394495658882983,0.008818728179957018
33,33,31465.428867333096,3590.7043027941572,15.903681179920586,31601.98843973565,-4167.893233881676,20.383723206912453,31631.026917239276,48227.44641785757,9.526791404475867,31652.027373698995,-13920.965936964823,10.905271922943548,31915.27229346726,7274.08179152629,28.016513474409305,0.9728085562568128,141.0,100.0,77.0,285.0,362.0,41.0,981.0,977.0,41.0,18.0,23.0,0.4390243902439024,74.02188935908741,3793.840428691304,21.0,14.0,7.0,0.6666666666666666,676.9639287377537,3225.2094103261206,22.0,12.0,10.0,0.5454545454545454,2509.4521585165653,39246.199554689214,18.0,4.0,14.0,0.2222222222222222,1777.8009554779417,29758.19064555485,71.0,36.0,35.0,0.5070422535211268,58.68848976090258,7257.989454095166,0.0,0.0,0.0,0.0,31447.0,31488.0,31588.0,31609.0,31619.0,31641.0,31648.0,31665.0,31879.0,31950.0,0.020614866365210368,-0.16242352928682827,0.052033693361533025,-0.12770672405406044,0.00806816467602411
34,34,32427.69923498574,3610.3744523875953,14.78308227243522,32560.82591512009,-4243.640266673538,17.8357578060484,32591.050440162588,47026.04366025985,9.622924933716556,32611.45203459914,-15931.957701939124,11.41675909736095,32878.47387106871,7379.978022212241,26.080368556047244,0.9664271770652796,139.0,98.0,77.0,286.0,363.0,41.0,961.0,960.0,41.0,19.0,22.0,0.4634146341463415,78.14701342903639,3481.7251715326356,20.0,13.0,7.0,0.65,587.7573939463467,2109.431499408609,22.0,12.0,10.0,0.5454545454545454,2464.54221089182,36380.76227430973,20.0,4.0,16.0,0.2,1867.4674502977864,31538.81826630506,69.0,35.0,34.0,0.5072463768115942,80.46109692623571,7071.582708317548,0.0,0.0,0.0,0.0,32409.0,32450.0,32548.0,32568.0,32579.0,32601.0,32608.0,32625.0,32844.0,32911.0,0.021645126969408002,-0.1385031145458218,0.05240802795780422,-0.11721519007488274,0.01090262012760256
35,35,33378.20660469245,3639.792045134321,14.841613845904137,33512.54796540086,-4829.2740932617835,15.287792404893674,33538.16770687352,47543.06215170057,9.606965104158723,33559.45203459914,-12487.649255900706,9.672397724622355,33823.541098337606,7064.123171102972,27.066302187946963,0.979088320220038,139.0,97.0,74.0,286.0,360.0,42.0,947.0,948.0,42.0,19.0,23.0,0.4523809523809524,79.2634136312386,3464.4262024149607,21.0,18.0,3.0,0.8571428571428571,1047.6710600848342,9442.147278278508,21.0,11.0,10.0,0.5238095238095238,2511.125894674233,41871.039815470154,17.0,3.0,14.0,0.1764705882352941,1756.2010076497895,28192.93383229657,71.0,37.0,34.0,0.5211267605633803,65.52831166569219,6938.4597179266675,0.0,0.0,0.0,0.0,33359.0,33401.0,33498.0,33516.0,33527.0,33548.0,33556.0,33572.0,33787.0,33858.0,0.02177690721017923,-0.2169417266140753,0.052817925077306205,-0.14063503639966055,0.00927621306685976
36,36,34342.80736631853,3875.2153969421606,16.079441612079933,34479.972626301,-4505.90174515059,17.835757806008992,34505.71620534306,47831.776218663355,9.536367075513605,34527.45203459914,-12628.36110024337,9.173015199593893,34792.4443926913,7307.630974976537,28.39872437740426,0.9780025189377975,141.0,99.0,74.0,288.0,362.0,42.0,969.0,968.0,42.0,19.0,23.0,0.4523809523809524,86.50285321655319,4110.289296874275,20.0,16.0,4.0,0.8,984.0087498772066,8447.702985613225,22.0,12.0,10.0,0.5454545454545454,2534.8661643446385,40937.79549389692,17.0,4.0,13.0,0.2352941176470588,1741.7485471791088,28392.817675284903,71.0,36.0,35.0,0.5070422535211268,82.28093662540245,7494.50657819888,0.0,0.0,0.0,0.0,34324.0,34366.0,34465.0,34484.0,34494.0,34516.0,34524.0,34539.0,34756.0,34827.0,0.022322076157317735,-0.21838220305984957,0.052995442877899354,-0.13792356215926882,0.011259591091443507
37,37,35267.703243259704,3666.95108709658,15.290601643803647,35402.11109642786,-4077.7027033392105,20.383723206912453,35430.27247923074,46865.817073979226,9.510774507818622,35452.027373699,-14017.78356807584,10.094615654104844,35714.70649679854,7487.518164291689,27.932422800821804,0.9766331236790482,141.0,100.0,74.0,284.0,358.0,41.0,929.0,924.0,41.0,19.0,22.0,0.4634146341463415,74.68913796030124,3620.5251501477424,19.0,13.0,6.0,0.6842105263157895,726.3275288520933,4192.099774370468,21.0,11.0,10.0,0.5238095238095238,2472.1809578079683,39800.788730335305,17.0,4.0,13.0,0.2352941176470588,1731.2632591608642,29058.016154243996,72.0,38.0,34.0,0.5277777777777778,70.05585156368673,7566.015566038701,0.0,0.0,0.0,0.0,35249.0,35290.0,35390.0,35408.0,35419.0,35440.0,35448.0,35464.0,35678.0,35748.0,0.02036818495428545,-0.17812174689864158,0.05275019432405392,-0.12350477882278411,0.009356351467404279
38,38,36216.40549404737,4066.561862475097,17.271396373549646,36352.972626301,-3966.75943215399,17.835757800926267,36378.63422276058,47993.82491346522,9.51683973810857,36400.45203459914,-12142.058551685635,9.2699668584664,36664.87064404608,7225.757456770236,29.173717700579196,0.9794289680151896,142.0,98.0,73.0,290.0,363.0,44.0,947.0,949.0,44.0,19.0,25.0,0.4318181818181818,79.96094425327682,4190.96761528451,19.0,15.0,4.0,0.7894736842105263,982.6353875793756,8973.21025050937,22.0,12.0,10.0,0.5454545454545454,2526.326441920465,40953.80554397275,17.0,4.0,13.0,0.2352941176470588,1735.9690479167225,27957.07952595258,75.0,38.0,37.0,0.5066666666666667,54.41356830910287,7077.641060804596,0.0,0.0,0.0,0.0,36197.0,36241.0,36339.0,36357.0,36367.0,36389.0,36397.0,36412.0,36627.0,36702.0,0.019663034021719986,-0.24771741376960557,0.052638572701290895,-0.14297155960228214,0.007530500246464764
39,39,37152.78996504776,4092.112540775859,17.57186355871661,37287.972626301,-4105.036272105177,17.835757740806322,37314.560646781734,48007.43205399648,9.616193468318253,37335.45203459914,-12967.359468773851,9.587782334660703,37599.48297778441,7378.165771119579,28.606404038280765,0.9807431667380356,145.0,96.0,73.0,286.0,359.0,49.0,932.0,935.0,49.0,23.0,26.0,0.4693877551020408,74.70800237271548,3995.021344187234,19.0,14.0,5.0,0.7368421052631579,919.139270765974,7397.140339961914,22.0,12.0,10.0,0.5454545454545454,2530.651862146552,39733.33667630861,17.0,3.0,14.0,0.1764705882352941,1798.840751482961,28678.68377813835,71.0,36.0,35.0,0.5070422535211268,71.16293755475196,7418.774483707874,0.0,0.0,0.0,0.0,37130.0,37179.0,37275.0,37292.0,37303.0,37325.0,37332.0,37348.0,37563.0,37634.0,0.01825658547468759,-0.2239052738734057,0.05271375188950317,-0.1387206667490535,0.009645071656333026
40,40,38056.540651505864,4220.221628895945,19.17914733943426,38195.54796540086,-4343.590971177664,10.61194129728278,38221.42324015633,46581.32636718768,9.564569274246796,38243.027373699,-12701.81406274249,8.557931795449521,38506.76516831774,7488.4519844375245,30.33238117712828,0.985736485225848,147.0,99.0,72.0,289.0,361.0,48.0,911.0,907.0,49.0,22.0,27.0,0.4489795918367347,64.4461728310535,4359.420481249278,17.0,14.0,3.0,0.8235294117647058,1027.3160599777607,9661.938951695667,22.0,11.0,11.0,0.5,2528.518316908117,43337.51984422668,16.0,4.0,12.0,0.25,1732.5331579432443,27714.990939495976,78.0,41.0,37.0,0.5256410256410257,69.67011127733937,7301.301708485831,0.0,0.0,0.0,0.0,38036.0,38084.0,38183.0,38199.0,38210.0,38232.0,38239.0,38255.0,38468.0,38544.0,0.015270802933615907,-0.23651307565436525,0.054281801616736035,-0.1364004503124625,0.0093036733656205
41,41,38970.38991123143,3513.7371598047325,14.887286315169227,39101.027373699,-3858.563668584886,17.8357578060484,39133.230842197205,45767.35270508748,9.554389415860737,39154.027373699,-15848.500201980773,11.148581693301944,39415.70649322965,7371.054269486565,28.560366498202395,0.9742913102332446,136.0,93.0,80.0,285.0,365.0,43.0,906.0,911.0,44.0,20.0,24.0,0.4545454545454545,65.728128034902,3323.1916532795776,26.0,16.0,10.0,0.6153846153846154,407.9097426313179,166.1045865729077,22.0,12.0,10.0,0.5454545454545454,2421.700259314726,36472.4417453707,18.0,4.0,14.0,0.2222222222222222,1789.716842587768,30972.95421039003,75.0,38.0,37.0,0.5066666666666667,71.00339206220312,7060.606088547029,0.0,0.0,0.0,0.0,38951.0,38994.0,39087.0,39111.0,39121.0,39143.0,39150.0,39167.0,39379.0,39452.0,0.018706045741496122,-0.10571543653727432,0.052913269310539135,-0.11292657474074967,0.009632732234265438
42,42,39872.12721209931,3600.4547843779446,15.518628270911911,40004.09230614808,-4143.819153923187,17.8357578060484,40036.29107464101,45057.33152059071,9.525617917624174,40057.027373699,-15315.6192427571,11.279602544867291,40320.07821654681,7456.9950471806205,28.810312878118555,0.9712243011966448,142.0,99.0,76.0,285.0,361.0,43.0,904.0,903.0,43.0,20.0,23.0,0.4651162790697674,68.47324461453765,3740.954829162474,58.0,48.0,10.0,0.8275862068965517,412.39080992339893,115.0554250179964,22.0,12.0,10.0,0.5454545454545454,2387.446329196975,36039.957627417534,18.0,4.0,14.0,0.2222222222222222,1771.625572958039,30177.123842353,74.0,38.0,36.0,0.5135135135135135,71.67294380298702,7438.500194955576,0.0,0.0,0.0,0.0,39852.0,39895.0,39994.0,40014.0,40024.0,40046.0,40053.0,40070.0,40282.0,40355.0,0.01901794320862937,-0.09951949991180609,0.05298685582624745,-0.11567443306582965,0.009611504815211792
43,43,40793.49882369448,4251.114696648423,18.82907507102155,40933.54796540086,-4026.630438435178,12.0091566546668,40959.86952374512,45239.43140134472,9.518735645592464,40981.45203459914,-12902.950858017046,8.611173494746756,41245.160219780526,7249.7734695816125,29.24644760728868,0.9828265508180556,150.0,102.0,71.0,288.0,359.0,48.0,920.0,925.0,50.0,22.0,28.0,0.44,70.99534157502487,4415.6136763541,17.0,13.0,4.0,0.7647058823529411,942.6364878171856,8402.535424545458,22.0,12.0,10.0,0.5454545454545454,2462.6318906033835,39833.6878349214,17.0,4.0,13.0,0.2352941176470588,1752.6896016177386,27944.50932490655,74.0,38.0,36.0,0.5135135135135135,64.83241684907195,7373.02570171248,0.0,0.0,0.0,0.0,40772.0,40820.0,40922.0,40937.0,40948.0,40970.0,40978.0,40993.0,41207.0,41281.0,0.016700406044324694,-0.23410057173846613,0.054435518182268376,-0.13583633859449543,0.008942681743242586
44,44,41756.20479063745,4223.14393196337,18.06953168797361,41899.972626301,-4445.8528955248585,16.115938851480507,41925.71363729946,48075.55688954243,9.62063467494142,41946.45203459914,-12733.92025459071,9.340303138903437,42211.90238550971,7217.108777790563,27.07825430123528,0.979259601813362,151.0,103.0,73.0,287.0,360.0,48.0,962.0,965.0,48.0,21.0,27.0,0.4375,74.01884671376698,4264.586111665993,20.0,16.0,4.0,0.8,997.8294822945136,8821.784430116295,22.0,12.0,10.0,0.5454545454545454,2532.8412744814696,40748.96291704159,17.0,3.0,14.0,0.1764705882352941,1797.427230215963,28592.292270765975,71.0,36.0,35.0,0.5070422535211268,71.03832144524885,7022.0174343838935,0.0,0.0,0.0,0.0,41735.0,41783.0,41886.0,41904.0,41914.0,41936.0,41943.0,41959.0,42177.0,42246.0,0.01752695335660868,-0.22444050798417478,0.052684595631432456,-0.14115270036876285,0.009843044303815584
45,45,42729.07178574554,3706.0192850512585,16.96227801767296,42871.972626301,-4456.697799335597,17.83575780602283,42897.89170479461,48712.86903416942,9.534772747876316,42919.45203459914,-12842.694866033786,9.707967888413153,43183.23978853474,7794.965561595477,29.06873214531636,0.9790449144385004,148.0,103.0,74.0,287.0,361.0,45.0,973.0,973.0,46.0,21.0,25.0,0.4565217391304347,77.61518644006733,3856.346376296876,20.0,16.0,4.0,0.8,978.3767238791468,8408.802898921673,21.0,11.0,10.0,0.5238095238095238,2562.5156080268794,41560.90537759254,17.0,4.0,13.0,0.2352941176470588,1783.5898029258467,28833.974181967533,72.0,37.0,35.0,0.5138888888888888,66.92260170026715,8030.626910415578,0.0,0.0,0.0,0.0,42709.0,42754.0,42857.0,42876.0,42887.0,42908.0,42916.0,42931.0,43147.0,43218.0,0.02094300662523234,-0.21952951892430375,0.0526044895082943,-0.13887971500771734,0.00858536207394987
46,46,43681.37805768927,3270.753920047779,14.357594225538788,43821.54796540086,-4375.9391359147685,15.2877924047535,43847.86473470841,46255.63794099173,9.708524103373962,43869.027373699,-15788.402076229237,10.310982847765638,44132.12334165512,7330.343964515916,26.82429616109377,0.975341365194167,145.0,105.0,74.0,284.0,358.0,40.0,955.0,949.0,40.0,18.0,22.0,0.45,72.56437454701674,3269.9073905893283,20.0,16.0,4.0,0.8,959.5235899062736,8521.422982243634,22.0,12.0,10.0,0.5454545454545454,2472.7653007429058,37229.77454046021,18.0,4.0,14.0,0.2222222222222222,1814.2123166313152,30719.960139034545,70.0,36.0,34.0,0.5142857142857142,52.80522929132421,7362.206833506861,0.0,0.0,0.0,0.0,43663.0,43703.0,43808.0,43825.0,43836.0,43858.0,43865.0,43882.0,44096.0,44166.0,0.02218582514026513,-0.2192726087141269,0.05345867900249068,-0.11490791201490644,0.007203649589560751
47,47,44612.92487524325,4382.373803772337,18.068715547486914,44751.54796540086,-4014.582455179368,15.2877924051282,44777.99190124189,45938.2398244847,9.608328334592288,44799.45203459914,-14043.96443308756,9.524752226231406,45063.66466829946,7254.446771475495,29.499350894673803,0.9797278246970108,147.0,99.0,74.0,288.0,362.0,48.0,929.0,931.0,49.0,22.0,27.0,0.4489795918367347,74.07018443706365,4422.173904133024,19.0,15.0,4.0,0.7894736842105263,934.9866194666772,8170.497975947791,22.0,12.0,10.0,0.5454545454545454,2470.369083351905,39231.88327292801,18.0,4.0,14.0,0.2222222222222222,1780.1658915522491,29254.319080678753,75.0,39.0,36.0,0.52,58.07659404484848,7239.964645413309,0.0,0.0,0.0,0.0,44591.0,44639.0,44738.0,44755.0,44766.0,44788.0,44796.0,44812.0,45025.0,45100.0,0.016901840818166678,-0.23289760016273045,0.05377587588881058,-0.12675665051943458,0.008005654445381805
48,48,45542.13489913032,4293.326896908874,18.64785519826098,45678.54796540086,-4396.055617945184,10.197313240464652,45704.31428527064,46457.32277717249,9.408872853617009,45726.45203459914,-11549.432193909826,8.092082958608046,45991.66710447783,7321.780437295668,29.136984176096625,0.984722177441328,146.0,99.0,70.0,289.0,359.0,47.0,934.0,926.0,47.0,21.0,26.0,0.4468085106382978,72.8238432822287,4433.355940222187,16.0,13.0,3.0,0.8125,1023.1869878866607,9443.95333401045,22.0,11.0,11.0,0.5,2510.090909395549,43620.385392261785,16.0,4.0,12.0,0.25,1694.1559670787365,26814.59892883917,72.0,38.0,34.0,0.5277777777777778,60.156689569978035,7413.987386186926,0.0,0.0,0.0,0.0,45521.0,45568.0,45667.0,45682.0,45693.0,45715.0,45723.0,45737.0,45954.0,46026.0,0.016962100727680597,-0.23275114712150105,0.05403003787874147,-0.14668738156427188,0.008216128588553685
49,49,46464.39837996846,4354.746091731262,19.047996402604294,46601.54796540086,-4154.341596313872,15.287792401697695,46627.50943090439,47030.01016756422,9.547473068301676,46649.15619942348,-13172.28472154928,8.501001552309251,46913.020888658,8075.093716769399,30.95896829289615,0.986856918396927,144.0,98.0,73.0,289.0,362.0,46.0,923.0,923.0,48.0,21.0,27.0,0.4375,84.37722728310106,4567.400659139803,19.0,15.0,4.0,0.7894736842105263,999.2608788037436,9079.163976958112,22.0,12.0,10.0,0.5454545454545454,2537.3048050669486,40430.12296874024,16.0,4.0,12.0,0.25,1762.0297071651191,28475.181735422862,77.0,39.0,38.0,0.5064935064935064,53.776301719738576,8246.879165380884,0.0,0.0,0.0,0.0,46444.0,46490.0,46588.0,46605.0,46616.0,46638.0,46645.0,46661.0,46874.0,46950.0,0.019375923533938178,-0.24053411488607077,0.053950760291710156,-0.13376796390397755,0.0066595266390608344
50,50,47367.32645861285,3878.6100339828818,17.10763697301706,47502.97262630098,-4060.6622011200448,17.835757796557203,47529.89293425717,45657.98331785857,9.845770212632882,47550.45203459914,-16316.835306681123,10.794588658714542,47812.95266186122,7305.784823103136,28.24364686280143,0.9792402712757616,141.0,95.0,76.0,284.0,360.0,46.0,898.0,902.0,46.0,20.0,26.0,0.4347826086956521,66.43794176775337,4126.049623184408,21.0,16.0,5.0,0.7619047619047619,848.9302637939078,7160.963908567013,21.0,12.0,9.0,0.5714285714285714,2390.538961074844,35185.96655522761,20.0,4.0,16.0,0.2,1819.9630396809375,31011.290885561102,72.0,37.0,35.0,0.5138888888888888,66.60530657761562,7389.223788437606,0.0,0.0,0.0,0.0,47347.0,47393.0,47488.0,47507.0,47518.0,47539.0,47547.0,47564.0,47776.0,47848.0,0.017129317251708683,-0.2090620252922661,0.05235752408144171,-0.11153897220104513,0.009116790076678576
51,51,48237.473845430046,3988.480312903969,18.942555737289773,48374.972626301,-3575.3694493446246,17.8357578060484,48401.84808590129,45234.187240159175,9.677784216652594,48423.027373699,-14263.636930100234,9.628273502758269,48686.17284468911,7748.612378616516,29.826492375925223,0.9814567297383776,147.0,98.0,73.0,287.0,360.0,49.0,875.0,872.0,54.0,26.0,28.0,0.4814814814814814,60.974375818895545,4114.608645751457,19.0,15.0,4.0,0.7894736842105263,821.9895004310221,7186.389770912253,22.0,12.0,10.0,0.5454545454545454,2392.6672871210167,37252.836792300935,17.0,4.0,13.0,0.2352941176470588,1751.7427924066722,28542.924783208917,74.0,38.0,36.0,0.5135135135135135,72.02295742507567,7968.651375852137,0.0,0.0,0.0,0.0,48215.0,48264.0,48362.0,48379.0,48390.0,48412.0,48419.0,48435.0,48649.0,48722.0,0.015287621107624515,-0.22990337420422247,0.05289510949799475,-0.12281179063875416,0.009294949070343752
52,52,49126.503519605634,4574.31101712978,22.60723721235272,49267.54796540074,-4053.718869713253,9.055404416518522,49293.16267139294,45678.1491555279,9.435151611060933,49315.027373699,-11798.463197309182,7.815625184557067,49579.074173244066,8084.825817073922,31.969417253056537,0.9864384260559056,153.0,98.0,71.0,290.0,361.0,55.0,890.0,892.0,56.0,26.0,30.0,0.4642857142857143,63.69777404303604,4891.230500268279,16.0,13.0,3.0,0.8125,1008.0130388149756,9969.70516770112,22.0,11.0,11.0,0.5,2489.2959548275567,42600.16772836365,15.0,4.0,11.0,0.2666666666666666,1678.302945555576,26341.28731115076,77.0,40.0,37.0,0.5194805194805194,72.9144807090151,8057.529927691028,0.0,0.0,0.0,0.0,49102.0,49157.0,49255.0,49271.0,49282.0,49304.0,49311.0,49326.0,49539.0,49616.0,0.013925107804104706,-0.24866377546459684,0.05449642774167232,-0.14224758915536884,0.009018682944910305
53,53,50065.56361967826,4016.2433636687774,18.105111146047506,50207.972626301,-4263.932437801176,17.835757803540716,50234.380572992195,48265.12339128555,9.527531202686443,50255.48474148814,-12060.54485978,9.010792473187418,50520.37122547749,7477.532082081072,28.48233008410145,0.9785673167303548,150.0,102.0,73.0,287.0,360.0,48.0,935.0,941.0,48.0,22.0,26.0,0.4583333333333333,69.12116727140804,4138.734338816664,19.0,14.0,5.0,0.7368421052631579,937.7084203821518,7498.413915585645,22.0,11.0,11.0,0.5,2537.6820156817835,43372.71471358093,17.0,3.0,14.0,0.1764705882352941,1784.100424005523,27938.05698863488,72.0,37.0,35.0,0.5138888888888888,64.53812451685741,7615.405489710445,0.0,0.0,0.0,0.0,50044.0,50092.0,50194.0,50212.0,50223.0,50245.0,50252.0,50267.0,50483.0,50554.0,0.017210403108706765,-0.21991634109139616,0.05257796597988127,-0.14792867525871192,0.008630939166615491
54,54,50997.52795058884,3945.648393071156,17.314773355047624,51137.972626301,-3884.414087630715,17.83575780604419,51164.19955212108,46941.097130113136,9.643105279689518,51185.45203459914,-14113.764979939604,9.497610862495463,51449.514184841726,7526.3372558589745,29.109489955374347,0.9801305545673532,147.0,101.0,74.0,287.0,361.0,46.0,932.0,930.0,46.0,21.0,25.0,0.4565217391304347,79.14513459901009,4074.254520449428,18.0,14.0,4.0,0.7777777777777778,923.0920760078212,8137.485235855743,21.0,11.0,10.0,0.5238095238095238,2486.8556437795964,40360.29709467944,18.0,4.0,14.0,0.2222222222222222,1807.3059416306485,29443.37219366124,74.0,39.0,35.0,0.527027027027027,76.02549728588032,7486.520241179307,0.0,0.0,0.0,0.0,50977.0,51023.0,51124.0,51142.0,51153.0,51174.0,51182.0,51198.0,51411.0,51485.0,0.02005884121301702,-0.23763997740283607,0.052978217294036276,-0.12805271620998626,0.010101261038587833
55,55,51903.78540915732,4237.637404112562,17.91852311095142,52043.972626301,-3787.603100847128,17.8357578060484,52070.18552691649,46349.88174149341,9.669836853566167,52091.45203459914,-14099.3846327421,9.306939494278469,52353.95768460039,8103.716537221607,30.851313612050937,0.9841745349145076,147.0,101.0,74.0,286.0,360.0,46.0,910.0,906.0,46.0,21.0,25.0,0.4565217391304347,69.2502639226211,4271.802367598083,19.0,15.0,4.0,0.7894736842105263,911.1804529763236,8160.85362850726,21.0,11.0,10.0,0.5238095238095238,2458.2741373272634,39916.44985700028,17.0,3.0,14.0,0.1764705882352941,1802.066945500532,29212.38628572662,77.0,40.0,37.0,0.5194805194805194,67.6866838745985,8159.349038220867,0.0,0.0,0.0,0.0,51883.0,51929.0,52030.0,52048.0,52059.0,52080.0,52088.0,52104.0,52315.0,52390.0,0.01634171528111744,-0.24056914853948946,0.053037333537068417,-0.1278117444442013,0.008352548310852586
56,56,52838.79256712444,4303.8473142492785,19.44144922488898,52980.54796540086,-4539.086579532883,11.833857556715977,53005.95652204148,46590.82189426938,9.595228864758914,53027.45203459914,-12323.449092804498,8.507669339776392,53291.776509630385,7675.644650878322,29.905529856662252,0.983212360754438,152.0,101.0,72.0,289.0,361.0,51.0,933.0,936.0,51.0,24.0,27.0,0.4705882352941176,71.06808462898508,4525.99780538825,18.0,15.0,3.0,0.8333333333333334,1064.3611200087537,10300.890956797077,21.0,11.0,10.0,0.5238095238095238,2517.4630801900125,41975.53855666108,16.0,3.0,13.0,0.1875,1749.6323443535932,27746.682625986617,75.0,39.0,36.0,0.52,67.62886234577397,7771.439814112613,0.0,0.0,0.0,0.0,52815.0,52866.0,52967.0,52984.0,52995.0,53016.0,53024.0,53039.0,53254.0,53328.0,0.016512687240016904,-0.23448795288639043,0.054033455041917984,-0.1419758649691003,0.008810838101791908
57,57,53772.597798898896,3828.5226659816553,16.9068080360707,53914.972626301,-4389.154590500427,17.835757805298773,53941.13334613261,48331.22181769551,9.523450952302394,53962.45203459914,-12498.90584326117,9.50794450777174,54227.30718704163,7164.732657071183,28.06393399639366,0.9735785387673912,148.0,104.0,74.0,288.0,362.0,44.0,930.0,935.0,46.0,21.0,25.0,0.4565217391304347,74.7022273788945,3763.989395063649,19.0,15.0,4.0,0.7894736842105263,953.5658783273824,7846.196668717656,21.0,11.0,10.0,0.5238095238095238,2541.664201880949,42139.26658393114,17.0,3.0,14.0,0.1764705882352941,1776.3121281546764,28595.71321167096,73.0,37.0,36.0,0.5068493150684932,58.96719510225115,7050.82491171123,0.0,0.0,0.0,0.0,53753.0,53797.0,53901.0,53919.0,53930.0,53951.0,53959.0,53975.0,54190.0,54263.0,0.019512024322765872,-0.217255022274953,0.052588453308051265,-0.1421174101501358,0.008230201729028072
58,58,54685.90721773641,4826.290033819023,24.20052600685274,54826.54796539861,-4198.973174686347,8.831806105427741,54852.55889800899,46722.91152434921,9.53238757319763,54873.876695499326,-12242.495157516742,8.343587512113446,55139.93826116691,7823.799171643897,32.382519162400776,0.9858211290330814,155.0,98.0,70.0,291.0,361.0,57.0,918.0,911.0,58.0,26.0,32.0,0.4482758620689655,72.17553979476882,5388.253771012827,16.0,13.0,3.0,0.8125,1011.5060086865876,9778.461935687086,22.0,12.0,10.0,0.5454545454545454,2533.6102901095364,40921.866843268566,16.0,4.0,12.0,0.25,1723.8820507779403,27447.313507889725,77.0,40.0,37.0,0.5194805194805194,83.42505840102318,7998.467074025784,0.0,0.0,0.0,0.0,54660.0,54717.0,54815.0,54830.0,54841.0,54863.0,54871.0,54885.0,55101.0,55176.0,0.01495466275110214,-0.24089365818874148,0.054226292999509866,-0.14081133205264107,0.010662985663459242
59,59,55596.80412376637,4408.786971064451,19.212547137369334,55734.54796540086,-3937.1434779814704,15.287792113340124,55760.16270871481,47358.3970913283,9.63559603912735,55781.45203459914,-13507.433005503031,9.010384546847508,56044.83671564651,7651.774257788364,30.317379533875847,0.9857952791928885,146.0,97.0,73.0,287.0,360.0,49.0,906.0,908.0,50.0,23.0,27.0,0.46,85.7681587303382,4515.953902256466,18.0,15.0,3.0,0.8333333333333334,1040.3866413197702,10239.570699995473,21.0,11.0,10.0,0.5238095238095238,2518.821295986845,41793.631791139625,16.0,3.0,13.0,0.1875,1814.587832036023,29069.106922990213,75.0,38.0,37.0,0.5066666666666667,57.256467242607414,7734.192531379712,0.0,0.0,0.0,0.0,55575.0,55624.0,55721.0,55738.0,55749.0,55770.0,55778.0,55794.0,56007.0,56081.0,0.019453913126954842,-0.26424910525566236,0.05318637138688255,-0.13433994684976383,0.007482770049616777
60,60,56485.257272672,3910.316414655316,17.77978972500285,56619.00226761184,-4009.6502861063286,15.28779240518434,56646.35479696322,44882.76954707007,9.748415087229237,56667.027373699,-16324.79864976805,10.712341643903647,56929.01004429359,7480.539042748765,29.27650178121613,0.97546721270332,143.0,95.0,75.0,283.0,358.0,48.0,892.0,885.0,48.0,22.0,26.0,0.4583333333333333,73.52683958228344,4155.754405872076,19.0,14.0,5.0,0.7368421052631579,796.853183212243,6176.194743094437,22.0,12.0,10.0,0.5454545454545454,2390.537699517854,36296.49117029355,18.0,4.0,14.0,0.2222222222222222,1801.4407633275111,30688.20419432994,75.0,39.0,36.0,0.52,71.97032271131657,7504.181866446381,0.0,0.0,0.0,0.0,56463.0,56511.0,56606.0,56623.0,56634.0,56656.0,56663.0,56681.0,56892.0,56964.0,0.01880329666078049,-0.1987338362084558,0.05326181346743357,-0.11034995297495487,0.009621007563763839
61,61,58210.48498905571,4128.9775788787665,18.331404123014803,58345.972626301,-3734.311438318513,17.83575779322532,58371.66601689049,45669.6785454114,9.539790752112944,58393.05139464385,-12597.667629280842,8.779069577676145,58657.03066639257,7789.091587640994,30.09033253518005,0.9830574077652412,144.0,96.0,73.0,288.0,361.0,48.0,1729.0,1727.0,48.0,22.0,26.0,0.4583333333333333,61.453735547578844,4098.157603980115,18.0,14.0,4.0,0.7777777777777778,941.1783523071332,8588.048784060786,22.0,12.0,10.0,0.5454545454545454,2439.5651460393115,38974.806656067114,16.0,4.0,12.0,0.25,1699.1285680614417,27207.255891949106,74.0,38.0,36.0,0.5135135135135135,61.91624811294205,7839.695804328132,0.0,0.0,0.0,0.0,58188.0,58236.0,58332.0,58350.0,58360.0,58382.0,58390.0,58405.0,58619.0,58693.0,0.014883523674707565,-0.2520353130297368,0.053417611503736404,-0.13487644046999192,0.007949097454597272
62,62,59104.44416659931,4105.67992883832,20.262342124773696,59244.54796540086,-4164.972965042261,15.287792405159143,59270.27656936767,46831.02553107597,9.557270137679128,59291.45203459914,-12140.490273065056,8.772914803220957,59555.60423307476,7643.870835249229,29.258404459107982,0.9799034298278728,155.0,98.0,71.0,288.0,359.0,57.0,889.0,898.0,57.0,27.0,30.0,0.4736842105263157,66.13124871150188,4288.228353323091,17.0,14.0,3.0,0.8235294117647058,1024.5171283619625,9330.79570890507,22.0,11.0,11.0,0.5,2488.7311921357523,42327.64399434411,17.0,3.0,14.0,0.1764705882352941,1743.8032904526322,27669.565642641697,74.0,39.0,35.0,0.527027027027027,62.73146099975453,7671.804587834115,0.0,0.0,0.0,0.0,59077.0,59134.0,59232.0,59248.0,59259.0,59281.0,59288.0,59303.0,59518.0,59591.0,0.01610725868984467,-0.24598410048780878,0.05314278651626556,-0.14363532701158221,0.008206766225100554
63,63,60009.40112419538,4821.3279383787085,21.409944261027412,60150.12330450071,-4464.134903799648,9.67098042452045,60175.49698420654,46664.82563079429,9.575258534895031,60196.87669549961,-11956.96205678457,8.223642725665766,60460.56382370564,7907.033070317143,32.08459220925668,0.9888802908183916,153.0,98.0,71.0,290.0,361.0,55.0,910.0,905.0,57.0,26.0,31.0,0.4561403508771929,77.13308524577484,4957.495388020741,17.0,14.0,3.0,0.8235294117647058,1013.5207834473634,9631.223710630684,22.0,11.0,11.0,0.5,2520.592242386,44125.06810483061,15.0,3.0,12.0,0.2,1712.9615439976972,27076.12529755467,79.0,41.0,38.0,0.5189873417721519,73.71143093436409,7863.750890804547,0.0,0.0,0.0,0.0,59984.0,60039.0,60137.0,60153.0,60164.0,60186.0,60194.0,60208.0,60421.0,60498.0,0.015998307153467093,-0.2270363251309241,0.054014821834513664,-0.14326059879279582,0.009322261621881342
64,64,60906.26034970878,3769.752948371742,17.369298465751342,61044.933719111934,-4144.847863965552,15.28779240518434,61071.75544680449,45796.89404586408,9.668830187947156,61093.027373699,-15240.854498667915,10.24200289168201,61354.2194833377,7594.33846609903,29.44933898978312,0.9781107399372188,149.0,101.0,74.0,284.0,358.0,48.0,891.0,896.0,48.0,23.0,25.0,0.4791666666666667,48.733988887285086,3753.117350565831,19.0,14.0,5.0,0.7368421052631579,860.3457532811524,7023.2948743176175,22.0,12.0,10.0,0.5454545454545454,2462.8739023083745,36938.20564401717,18.0,4.0,14.0,0.2222222222222222,1763.7931162046043,29995.47688172412,73.0,37.0,36.0,0.5068493150684932,71.66360668688976,7781.326803072128,0.0,0.0,0.0,0.0,60883.0,60931.0,61032.0,61049.0,61060.0,61082.0,61089.0,61106.0,61317.0,61390.0,0.012927634663256807,-0.2075699233163224,0.05377818635128154,-0.11572796763847878,0.009436451510134112
65,65,64346.961375430605,4671.411073153262,21.511169663491778,64486.54796540086,-3698.1419966890207,9.372597858330655,64512.95996559092,42949.91970326761,9.584487262906231,64534.027373699,-13460.74594084281,8.825571150263267,64798.21584126016,7305.023114160549,30.86120162698148,0.9858266205410274,156.0,100.0,70.0,289.0,359.0,56.0,3442.0,3442.0,56.0,27.0,29.0,0.4821428571428571,70.98111889067005,4990.408175396151,16.0,13.0,3.0,0.8125,893.7102246520394,8669.93620344606,22.0,12.0,10.0,0.5454545454545454,2366.352824733586,37331.03320097516,17.0,4.0,13.0,0.2352941176470588,1691.5640039748755,27358.636098500767,77.0,40.0,37.0,0.5194805194805194,62.49352900445147,7469.079520430392,0.0,0.0,0.0,0.0,64320.0,64376.0,64476.0,64490.0,64501.0,64523.0,64530.0,64546.0,64758.0,64835.0,0.015194791847499922,-0.24166465902396017,0.055095628608440805,-0.12566643865124183,0.008554870809828075
66,66,65236.69443883956,3859.87101357672,18.41828767953934,65375.972626301,-4238.570215128202,17.835757804891905,65401.95434340567,46031.46187592261,9.490537469044124,65423.45203459914,-12550.763626356093,8.694209953378138,65686.66809311998,7406.87872786253,29.96576724629795,0.980032348222018,148.0,98.0,73.0,287.0,360.0,50.0,891.0,889.0,51.0,24.0,27.0,0.4705882352941176,55.69479634768459,3889.9492931840614,19.0,15.0,4.0,0.7894736842105263,924.662590964819,7558.484461217126,21.0,11.0,10.0,0.5238095238095238,2466.3748470414116,40216.5605816304,17.0,4.0,13.0,0.2352941176470588,1720.820961972811,27693.425927451295,74.0,39.0,35.0,0.527027027027027,61.30210731720293,7518.148203980718,0.0,0.0,0.0,0.0,65214.0,65264.0,65362.0,65380.0,65391.0,65412.0,65420.0,65435.0,65648.0,65722.0,0.014429185885171699,-0.2181543643336462,0.05358019811948408,-0.13710886550035545,0.008276375187108461
67,67,66148.12339777655,3908.7056893222048,18.755614272350655,66286.54796540085,-4520.853698923011,15.287792403523571,66312.26961165632,46853.74448875945,9.600931946057363,66333.45203459915,-12343.82543317098,8.869646036686092,66598.71457969051,7277.155679278682,29.61766931015882,0.9831161446819526,147.0,97.0,73.0,289.0,362.0,50.0,914.0,910.0,52.0,25.0,27.0,0.4807692307692308,54.592203792131826,3853.090991076173,19.0,15.0,4.0,0.7894736842105263,1017.5281412947082,9222.306768085133,22.0,11.0,11.0,0.5,2495.754591737876,42319.77028635085,16.0,3.0,13.0,0.1875,1746.6274969601718,27668.545695073193,73.0,38.0,35.0,0.5205479452054794,60.73105109517067,7378.222836757763,0.0,0.0,0.0,0.0,66125.0,66175.0,66272.0,66290.0,66301.0,66323.0,66330.0,66345.0,66561.0,66634.0,0.01396682383666458,-0.2250743353046596,0.05326691855624529,-0.14149807176197923,0.008345437939179884
68,68,67066.86329443243,4081.879039953424,18.076761393727413,67203.41679035677,-5016.841210091641,15.28779240518416,67228.63945352587,46846.14286665036,9.62520467580484,67250.027373699,-13173.34718054153,9.435676325320031,67515.26286928597,6877.202802533335,27.99128216952155,0.9787912536561106,143.0,96.0,73.0,287.0,360.0,47.0,917.0,916.0,47.0,21.0,26.0,0.4468085106382978,68.52377853501936,4180.434346380873,20.0,16.0,4.0,0.8,993.6948158434074,8112.451042327685,22.0,12.0,10.0,0.5454545454545454,2504.784312677481,39648.25691365324,17.0,4.0,13.0,0.2352941176470588,1716.781106194767,28300.486817728943,71.0,37.0,34.0,0.5211267605633803,63.1282868221461,6901.968454660966,0.0,0.0,0.0,0.0,67046.0,67093.0,67189.0,67207.0,67217.0,67239.0,67246.0,67262.0,67479.0,67549.0,0.01678731237851704,-0.19807180937768923,0.053468314772626244,-0.13032231540444328,0.009179355129514535
69,69,67937.79835965853,4455.568543444702,21.075032816790287,68072.54796540085,-4069.0018311747926,11.569692305898954,68098.48360858747,45786.01116180799,9.62541537460402,68120.027373699,-13454.592249584508,8.65578333067805,68383.37237664881,7676.703739080812,32.54044619418066,0.9860943179703252,150.0,93.0,72.0,290.0,362.0,57.0,864.0,870.0,57.0,28.0,29.0,0.4912280701754385,61.021457626873065,4409.192496414326,18.0,15.0,3.0,0.8333333333333334,986.2343927159982,9710.972537106883,22.0,11.0,11.0,0.5,2476.702334940126,42060.83471014011,16.0,4.0,12.0,0.25,1739.6401132344329,28235.284918470767,81.0,41.0,40.0,0.5061728395061729,69.46657042811975,7699.458227405456,0.0,0.0,0.0,0.0,67910.0,67967.0,68060.0,68076.0,68087.0,68109.0,68116.0,68132.0,68342.0,68422.0,0.013695549071206965,-0.24237747576320331,0.05409299198804298,-0.1292971262869861,0.009049010198801484
70,70,70521.24465330724,4158.197128386892,20.21496409668194,70656.54796540085,-4418.199669796925,15.287792405162453,70681.98670799402,45270.28110200455,9.49695750993021,70704.027373699,-12759.729993396431,8.549302497524211,70966.79600998724,7472.38484238999,31.052566852189926,0.9814809057609296,145.0,91.0,74.0,288.0,362.0,54.0,2585.0,2584.0,56.0,26.0,30.0,0.4642857142857143,64.63283346556487,4057.235774264309,21.0,17.0,4.0,0.8095238095238095,999.0862508877078,9316.702961697942,21.0,11.0,10.0,0.5238095238095238,2445.190021709385,40261.73607171312,16.0,4.0,12.0,0.25,1667.3424422020223,26870.358342024738,77.0,40.0,37.0,0.5194805194805194,66.37203052069638,7529.19822365269,0.0,0.0,0.0,0.0,70496.0,70550.0,70641.0,70660.0,70671.0,70692.0,70700.0,70715.0,70927.0,71003.0,0.015543475085472483,-0.2261297192423241,0.054013139794731976,-0.13067223546775092,0.008882308917519264
71,71,71381.96717054823,3481.958835014094,16.51514292339553,71513.027373699,-4723.185422386955,17.8357578060484,71544.55252808693,46874.35604362064,9.439794612644802,71565.45203459915,-13174.43844086977,10.215766283470218,71828.65823031984,7441.735048740408,27.58822058114455,0.9702043667543776,141.0,94.0,77.0,285.0,362.0,47.0,860.0,862.0,47.0,22.0,25.0,0.4680851063829787,56.34585597124387,3452.7051240902865,23.0,13.0,10.0,0.5652173913043478,476.6341386919245,83.82305066951767,21.0,12.0,9.0,0.5714285714285714,2504.0634024650763,37964.44394786567,17.0,3.0,14.0,0.1764705882352941,1777.068501200902,28909.665627618877,70.0,36.0,34.0,0.5142857142857142,54.54240444276851,7302.485041536856,0.0,0.0,0.0,0.0,71360.0,71407.0,71501.0,71523.0,71533.0,71554.0,71562.0,71578.0,71794.0,71863.0,0.016182229210936608,-0.1009137046436445,0.053420753132796726,-0.13488760899956664,0.007329259115721996
72,72,72242.05082099972,4326.973324866164,19.474501113323377,72376.39728720114,-3694.884029397783,20.383723206856992,72402.81857761745,47471.200002016274,9.466638580659149,72424.59276168067,-12535.29883258932,8.903446250440517,72686.68755283476,7846.379494000871,29.787224320634927,0.9822098963872854,146.0,92.0,73.0,286.0,359.0,54.0,866.0,859.0,54.0,25.0,29.0,0.4629629629629629,52.084355488731234,4255.648716164023,18.0,13.0,5.0,0.7222222222222222,858.3121141242885,6742.864732323745,22.0,12.0,10.0,0.5454545454545454,2500.3754779802416,40764.40174999558,15.0,4.0,11.0,0.2666666666666666,1670.5118177081893,27265.29834851224,74.0,39.0,35.0,0.527027027027027,77.69397705758996,7803.904235088319,0.0,0.0,0.0,0.0,72217.0,72271.0,72363.0,72381.0,72391.0,72413.0,72421.0,72436.0,72649.0,72722.0,0.012037133482985416,-0.23229744351791795,0.0526714192578667,-0.13326461857974906,0.009901888777746816
73,73,73098.69106857826,4685.684895806887,21.65721901914165,73236.972626301,-4319.417081685425,11.171670003324836,73262.82811601495,46163.567003209224,9.578220402830963,73284.45203459915,-12978.215038040684,8.544857586733325,73546.17475068592,8077.692090166913,31.23377535539,0.9832097981847852,151.0,96.0,72.0,285.0,357.0,55.0,856.0,860.0,56.0,26.0,30.0,0.4642857142857143,59.90587638421669,4982.2845235106715,19.0,15.0,4.0,0.7894736842105263,962.6994591463684,8922.53374979608,22.0,12.0,10.0,0.5454545454545454,2514.0199521346453,40872.82340125169,17.0,4.0,13.0,0.2352941176470588,1763.3112998097952,28164.15298731606,75.0,40.0,35.0,0.5333333333333333,74.9737627048325,8320.421341770838,0.0,0.0,0.0,0.0,73073.0,73128.0,73224.0,73241.0,73251.0,73273.0,73281.0,73296.0,73507.0,73581.0,0.012784870881485244,-0.22287717090999828,0.054458962236602605,-0.13586701211540425,0.009281582148457862
74,74,73984.4931101434,3986.6953456044407,18.74992554852636,74122.972626301,-3753.955470258232,17.835757806048225,74148.9298980495,47205.59990135761,9.451696094388614,74170.74951220588,-12457.21239217466,8.29672495365947,74431.88630793412,8082.869126776928,30.313036278766248,0.9862286539331722,149.0,98.0,72.0,285.0,357.0,51.0,885.0,886.0,51.0,23.0,28.0,0.4509803921568627,64.1021562849846,4100.379226455003,18.0,14.0,4.0,0.7777777777777778,936.3186286161958,8233.694891224372,21.0,11.0,10.0,0.5238095238095238,2510.685253788343,41601.167002302616,15.0,4.0,11.0,0.2666666666666666,1687.1933614897814,27219.93480234004,73.0,37.0,36.0,0.5068493150684932,69.96403989637007,8241.234744325593,0.0,0.0,0.0,0.0,73961.0,74012.0,74110.0,74127.0,74138.0,74159.0,74167.0,74182.0,74395.0,74467.0,0.016079020524018946,-0.24942187941078245,0.05318617407754068,-0.13543907805165448,0.008655842226195795
75,75,74866.57070119848,4113.741816728106,17.821875275525596,75000.47214073988,-4474.898410019283,15.28779240518434,75030.57451090962,45490.54136237731,9.572599152679242,75051.45203459915,-15607.516116446115,10.759441109705117,75313.76917092995,7434.629094243291,28.970763343960837,0.9700572786306368,143.0,95.0,77.0,284.0,361.0,48.0,882.0,881.0,48.0,22.0,26.0,0.4583333333333333,63.91484517567781,4223.379477075255,20.0,12.0,8.0,0.6,537.2747463434381,1349.6791195613246,21.0,12.0,9.0,0.5714285714285714,2453.2886716616285,35019.34466539408,19.0,4.0,15.0,0.2105263157894736,1827.9380117922285,30902.284144102327,73.0,38.0,35.0,0.5205479452054794,60.61569476061535,7461.7339422902205,0.0,0.0,0.0,0.0,74845.0,74893.0,74988.0,75008.0,75019.0,75040.0,75048.0,75065.0,75276.0,75349.0,0.01553691214061483,-0.12006412148720107,0.053929643354181024,-0.11711908532749003,0.00815315653171598
76,76,75745.84754410892,4239.923865574401,20.80083026027905,75885.54796540085,-3939.8778664606302,15.287792404777557,75910.90849649216,45495.26525957247,9.64160791108564,75932.45203459915,-13902.430064382992,9.22940508611015,76194.48266565797,7811.3675884974,29.61083678018127,0.9823031452335516,152.0,97.0,72.0,287.0,359.0,55.0,879.0,881.0,55.0,26.0,29.0,0.4727272727272727,63.42965789787944,4541.895358440643,20.0,17.0,3.0,0.85,1011.755946767764,10152.526404534,22.0,12.0,10.0,0.5454545454545454,2442.1388851348647,39012.46236403834,17.0,4.0,13.0,0.2352941176470588,1758.7093310370758,28811.353414330777,74.0,37.0,37.0,0.5,73.01725267962526,7874.681458215417,0.0,0.0,0.0,0.0,75720.0,75775.0,75872.0,75889.0,75899.0,75921.0,75929.0,75944.0,76158.0,76231.0,0.014960093602833206,-0.2567988097754588,0.053678967936581584,-0.1265037351666138,0.0093475632598761
77,77,76652.5486464808,4125.116092418703,18.171838667483648,76792.972626301,-4218.759757097014,17.835757806041652,76818.85085669147,47045.89617098174,9.53358491085246,76840.45203459915,-12824.149945643065,9.323632995673831,77104.23787221669,7596.885134038269,28.734748862439872,0.979904304255786,149.0,100.0,74.0,286.0,360.0,49.0,905.0,908.0,49.0,23.0,26.0,0.4693877551020408,78.24176676426559,4225.362817644878,19.0,15.0,4.0,0.7894736842105263,967.6274528055658,8269.63429893268,22.0,12.0,10.0,0.5454545454545454,2486.886151824167,40230.49403194977,17.0,4.0,13.0,0.2352941176470588,1741.493132313334,28309.074168218795,71.0,36.0,35.0,0.5070422535211268,76.72072190875976,7663.355266741571,0.0,0.0,0.0,0.0,76630.0,76679.0,76779.0,76797.0,76807.0,76829.0,76837.0,76853.0,77068.0,77139.0,0.018967167229077823,-0.2293630138994697,0.05286085193883706,-0.13579793902090148,0.010098970901245863
78,78,77555.51157208279,3861.553302733483,17.816405423330142,77694.54796540085,-4458.486599833925,15.287792405176347,77720.00577252933,47005.089735055386,9.538403193120605,77741.45203459915,-12508.629024314016,8.96992968252102,78004.11408159374,7340.33915260014,28.933600044835295,0.9810049529305728,147.0,99.0,72.0,287.0,359.0,48.0,900.0,901.0,49.0,23.0,26.0,0.4693877551020408,62.02191280549763,3838.3887288620554,20.0,16.0,4.0,0.8,1050.2157562631417,9812.913790822606,21.0,11.0,10.0,0.5238095238095238,2514.852931816431,41588.725409403894,16.0,3.0,13.0,0.1875,1757.9238441204566,28151.08072136792,73.0,37.0,36.0,0.5068493150684932,60.657171853201056,7387.611112137352,0.0,0.0,0.0,0.0,77534.0,77582.0,77681.0,77698.0,77709.0,77730.0,77738.0,77753.0,77967.0,78040.0,0.016061389793996652,-0.23555431484357528,0.05350171536723836,-0.14053689182910775,0.008263538045338777
79,79,78482.77789848723,4045.6984889557634,17.9153137559581,78623.12330450071,-4786.335672382761,12.739827004301464,78647.78597932715,46573.75923044899,9.629575857087282,78669.45203459915,-12712.699818276536,8.844542853329845,78932.83933550149,7421.014012109411,29.293737351331774,0.983016689106242,147.0,100.0,72.0,288.0,360.0,47.0,933.0,928.0,48.0,22.0,26.0,0.4583333333333333,73.43135540441318,4223.4212650600275,18.0,15.0,3.0,0.8333333333333334,1067.1426644670462,10077.229981800128,21.0,11.0,10.0,0.5238095238095238,2512.9966363925987,41100.980685963266,16.0,3.0,13.0,0.1875,1754.9357646753365,27918.57608557005,76.0,40.0,36.0,0.5263157894736842,72.99436110932771,7599.46956983068,0.0,0.0,0.0,0.0,78462.0,78509.0,78609.0,78626.0,78637.0,78658.0,78666.0,78681.0,78893.0,78969.0,0.018150476513480018,-0.22295608530435457,0.05395735018850813,-0.13804587457908318,0.00983617076995374
80,80,79411.96285547616,3920.1750252201177,16.676573780474584,79547.972626301,-4364.429474845214,17.835757805374136,79573.76193594528,46970.96424186704,9.598718974131211,79595.45203459915,-13649.553455280758,9.554547843182572,79857.42903248113,7838.26368198784,29.15739268130555,0.9772299594937536,140.0,98.0,73.0,287.0,360.0,42.0,928.0,925.0,42.0,18.0,24.0,0.4285714285714285,74.7527521402886,4130.757899569176,24.0,20.0,4.0,0.8333333333333334,960.932188375021,8453.484843631673,22.0,12.0,10.0,0.5454545454545454,2490.0366279618347,39453.8110187542,17.0,4.0,13.0,0.2352941176470588,1771.0475609612308,29164.70299597786,74.0,37.0,37.0,0.5,72.64278433293948,7892.645902051221,0.0,0.0,0.0,0.0,79394.0,79436.0,79534.0,79552.0,79562.0,79584.0,79592.0,79607.0,79820.0,79894.0,0.01906872822243217,-0.22017360892493304,0.053012252742777814,-0.12975131873461,0.009267713779503365
81,81,80307.05083291118,4189.817336715822,18.482022894482167,80442.972626301,-3983.792731219608,13.143049153533832,80469.39524548044,45195.55146507802,9.602011956151165,80491.027373699,-13687.21636593625,9.046298215888095,80752.85572004071,7915.2066226286015,30.75069335749791,0.9846234894120096,145.0,96.0,73.0,287.0,360.0,49.0,896.0,896.0,49.0,22.0,27.0,0.4489795918367347,71.31529157950833,4538.717100606618,18.0,14.0,4.0,0.7777777777777778,882.4250564723127,7743.01901805495,22.0,11.0,11.0,0.5,2432.364797233756,40636.61227120686,16.0,4.0,12.0,0.25,1725.7581077883117,28241.65023229635,76.0,39.0,37.0,0.5131578947368421,68.09154725581881,8148.398176711649,0.0,0.0,0.0,0.0,80285.0,80334.0,80430.0,80447.0,80458.0,80480.0,80487.0,80503.0,80715.0,80790.0,0.017021098021282387,-0.22150375684885718,0.05381867724555171,-0.1260853968878035,0.008602624100949361
82,82,81214.04063747617,3822.044469863132,17.664485442654723,81350.54796540085,-4826.2220895560195,15.28779240518434,81375.87178321995,47139.60104547652,9.610889870645018,81397.45203459915,-12792.592554549394,9.370037030524498,81660.4381177714,7434.876201781697,28.967821439551894,0.9797384879855624,141.0,95.0,74.0,286.0,360.0,46.0,910.0,907.0,46.0,20.0,26.0,0.4347826086956521,74.04592352115608,3893.2508206571392,20.0,17.0,3.0,0.85,1058.8018337979663,9870.340561777151,21.0,11.0,10.0,0.5238095238095238,2509.8926518360945,40921.178981495876,16.0,3.0,13.0,0.1875,1747.6910060043888,28252.12877994292,74.0,38.0,36.0,0.5135135135135135,63.07647092138744,7364.7657689271,0.0,0.0,0.0,0.0,81194.0,81240.0,81335.0,81354.0,81365.0,81386.0,81394.0,81409.0,81622.0,81695.0,0.019373380949648574,-0.21938522806259192,0.053243824643631386,-0.13661742125780926,0.00848386297357201
83,83,82109.83666832594,3930.343496405985,17.897675157084702,82243.972626301,-4492.802764105121,17.8357578060484,82270.44793847592,47405.67104480915,9.659912850562334,82291.45203459915,-13956.849894736655,9.83476187540866,82554.46964763966,7511.588464254859,30.29245727498079,0.9812361764550962,142.0,93.0,74.0,288.0,362.0,49.0,893.0,894.0,49.0,22.0,27.0,0.4489795918367347,64.16992413341853,3824.158327717937,19.0,15.0,4.0,0.7894736842105263,913.0588951484184,7340.383207530915,21.0,11.0,10.0,0.5238095238095238,2486.142038983019,40976.074421281664,18.0,3.0,15.0,0.1666666666666666,1801.9065892484869,29516.77892900891,76.0,38.0,38.0,0.5,62.215121583332255,7648.157243669705,0.0,0.0,0.0,0.0,82088.0,82137.0,82230.0,82248.0,82259.0,82280.0,82288.0,82304.0,82516.0,82592.0,0.016326797948346572,-0.20322701509250027,0.052443979468892,-0.1291055361946691,0.008282551936836429
84,84,82996.35679556959,3920.1747411757447,16.44277525605938,83125.73341083358,-4031.8155474525215,15.28779240518434,83157.29560022335,44546.945933353134,9.61412531912218,83178.027373699,-15940.22651092038,10.951705949116471,83438.59364762407,7070.827743584853,28.2506412310796,0.9751793011680954,127.0,83.0,87.0,282.0,369.0,44.0,885.0,887.0,44.0,19.0,25.0,0.4318181818181818,77.12647433145703,4113.151213263743,35.0,26.0,9.0,0.7428571428571429,467.7912803902083,1224.52905944553,22.0,12.0,10.0,0.5454545454545454,2386.7729139877983,35933.36519908751,18.0,4.0,14.0,0.2222222222222222,1778.572360264832,30507.910137320567,75.0,40.0,35.0,0.5333333333333333,67.17675312881347,6908.492563505139,0.0,0.0,0.0,0.0,82977.0,83021.0,83104.0,83134.0,83145.0,83167.0,83174.0,83191.0,83402.0,83473.0,0.01967424398748234,-0.11602497060803772,0.05357882261016634,-0.1115776089534463,0.009500550086199017
85,85,83851.62572025154,3930.7506481926066,19.106652527157,83985.972626301,-3495.571592212728,17.835757805694165,84012.278187607,43816.87028748873,9.63919831582699,84033.90436465571,-14097.017841316389,9.074512218432927,84295.33732916096,7616.642034131818,30.262677508068887,0.9826895528356916,143.0,92.0,75.0,286.0,361.0,51.0,861.0,855.0,52.0,24.0,28.0,0.4615384615384615,56.76890614730608,4046.183953810734,20.0,16.0,4.0,0.8,849.4155688985411,7665.408629792136,21.0,11.0,10.0,0.5238095238095238,2342.980408092154,38082.5382767267,16.0,4.0,12.0,0.25,1694.2861762767138,27871.20202653061,75.0,38.0,37.0,0.5066666666666667,61.959126606292166,7678.121376960779,0.0,0.0,0.0,0.0,83828.0,83879.0,83971.0,83990.0,84001.0,84022.0,84030.0,84046.0,84257.0,84332.0,0.014442255749142704,-0.24299761755440216,0.0534721077228822,-0.12018755990440744,0.00813470376166294
86,86,84718.82777048797,4062.124975442285,18.954412351339663,84853.54796540085,-3858.7796709070103,15.2877924051841,84879.6193199888,45284.24416778718,9.540047621345296,84901.027373699,-12508.01612657113,8.967628166729874,85164.64009992807,7600.061485947645,28.19092419421432,0.9757169341353747,147.0,94.0,72.0,287.0,359.0,53.0,865.0,867.0,53.0,25.0,28.0,0.4716981132075472,60.85033196070523,4176.056586209166,18.0,14.0,4.0,0.7777777777777778,955.1970637358486,8656.977513196656,22.0,12.0,10.0,0.5454545454545454,2429.3707675516516,38610.957752849004,16.0,4.0,12.0,0.25,1672.145583087195,27164.127796076056,72.0,37.0,35.0,0.5138888888888888,70.3336515735063,7413.235103014297,0.0,0.0,0.0,0.0,84694.0,84747.0,84841.0,84857.0,84868.0,84890.0,84897.0,84913.0,85128.0,85200.0,0.014979926104828874,-0.24753863791122557,0.05364715282760041,-0.1336859151896206,0.00925435296853213
87,87,85612.2348907519,3270.2252485867893,15.620515594458311,85744.45985890694,-4642.418879112689,20.383723206912453,85775.42123756297,47419.50760143382,9.442468456038595,85796.45203459915,-12157.917815973642,9.717945920578842,86059.59642308757,7259.691841291779,27.487889746011422,0.9746910196386926,142.0,97.0,76.0,284.0,360.0,45.0,890.0,896.0,45.0,21.0,24.0,0.4666666666666667,52.31267691709151,3222.077377713611,22.0,12.0,10.0,0.5454545454545454,488.24386875894146,367.0280469572517,22.0,11.0,11.0,0.5,2489.712593643605,41732.587126736966,17.0,3.0,14.0,0.1764705882352941,1742.8955456297683,28015.957584223972,69.0,36.0,33.0,0.5217391304347826,74.18047795408323,7146.580196140632,0.0,0.0,0.0,0.0,85591.0,85636.0,85733.0,85754.0,85764.0,85786.0,85793.0,85809.0,86024.0,86093.0,0.01599665862151182,-0.10517014545061046,0.052503973988298515,-0.14335477275063255,0.010218130407706626
88,88,86523.38067045895,3950.656060049086,17.788104490559554,86663.33046270793,-4743.552920037455,15.287792405184316,86689.52749682678,47384.05426407688,9.623996681126894,86710.87669549929,-12761.500290078566,9.14018458412033,86974.82980941163,7636.525670761043,29.3411577559234,0.9811245931049024,148.0,100.0,74.0,288.0,362.0,48.0,909.0,914.0,49.0,23.0,26.0,0.4693877551020408,58.606875518850465,4078.6290183873666,19.0,14.0,5.0,0.7368421052631579,905.2369603263602,6966.428361783679,22.0,12.0,10.0,0.5454545454545454,2525.839702655569,40204.86017947449,17.0,4.0,13.0,0.2352941176470588,1726.9505036726607,27879.306703770137,75.0,39.0,36.0,0.52,60.62964637856515,7669.301373570794,0.0,0.0,0.0,0.0,86501.0,86549.0,86649.0,86667.0,86678.0,86700.0,86708.0,86723.0,86936.0,87011.0,0.014834719759968749,-0.19083521899850808,0.05330568989683256,-0.13532503737160742,0.007939428084515678
89,89,87425.0704461377,4143.4328602506475,17.630244409113377,87559.50936594485,-4071.29384135728,17.8357578060484,87589.52142572714,45917.60521889048,9.617082333570762,87610.45203459915,-15000.90841619955,10.688685344944096,87872.31052394024,7336.897845997491,28.488192195158387,0.974385647250197,139.0,94.0,80.0,284.0,364.0,45.0,902.0,900.0,47.0,21.0,26.0,0.4468085106382978,63.65496021450504,4235.577062978163,23.0,16.0,7.0,0.6956521739130435,601.6806870382158,2979.793112827215,21.0,12.0,9.0,0.5714285714285714,2436.855376717164,35457.77573855839,19.0,4.0,15.0,0.2105263157894736,1803.889400636992,30274.648275150343,74.0,38.0,36.0,0.5135135135135135,64.01309559504834,7436.295998986006,0.0,0.0,0.0,0.0,87405.0,87450.0,87544.0,87567.0,87578.0,87599.0,87607.0,87624.0,87835.0,87908.0,0.015362855477922328,-0.14778611185618296,0.05307017570059692,-0.1202520107841578,0.008724817618929983
90,90,88329.00939798518,4125.256320694679,19.318410906972073,88466.972626301,-3585.20885466589,17.835757805905423,88493.07165709812,46136.67660917146,9.577445994146847,88514.45203459915,-13455.291796033487,9.47205517482912,88777.40025485482,7547.12623995152,28.64297940585066,0.9808271903612826,147.0,96.0,74.0,286.0,360.0,51.0,904.0,904.0,52.0,24.0,28.0,0.4615384615384615,82.56505418909296,4351.950636529389,18.0,14.0,4.0,0.7777777777777778,904.8246898389832,8194.083067395473,21.0,11.0,10.0,0.5238095238095238,2446.4573173014437,39424.23753104227,18.0,4.0,14.0,0.2222222222222222,1752.008337411575,28568.826617453356,75.0,38.0,37.0,0.5066666666666667,68.04905895864752,7672.58939501135,0.0,0.0,0.0,0.0,88306.0,88357.0,88453.0,88471.0,88482.0,88503.0,88511.0,88527.0,88739.0,88813.0,0.020014527042816407,-0.2523771212551311,0.05302630135294823,-0.13020961298870182,0.009016552366438836
91,91,89222.99665911253,3793.190677132464,17.713258537859577,89359.12251692044,-4966.4916172809635,15.28779240518434,89385.5869846671,46147.0267171578,9.564278454345752,89407.027373699,-13005.402587117173,9.38343752967818,89671.01436034332,7293.791230693984,28.18011341433727,0.974886577986492,142.0,95.0,75.0,286.0,361.0,47.0,892.0,892.0,49.0,22.0,27.0,0.4489795918367347,67.54849308669455,3642.485282411886,20.0,15.0,5.0,0.75,876.5813755671975,6289.582835787638,22.0,12.0,10.0,0.5454545454545454,2480.4587004620284,38909.3747505906,17.0,4.0,13.0,0.2352941176470588,1716.8066002681069,27892.538141150504,71.0,36.0,35.0,0.5070422535211268,65.58238486595324,7424.465723496291,0.0,0.0,0.0,0.0,89202.0,89249.0,89344.0,89364.0,89374.0,89396.0,89403.0,89419.0,89635.0,89705.0,0.017807829565203704,-0.1764991150930614,0.05375121382500199,-0.13200718614960313,0.008991535785939031
92,92,90109.83682925683,4413.011033763941,20.917636528668556,90246.972626301,-4343.580803035224,11.13819444814448,90273.05079940832,46121.59843651196,9.558172693198104,90294.45203459916,-12292.074819227826,8.85721639478898,90556.67971781862,7911.282078400128,30.247248046699113,0.986203936937614,151.0,96.0,71.0,287.0,358.0,55.0,896.0,888.0,57.0,27.0,30.0,0.4736842105263157,72.87357801001714,4501.097446337535,18.0,14.0,4.0,0.7777777777777778,948.33287308436,8433.349031781128,21.0,11.0,10.0,0.5238095238095238,2500.878283282107,41547.91345248491,16.0,3.0,13.0,0.1875,1728.078127225505,27634.855840296932,76.0,40.0,36.0,0.5263157894736842,57.4928300338599,8035.304658884259,0.0,0.0,0.0,0.0,90084.0,90139.0,90235.0,90251.0,90262.0,90283.0,90291.0,90306.0,90518.0,90593.0,0.016513345979074494,-0.21832974130967714,0.05422358218405323,-0.14058473875560587,0.007267195059424109
93,93,91005.9557700516,3757.484070360896,15.702579451216934,91140.37485976964,-4483.36685512111,17.8357578060484,91166.76613053818,47025.6864981078,9.534840766319505,91188.45203459916,-12849.05596776469,9.53400814768012,91451.39631192868,7339.9770859257615,26.869347358137816,0.9708889916058177,140.0,97.0,73.0,285.0,358.0,43.0,892.0,894.0,43.0,19.0,24.0,0.4418604651162791,70.45148986615092,3687.903795383536,20.0,15.0,5.0,0.75,865.652902176139,6364.6853449122455,22.0,12.0,10.0,0.5454545454545454,2485.4558025532365,39892.77335957588,17.0,4.0,13.0,0.2352941176470588,1738.070236424023,28558.90261873775,71.0,36.0,35.0,0.5070422535211268,52.37270200887788,7242.069800288409,0.0,0.0,0.0,0.0,90987.0,91030.0,91127.0,91145.0,91155.0,91177.0,91185.0,91200.0,91416.0,91485.0,0.018749644322346853,-0.1930809880497176,0.0528531529816847,-0.13526832171829895,0.007135267780236172
94,94,91893.1500243718,4238.312043686784,18.90247961976816,92028.972626301,-4049.195268801673,17.8357578060484,92055.02435181943,47071.94883181024,9.48173538976691,92077.027373699,-12264.332606801603,8.340037980913227,92338.16636957158,7436.503175676417,30.7969525884285,0.9848918990184826,145.0,95.0,72.0,287.0,359.0,50.0,888.0,888.0,50.0,22.0,28.0,0.44,67.11903307444064,4416.852188468484,18.0,14.0,4.0,0.7777777777777778,927.8078163480698,7923.109169732509,22.0,11.0,11.0,0.5,2496.591981952083,42053.65715000824,16.0,4.0,12.0,0.25,1692.7735005620827,27067.56167393733,76.0,39.0,37.0,0.5131578947368421,57.74690707822004,7576.311266494616,0.0,0.0,0.0,0.0,91871.0,91921.0,92016.0,92033.0,92044.0,92066.0,92073.0,92088.0,92299.0,92375.0,0.01583626509388765,-0.22913387840212682,0.05303778670546435,-0.13802410247935526,0.007765330789758916
95,95,92773.02291024418,3945.8140771485496,16.757086565482343,92905.972626301,-4165.30159303019,17.835757798211755,92932.35578173994,46168.73653627289,9.68227363874424,92953.45203459916,-15256.866035380695,10.03003445762639,93214.86136471156,7289.640043993076,28.481962924377623,0.9804373119978956,141.0,94.0,74.0,284.0,358.0,47.0,872.0,877.0,47.0,22.0,25.0,0.4680851063829787,60.95218438615681,3862.599242151451,20.0,16.0,4.0,0.8,904.4654655576446,7630.662861204637,21.0,11.0,10.0,0.5238095238095238,2445.135567502473,38796.837216098065,18.0,4.0,14.0,0.2222222222222222,1808.8218427743843,30423.70944977336,74.0,38.0,36.0,0.5135135135135135,72.29239435301484,7306.195369824547,0.0,0.0,0.0,0.0,92751.0,92798.0,92892.0,92910.0,92921.0,92942.0,92950.0,92966.0,93178.0,93250.0,0.01544730268441944,-0.21714285156952118,0.05296085080390774,-0.11855788984315152,0.009917141850177686
96,96,95331.60858939114,4132.874741307777,19.481174935097425,95467.54796540084,-4187.388170409747,15.287792403334908,95493.5465989511,43669.47413475985,9.679682252912714,95514.73952604046,-13500.751644226151,8.967270023060516,95776.55201963623,7795.637254575311,30.048999901035643,0.981110917048179,145.0,93.0,74.0,286.0,360.0,52.0,2573.0,2561.0,54.0,25.0,29.0,0.4629629629629629,57.750521050936456,4155.663542474642,21.0,17.0,4.0,0.8095238095238095,927.9345299608184,8527.075741583887,22.0,12.0,10.0,0.5454545454545454,2363.8916316878094,36446.117282759566,16.0,4.0,12.0,0.25,1657.1115807827507,27154.440291882976,74.0,38.0,36.0,0.5135135135135135,71.9127762451755,7854.058998368966,0.0,0.0,0.0,0.0,95308.0,95360.0,95453.0,95471.0,95482.0,95504.0,95511.0,95527.0,95739.0,95813.0,0.013973450604182187,-0.22160222367682184,0.05413144258144865,-0.1227421720250254,0.009224746341675841
97,97,96241.58617039752,3929.230408265361,18.682761355456226,96381.54796540082,-4443.19053796926,15.28779236741244,96406.78568609424,45342.926467821286,9.558516701405866,96428.45203459916,-12804.278949796311,9.237949731542836,96691.286898594,7556.393857882276,29.34989224606389,0.9749009627266004,150.0,99.0,73.0,287.0,360.0,51.0,904.0,914.0,53.0,26.0,27.0,0.490566037735849,60.51767184273118,3981.7003648987265,21.0,18.0,3.0,0.8571428571428571,1026.3521821064446,9821.596565685844,22.0,12.0,10.0,0.5454545454545454,2438.3078904885556,38898.76367808459,17.0,4.0,13.0,0.2352941176470588,1705.9093973532097,27654.01726859527,73.0,37.0,36.0,0.5068493150684932,70.82756011270133,7921.924932932891,0.0,0.0,0.0,0.0,96217.0,96268.0,96367.0,96385.0,96395.0,96417.0,96425.0,96440.0,96654.0,96727.0,0.015401914765657112,-0.23099441118623157,0.053774824000805514,-0.13322963394048418,0.009373195924510897
98,98,97167.1056778415,2939.122502856435,13.799597438278669,97300.70302893026,-4954.988584150315,15.28779240518434,97331.10870962436,46330.595576726526,9.318288346330045,97352.45203459916,-12504.109214492726,10.67871925015403,97615.07471848262,7006.021485253995,25.64238920679791,0.9635584383272224,140.0,101.0,76.0,283.0,359.0,39.0,926.0,924.0,40.0,19.0,21.0,0.475,58.48451530062724,2848.3197913284516,21.0,13.0,8.0,0.6190476190476191,572.6061761842411,1092.1674117634416,21.0,11.0,10.0,0.5238095238095238,2487.4644892089877,39627.38562236546,18.0,4.0,14.0,0.2222222222222222,1725.3029939546366,28576.30382360572,68.0,35.0,33.0,0.5147058823529411,68.1491295293471,7018.720608182697,0.0,0.0,0.0,0.0,97149.0,97188.0,97289.0,97309.0,97320.0,97341.0,97349.0,97365.0,97580.0,97648.0,0.019898631392120638,-0.11556155306106161,0.053689456356967875,-0.1379788807310597,0.009727222457536674
99,99,98068.59922729452,4523.9863472336065,21.427964094702624,98207.54796540084,-4101.004961862896,9.732792208292416,98233.26978676734,45757.96563875829,9.411215274838652,98255.45203459916,-11539.549440650126,7.973831328989877,98517.34923846026,8018.576681329484,31.095667451760693,0.9884209682925948,153.0,98.0,70.0,288.0,358.0,55.0,898.0,902.0,56.0,27.0,29.0,0.4821428571428571,61.496280433880685,4650.283730553647,17.0,14.0,3.0,0.8235294117647058,999.1336619352384,9811.160021390708,22.0,11.0,11.0,0.5,2485.1654327609353,43011.45441224491,16.0,4.0,12.0,0.25,1687.5559601856432,26481.140271703072,76.0,39.0,37.0,0.5131578947368421,59.54169557110254,8132.991443761164,0.0,0.0,0.0,0.0,98043.0,98098.0,98196.0,98211.0,98222.0,98244.0,98252.0,98266.0,98478.0,98554.0,0.013593383293803557,-0.2436314199145417,0.05431109967563615,-0.14624106156527444,0.00742546937410225
100,100,98969.0481929172,3909.293738637682,16.713611129251227,99105.972626301,-4482.2448622311895,17.83575780579977,99131.93540297152,47075.386957332405,9.591239221633368,99153.027373699,-13477.00475622338,9.869855974646836,99415.1612337322,7325.288746272462,28.401127849289473,0.9757557934456006,142.0,99.0,74.0,285.0,359.0,43.0,899.0,898.0,44.0,20.0,24.0,0.4545454545454545,68.0775146498256,3997.903937974099,20.0,16.0,4.0,0.8,957.2061755211854,7985.578934952501,22.0,12.0,10.0,0.5454545454545454,2487.4739047925086,39465.9234093181,17.0,4.0,13.0,0.2352941176470588,1743.6010379919596,28684.023836768465,74.0,38.0,36.0,0.5135135135135135,62.826036544215334,7221.545403060882,0.0,0.0,0.0,0.0,98950.0,98993.0,99092.0,99110.0,99120.0,99142.0,99149.0,99166.0,99378.0,99451.0,0.017414274598242234,-0.21355508343305982,0.052840222153608084,-0.12937600524232237,0.008576595233353078
101,101,99902.28182448295,3710.89893424796,15.766446135965303,100038.48435018586,-4656.028223855697,17.8357578060484,100065.02695191935,47006.65029343055,9.482449120785754,100087.027373699,-12627.90281467339,9.579804858769,100349.548060404,7049.764743313196,27.83922327226808,0.9750915700763778,141.0,99.0,75.0,285.0,360.0,42.0,933.0,934.0,44.0,20.0,24.0,0.4545454545454545,68.54329565174673,3659.880852690576,19.0,14.0,5.0,0.7368421052631579,839.1804780011232,5565.533924190813,21.0,11.0,10.0,0.5238095238095238,2492.9971429533266,40854.7885864847,16.0,4.0,12.0,0.25,1662.1541074096815,27635.894833365775,71.0,37.0,34.0,0.5211267605633803,61.121665751182654,7103.410072413157,0.0,0.0,0.0,0.0,99883.0,99925.0,100024.0,100043.0,100054.0,100075.0,100083.0,100099.0,100313.0,100384.0,0.01847080636423679,-0.18023526440443063,0.05303498818552781,-0.13162550676889032,0.00867002913950532
102,102,100835.70665543912,3848.986750157165,17.35450588215918,100972.972626301,-3763.1504817175146,17.83575780601656,100999.51870008072,47242.163309328294,9.595258125961449,101020.63116907334,-13013.621987350174,9.191796732699444,101283.56478115852,7587.156431538796,29.160923989207543,0.9829845051967016,145.0,98.0,73.0,287.0,360.0,47.0,936.0,934.0,47.0,21.0,26.0,0.4468085106382978,67.96557478505598,4030.5118570693376,18.0,14.0,4.0,0.7777777777777778,891.4294625122407,7687.796595940911,22.0,12.0,10.0,0.5454545454545454,2495.406327132943,39038.74959841841,16.0,4.0,12.0,0.25,1718.5493977061997,27873.275440877645,75.0,39.0,36.0,0.52,70.9766390868262,7614.436095779824,0.0,0.0,0.0,0.0,100815.0,100862.0,100960.0,100977.0,100988.0,101010.0,101017.0,101033.0,101245.0,101320.0,0.01765804332329301,-0.2368838203104196,0.052821593092461275,-0.13205773145836777,0.009354840608239707
103,103,101747.024708203,3879.669336729634,17.426219220687766,101881.972626301,-4024.75354682625,17.835757806048388,101908.37196543072,46130.92545090336,9.552196617321997,101930.027373699,-13943.241591635322,9.650723594426712,102192.08088084012,7219.454024954104,27.821844813615183,0.9795671763644148,145.0,96.0,73.0,284.0,357.0,49.0,909.0,909.0,49.0,23.0,26.0,0.4693877551020408,58.98159788450626,3982.785072376591,18.0,14.0,4.0,0.7777777777777778,892.1089199992246,7225.508614087098,21.0,11.0,10.0,0.5238095238095238,2449.349354420186,40093.414439372034,17.0,4.0,13.0,0.2352941176470588,1721.0983940234426,28763.92609929416,70.0,36.0,34.0,0.5142857142857142,56.46635057538448,7288.761409739741,0.0,0.0,0.0,0.0,101724.0,101773.0,101869.0,101886.0,101897.0,101918.0,101926.0,101942.0,102156.0,102226.0,0.015202738368993265,-0.22165553980384808,0.05309560409810121,-0.12343603047486068,0.007821415633399432
104,104,102650.8772699456,3181.337519672253,14.410149554985368,102778.60271279886,-4573.707865651076,20.383723206912453,102811.9833821343,46294.24520033906,9.359833449369596,102833.45203459916,-12982.719778621877,9.950207417667649,103095.8929685557,6952.6653834342205,27.479066169917644,0.9723781998010844,134.0,92.0,80.0,284.0,364.0,42.0,907.0,904.0,42.0,19.0,23.0,0.4523809523809524,64.76735970920234,3177.0608375883116,98.0,86.0,12.0,0.8775510204081632,363.2659436084893,1552.556491679679,21.0,11.0,10.0,0.5238095238095238,2471.189974095897,39085.758195039816,17.0,4.0,13.0,0.2352941176470588,1741.1046024727025,28648.428764037395,71.0,37.0,34.0,0.5211267605633803,69.54431516189949,6976.273855067446,0.0,0.0,0.0,0.0,102632.0,102674.0,102766.0,102790.0,102801.0,102822.0,102830.0,102846.0,103059.0,103130.0,0.020358531375154053,-0.07942482429554511,0.05338006837354804,-0.1341093878756984,0.010002540224012415
105,105,103553.02098608315,3342.419777313439,15.554191392144642,103683.76899875748,-4612.250628546774,17.8357578060484,103712.65902853086,46522.387504869206,9.542373193970285,103734.027373699,-13721.267066761242,10.158049022680665,103996.59352383768,7170.968549861837,27.096371653717483,0.9715654903367132,137.0,94.0,76.0,284.0,360.0,43.0,899.0,900.0,43.0,19.0,24.0,0.4418604651162791,60.41123876830613,3401.2222489698447,20.0,13.0,7.0,0.65,695.0967459274788,3441.86548221331,22.0,12.0,10.0,0.5454545454545454,2470.788535165582,37969.84168349652,17.0,4.0,13.0,0.2352941176470588,1736.3110845858755,28890.53724690168,70.0,36.0,34.0,0.5142857142857142,57.33779282672649,7151.4260499027705,0.0,0.0,0.0,0.0,103534.0,103577.0,103671.0,103691.0,103701.0,103723.0,103730.0,103747.0,103962.0,104031.0,0.018074102833625316,-0.15070662934604867,0.05310966757471292,-0.12654159970342396,0.007995822660222267
106,106,104424.54960053644,4007.848542273877,16.9928904795163,104556.972626301,-3479.1656329416555,17.835757803834575,104583.88114828429,44749.1825727679,9.681101560544851,104605.027373699,-15443.89381643238,10.25822109822706,104865.65019691012,7616.517560446978,29.642940175100325,0.9777829179340516,142.0,97.0,73.0,283.0,356.0,45.0,876.0,871.0,45.0,22.0,23.0,0.4888888888888889,64.27701689185868,4098.817031724828,18.0,13.0,5.0,0.7222222222222222,825.8309502287708,6912.737917101417,22.0,12.0,10.0,0.5454545454545454,2375.5612030765187,35742.36315903584,18.0,4.0,14.0,0.2222222222222222,1758.240347310498,29864.23744402547,75.0,39.0,36.0,0.52,63.76378336576518,7659.459962296803,0.0,0.0,0.0,0.0,104403.0,104448.0,104545.0,104561.0,104572.0,104594.0,104601.0,104618.0,104827.0,104901.0,0.0160377859127857,-0.23736465502233814,0.05308613624871364,-0.11384695907710278,0.008371776584208806
107,107,105276.23068125673,4586.629518691057,20.356982733094775,105411.54796540084,-4051.005804992019,10.430857530126277,105437.73136442802,44178.267221401846,9.749888149449188,105458.6594764368,-13914.56639297005,9.031146690468107,105719.13770137884,8038.466897478961,32.65180568631398,0.9870828273361592,147.0,95.0,72.0,287.0,359.0,52.0,852.0,854.0,54.0,25.0,29.0,0.4629629629629629,63.73384352180113,4718.024644582241,17.0,14.0,3.0,0.8235294117647058,949.0849869796268,9204.554750307138,22.0,12.0,10.0,0.5454545454545454,2404.936986556943,37494.98804487968,17.0,4.0,13.0,0.2352941176470588,1715.0620977387268,27845.865886338048,79.0,40.0,39.0,0.5063291139240507,62.30683554893306,8283.467211026462,0.0,0.0,0.0,0.0,105252.0,105304.0,105399.0,105415.0,105426.0,105448.0,105455.0,105471.0,105679.0,105758.0,0.013895572612106164,-0.23428378843843614,0.054437105341965254,-0.12325659667017828,0.007751084422388284
108,108,106171.72547216163,3637.808679799118,16.5400566466712,106307.58125802908,-4616.1521093306355,15.28779240518434,106333.83880538796,45589.93945640819,9.578463147937187,106355.45203459916,-12836.96632998764,9.167387472686729,106617.9762803326,7152.4856140432175,28.504359096815396,0.9799691391815382,143.0,96.0,74.0,285.0,359.0,47.0,893.0,897.0,47.0,22.0,25.0,0.4680851063829787,69.37451675913893,3712.853099919584,21.0,17.0,4.0,0.8095238095238095,943.507234456336,8017.1959600562,22.0,12.0,10.0,0.5454545454545454,2453.7833326939303,39484.79710442528,17.0,4.0,13.0,0.2352941176470588,1713.7597476911988,27799.11892987523,72.0,38.0,34.0,0.5277777777777778,67.22251721439346,7207.051393487876,0.0,0.0,0.0,0.0,106150.0,106197.0,106293.0,106312.0,106322.0,106344.0,106352.0,106367.0,106580.0,106652.0,0.01907041377529778,-0.20439257895103227,0.05382291272924739,-0.13350192745211079,0.009398483386308183
109,109,107078.94623244696,3769.742469451768,17.473910140700827,107216.39728720114,-4223.005512714469,20.383723206909252,107243.03510405969,46975.92505743284,9.541798675135492,107264.45203459916,-12410.644083729818,9.099639032515563,107527.31616393986,7425.928380064094,27.895210000092984,0.9805575807717198,144.0,97.0,74.0,285.0,359.0,47.0,907.0,909.0,47.0,21.0,26.0,0.4468085106382978,58.28756380771503,3700.011527062281,19.0,14.0,5.0,0.7368421052631579,836.1849224633382,5873.486520834851,21.0,11.0,10.0,0.5238095238095238,2468.7145307966016,40532.25894248691,16.0,3.0,13.0,0.1875,1744.604469685703,27839.12165356555,71.0,37.0,34.0,0.5211267605633803,69.71950213771028,7369.87250898745,0.0,0.0,0.0,0.0,107058.0,107105.0,107202.0,107221.0,107232.0,107253.0,107261.0,107276.0,107491.0,107561.0,0.015461948469968498,-0.19800706391355247,0.05255276032943146,-0.1405732416396386,0.009388658032964832
110,110,108009.62406126045,3500.037347249051,15.503861704493607,108142.64485150731,-4717.344262158861,17.8357578060484,108173.73387875842,47169.44168563577,9.351985323448304,108195.027373699,-12260.779409814397,10.892384439542637,108458.17975997248,7259.669873004706,26.875665920860943,0.9678094364998152,140.0,98.0,77.0,283.0,360.0,42.0,930.0,930.0,43.0,19.0,24.0,0.4418604651162791,75.61275065038733,3340.1187390528676,22.0,13.0,9.0,0.5909090909090909,530.5560022800797,392.838680199645,22.0,12.0,10.0,0.5454545454545454,2489.7971088834424,38985.17143020562,17.0,4.0,13.0,0.2352941176470588,1683.9613558183355,28093.90067835225,69.0,36.0,33.0,0.5217391304347826,70.67676729591433,7284.032683036125,0.0,0.0,0.0,0.0,107991.0,108033.0,108131.0,108152.0,108162.0,108184.0,108191.0,108208.0,108422.0,108491.0,0.021603412520674162,-0.11246921420088903,0.052784112338595805,-0.13734537581439346,0.009735534608636676
111,111,108934.86612718704,4156.627030565398,17.385567366628205,109070.972626301,-4330.112713931389,17.83575780584622,109097.0497126441,47365.78185183334,9.597790263335924,109118.45203459916,-13307.755538210517,9.387975036850923,109380.0997559282,7270.624803162206,28.351045662069396,0.9800152506786652,142.0,98.0,74.0,284.0,358.0,44.0,925.0,924.0,44.0,20.0,24.0,0.4545454545454545,76.27199922902513,4327.593670535746,20.0,16.0,4.0,0.8,945.112157307984,8067.154047852435,21.0,11.0,10.0,0.5238095238095238,2500.8155284085683,40754.85781079592,18.0,4.0,14.0,0.2222222222222222,1779.8905946613838,28919.589073091018,72.0,36.0,36.0,0.5,62.23335186648819,7178.50724861379,0.0,0.0,0.0,0.0,108915.0,108959.0,109057.0,109075.0,109086.0,109107.0,109115.0,109131.0,109344.0,109415.0,0.018349493151097167,-0.2182650244339481,0.05279793620279429,-0.1337483687276032,0.008559560361225228
112,112,115122.22269287148,3697.513833074593,18.380353374993213,115260.972626301,-4705.293170546355,17.83575780603781,115286.62716099052,46357.96234445732,9.642841566095765,115307.45203459916,-12976.508524460362,9.493276315768451,115570.52551636776,7149.094246029129,29.338856169147643,0.9760160384615636,145.0,97.0,74.0,284.0,358.0,48.0,6188.0,6189.0,48.0,21.0,27.0,0.4375,73.04939744170194,4087.8277048541304,22.0,18.0,4.0,0.8181818181818182,968.1036795860982,8212.392172241092,22.0,12.0,10.0,0.5454545454545454,2448.4105125683395,38254.92639745324,17.0,3.0,14.0,0.1764705882352941,1759.3217355338795,28006.153775503575,71.0,37.0,34.0,0.5211267605633803,65.60608151048395,7283.734773973596,0.0,0.0,0.0,0.0,115101.0,115149.0,115246.0,115265.0,115275.0,115297.0,115304.0,115320.0,115534.0,115604.0,0.019756355415973977,-0.20574779179459435,0.052815317773799386,-0.13557743457861615,0.009176838247296011
113,113,116048.02593259816,4343.104457497992,19.44466580424811,116183.54796540084,-4239.411058343692,15.287792404925302,116209.52196434284,46201.991246793354,9.567377267235011,116230.87669549928,-11899.030953488587,8.655832131855547,116494.14042404352,7788.9186764924225,31.061398288077108,0.984199304828272,145.0,94.0,73.0,288.0,361.0,51.0,922.0,923.0,53.0,24.0,29.0,0.4528301886792453,65.51978355587987,4312.859444596078,19.0,15.0,4.0,0.7894736842105263,985.557490258054,8778.137318060064,22.0,12.0,10.0,0.5454545454545454,2460.533193004664,39718.975667495135,16.0,4.0,12.0,0.25,1661.1537045814157,26727.46640335982,76.0,39.0,37.0,0.5131578947368421,66.4272046350804,7979.405861199499,0.0,0.0,0.0,0.0,116025.0,116076.0,116170.0,116187.0,116198.0,116220.0,116228.0,116243.0,116455.0,116531.0,0.015085933160729224,-0.23247509540702674,0.05325599885644403,-0.1396041165935781,0.00852842446995409
114,114,116972.74640919258,3549.3623994115223,16.288855088029006,117105.40716778811,-4394.594158312955,20.383723206912453,117132.66539011056,47044.06949432635,9.510729304971044,117154.45203459916,-12259.194285564785,9.31745380316031,117417.50296786842,7449.1977089628335,28.20445752426083,0.9773642345354916,138.0,94.0,75.0,287.0,362.0,44.0,929.0,923.0,44.0,20.0,24.0,0.4545454545454545,51.47963317053903,3498.531130293868,20.0,14.0,6.0,0.7,781.3098706639413,4709.34409845705,22.0,12.0,10.0,0.5454545454545454,2473.3834766893488,39681.1954166923,17.0,4.0,13.0,0.2352941176470588,1704.1110549066975,27750.889090931607,74.0,39.0,35.0,0.527027027027027,59.977938626811465,7400.229453301736,0.0,0.0,0.0,0.0,116953.0,116997.0,117091.0,117111.0,117121.0,117143.0,117151.0,117166.0,117380.0,117453.0,0.014503910104832986,-0.17778885660829238,0.05257588264101272,-0.13900677444302276,0.008051597094093279
115,115,117878.48443864212,3960.551187303001,18.04607249687273,118012.54796540084,-4651.505858779285,15.287792404871844,118038.49948004156,46448.82471945427,9.675924341329996,118059.45203459916,-13315.42938077882,9.717341134968912,118321.82336168156,7580.679240232369,29.161303342967024,0.9783468284032674,144.0,93.0,74.0,286.0,360.0,51.0,905.0,906.0,51.0,24.0,27.0,0.4705882352941176,63.76241398855362,4216.7166513386055,20.0,16.0,4.0,0.8,995.1339659229628,8900.62429876003,22.0,11.0,11.0,0.5,2450.6919651021444,41121.09223974304,17.0,3.0,14.0,0.1764705882352941,1774.1912636124584,28709.537188176186,75.0,39.0,36.0,0.52,64.77062167262888,7690.908231981193,0.0,0.0,0.0,0.0,117854.0,117905.0,117998.0,118016.0,118027.0,118049.0,118056.0,118072.0,118283.0,118358.0,0.016099378842259992,-0.2139380226824266,0.052761118928284,-0.1332432633508275,0.008544171256960277
116,116,118750.94009476173,3935.9959152792026,18.70257848450045,118884.972626301,-4017.420888426062,17.8357578060484,118911.00577959996,46212.933647548845,9.596910435998154,118932.45203459916,-13085.345778196845,9.051131534011676,119194.9788212046,7952.854023357947,30.70838567059357,0.9818414475336013,143.0,92.0,73.0,288.0,361.0,51.0,878.0,873.0,51.0,23.0,28.0,0.4509803921568627,63.16868486696124,3997.3062743251057,18.0,14.0,4.0,0.7777777777777778,927.3396383711312,7964.409437112699,21.0,11.0,10.0,0.5238095238095238,2445.0633688380726,39905.54780541103,16.0,3.0,13.0,0.1875,1756.066555316139,28246.883873951712,77.0,40.0,37.0,0.5194805194805194,61.46243450577731,8183.360374073129,0.0,0.0,0.0,0.0,118728.0,118779.0,118871.0,118889.0,118900.0,118921.0,118929.0,118944.0,119155.0,119232.0,0.01604897114393482,-0.2308295954359023,0.052908637817408066,-0.13420100508479832,0.007728349385674493
117,117,119606.43062216304,4439.014062614116,21.734612204107343,119741.54796540084,-4209.430631005293,10.467819324281788,119767.96619011802,45214.24015562649,9.54041601859708,119789.45203459916,-12466.988977085966,8.347755851570795,120050.44014358569,7954.567735707611,31.394192938447503,0.9875337015466984,151.0,93.0,71.0,285.0,356.0,58.0,856.0,857.0,58.0,27.0,31.0,0.4655172413793103,50.255358540024915,4675.388306002047,17.0,13.0,4.0,0.7647058823529411,943.47731500034,8466.553283058329,22.0,12.0,10.0,0.5454545454545454,2466.074097145272,40736.25929673857,16.0,3.0,13.0,0.1875,1738.7980991194893,27443.12932276001,75.0,38.0,37.0,0.5066666666666667,61.33049722361999,8135.914748264615,0.0,0.0,0.0,0.0,119579.0,119637.0,119730.0,119745.0,119756.0,119778.0,119786.0,119801.0,120012.0,120086.0,0.01132128842827539,-0.2241341876621018,0.05454197811700684,-0.1394721774692638,0.007710098054519143
118,118,120479.39657655868,3996.81599455643,17.62599949788211,120612.43529898296,-5052.411911968549,15.28779240518434,120640.41978449246,46149.60189183778,9.583474821410984,120661.45203459916,-13634.106100622694,9.896331570962651,120922.63447444388,7584.844062531436,29.038050771731612,0.9765761044222808,141.0,93.0,76.0,283.0,359.0,48.0,868.0,872.0,48.0,22.0,26.0,0.4583333333333333,65.0911708156822,4159.460313941449,20.0,14.0,6.0,0.7,729.5152014065221,3483.523541211851,21.0,11.0,10.0,0.5238095238095238,2460.008209773814,40438.04351810978,18.0,4.0,14.0,0.2222222222222222,1763.9022815768235,29178.685290357946,73.0,39.0,34.0,0.5342465753424658,60.62020724828338,7623.275404186661,0.0,0.0,0.0,0.0,120457.0,120505.0,120598.0,120618.0,120629.0,120650.0,120658.0,120674.0,120885.0,120957.0,0.01628575618800937,-0.14438949438750023,0.053305079760805084,-0.1293742522288471,0.00799228128469281
119,119,121353.36739642172,4313.892372423885,18.864863399686968,121488.54796540084,-4074.997827557606,15.287792405056909,121514.79995090944,46643.59052524893,9.660756031097728,121535.45203459916,-13278.550369055696,9.431412635840108,121798.04514715106,8100.379424476218,31.140913058539635,0.9827619218896196,144.0,94.0,74.0,287.0,361.0,50.0,881.0,874.0,50.0,23.0,27.0,0.46,62.81663696054487,4330.932113301612,20.0,16.0,4.0,0.8,952.9799757453465,9007.770109915107,22.0,12.0,10.0,0.5454545454545454,2482.0331536093418,39490.89511127278,17.0,3.0,14.0,0.1764705882352941,1796.9384836313354,28438.54426564655,76.0,39.0,37.0,0.5131578947368421,60.015953109847366,8248.041846126918,0.0,0.0,0.0,0.0,121330.0,121380.0,121474.0,121492.0,121503.0,121525.0,121532.0,121548.0,121759.0,121835.0,0.014561475238022578,-0.23386024142165626,0.05321273782012508,-0.13532640489272962,0.00740902986945307
120,120,122234.75606640216,4311.831010917193,20.1605453746791,122372.972626301,-4289.547299971367,11.813502935651456,122398.99902584463,45960.181874980146,9.602669095035086,122420.45203459916,-12502.09194084571,8.430967673314957,122681.15993629722,8398.35088201349,31.65675015464169,0.9900507019433976,149.0,97.0,72.0,285.0,357.0,52.0,878.0,885.0,53.0,25.0,28.0,0.4716981132075472,69.55468213325842,4381.936274455633,19.0,15.0,4.0,0.7894736842105263,937.1088298805356,8602.204989631316,21.0,11.0,10.0,0.5238095238095238,2481.3856943222822,41382.27268060591,16.0,3.0,13.0,0.1875,1745.6239509739237,27573.18156749218,76.0,40.0,36.0,0.5263157894736842,54.659146717168795,8633.356248386977,0.0,0.0,0.0,0.0,122211.0,122263.0,122360.0,122377.0,122388.0,122409.0,122417.0,122432.0,122641.0,122717.0,0.016131124331438738,-0.21846333991626365,0.0539899015428636,-0.13962654883946088,0.006508319012275462
121,121,123153.79187145458,3068.803739559338,13.696833796909509,123285.027373699,-4761.594859577522,17.8357578060484,123317.35307421743,46899.00265010703,9.432330541038828,123338.027373699,-14665.655665397202,11.598247207593404,123599.58183883555,7141.786795329028,26.763704940033197,0.9666659382184042,131.0,89.0,86.0,282.0,368.0,42.0,917.0,918.0,42.0,20.0,22.0,0.4761904761904761,59.1661184170624,2901.023816492181,100.0,90.0,10.0,0.9,408.25731784057984,834.1630952851563,21.0,11.0,10.0,0.5238095238095238,2462.9951704522286,38039.8236187287,18.0,4.0,14.0,0.2222222222222222,1788.762608051694,30262.908411364893,69.0,36.0,33.0,0.5217391304347826,78.73869015547247,7231.690208933015,0.0,0.0,0.0,0.0,123134.0,123176.0,123265.0,123295.0,123306.0,123327.0,123334.0,123351.0,123564.0,123633.0,0.01927986389431287,-0.08573961663693559,0.05251700529385581,-0.12196949450219126,0.011025068713472412
122,122,124055.21671793556,3697.430312421506,15.955893587325845,124193.39728720114,-4266.953998158326,20.383723206912453,124219.76282598762,46603.978503282255,9.596860949674344,124241.15464203256,-13508.083471387492,9.122599821946077,124502.40677851877,7442.880468236221,27.91531132592371,0.978235981146408,144.0,99.0,75.0,284.0,359.0,45.0,902.0,903.0,45.0,21.0,24.0,0.4666666666666667,65.34591499554399,3672.022423437344,22.0,17.0,5.0,0.7727272727272727,849.2321784922476,6700.372692479952,22.0,12.0,10.0,0.5454545454545454,2464.670664475112,38959.03353598406,17.0,4.0,13.0,0.2352941176470588,1744.122604980465,28421.758910927532,73.0,37.0,36.0,0.5068493150684932,63.25109261674861,7510.068829689101,0.0,0.0,0.0,0.0,124034.0,124079.0,124178.0,124198.0,124208.0,124230.0,124237.0,124253.0,124466.0,124537.0,0.017673332415763073,-0.19902538880400106,0.05288541329795542,-0.12911695494589034,0.008498200782168085
123,123,124956.91984400628,3817.737558004368,17.00813836841737,125094.54796540084,-4494.472246349098,15.28779240518434,125120.20406424256,46985.11166164098,9.644440206210064,125141.45203459916,-12729.151191514537,9.175735435068948,125403.70702558816,7838.290757735451,29.51133573432494,0.9832122806649702,146.0,99.0,73.0,286.0,359.0,47.0,895.0,900.0,48.0,22.0,26.0,0.4583333333333333,64.94500773785875,3779.0418376106063,21.0,18.0,3.0,0.8571428571428571,1033.1317530036329,9660.1091544808,22.0,11.0,11.0,0.5,2494.369220442793,41843.72660679144,17.0,3.0,14.0,0.1764705882352941,1754.0141022844605,28071.063135064487,74.0,38.0,36.0,0.5135135135135135,61.83874109581357,7860.937999266938,0.0,0.0,0.0,0.0,124935.0,124982.0,125081.0,125098.0,125109.0,125131.0,125138.0,125154.0,125366.0,125440.0,0.01701138612885879,-0.22986720050231826,0.05308850255386784,-0.13779505607991485,0.007889314521126454
124,124,125859.2356838565,3729.4701515470056,15.77158901544612,125995.85670898372,-4858.762657147967,17.8357578060484,126023.0139937583,47228.72996712424,9.531234355174178,126044.45203459916,-12827.346187461038,9.524527629609253,126307.44427168732,7392.142676711505,28.555330536130423,0.9766771462989972,141.0,98.0,75.0,287.0,362.0,43.0,908.0,903.0,44.0,20.0,24.0,0.4545454545454545,69.05009120417184,3750.091309187452,21.0,16.0,5.0,0.7619047619047619,852.1982271079859,5658.525261151215,21.0,11.0,10.0,0.5238095238095238,2504.5806292050775,40782.69467696489,18.0,4.0,14.0,0.2222222222222222,1749.3672849506067,28561.221756772895,73.0,37.0,36.0,0.5068493150684932,61.47780672929411,7518.8431690161715,0.0,0.0,0.0,0.0,125840.0,125883.0,125981.0,126001.0,126012.0,126033.0,126041.0,126056.0,126270.0,126343.0,0.018514718820186685,-0.17539408430545064,0.0530308697893953,-0.13637795841673353,0.008316642334701708
125,125,126757.35767484116,3980.8970796677104,17.510518745048525,126893.972626301,-4190.843570480828,17.83575780604612,126919.91011459468,46848.71816527782,9.54287753357564,126941.45203459916,-12366.124003351388,8.588778011343429,127202.64898606791,7713.920589306545,29.778767529027128,0.9850357952045592,145.0,98.0,73.0,285.0,358.0,47.0,894.0,897.0,48.0,23.0,25.0,0.4791666666666667,71.39464159935345,4039.6021546734096,19.0,15.0,4.0,0.7894736842105263,947.3315896847254,8096.76294589344,21.0,11.0,10.0,0.5238095238095238,2485.246150775585,41115.09395376904,16.0,3.0,13.0,0.1875,1746.6465338660414,27737.63156694154,75.0,39.0,36.0,0.52,62.28864546168643,7747.84574477217,0.0,0.0,0.0,0.0,126735.0,126782.0,126880.0,126898.0,126909.0,126930.0,126938.0,126953.0,127164.0,127238.0,0.017934309822778143,-0.22604794804498876,0.05304832764063838,-0.14124446216071232,0.008074836231531128
126,126,127651.81371961928,4012.694591519992,18.520000243929168,127786.54796540084,-4370.4402158291905,15.287792405125195,127812.25891068928,46918.853476617216,9.689020258481454,127833.45203459916,-13409.409456667105,9.517674999681956,128095.6084893192,7755.346533692671,30.17082590019543,0.9825166299800429,142.0,94.0,74.0,286.0,360.0,48.0,894.0,892.0,48.0,22.0,26.0,0.4583333333333333,62.455445070367325,4139.949652453277,19.0,16.0,3.0,0.8421052631578947,1020.328482565021,9832.347774740434,21.0,11.0,10.0,0.5238095238095238,2484.1389026174324,41206.564856009776,17.0,3.0,14.0,0.1764705882352941,1779.8004857409587,28896.259527447335,75.0,39.0,36.0,0.52,61.104855530060405,7735.295781139163,0.0,0.0,0.0,0.0,127630.0,127678.0,127772.0,127790.0,127801.0,127822.0,127830.0,127846.0,128058.0,128132.0,0.015564465135810264,-0.23346126069166173,0.05294543064347137,-0.13272773059040635,0.007879061917426097
127,127,128516.36766863384,3983.8822396963383,17.244262317498602,128645.33449252162,-3952.292778004923,17.8357578060484,128675.35937125844,45369.25099177622,9.710836515410683,128696.027373699,-15371.000205097367,10.285556300581746,128956.60851249042,7514.55863687049,29.070673882461104,0.975857901167862,138.0,91.0,76.0,283.0,359.0,47.0,867.0,863.0,47.0,21.0,26.0,0.4468085106382978,61.53831158862047,4142.0271506529525,20.0,12.0,8.0,0.6,547.5778990605282,2010.9304546902624,22.0,12.0,10.0,0.5454545454545454,2393.9561506844825,37512.19565542269,18.0,4.0,14.0,0.2222222222222222,1776.7564812019373,30002.297974616973,74.0,39.0,35.0,0.527027027027027,62.35826038159676,7384.241826047385,0.0,0.0,0.0,0.0,128495.0,128542.0,128633.0,128653.0,128663.0,128685.0,128692.0,128709.0,128918.0,128992.0,0.015446819932436327,-0.13854689665398218,0.05276604965593148,-0.11559146818648308,0.008298326408105114
128,128,129372.03815603166,3726.713477127995,18.00877136539134,129504.97262630086,-4136.612972221128,17.835757803975326,129531.46311061874,44684.99263691545,9.722845334037036,129552.45203459916,-14370.738112959443,9.880407247968806,129813.58944933492,7591.459757647752,29.342701820973083,0.9769271229520202,141.0,93.0,74.0,284.0,358.0,48.0,856.0,856.0,48.0,22.0,26.0,0.4583333333333333,59.86844809797581,3995.239184620199,20.0,16.0,4.0,0.8,863.9855464905711,7085.309469477295,21.0,11.0,10.0,0.5238095238095238,2357.675039671822,38205.03961379145,19.0,4.0,15.0,0.2105263157894736,1747.6536096122616,28964.632519404993,73.0,38.0,35.0,0.5205479452054794,70.79178574375358,7682.855471620979,0.0,0.0,0.0,0.0,129350.0,129398.0,129491.0,129509.0,129520.0,129541.0,129549.0,129565.0,129776.0,129849.0,0.0160646769507254,-0.208863036569423,0.05276212214756157,-0.12161195868124813,0.00932518751382919
129,129,130238.26224383323,4195.050044567677,20.849658163050577,130370.54796540084,-3886.365882116331,12.89208182406325,130396.67505379346,44429.748218362605,9.568821914478624,130418.45203459916,-12681.422874386986,8.371181149026041,130679.24800662718,7876.732035255172,31.288260449726703,0.9875131569933272,142.0,90.0,72.0,287.0,359.0,52.0,865.0,865.0,53.0,23.0,30.0,0.4339622641509434,55.454626612892994,4472.22286672113,18.0,14.0,4.0,0.7777777777777778,939.0660646414856,8543.75804444916,22.0,12.0,10.0,0.5454545454545454,2408.809048017707,38924.30456989324,17.0,4.0,13.0,0.2352941176470588,1715.8521841107806,27142.541420722504,77.0,39.0,38.0,0.5064935064935064,51.96321315221685,8111.657948214394,0.0,0.0,0.0,0.0,130216.0,130268.0,130358.0,130374.0,130385.0,130407.0,130415.0,130430.0,130640.0,130717.0,0.013219061995387447,-0.2416308945492581,0.054216130962051176,-0.1353043898233481,0.0065970522952458754
130,130,131123.07689028766,3957.1434263295246,17.777285065830725,131260.54796540082,-4478.648329317865,15.287792405078616,131286.73038390442,45892.24913926403,9.708486985942097,131307.45203459918,-13315.475199343497,9.261823468903463,131569.7885328595,7849.524487705507,29.731290924511924,0.9770074346291476,144.0,98.0,74.0,285.0,359.0,46.0,887.0,890.0,46.0,21.0,25.0,0.4565217391304347,75.27940400302131,4257.766046550503,20.0,16.0,4.0,0.8,967.60945478466,8562.580830688075,22.0,12.0,10.0,0.5454545454545454,2449.2595470708047,38758.734670611855,17.0,3.0,14.0,0.1764705882352941,1777.023253252524,28268.492629547454,74.0,39.0,35.0,0.527027027027027,62.10767951004236,7960.988168479296,0.0,0.0,0.0,0.0,131102.0,131148.0,131246.0,131264.0,131275.0,131297.0,131304.0,131320.0,131531.0,131605.0,0.019023673365523484,-0.2160494380526713,0.05336978668529217,-0.13345548894418263,0.00791228559224446
131,131,132042.57728613302,4099.053519484333,18.95308669370502,132182.97262630097,-4316.160934839804,17.83575779592409,132208.48516434987,46796.88977847542,9.55224191905792,132230.02737369903,-12385.52774598657,9.062324149232154,132491.53000456444,7732.147275466572,28.570233935287245,0.9820801706958568,148.0,97.0,74.0,285.0,359.0,51.0,915.0,922.0,52.0,24.0,28.0,0.4615384615384615,61.863760505230694,4150.725585970149,20.0,16.0,4.0,0.8,984.205741678818,8779.303407963604,22.0,11.0,11.0,0.5,2459.387857987473,42122.1083028119,17.0,4.0,13.0,0.2352941176470588,1692.889130634176,27369.06105687809,74.0,39.0,35.0,0.527027027027027,67.89318027290483,7500.737874144118,0.0,0.0,0.0,0.0,132020.0,132071.0,132168.0,132187.0,132197.0,132219.0,132226.0,132242.0,132454.0,132527.0,0.015092206093716299,-0.22802804541748328,0.05255451526008651,-0.13668284189042673,0.008780637234927478
132,132,132959.11775210063,4201.385904165552,19.30795799825893,133100.12330450068,-4247.848521884706,12.739827002757938,133125.5629961349,46272.6296701779,9.580573420459912,133147.0953165689,-12032.428336258194,7.942221971812159,133408.30359463845,8182.577318948794,31.13733315000763,0.990381647195538,151.0,99.0,72.0,288.0,360.0,52.0,923.0,917.0,52.0,24.0,28.0,0.4615384615384615,75.39869624205639,4409.343334194469,19.0,15.0,4.0,0.7894736842105263,970.3954024329172,9146.750919199936,22.0,12.0,10.0,0.5454545454545454,2491.000405994385,41043.996463819814,16.0,4.0,12.0,0.25,1712.5462510760442,26978.93131789007,78.0,40.0,38.0,0.5128205128205128,64.06746593435673,8101.052223575472,0.0,0.0,0.0,0.0,132935.0,132987.0,133086.0,133103.0,133114.0,133136.0,133144.0,133158.0,133369.0,133446.0,0.01794614871423755,-0.22844397521085977,0.05383312821747414,-0.14232756707268338,0.007829741588385921
133,133,133862.66138111244,3595.29122432386,16.31308132126661,133997.15828541832,-4194.862564655971,15.28779240518434,134026.6610476696,44332.806340096504,9.618125513188849,134048.02737369903,-14903.40567502705,10.325711394751846,134308.0911027196,7478.247941165369,27.955799170697592,0.9723002529537664,141.0,98.0,77.0,283.0,360.0,43.0,898.0,901.0,43.0,20.0,23.0,0.4651162790697674,61.9454361986916,3603.6699831165743,20.0,13.0,7.0,0.65,592.4381478956856,2585.813988742376,21.0,12.0,9.0,0.5714285714285714,2396.298571459605,35291.1868979954,17.0,4.0,13.0,0.2352941176470588,1728.3954275665494,29228.88302809654,74.0,38.0,36.0,0.5135135135135135,50.86791618662046,7453.761674472056,0.0,0.0,0.0,0.0,133843.0,133886.0,133984.0,134004.0,134015.0,134036.0,134044.0,134061.0,134271.0,134344.0,0.017229601813505725,-0.14122945359099567,0.05405249000202112,-0.11597318527420494,0.00680211683095031
134,134,134749.49973267753,4191.765567849946,17.90381374928294,134885.97262630097,-3911.740900648424,17.8357578060484,134911.77540770255,44826.122305706915,9.601379353732966,134933.44149748204,-13451.312883652585,8.832031429404923,135194.03969801092,7764.195584567251,29.494168187084735,0.9850600177410924,145.0,96.0,73.0,285.0,358.0,49.0,890.0,885.0,49.0,22.0,27.0,0.4489795918367347,61.94443851814972,4357.04211852204,19.0,15.0,4.0,0.7894736842105263,919.7522537302516,8122.610768096363,22.0,12.0,10.0,0.5454545454545454,2389.394234360442,38037.72346305304,17.0,4.0,13.0,0.2352941176470588,1720.9190568901563,28149.42296747779,74.0,37.0,37.0,0.5,64.57541185280085,7881.416210451942,0.0,0.0,0.0,0.0,134727.0,134776.0,134872.0,134890.0,134900.0,134922.0,134929.0,134945.0,135157.0,135230.0,0.014777648586374181,-0.2351260671630348,0.05330361207835822,-0.12793688406293735,0.008317076914079317
