Unnamed: 0,cycle,p_center,p_height,p_width,q_center,q_height,q_width,r_center,r_height,r_width,s_center,s_height,s_width,t_center,t_height,t_width,r_squared,pr_interval,pr_segment,qrs_duration,st_segment,qt_interval,p_duration,pp_interval,rr_interval,fwhm_p,rise_time_p,decay_time_p,rise_decay_symmetry_p,sharpness_deriv_p,sharpness_diff_p,fwhm_q,rise_time_q,decay_time_q,rise_decay_symmetry_q,sharpness_deriv_q,sharpness_diff_q,fwhm_r,rise_time_r,decay_time_r,rise_decay_symmetry_r,sharpness_deriv_r,sharpness_diff_r,fwhm_s,rise_time_s,decay_time_s,rise_decay_symmetry_s,sharpness_deriv_s,sharpness_diff_s,fwhm_t,rise_time_t,decay_time_t,rise_decay_symmetry_t,sharpness_deriv_t,sharpness_diff_t,Average_Heart_Rate,SDNN,RMSSD,NN50,p_on,p_off,q_on,q_off,r_on,r_off,s_on,s_off,t_on,t_off,sharpness_deriv_p_norm,sharpness_deriv_q_norm,sharpness_deriv_r_norm,sharpness_deriv_s_norm,sharpness_deriv_t_norm
0,0,0.0,0.0,0.0,0.0,0.0,0.0,0.0,0.0,0.0,0.0,0.0,0.0,0.0,0.0,0.0,0.0,0.0,0.0,0.0,0.0,0.0,0.0,0.0,0.0,0.0,0.0,0.0,0.0,0.0,0.0,0.0,0.0,0.0,0.0,0.0,0.0,0.0,0.0,0.0,0.0,0.0,0.0,0.0,0.0,0.0,0.0,0.0,0.0,0.0,0.0,0.0,0.0,0.0,0.0,67.35575714042281,314.71531465203554,422.4290798840032,667.0,,,,,,,,,,,,,,,
1,1,2658.382345419783,1596.9502342463811,15.269024528539346,2760.12330450072,-3353.2032561585593,8.571427165322621,2786.397287201152,44170.374266482475,9.371853573964572,2814.4520345991364,-5855.235384255686,6.456563864480304,3041.3834774964,5722.678809607157,36.95568887567141,0.9915090357746584,107.0,77.0,72.0,254.0,326.0,30.0,,,31.0,14.0,17.0,0.4516129032258064,97.67218272365432,1874.7527523400493,14.0,10.0,4.0,0.7142857142857143,803.8881093372926,7879.045372033546,24.0,11.0,13.0,0.4583333333333333,2194.8142172138537,42757.05584452608,14.0,5.0,9.0,0.3571428571428571,914.3563301586748,13317.6518706298,89.0,51.0,38.0,0.5730337078651685,62.89050579927282,6341.050581957194,0.0,0.0,0.0,0.0,2644.0,2674.0,2751.0,2763.0,2775.0,2798.0,2809.0,2823.0,2998.0,3077.0,0.0611616947285442,-0.23973736392533193,0.049689735567383014,-0.15616047351696816,0.010989696939428625
2,2,3809.9652680476574,1726.2509370995608,16.715461971588333,3914.12330450072,-3032.08480589427,9.82919368679894,3940.397287201152,45728.19836453727,9.49576016151856,3967.6466165086654,-6114.416469497924,5.732797420300038,4187.534155696113,6409.875503183592,38.78457546429983,0.991447983999954,110.0,78.0,71.0,250.0,321.0,32.0,1150.0,1154.0,33.0,15.0,18.0,0.4545454545454545,69.49154793974618,2038.09660998022,13.0,10.0,3.0,0.7692307692307693,802.957460078854,8626.514352925495,24.0,11.0,13.0,0.4583333333333333,2211.3235276197165,44949.670097274255,13.0,5.0,8.0,0.3846153846153846,975.1870501216237,14337.381527982048,88.0,47.0,41.0,0.5340909090909091,71.7563320722977,7312.5170411131185,0.0,0.0,0.0,0.0,3795.0,3827.0,3905.0,3917.0,3929.0,3953.0,3963.0,3976.0,4146.0,4226.0,0.0402557626161267,-0.2648202512403122,0.04835798493505974,-0.15948979841108202,0.01119465300638967
3,3,5001.328730098417,1831.6547341555524,23.01723330967166,5099.123304500719,-2699.247834387831,11.328746545496246,5125.397287201151,46239.41164039662,9.388799946407044,5153.876695499281,-5801.210723890246,5.038570216984388,5375.958816596257,6887.3513601908235,39.88695168042204,0.987607469656014,109.0,74.0,70.0,252.0,322.0,35.0,1197.0,1185.0,64.0,40.0,24.0,0.625,86.13537486729517,1366.559373654355,11.0,8.0,3.0,0.7272727272727273,756.425922368382,8046.843008098108,24.0,11.0,13.0,0.4583333333333333,2220.5400165861083,46351.28051681144,12.0,5.0,7.0,0.4166666666666667,924.5918808712396,13143.597035049828,90.0,51.0,39.0,0.5666666666666667,75.74718067774229,7999.697690992211,0.0,0.0,0.0,0.0,4982.0,5017.0,5091.0,5102.0,5114.0,5138.0,5149.0,5161.0,5330.0,5413.0,0.04702598871997901,-0.28023581707899514,0.048022670224595915,-0.15937912357908895,0.010998013128176404
4,4,6071.547965400863,1494.31716809818,8.86051400301561,6176.547965400863,-4152.779939266659,13.300150326186683,6202.397287201151,44146.89469003499,9.515623386142472,6231.452034599137,-6554.373433809375,6.805134507717283,6450.958816596257,6175.919955965861,33.46634580228759,0.9891867890180596,102.0,80.0,75.0,248.0,323.0,22.0,1063.0,1077.0,25.0,10.0,15.0,0.4,111.5532596714062,1630.3138250340874,18.0,14.0,4.0,0.7777777777777778,915.2081735631072,8538.39050642658,24.0,11.0,13.0,0.4583333333333333,2186.2228797280745,43269.891906460165,15.0,6.0,9.0,0.4,879.4788726866786,13503.973838107591,85.0,46.0,39.0,0.5411764705882353,63.18426597586125,6781.146373599988,0.0,0.0,0.0,0.0,6063.0,6085.0,6165.0,6180.0,6191.0,6215.0,6225.0,6240.0,6411.0,6488.0,0.07465166167727312,-0.2203844622031005,0.04952155514171549,-0.13418199032573724,0.010230745609781754
5,5,6991.9838026640255,1748.2979847797906,16.706957912102162,7102.547965400863,-3457.7211056796673,10.031609574485064,7129.270118061577,45739.96004975887,9.531883530126782,7156.452608475108,-6378.806054048685,6.18393181599854,7378.657460196832,6642.781351798345,31.6859371631578,0.989024692992535,107.0,84.0,73.0,245.0,318.0,23.0,924.0,927.0,25.0,8.0,17.0,0.32,99.9718468129047,2339.2734001736603,15.0,12.0,3.0,0.8,845.6670856287134,8827.403934815096,24.0,11.0,13.0,0.4583333333333333,2201.1162255212007,44454.6934532797,13.0,4.0,9.0,0.3076923076923077,1062.531468576116,16109.04421084182,75.0,43.0,32.0,0.5733333333333334,62.508341234991256,7200.589885035629,0.0,0.0,0.0,0.0,6985.0,7008.0,7092.0,7106.0,7118.0,7141.0,7152.0,7165.0,7337.0,7410.0,0.057182384057656396,-0.24457353840355056,0.04812239064325122,-0.16657215465921207,0.00940996518244107
6,6,7966.072757656669,1531.3320997712467,13.559598202093252,8073.547965400863,-4061.5962668132142,11.87839128272373,8099.397287201151,44984.73757036423,9.427336062494076,8128.876695499281,-6530.893995049076,6.663305023083355,8345.958816596258,6051.54126330296,33.37931995203488,0.989272070090622,107.0,83.0,73.0,247.0,320.0,24.0,973.0,970.0,24.0,10.0,14.0,0.4166666666666667,92.74639228022794,2015.985506390298,17.0,13.0,4.0,0.7647058823529411,931.8699362823104,9040.188682504617,24.0,11.0,13.0,0.4583333333333333,2208.2035251941275,44062.28482660344,15.0,7.0,8.0,0.4666666666666667,822.1371856114088,12546.047217681706,84.0,46.0,38.0,0.5476190476190477,67.30242922560095,6553.301377631013,0.0,0.0,0.0,0.0,7956.0,7980.0,8063.0,8077.0,8088.0,8112.0,8122.0,8136.0,8304.0,8383.0,0.06056582520152393,-0.22943440831293374,0.04908783833050264,-0.125884325520312,0.011121535208514294
7,7,8818.419866159511,1355.201300416117,5.7368132626634845,8924.972626300989,-4284.07709157871,17.8357578060484,8951.181150712682,44902.9454609043,9.5711774902147,8980.452034599139,-6836.344927075778,7.679390497884357,9197.23279929669,5611.623613302805,28.679860593827176,0.985919904689812,100.0,87.0,77.0,241.0,318.0,13.0,851.0,852.0,15.0,7.0,8.0,0.4666666666666667,119.86855367972612,1551.2112096897213,20.0,15.0,5.0,0.75,852.0590179433091,6952.27335957564,24.0,11.0,13.0,0.4583333333333333,2188.1369062462127,42261.28638666757,16.0,7.0,9.0,0.4375,875.4649798484485,13846.941653859769,75.0,41.0,34.0,0.5466666666666666,62.0276906407732,6040.470605159552,0.0,0.0,0.0,0.0,8812.0,8825.0,8912.0,8929.0,8940.0,8963.0,8974.0,8989.0,9160.0,9230.0,0.08845073690743971,-0.19888974911731103,0.04873036465172113,-0.12806038741274067,0.011053430328743284
8,8,9667.928361379914,1605.8600381486672,11.413504529483191,9775.123304500716,-3729.069367520796,12.739826995505677,9801.39728720115,45619.76694341963,9.530893042783513,9829.876695499284,-6340.759340819098,6.1614027296999705,10048.23279929669,6142.465391149495,30.85784889484859,0.9899629717720472,105.0,83.0,73.0,244.0,317.0,22.0,849.0,850.0,22.0,9.0,13.0,0.4090909090909091,103.67651453602782,1762.054852160575,16.0,13.0,3.0,0.8125,816.7288725555712,7685.536211273762,24.0,11.0,13.0,0.4583333333333333,2199.646711133936,44808.59472961536,14.0,6.0,8.0,0.4285714285714285,910.1806003665398,13808.45638305328,77.0,42.0,35.0,0.5454545454545454,79.03875002932885,6929.961027362449,0.0,0.0,0.0,0.0,9659.0,9681.0,9764.0,9778.0,9790.0,9814.0,9824.0,9837.0,10010.0,10081.0,0.06456136404985356,-0.2190168087697866,0.048216965112120584,-0.14354441659805414,0.012867593872521212
9,9,10593.427100464874,1520.4187605930738,10.658033616939855,10700.54796540086,-4566.41035122143,14.981820907323051,10725.972626301009,45756.27543955258,9.544653798844385,10755.452034599555,-6849.861132190366,6.063707593003511,10981.931442897265,5883.069159250785,29.11587238243195,0.9828942707967074,105.0,84.0,75.0,245.0,320.0,21.0,926.0,925.0,21.0,9.0,12.0,0.4285714285714285,109.5810708849562,2006.9605538049025,17.0,14.0,3.0,0.8235294117647058,877.6173591902156,8766.982007250303,24.0,11.0,13.0,0.4583333333333333,2203.4973985198108,45338.595273801344,15.0,6.0,9.0,0.4,924.7244481624956,14452.521621221378,71.0,44.0,27.0,0.6197183098591549,74.85814349351874,5903.124205122715,0.0,0.0,0.0,0.0,10584.0,10605.0,10689.0,10704.0,10716.0,10739.0,10749.0,10764.0,10939.0,11009.0,0.07207295366587796,-0.19218977088983458,0.04815727192285993,-0.13499900659545172,0.012724335116103243
10,10,11510.716339367626,1667.100587645254,16.677657802436865,11618.54796540086,-3585.399238105781,9.647972179289056,11645.269545177876,44669.28895196115,9.525777298412208,11674.876695499284,-5682.110441932608,6.239723629849201,11892.383477496402,6043.062984611083,36.711712988223624,0.9870539617248038,106.0,83.0,74.0,246.0,320.0,23.0,919.0,919.0,23.0,9.0,14.0,0.391304347826087,106.59594843230876,2384.178989345098,16.0,13.0,3.0,0.8125,843.0743841530418,8476.120936449708,25.0,12.0,13.0,0.48,2166.6783922175323,43251.11875947349,14.0,7.0,7.0,0.5,800.4028347394382,11439.52880098827,88.0,50.0,38.0,0.5681818181818182,71.26696197244928,6776.66321687755,0.0,0.0,0.0,0.0,11502.0,11525.0,11608.0,11622.0,11634.0,11657.0,11668.0,11682.0,11846.0,11928.0,0.0639409218749502,-0.23514100610967117,0.04850487758038081,-0.1408636532005182,0.01179318536873331
11,11,12440.821844039036,1090.4673246530865,6.241501675938084,12549.54796540086,-5312.430169667126,15.28779240518434,12574.972626301009,45764.37113649316,9.57807144453616,12604.366712682426,-7353.425867407605,6.243817719810191,12823.37307521085,5542.667220912448,27.323164289885476,0.9826708866828406,93.0,77.0,86.0,244.0,330.0,16.0,928.0,930.0,18.0,9.0,9.0,0.5,81.20050537887359,1041.5573113729006,72.0,68.0,4.0,0.9444444444444444,884.052882363841,8458.225716036743,24.0,11.0,13.0,0.4583333333333333,2214.024036771767,45154.73055021651,14.0,6.0,8.0,0.4285714285714285,949.7674049204628,15428.931886068698,74.0,39.0,35.0,0.527027027027027,66.90837429226416,6064.408902832543,0.0,0.0,0.0,0.0,12433.0,12449.0,12526.0,12553.0,12565.0,12588.0,12598.0,12612.0,12791.0,12856.0,0.07446395095305229,-0.16641214173724098,0.04837877112237368,-0.12915985311419154,0.012071512076319374
12,12,13546.141906641122,1670.31815155609,10.510176616962532,13653.54796540086,-5267.992465441206,13.366461153529546,13677.972626301009,45202.95476092219,9.668012712261415,13707.7089504562,-6742.860766016277,5.894020120672043,13929.383477496402,5917.418967921583,34.849191766337356,0.98492957784284,105.0,84.0,74.0,249.0,323.0,21.0,1105.0,1103.0,21.0,9.0,12.0,0.4285714285714285,119.47664405003644,2045.71257016866,17.0,14.0,3.0,0.8235294117647058,976.534441893454,10049.223297026025,23.0,10.0,13.0,0.4347826086956521,2191.314022301241,45712.42124926315,14.0,6.0,8.0,0.4285714285714285,858.3998827403861,13343.909548169297,86.0,48.0,38.0,0.5581395348837209,62.67279814526225,6557.96441982203,0.0,0.0,0.0,0.0,13537.0,13558.0,13642.0,13657.0,13668.0,13691.0,13702.0,13716.0,13888.0,13965.0,0.07152927359301607,-0.18537126776464874,0.04847722972737227,-0.12730499895039862,0.010591238931198284
13,13,14492.426642081706,1975.1490483883736,20.80084749763886,14603.698643600574,-4414.747976048145,10.191861603456228,14628.972626301009,45919.98745750544,9.654872013993312,14658.876695499284,-5886.333316400879,5.2320872126507565,14875.534155696114,6404.062771355299,36.62495746862645,0.9840953548644824,110.0,85.0,72.0,248.0,320.0,25.0,950.0,951.0,27.0,9.0,18.0,0.3333333333333333,93.8492486631258,2716.8904620953845,13.0,10.0,3.0,0.7692307692307693,874.513104024981,9411.571174604293,24.0,11.0,13.0,0.4583333333333333,2197.926171264931,46994.7286888065,13.0,6.0,7.0,0.4615384615384615,863.1397296056341,12613.938306981636,84.0,45.0,39.0,0.5357142857142857,54.73436762843351,7235.179126214751,0.0,0.0,0.0,0.0,14484.0,14509.0,14594.0,14606.0,14619.0,14642.0,14653.0,14666.0,14833.0,14914.0,0.047515021076359916,-0.19808902088399621,0.047864258963461206,-0.14663453175522678,0.008546819352435862
14,14,15522.044005910177,1785.6050589933186,20.631191388593788,15632.123304500716,-3360.2068731390314,8.823873403700551,15658.39728720115,46525.52803291186,9.514255870375653,15685.522776001786,-6415.955639142687,5.914857307409478,15910.23279929669,6446.968160631111,34.56580829710476,0.990113848275055,109.0,82.0,71.0,249.0,320.0,27.0,1029.0,1029.0,27.0,8.0,19.0,0.2962962962962963,100.3299338752352,2608.4560051542658,13.0,10.0,3.0,0.7692307692307693,848.5304522629984,8743.399864553183,24.0,11.0,13.0,0.4583333333333333,2232.7306903664253,45679.139821055534,13.0,5.0,8.0,0.3846153846153846,991.999031188544,14644.461876822548,82.0,48.0,34.0,0.5853658536585366,62.99579158064905,7239.006181413853,0.0,0.0,0.0,0.0,15514.0,15541.0,15623.0,15635.0,15647.0,15670.0,15681.0,15694.0,15865.0,15943.0,0.056188199831713526,-0.252523277374979,0.04798936809028811,-0.15461438435398797,0.009771382456227646
15,15,16479.245517483123,1419.0754141288037,7.820379163673865,16584.972626301005,-3898.043994450409,17.835757806030824,16611.232937139637,45133.45056717231,9.425928574640308,16640.45203459914,-6665.410345943495,7.47636393510185,16860.232799296693,5709.498562496051,30.107222772228052,0.987094334834276,103.0,85.0,75.0,244.0,319.0,18.0,954.0,953.0,20.0,9.0,11.0,0.45,109.98594553132008,1501.745557688147,17.0,12.0,5.0,0.7058823529411765,846.8225917000142,6863.239440127566,24.0,11.0,13.0,0.4583333333333333,2189.385044461141,42352.86397797772,16.0,7.0,9.0,0.4375,869.7540792258482,13278.93840211738,78.0,43.0,35.0,0.5512820512820513,56.65595882336217,6250.3829929444755,0.0,0.0,0.0,0.0,16471.0,16489.0,16574.0,16589.0,16600.0,16623.0,16634.0,16649.0,16822.0,16893.0,0.07750535625961956,-0.2172429538777971,0.04850914381568655,-0.13048770204450685,0.009923105891560745
16,16,17312.797327900407,1681.9818205056822,14.084156335480795,17419.54796540086,-3743.550175521501,11.18736494649296,17446.278656014954,45982.74046079903,9.528226386056009,17474.45203459914,-6303.40125816119,6.634225900169893,17691.808138396547,6264.074055196827,33.126402908265526,0.9907496587526288,105.0,83.0,74.0,243.0,317.0,22.0,835.0,835.0,23.0,9.0,14.0,0.391304347826087,104.52710400810552,2097.420653504408,17.0,13.0,4.0,0.7647058823529411,860.6234324996606,8476.557330861398,24.0,11.0,13.0,0.4583333333333333,2222.941494611119,44414.82608604402,14.0,5.0,9.0,0.3571428571428571,970.6614297591192,14504.123685294668,79.0,44.0,35.0,0.5569620253164557,59.63248280571873,6897.423388222616,0.0,0.0,0.0,0.0,17304.0,17326.0,17409.0,17423.0,17435.0,17458.0,17469.0,17483.0,17651.0,17726.0,0.062145204385550254,-0.229894990623378,0.04834295373296008,-0.15399010629418153,0.009519760188059428
17,17,18137.905906541942,1800.2740632179994,19.7168672507946,18247.123304500717,-3418.4214571945913,11.86565617491248,18273.397287201147,46990.09281930201,9.52997153239386,18301.35980522678,-6346.672382004317,5.422313464653089,18523.08212109698,6099.827219435032,33.19793497620401,0.9899396565766816,107.0,82.0,72.0,244.0,316.0,25.0,826.0,827.0,25.0,8.0,17.0,0.32,109.67079767438126,2730.187697660416,15.0,11.0,4.0,0.7333333333333333,793.6909191416693,8123.958614742236,24.0,11.0,13.0,0.4583333333333333,2234.6228686273803,47033.05068085399,12.0,4.0,8.0,0.3333333333333333,1044.2943140123984,15448.046270435028,73.0,43.0,30.0,0.589041095890411,66.82078684060416,6864.841920507723,0.0,0.0,0.0,0.0,18130.0,18155.0,18237.0,18250.0,18262.0,18286.0,18297.0,18309.0,18480.0,18553.0,0.06091894557340016,-0.23218053393364507,0.047555191627743916,-0.16454202315113106,0.010954537634722237
18,18,18968.697284978432,1099.9295219178723,3.5463547367039285,19079.39728720092,-4817.0872809787425,20.383723206912453,19104.397287200703,46107.66070459686,9.568919137507516,19133.452034599155,-7533.438617620282,7.998238031999907,19349.995394914287,5044.747303017839,25.948830814596047,0.98465082845773,100.0,92.0,78.0,238.0,316.0,8.0,830.0,831.0,8.0,5.0,3.0,0.625,106.85008762549128,1210.900066121142,50.0,45.0,5.0,0.9,940.558210419725,8147.389402388777,24.0,11.0,13.0,0.4583333333333333,2198.479004771562,43448.82487388424,17.0,7.0,10.0,0.4117647058823529,925.2424234005354,14869.748507153494,68.0,36.0,32.0,0.5294117647058824,74.01816764384219,5587.8484161695405,0.0,0.0,0.0,0.0,18964.0,18972.0,19064.0,19084.0,19093.0,19117.0,19127.0,19142.0,19317.0,19380.0,0.09714266732216084,-0.19525455022036078,0.047681425844976276,-0.12281807423723429,0.014672324141897748
19,19,19767.18241387513,1452.2642398311366,7.632884736987696,19876.54796540086,-4370.374741968633,15.28779240518434,19902.397287201147,45618.724365880254,9.604387209461065,19930.581937044153,-6818.290021470187,7.473173291374945,20145.383477496405,5551.172252459143,29.82982146330861,0.98851925716075,105.0,87.0,75.0,242.0,317.0,18.0,797.0,798.0,19.0,8.0,11.0,0.4210526315789473,100.17423118832517,1557.3114082183029,20.0,16.0,4.0,0.8,945.7856792303496,9062.465216162476,24.0,11.0,13.0,0.4583333333333333,2214.2295406636467,44120.338091255886,15.0,6.0,9.0,0.4,896.2501245722111,14247.191054896675,76.0,39.0,37.0,0.5131578947368421,57.18912902054269,5866.373517966548,0.0,0.0,0.0,0.0,19759.0,19777.0,19864.0,19880.0,19891.0,19915.0,19925.0,19939.0,20111.0,20181.0,0.06897796450594489,-0.2164083711513308,0.048537734700879576,-0.1314479322161421,0.010302171581004025
20,20,20635.308761238433,1895.213387384043,21.318999182721452,20748.123304500717,-3323.7135951417927,8.616138737705434,20774.326181307384,46402.185820803774,9.46864588401544,20801.876695499283,-6252.629013584752,5.836375194122683,21015.64679652585,6376.00243305738,38.02827502196581,0.9911138485834498,109.0,84.0,71.0,247.0,318.0,25.0,873.0,872.0,28.0,7.0,21.0,0.25,101.95792314846628,2836.162269495271,14.0,11.0,3.0,0.7857142857142857,860.9444974607085,8920.309947860043,25.0,12.0,13.0,0.48,2221.6010015134143,45123.39945887898,13.0,5.0,8.0,0.3846153846153846,980.8065333469656,14356.723453395924,86.0,44.0,42.0,0.5116279069767442,77.1572666975766,7278.628899702707,0.0,0.0,0.0,0.0,20629.0,20654.0,20738.0,20751.0,20763.0,20786.0,20797.0,20809.0,20975.0,21056.0,0.05379759547245415,-0.2590308920477186,0.04787707652593793,-0.15686306211611464,0.012101197812840019
21,21,21580.38026681387,1661.1122915937474,10.094441720962568,21688.54796540086,-4056.5416353146784,12.987503852792312,21714.397287201147,44669.42289540246,9.44514962688807,21743.45203459914,-6909.924406937446,7.301483682627394,21964.232799296693,5485.946519166857,31.66355905024487,0.9885155915318968,106.0,85.0,75.0,245.0,320.0,21.0,941.0,940.0,21.0,9.0,12.0,0.4285714285714285,113.2471899347906,2169.35026877008,18.0,14.0,4.0,0.7777777777777778,932.9113750284582,9071.32092859726,24.0,11.0,13.0,0.4583333333333333,2201.2454244488213,43441.01763936803,15.0,6.0,9.0,0.4,892.3152557106827,13942.77777701601,81.0,47.0,34.0,0.5802469135802469,54.68841966650234,6061.676548882087,0.0,0.0,0.0,0.0,21571.0,21592.0,21677.0,21692.0,21703.0,21727.0,21737.0,21752.0,21918.0,21997.0,0.06817551739752407,-0.22997702449468127,0.04927857316632988,-0.12913531366780415,0.009968821146074131
22,22,22475.347750684876,1525.4061895762925,17.30773635674937,22585.54796540086,-3424.00033668278,11.83796303137859,22612.397287201147,45554.27495935788,9.554006082592062,22640.45203459914,-6393.688117244265,6.474322737755157,22865.93144289727,5907.430120959997,31.260173078681028,0.9879696030125388,106.0,84.0,75.0,244.0,319.0,22.0,898.0,898.0,24.0,8.0,16.0,0.3333333333333333,97.36929028861368,2088.1080552885887,17.0,14.0,3.0,0.8235294117647058,811.697810170101,8313.32001443946,24.0,11.0,13.0,0.4583333333333333,2198.8080435624956,44513.146355762714,14.0,5.0,9.0,0.3571428571428571,984.3141814519024,14819.481385901936,75.0,48.0,27.0,0.64,81.1456464022114,6390.495315941449,0.0,0.0,0.0,0.0,22468.0,22490.0,22574.0,22589.0,22601.0,22625.0,22635.0,22649.0,22819.0,22893.0,0.06383171312269269,-0.2370612530244332,0.0482678748706725,-0.15395092212851794,0.013736200808250049
23,23,23347.876853616155,1753.6688578601957,16.495136221333752,23459.123304500717,-3792.2540598437736,9.62428716268204,23485.29101113683,45862.471170922494,9.527095094884215,23512.53330864466,-6698.87451850763,6.4766944696504325,23731.3834774964,6047.201612103731,32.76020335657799,0.991947766735403,108.0,82.0,73.0,246.0,319.0,26.0,873.0,873.0,26.0,8.0,18.0,0.3076923076923077,89.69095815073273,2358.237894973129,15.0,12.0,3.0,0.8,861.2417444077345,8427.792117839763,24.0,11.0,13.0,0.4583333333333333,2225.7684121691523,44538.458141265,13.0,5.0,8.0,0.3846153846153846,968.5213911125702,14876.063007018309,81.0,44.0,37.0,0.5432098765432098,59.55646710777034,6650.018566695222,0.0,0.0,0.0,0.0,23340.0,23366.0,23448.0,23462.0,23474.0,23497.0,23508.0,23521.0,23691.0,23767.0,0.05114475161529212,-0.22710549736828928,0.04853136683093351,-0.1445797183447372,0.009848599555299353
24,24,24188.54796540086,1657.498389945822,7.589989471152993,24296.54796540086,-4085.6160526424696,15.28779240518434,24322.2488773488,45179.33621811808,9.569120401783474,24351.45203459914,-6686.833234397963,7.497619915853439,24565.0265004058,5382.429008838027,33.498254412665055,0.9900236750919604,104.0,84.0,76.0,243.0,319.0,20.0,836.0,837.0,20.0,9.0,11.0,0.45,111.49033698618796,1767.970272991499,19.0,15.0,4.0,0.7894736842105263,969.7146877258208,9396.078731319729,24.0,11.0,13.0,0.4583333333333333,2178.5702199633943,42862.90140212701,15.0,6.0,9.0,0.4,880.508398658305,13702.973710216196,82.0,42.0,40.0,0.5121951219512195,59.53276135245451,5818.950791148452,0.0,0.0,0.0,0.0,24180.0,24200.0,24284.0,24300.0,24311.0,24334.0,24345.0,24360.0,24530.0,24603.0,0.06726422038324405,-0.2373484623202992,0.04822050083794129,-0.13167793599649716,0.011060575300612576
25,25,24946.35884141717,2297.573300065983,24.309651787173355,25056.69864360057,-2870.377452692848,10.075301188989762,25083.397287201147,46865.125039777435,9.587274881017766,25111.876695499283,-5227.690467317481,5.098514922460196,25323.53415569611,6587.360599381471,44.52857874369815,0.9838432168883682,114.0,87.0,69.0,243.0,312.0,27.0,761.0,761.0,28.0,11.0,17.0,0.3928571428571428,105.40068913881969,3291.5546327531797,11.0,8.0,3.0,0.7272727272727273,811.0913542747604,8471.788338028662,24.0,11.0,13.0,0.4583333333333333,2212.471578222102,46930.07954343619,13.0,5.0,8.0,0.3846153846153846,929.1751114827986,12668.169322030868,97.0,56.0,41.0,0.5773195876288659,60.11177417286181,7693.589526075485,0.0,0.0,0.0,0.0,24936.0,24963.0,25050.0,25059.0,25072.0,25096.0,25107.0,25119.0,25275.0,25362.0,0.04587478847172916,-0.28257306491654405,0.047209339062772915,-0.17774103445715145,0.009125320113568109
26,26,25694.63506552764,1638.8843201797222,7.327691217068662,25804.54796540086,-4355.780938741483,15.28779240518434,25830.397287200667,46089.42831706469,9.45423849972121,25858.876695499283,-7285.430688199941,7.238905334203435,26073.06569071452,5146.1197482528205,27.33981197931517,0.988147687492948,104.0,86.0,76.0,240.0,316.0,18.0,746.0,747.0,19.0,9.0,10.0,0.4736842105263157,105.7596987218444,1686.732017706681,32.0,28.0,4.0,0.875,941.3251752590728,8943.723161934016,24.0,11.0,13.0,0.4583333333333333,2231.568239994526,44812.49454079539,14.0,6.0,8.0,0.4285714285714285,934.0144009596364,15226.55766623794,73.0,39.0,34.0,0.5342465753424658,64.8662235192823,5572.350224161055,0.0,0.0,0.0,0.0,25686.0,25704.0,25790.0,25808.0,25819.0,25843.0,25853.0,25866.0,26040.0,26106.0,0.06453152148667006,-0.21610939312550695,0.04841822347291481,-0.12820304535632188,0.012604880316146021
27,27,26471.940768979897,1079.84657500062,3.4704302741684048,26582.397287201147,-6328.425995200748,20.383723206912453,26606.972626301005,45588.04389817641,9.565754810131144,26637.758095791098,-7967.1689135851075,7.592499903050876,26861.054747397982,4566.722616414512,22.12790760614988,0.9713355709627384,88.0,79.0,90.0,235.0,325.0,9.0,778.0,777.0,10.0,5.0,5.0,0.5,121.38569532840472,1017.3499690734088,76.0,70.0,6.0,0.9210526315789472,881.0622502042405,6441.709623769407,23.0,10.0,13.0,0.4347826086956521,2184.0483597736397,43670.094922619486,17.0,9.0,8.0,0.5294117647058824,788.4293513581241,14007.755647493736,58.0,37.0,21.0,0.6379310344827587,82.43596196638232,4241.0677541018185,0.0,0.0,0.0,0.0,26468.0,26477.0,26556.0,26587.0,26597.0,26620.0,26630.0,26646.0,26824.0,26881.0,0.11241013134512652,-0.1392229680606847,0.04790835870588878,-0.09895978859111983,0.01805144934138907
28,28,27284.975137932834,1758.5319366156657,11.14788892394932,27395.54796540086,-3708.1283366506464,15.287792405074017,27421.238160252946,45162.71329176584,9.55935762612645,27449.45203459914,-6673.729472477898,7.034047512590076,27662.39761425857,5542.168018749964,31.7587089545093,0.989953319089248,107.0,86.0,75.0,241.0,316.0,21.0,812.0,814.0,23.0,10.0,13.0,0.4347826086956521,129.058329904279,2070.6490785121896,18.0,15.0,3.0,0.8333333333333334,951.5371651676992,9841.536919187629,24.0,11.0,13.0,0.4583333333333333,2163.7383563739404,43007.39205214814,14.0,5.0,9.0,0.3571428571428571,957.7386280471376,14628.811198943906,76.0,38.0,38.0,0.5,56.45384973289686,6184.6765744801205,0.0,0.0,0.0,0.0,27276.0,27297.0,27383.0,27399.0,27410.0,27433.0,27444.0,27458.0,27625.0,27699.0,0.0733898129553761,-0.25660847704833534,0.047909839747569766,-0.14350875803354035,0.010186239309581601
29,29,28473.32873009842,1640.4586207098787,28.027619407976932,28569.69864360057,-3190.1188106530153,10.191861603456228,28595.397287201147,46406.96655469174,9.539436639767546,28623.876695499283,-5531.59030068775,4.751188030842271,28847.95881659626,6376.3026260327515,42.83604773670175,0.988234454476171,106.0,72.0,70.0,254.0,324.0,34.0,1195.0,1174.0,38.0,21.0,17.0,0.5526315789473685,73.19335653312767,1629.509180637894,12.0,9.0,3.0,0.75,865.2262815838275,9841.721019501623,24.0,11.0,13.0,0.4583333333333333,2202.129679543684,47056.698151070144,12.0,5.0,7.0,0.4166666666666667,942.7108063781166,13293.991507242969,88.0,50.0,38.0,0.5681818181818182,64.72504118990797,7520.089405963045,0.0,0.0,0.0,0.0,28455.0,28489.0,28561.0,28572.0,28584.0,28608.0,28619.0,28631.0,28800.0,28885.0,0.04461761827400107,-0.2712207077349311,0.047452566781076295,-0.17042310712362557,0.010150873474174956
30,30,29561.54796540086,1248.9011504607038,11.008401757903986,29667.54796540086,-4365.155776300926,11.140409139706197,29693.379874347684,43624.9928769221,9.518764818066336,29722.45203459914,-6365.084510637526,7.246701868400004,29942.3834774964,5609.05067155807,32.83628263173761,0.988715381130328,103.0,78.0,75.0,247.0,322.0,25.0,1081.0,1098.0,26.0,10.0,16.0,0.3846153846153846,93.0508605099656,1595.232617680787,17.0,13.0,4.0,0.7647058823529411,955.0214665106076,8950.370786486492,24.0,11.0,13.0,0.4583333333333333,2160.9922845434644,42347.823854341994,16.0,7.0,9.0,0.4375,863.6775176187784,13023.001292431614,84.0,46.0,38.0,0.5476190476190477,58.43213633277741,6114.168276023083,0.0,0.0,0.0,0.0,29553.0,29578.0,29656.0,29671.0,29682.0,29706.0,29716.0,29731.0,29901.0,29978.0,0.07450618527786633,-0.21878290614405102,0.04953564784847548,-0.1356898743725042,0.01041747342898335
31,31,30556.54796540086,1371.8654733808844,11.658205250702151,30661.54796540086,-3895.147280306964,14.362711390414928,30687.397287201147,45651.43700752284,9.569677102218517,30715.751691961606,-6529.770814235712,5.656213569603112,30938.657460196835,6308.5234488514,32.314722656495476,0.987967578236526,102.0,77.0,74.0,246.0,320.0,25.0,995.0,994.0,27.0,10.0,17.0,0.3703703703703703,114.2454334329205,1587.872473697345,16.0,13.0,3.0,0.8125,879.0368676682288,8995.373553426745,24.0,11.0,13.0,0.4583333333333333,2165.284669470747,45589.287528646855,13.0,5.0,8.0,0.3846153846153846,942.585291094282,14256.035232309408,78.0,46.0,32.0,0.5897435897435898,72.01126218797039,6918.981101076287,0.0,0.0,0.0,0.0,30548.0,30573.0,30650.0,30665.0,30676.0,30700.0,30711.0,30724.0,30895.0,30970.0,0.08327743182527157,-0.22567487296628091,0.04743081075660186,-0.14435197159436727,0.011414915514197155
32,32,31515.941892449355,1895.3234045515903,16.67734553362952,31624.123304500717,-3598.1519547221096,12.739827004320285,31650.397287201147,45843.369620220365,9.51399877571714,31678.575655690485,-6300.2056225508,5.704235662944633,31901.657460196835,6474.145389946796,33.02302214624526,0.9872345904370066,106.0,81.0,73.0,246.0,319.0,25.0,961.0,963.0,25.0,8.0,17.0,0.32,94.56947569719232,2688.0449175706,14.0,10.0,4.0,0.7142857142857143,768.3741090228928,7256.551570656739,24.0,11.0,13.0,0.4583333333333333,2209.3736570429382,45747.83411145698,14.0,6.0,8.0,0.4285714285714285,935.3818419919836,13583.863748080526,78.0,47.0,31.0,0.6025641025641025,66.7217178615491,7025.04594076938,0.0,0.0,0.0,0.0,31508.0,31533.0,31614.0,31627.0,31639.0,31663.0,31673.0,31687.0,31856.0,31933.0,0.0498962211251574,-0.21354687592181898,0.04819396295137168,-0.1484684624647648,0.01030587264307597
33,33,32461.54796540086,1377.8807878746616,8.441340484374143,32568.54796540086,-4368.279823842005,13.77235187631996,32594.397287201147,44677.308411750906,9.6239709448135,32623.45203459914,-6440.490635023484,6.572916552589377,32842.65746019684,6031.462260550015,30.134777269991503,0.9873136691363013,104.0,84.0,75.0,242.0,317.0,20.0,944.0,944.0,22.0,10.0,12.0,0.4545454545454545,87.23680663197072,1413.2869258550134,17.0,13.0,4.0,0.7647058823529411,898.4789405756077,8534.850307114724,24.0,11.0,13.0,0.4583333333333333,2168.6716725136475,44263.389399020736,15.0,6.0,9.0,0.4,911.138506538104,13780.75388724984,75.0,43.0,32.0,0.5733333333333334,66.42141938856436,6446.474659803198,0.0,0.0,0.0,0.0,32453.0,32473.0,32557.0,32572.0,32583.0,32607.0,32617.0,32632.0,32809.0,32874.0,0.06331230350234493,-0.20568255166981825,0.04854078613077885,-0.14147035655689325,0.011012490258458041
34,34,33376.70147745705,1346.0201374720798,8.564792234475085,33480.12330450071,-3639.4825055293936,9.337990817936944,33506.24850332952,45555.338488527625,9.453828079746916,33534.87669549929,-6105.942234377594,6.274320352814205,33754.2327992967,6482.814445668411,35.20795848368377,0.9907510980548904,105.0,84.0,72.0,245.0,317.0,21.0,920.0,912.0,24.0,13.0,11.0,0.5416666666666666,119.66110661180394,1287.172735667776,14.0,11.0,3.0,0.7857142857142857,857.8968808317571,8618.903518746216,25.0,12.0,13.0,0.48,2191.0827413687643,44112.87356546722,13.0,6.0,7.0,0.4615384615384615,872.8633136705492,13080.74021867108,81.0,47.0,34.0,0.5802469135802469,62.99173382711584,7259.262718193412,0.0,0.0,0.0,0.0,33365.0,33386.0,33470.0,33483.0,33495.0,33518.0,33529.0,33542.0,33711.0,33787.0,0.08889993788394272,-0.23571946822889556,0.04809716740268658,-0.14295309063950293,0.009716726331601963
35,35,34395.52705920476,1971.1091409554845,17.8357578060484,34504.54796540086,-3617.056860113315,12.050661756567044,34530.39728720114,46427.39737707214,9.504622425025117,34558.79037806756,-6161.873762766696,5.544455855692963,34777.95881659626,6489.519285529562,35.84199661418116,0.9891197285643868,107.0,83.0,72.0,248.0,320.0,24.0,1016.0,1024.0,24.0,8.0,16.0,0.3333333333333333,116.47539626238223,2820.0702940206193,14.0,11.0,3.0,0.7857142857142857,892.5916814456131,9286.505246836305,24.0,11.0,13.0,0.4583333333333333,2215.401562028352,46750.82481401262,13.0,5.0,8.0,0.3846153846153846,933.9761912121744,13895.581362378322,84.0,45.0,39.0,0.5357142857142857,69.49692206261577,7238.252802262571,0.0,0.0,0.0,0.0,34388.0,34412.0,34495.0,34508.0,34519.0,34543.0,34554.0,34567.0,34736.0,34815.0,0.059091297301742216,-0.2467729195215499,0.04771754798218376,-0.15157340561823143,0.010709101707669035
36,36,35314.998573209254,1690.5910321587946,8.334891329915122,35421.972626301,-4134.6171269971655,17.835757806038917,35448.39728720114,44813.2066456636,9.534211043356857,35477.45203459914,-6713.281585993721,7.565570481055378,35696.2327992967,5779.175814833143,30.4138436668664,0.9870123310638698,104.0,86.0,75.0,243.0,318.0,18.0,919.0,918.0,19.0,9.0,10.0,0.4736842105263157,123.73466937920116,2088.979758661127,17.0,12.0,5.0,0.7058823529411765,827.0080340388799,6277.842684015506,24.0,11.0,13.0,0.4583333333333333,2182.8686951013997,42898.27536719237,16.0,6.0,10.0,0.375,889.2367606018107,13808.779608610455,74.0,41.0,33.0,0.5540540540540541,59.17901741532769,6410.122862344933,0.0,0.0,0.0,0.0,35307.0,35325.0,35411.0,35426.0,35437.0,35461.0,35471.0,35486.0,35659.0,35729.0,0.07319018439438815,-0.2000204634762659,0.04871038826480915,-0.13245932696418888,0.0102400444823699
37,37,36173.98728350628,1731.3736771302474,16.418456854330795,36284.12330450071,-3494.611215326956,12.73982700427684,36310.39728720114,46166.13403511562,9.53114046836333,36338.45203459914,-6381.334868192874,6.088991267891899,36557.2327992967,6179.1677698055655,30.29140592370115,0.9911216869653352,108.0,84.0,74.0,243.0,317.0,24.0,861.0,862.0,24.0,9.0,15.0,0.375,88.354982766164,2204.3076426023713,15.0,11.0,4.0,0.7333333333333333,795.9221081308897,7798.425821550941,24.0,11.0,13.0,0.4583333333333333,2219.128578982924,45430.1995340643,14.0,5.0,9.0,0.3571428571428571,1013.8231579892569,15159.20327679266,75.0,41.0,34.0,0.5466666666666666,67.08869126112059,6670.519685859611,0.0,0.0,0.0,0.0,36165.0,36189.0,36273.0,36287.0,36299.0,36323.0,36333.0,36347.0,36518.0,36590.0,0.051031723499812255,-0.22775698327758706,0.04806832162500276,-0.1588732105319464,0.010857237375710808
38,38,37108.46183655526,1801.7397656941448,16.500023043338526,37216.12330450071,-3426.712024168996,12.18991894445877,37242.39728720114,46630.38746081692,9.472781380515304,37270.87669549929,-6309.257862830906,5.586757723185172,37488.383477496405,6310.360893194202,34.56599865784832,0.9901383336579992,107.0,82.0,72.0,246.0,318.0,25.0,932.0,932.0,27.0,10.0,17.0,0.3703703703703703,101.06790704021616,2303.9858008063247,14.0,10.0,4.0,0.7142857142857143,796.5982397630006,7783.669228008022,24.0,11.0,13.0,0.4583333333333333,2225.8257803678616,46567.28194060402,13.0,5.0,8.0,0.3846153846153846,929.9507026173033,14075.355589343077,81.0,43.0,38.0,0.5308641975308642,73.01809331800708,6857.980580235894,0.0,0.0,0.0,0.0,37099.0,37124.0,37206.0,37219.0,37231.0,37255.0,37266.0,37278.0,37449.0,37524.0,0.05609461974730761,-0.23246722635123732,0.047733375199556345,-0.14739462593466468,0.011571143798884458
39,39,38127.7240138434,1942.696147024317,13.818104005870929,38235.54796540086,-3941.9228860325816,9.953334222365164,38262.39728720114,44105.510881397175,9.47603947235995,38291.45203459914,-6290.7097306952355,6.996657683851427,38515.65746019684,5950.98448280718,34.89451294414042,0.9883997383133676,107.0,84.0,75.0,247.0,322.0,23.0,1020.0,1020.0,24.0,11.0,13.0,0.4583333333333333,109.3583277822998,2365.0743116020403,15.0,11.0,4.0,0.7333333333333333,833.137245459651,7286.321918368404,24.0,11.0,13.0,0.4583333333333333,2185.383095444959,42907.25099835959,15.0,6.0,9.0,0.4,866.6173665755662,13115.272310790264,84.0,51.0,33.0,0.6071428571428571,67.86140536239436,6329.932807352865,0.0,0.0,0.0,0.0,38118.0,38141.0,38225.0,38239.0,38251.0,38275.0,38285.0,38300.0,38468.0,38547.0,0.056292039261933505,-0.21135300449729924,0.049548980428355274,-0.13776146153222515,0.011403391415059276
40,40,38999.08296505352,1585.688707348816,8.22759569903575,39107.54796540086,-4838.1497866174195,15.28779240518434,39132.972626301,45693.06544141984,9.57780167689453,39162.245327631965,-6860.3406208984725,6.33913867094336,39379.808138396555,5917.051952706282,29.249359377433784,0.9851327923433908,105.0,86.0,75.0,243.0,318.0,19.0,870.0,871.0,20.0,9.0,11.0,0.45,116.50729908048206,1609.1579782827002,26.0,22.0,4.0,0.8461538461538461,896.2548920487186,8567.058632430193,24.0,11.0,13.0,0.4583333333333333,2202.5909600698565,44929.525697741505,15.0,6.0,9.0,0.4,909.5731300708088,14216.672211573492,73.0,38.0,35.0,0.5205479452054794,65.26454992776559,6421.444502149681,0.0,0.0,0.0,0.0,38991.0,39010.0,39096.0,39111.0,39123.0,39146.0,39156.0,39171.0,39344.0,39414.0,0.07347425666874795,-0.18524744614724567,0.04820405325822706,-0.13258425205594027,0.011029909902669614
41,41,39971.298404344416,1534.4122519014911,16.139626775083443,40081.54796540086,-3698.332384214405,13.109704561683383,40107.39728720114,46453.05196399017,9.44441102108271,40135.87669549929,-6561.58035575218,5.66249044825851,40353.09843516596,6246.965275704286,32.78106176521417,0.9895805598305236,106.0,85.0,72.0,247.0,319.0,21.0,975.0,974.0,23.0,7.0,16.0,0.3043478260869565,98.3367121498754,2161.2556263826436,15.0,12.0,3.0,0.8,894.5085881513281,9325.576580015138,24.0,11.0,13.0,0.4583333333333333,2233.9366928071677,46070.68637554901,13.0,6.0,7.0,0.4615384615384615,941.8477947029132,14221.914401149455,80.0,40.0,40.0,0.5,66.46852611633112,6873.651881451551,0.0,0.0,0.0,0.0,39965.0,39986.0,40071.0,40085.0,40096.0,40120.0,40130.0,40143.0,40318.0,40390.0,0.06408754363634252,-0.2418680895122785,0.048090202868454966,-0.14353977908344084,0.010640130556646551
42,42,41004.114274978696,1599.688988354142,14.0374233713129,41111.54796540086,-4995.717904648334,14.09408033156444,41136.972626301,45166.49511085642,9.64645115462472,41166.75322938357,-6749.337553876771,6.0047424559386915,41383.98906699704,5914.332883127864,33.49636060909139,0.9840033797771648,106.0,84.0,74.0,247.0,321.0,22.0,1032.0,1030.0,22.0,9.0,13.0,0.4090909090909091,123.03788282059683,2189.1401219289637,16.0,12.0,4.0,0.75,867.107732214566,7986.045128914162,24.0,10.0,14.0,0.4166666666666667,2176.2071965871646,45398.10039773836,15.0,7.0,8.0,0.4666666666666667,859.8782915246755,13294.01992867756,80.0,40.0,40.0,0.5,68.75968573105625,6523.279698483235,0.0,0.0,0.0,0.0,40995.0,41017.0,41101.0,41115.0,41127.0,41150.0,41161.0,41175.0,41350.0,41422.0,0.07691362740902889,-0.17357019526818232,0.04818189215802317,-0.1274018797638544,0.011625941097636
43,43,41898.057307688854,1443.662265469467,8.26269053295349,42006.54796540086,-4254.68486390162,15.28779240518434,42032.39728720114,45145.833008485075,9.539103392431109,42061.45203459914,-6640.752881453748,6.886584015711816,42276.31077285976,6068.692194940282,31.904316696645072,0.9873570042726044,105.0,87.0,75.0,243.0,318.0,18.0,892.0,895.0,19.0,8.0,11.0,0.4210526315789473,113.811077032052,1600.8606429278525,20.0,16.0,4.0,0.8,921.703330694288,8712.04549153238,24.0,11.0,13.0,0.4583333333333333,2175.9109222810325,44003.309961489154,15.0,6.0,9.0,0.4,902.5609464487308,13886.547382795548,82.0,43.0,39.0,0.524390243902439,70.5854182187555,6737.329850988688,0.0,0.0,0.0,0.0,41890.0,41908.0,41995.0,42010.0,42021.0,42045.0,42055.0,42070.0,42240.0,42313.0,0.07883497390924848,-0.2166325733109808,0.04819738118182633,-0.1359124428450571,0.011631075683424094
44,44,42812.71794995058,1562.677907277202,13.582615428006187,42921.12330450071,-5059.782559824559,12.739827004320285,42945.972626301,46202.96598650686,9.6473314310357,42975.26763928436,-6624.160533948803,5.353110120912365,43192.808138396555,6407.020146646522,31.899277650604205,0.9835882243928932,107.0,84.0,73.0,244.0,317.0,23.0,915.0,914.0,26.0,11.0,15.0,0.4230769230769231,101.79721453742096,1939.1611203987063,14.0,11.0,3.0,0.7857142857142857,865.7454863972221,8413.608024190202,23.0,10.0,13.0,0.4347826086956521,2211.9588057929386,47234.50786118867,13.0,5.0,8.0,0.3846153846153846,976.4612612614457,14741.678631822218,77.0,41.0,36.0,0.5324675324675324,80.24967568564361,7179.824558670711,0.0,0.0,0.0,0.0,42803.0,42826.0,42910.0,42924.0,42936.0,42959.0,42970.0,42983.0,43157.0,43227.0,0.06514280010190433,-0.17110329864199553,0.04787482272109804,-0.14740905753371836,0.012525272880193273
45,45,43808.59883686971,1593.9854182410222,7.718163381890248,43915.972626301,-4517.9487778648845,16.460217249680895,43941.972626301,45673.94387003862,9.514412204556638,43971.49311367571,-7089.964961561852,6.344059767730698,44192.2327992967,6024.21765550793,29.95588423094713,0.9842431753433027,105.0,87.0,75.0,245.0,320.0,18.0,996.0,996.0,21.0,10.0,11.0,0.4761904761904761,108.74605189919778,1594.2641676053006,17.0,12.0,5.0,0.7058823529411765,766.9148338811432,6576.688834349425,24.0,11.0,13.0,0.4583333333333333,2190.4410473709218,44696.24274614462,15.0,6.0,9.0,0.4,924.3610367119244,14489.764671658006,77.0,43.0,34.0,0.5584415584415584,62.38873637367205,6470.356580329353,0.0,0.0,0.0,0.0,43800.0,43818.0,43905.0,43920.0,43932.0,43955.0,43965.0,43980.0,44154.0,44225.0,0.06822273946470606,-0.16974845700742444,0.04795821997775445,-0.1303759668381064,0.010356321756839272
46,46,44786.83344997385,1800.429477978059,18.875970686542946,44897.12330450071,-3366.0588749434146,12.432711004853289,44923.39728720114,45392.835844291905,9.483858763135554,44952.87669549929,-5796.107411742887,5.984541702403747,45171.808138396555,6511.301634965329,34.262095334231674,0.988853439376818,107.0,81.0,73.0,246.0,319.0,26.0,982.0,981.0,28.0,8.0,20.0,0.2857142857142857,98.14306829493847,2448.429733896249,14.0,10.0,4.0,0.7142857142857143,766.6825274249292,7626.473466187309,24.0,11.0,13.0,0.4583333333333333,2187.1356069281405,44982.4047082903,14.0,7.0,7.0,0.5,813.7681197922946,12112.435155679832,81.0,45.0,36.0,0.5555555555555556,61.510621767731905,7214.119436811118,0.0,0.0,0.0,0.0,44780.0,44806.0,44887.0,44900.0,44912.0,44936.0,44947.0,44960.0,45131.0,45206.0,0.05451092058610168,-0.22776860295939344,0.04818239632418053,-0.14039907510057595,0.009446747396468821
47,47,45782.197743405355,1648.1870457586551,17.381487763072805,45894.12330450071,-3531.966586693648,10.69721861885833,45920.39728720114,46132.83961586288,9.442329317027864,45948.87669549929,-6475.885235424715,5.665273770647313,46171.65746019684,6647.301087843453,31.929696345781593,0.9889837681561314,108.0,87.0,72.0,247.0,319.0,21.0,996.0,997.0,24.0,7.0,17.0,0.2916666666666667,95.81111636539354,2086.42458453414,14.0,10.0,4.0,0.7142857142857143,818.2964959525095,8056.309543089784,24.0,11.0,13.0,0.4583333333333333,2236.841756857677,45674.6505610333,13.0,6.0,7.0,0.4615384615384615,939.7402411880072,13825.026994684677,76.0,44.0,32.0,0.5789473684210527,66.81699312638536,7199.817594539213,0.0,0.0,0.0,0.0,45776.0,45797.0,45884.0,45897.0,45909.0,45933.0,45943.0,45956.0,46129.0,46203.0,0.058131215514615336,-0.23168296637781474,0.04848697317319556,-0.14511378862111277,0.010051747655688396
48,48,46915.78772924201,1473.755881023849,6.810391274969114,47022.972626301,-5314.634320098311,14.217934956999937,47047.972626301,44456.265463806965,9.61462810049002,47078.08241456267,-6969.361235574706,6.642894855598279,47298.808138396555,5830.123878374262,30.20638982443721,0.983822430024034,104.0,87.0,75.0,246.0,321.0,17.0,1129.0,1128.0,19.0,9.0,10.0,0.4736842105263157,109.43178704032046,1414.220472103762,17.0,12.0,5.0,0.7058823529411765,888.4975945079914,7478.485751795995,24.0,11.0,13.0,0.4583333333333333,2171.764760739273,44157.92968619237,16.0,7.0,9.0,0.4375,829.4382194661789,13522.895585994986,78.0,43.0,35.0,0.5512820512820513,63.14337541493284,6297.839710983274,0.0,0.0,0.0,0.0,46908.0,46925.0,47012.0,47027.0,47038.0,47061.0,47071.0,47087.0,47260.0,47333.0,0.07425367284322279,-0.16717944095381446,0.04885171388288034,-0.11901208610515966,0.010830537520677941
49,49,47883.68990836196,1661.9033711922914,18.356777602315073,47994.12330450071,-3756.009577676266,12.73982700427896,48020.39728720114,46000.85970393164,9.562782451153858,48049.87669549929,-5989.604031751056,5.6954144141139,48269.808138396555,6819.365270793672,32.571769907560046,0.9878203348772828,107.0,84.0,73.0,247.0,320.0,23.0,972.0,972.0,26.0,8.0,18.0,0.3076923076923077,96.52322593509264,2290.817153815222,14.0,10.0,4.0,0.7142857142857143,784.3859282449564,7253.726095338367,24.0,11.0,13.0,0.4583333333333333,2186.3928488521724,46133.13310813748,13.0,6.0,7.0,0.4615384615384615,863.5049767595742,12855.664528798265,81.0,46.0,35.0,0.5679012345679012,65.21672840781684,7455.216051076173,0.0,0.0,0.0,0.0,47877.0,47900.0,47984.0,47997.0,48009.0,48033.0,48044.0,48057.0,48228.0,48304.0,0.05807992667217736,-0.20883491163252924,0.047529391035822405,-0.14416728922014052,0.00956346020752553
50,50,48858.25317997753,1761.6555847686438,9.356960097954156,48966.12330450071,-4117.158279262441,10.478181635472192,48992.2037770711,45313.34621453104,9.498954004037651,49020.45203459914,-7029.1227735765,6.985411424957157,49241.2327992967,6456.7545551529765,30.36932815756909,0.9891402329096948,105.0,89.0,74.0,245.0,319.0,16.0,970.0,972.0,19.0,9.0,10.0,0.4736842105263157,119.57229548667596,2079.9451429878427,16.0,12.0,4.0,0.75,867.5019212948694,8005.768139972487,24.0,11.0,13.0,0.4583333333333333,2201.732410136385,43601.21023640268,15.0,6.0,9.0,0.4,977.5465519591436,15122.75032286645,75.0,41.0,34.0,0.5466666666666666,72.82907210865885,6976.282377250567,0.0,0.0,0.0,0.0,48850.0,48866.0,48955.0,48969.0,48981.0,49004.0,49014.0,49029.0,49203.0,49274.0,0.06787495610407822,-0.21070404935956846,0.04858904923314482,-0.13907091730334886,0.011279516897624018
51,51,49858.5386757237,1604.6081955619752,11.65955092997732,49966.54796540086,-3769.974636758129,11.813280838569131,49993.13493777352,44443.03263448995,9.4711880093585,50022.87669549929,-6227.8981337758905,7.2365331412878255,50243.65746019684,6316.7160366601065,30.299181154688824,0.987471486274644,106.0,86.0,74.0,245.0,319.0,20.0,1002.0,1001.0,21.0,9.0,12.0,0.4285714285714285,113.03391393404088,2096.7972794133643,16.0,12.0,4.0,0.75,843.8501451278954,7992.436017288482,25.0,12.0,13.0,0.48,2181.620205075785,42298.049154338456,15.0,7.0,8.0,0.4666666666666667,774.4112056228724,12005.276165562336,74.0,42.0,32.0,0.5675675675675675,73.99906386315976,6823.463321319834,0.0,0.0,0.0,0.0,49850.0,49870.0,49956.0,49970.0,49982.0,50005.0,50016.0,50030.0,50205.0,50275.0,0.07044331086346813,-0.22383443562196956,0.04908801393050622,-0.12434551577248701,0.011714799815868555
52,52,50837.33522750545,1898.235133169326,20.155706800486055,50949.69864360057,-3802.6804429309736,10.191861603456228,50975.39728720114,46348.71105936665,9.60294703831481,51003.867681380885,-6052.3984022700415,5.220065751424961,51220.10949479597,6980.682049876547,37.30212043655139,0.9865129114764576,110.0,85.0,72.0,248.0,320.0,25.0,981.0,982.0,27.0,8.0,19.0,0.2962962962962963,92.90094587852214,2562.442763836983,14.0,11.0,3.0,0.7857142857142857,877.5101142527045,9445.210062746311,24.0,11.0,13.0,0.4583333333333333,2191.5536067460253,47316.16077239664,13.0,5.0,8.0,0.3846153846153846,962.0234454017576,13854.3275587944,87.0,45.0,42.0,0.5172413793103449,69.79771969253547,7780.174336765536,0.0,0.0,0.0,0.0,50830.0,50855.0,50940.0,50952.0,50964.0,50988.0,50999.0,51012.0,51179.0,51260.0,0.0489406945721277,-0.2307609401899546,0.047284024876957875,-0.15894912751297677,0.009998696286958068
53,53,51896.70150075254,1443.188901672522,7.871096376328995,52003.54796540086,-5199.672856639873,15.287792403298496,52028.972626301,44398.37294950374,9.610192522007074,52059.87669549929,-6936.585237859346,6.715966912170515,52281.65746019684,5682.180623471567,29.999658467128917,0.980686794622714,104.0,85.0,75.0,246.0,321.0,19.0,1056.0,1054.0,21.0,10.0,11.0,0.4761904761904761,110.36044735952449,1476.077225375451,17.0,13.0,4.0,0.7647058823529411,883.517814650127,7347.489126405048,24.0,11.0,13.0,0.4583333333333333,2150.370699049484,44062.787079070215,16.0,8.0,8.0,0.5,770.6483219951897,12477.485863267624,79.0,47.0,32.0,0.5949367088607594,57.50502138007702,5977.369952459501,0.0,0.0,0.0,0.0,51888.0,51907.0,51992.0,52007.0,52019.0,52042.0,52052.0,52067.0,52238.0,52313.0,0.0764698559084171,-0.16991796195829767,0.048433547362089074,-0.11109909207041106,0.010120238195621443
54,54,52859.55188160522,1498.8287648611567,12.639635710665717,52967.54796540086,-3411.5818798860137,14.271304861231656,52994.39728720114,45731.740187624426,9.52764021980834,53022.45203459914,-6813.818265571675,6.656973175483567,53243.2327992967,6751.609164313854,30.954928537173593,0.9887044093698006,105.0,84.0,74.0,245.0,319.0,21.0,964.0,965.0,22.0,9.0,13.0,0.4090909090909091,119.24162462045568,1802.426399973469,16.0,12.0,4.0,0.75,821.4010122794491,7962.9136598942205,24.0,11.0,13.0,0.4583333333333333,2207.9304208490803,44347.96900698249,14.0,5.0,9.0,0.3571428571428571,1001.7119094390612,15186.922493630484,77.0,42.0,35.0,0.5454545454545454,63.13005489512752,7323.273830494318,0.0,0.0,0.0,0.0,52852.0,52873.0,52957.0,52971.0,52983.0,53007.0,53017.0,53031.0,53206.0,53276.0,0.07955653602064514,-0.24076837115423225,0.048280043833682354,-0.1470118324846485,0.009350371646037548
55,55,53884.710508764736,1754.018875306937,19.444094958096574,53995.54796540086,-4224.393614077764,13.202021254379714,54020.972626301,46371.63117547386,9.539262694256504,54050.87669549929,-6149.246916378703,5.621290067306237,54268.53415569612,6866.9288436860015,34.899288659874955,0.984889563585583,109.0,85.0,72.0,249.0,321.0,24.0,1028.0,1027.0,26.0,9.0,17.0,0.3461538461538461,94.82312240874349,2393.784832952758,15.0,12.0,3.0,0.8,894.0318325263811,9034.62596441346,24.0,11.0,13.0,0.4583333333333333,2220.8585505197643,46536.21029173453,13.0,6.0,7.0,0.4615384615384615,848.5420152467301,12752.976948206982,84.0,44.0,40.0,0.5238095238095238,69.96041119970678,7655.794320722045,0.0,0.0,0.0,0.0,53877.0,53901.0,53986.0,53999.0,54011.0,54034.0,54045.0,54058.0,54228.0,54307.0,0.05406049144833195,-0.21163554209224866,0.047892612233455034,-0.13799120880747415,0.010188020407992713
56,56,54841.15490679287,1341.7601468603775,6.363206716104728,54950.39728720114,-4132.163789524712,20.383723206912453,54976.208884018226,45264.581974757,9.490460567606664,55005.45203459914,-6855.683938893876,7.913965292190404,55226.65746019684,6124.683340169424,27.951971269335523,0.9846550265583646,104.0,88.0,77.0,244.0,321.0,16.0,953.0,955.0,17.0,8.0,9.0,0.4705882352941176,98.74448680194246,1414.789591492167,20.0,14.0,6.0,0.7,841.2084912435661,6773.143879732569,24.0,11.0,13.0,0.4583333333333333,2186.7917356684184,41940.50448853584,16.0,7.0,9.0,0.4375,860.4066965683955,13707.364215169182,69.0,38.0,31.0,0.5507246376811594,68.59510451465658,6401.906289445506,0.0,0.0,0.0,0.0,54833.0,54849.0,54937.0,54955.0,54965.0,54988.0,54998.0,55014.0,55190.0,55258.0,0.07359324767023187,-0.20357578597830053,0.04831132068971588,-0.12550267839611304,0.011199779760819288
57,57,55737.16189492504,1853.6500247915592,17.382308288047465,55847.12330450071,-3624.021409272642,10.901180021352726,55873.39728720114,45780.40169414319,9.526906305292158,55901.45203459914,-6310.977229146326,6.214218753905238,56121.2327992967,6826.75124243138,31.557217817228675,0.9898259131072052,109.0,82.0,73.0,244.0,317.0,27.0,897.0,897.0,27.0,9.0,18.0,0.3333333333333333,102.36238007565832,2621.0955741833213,14.0,11.0,3.0,0.7857142857142857,826.330873498113,8103.196992987123,24.0,11.0,13.0,0.4583333333333333,2225.246117509998,44965.33181081695,14.0,5.0,9.0,0.3571428571428571,993.0840030754694,14823.50449413904,75.0,41.0,34.0,0.5466666666666666,73.05950298023711,7609.818300098277,0.0,0.0,0.0,0.0,55728.0,55755.0,55837.0,55850.0,55862.0,55886.0,55896.0,55910.0,56082.0,56154.0,0.055222063877548216,-0.2280148984174907,0.0486069592044379,-0.15735819779051904,0.010701943045198264
58,58,56680.87594747436,1582.7439127336297,14.264140270021889,56790.12330450071,-3633.235911531646,11.191636014700345,56816.39728720114,46133.8904926198,9.45223888233621,56844.45203459914,-6650.711693305584,6.337821298729316,57063.383477496405,6507.086322672109,32.31288511544466,0.99016325181534,107.0,84.0,73.0,246.0,319.0,23.0,944.0,943.0,23.0,8.0,15.0,0.3478260869565217,92.10227093223934,2171.248782772798,14.0,11.0,3.0,0.7857142857142857,826.8957745059047,7769.855291103162,24.0,11.0,13.0,0.4583333333333333,2236.147033343646,45306.482331498235,14.0,5.0,9.0,0.3571428571428571,1000.5077680757008,15204.765577950133,82.0,44.0,38.0,0.5365853658536586,70.17445429641903,7248.169933412115,0.0,0.0,0.0,0.0,56673.0,56696.0,56780.0,56793.0,56805.0,56829.0,56839.0,56853.0,57024.0,57099.0,0.05819151802843789,-0.22759209548749457,0.04847080984209147,-0.15043619603640063,0.01078431279633035
59,59,57570.54796540086,1353.2123453989475,9.128545626596766,57677.972626301,-4985.053079020147,15.697257457304843,57702.972626301,44722.9693102417,9.59027797293437,57733.45203459914,-6944.366132202989,7.024673234767588,57953.65746019684,5974.5245971932345,29.92820576716419,0.9835792393707178,103.0,82.0,77.0,243.0,320.0,21.0,887.0,887.0,23.0,10.0,13.0,0.4347826086956521,112.77534884491912,1332.7109043587684,23.0,18.0,5.0,0.782608695652174,877.9258628067023,8200.693261256856,24.0,11.0,13.0,0.4583333333333333,2176.839502541995,43566.37088757775,16.0,7.0,9.0,0.4375,822.3171699729734,13239.127114925162,79.0,47.0,32.0,0.5949367088607594,70.91544717752637,6271.391466482502,0.0,0.0,0.0,0.0,57562.0,57583.0,57665.0,57682.0,57693.0,57716.0,57726.0,57742.0,57914.0,57985.0,0.0833389890569401,-0.1761116379084304,0.04867385900612578,-0.1184150078377429,0.011869638499913729
60,60,58418.288820600545,1863.8962204127577,17.60339568466611,58526.69864360057,-3061.0411862707374,8.997907617138729,58553.39728719463,46017.8222501064,9.44372204227309,58581.87669549929,-5843.603200181061,6.094564965081511,58796.53415569612,6733.168374295107,35.33483443557642,0.989550738685858,108.0,82.0,72.0,246.0,318.0,26.0,850.0,850.0,26.0,9.0,17.0,0.3461538461538461,107.03015562382544,2618.719142078488,15.0,12.0,3.0,0.8,829.5815592604803,8920.20111846948,24.0,11.0,13.0,0.4583333333333333,2215.1290497273444,44678.48933308969,14.0,6.0,8.0,0.4285714285714285,888.9021037088856,12701.3388054174,83.0,44.0,39.0,0.5301204819277109,64.02693783557928,7546.114231667037,0.0,0.0,0.0,0.0,58409.0,58435.0,58517.0,58529.0,58542.0,58565.0,58576.0,58589.0,58757.0,58835.0,0.05742280844376826,-0.27101287071251673,0.04813632939186344,-0.15211541120405703,0.009509184127937723
61,61,59377.54796540086,1512.9242897308463,10.882223428812782,59485.54796540086,-4662.700230092198,14.596315622263251,59510.972626301,46066.01269330067,9.535237472721928,59540.290942120584,-7107.573197099125,5.782254274058947,59757.95881659626,6394.949200291401,32.11229917494615,0.9840182659948028,106.0,85.0,73.0,247.0,320.0,21.0,957.0,958.0,22.0,9.0,13.0,0.4090909090909091,99.13095181180354,1707.0797821377405,17.0,13.0,4.0,0.7647058823529411,865.9697605320074,8485.911582292483,24.0,11.0,13.0,0.4583333333333333,2214.655529145327,46172.40302358696,14.0,6.0,8.0,0.4285714285714285,966.5526757099004,14876.653187772316,80.0,42.0,38.0,0.525,63.70571557952335,7112.37039718812,0.0,0.0,0.0,0.0,59369.0,59390.0,59475.0,59489.0,59501.0,59524.0,59534.0,59548.0,59721.0,59795.0,0.06552274458455501,-0.1857228039116047,0.04807569398050815,-0.13598912721776651,0.009961879849900988
62,62,60376.608981506426,1169.6355399111264,6.646334635835005,60485.54796540086,-4435.976165901541,15.28779240518434,60511.29395889844,44065.25406585204,9.599984768047996,60540.45203459914,-6863.902750655827,7.812428309243551,60761.65746019684,5987.046188897976,28.866391860876966,0.985361348414865,102.0,92.0,77.0,244.0,321.0,10.0,1001.0,1000.0,11.0,8.0,3.0,0.7272727272727273,110.095363609041,1397.4240327013722,52.0,47.0,5.0,0.903846153846154,942.3809846644756,9003.121168663836,24.0,11.0,13.0,0.4583333333333333,2162.4502428530136,41831.819229155066,15.0,6.0,9.0,0.4,870.5690797742657,13817.001512436613,75.0,42.0,33.0,0.56,64.25260756279401,6418.594199037378,0.0,0.0,0.0,0.0,60370.0,60380.0,60472.0,60489.0,60500.0,60524.0,60534.0,60549.0,60724.0,60793.0,0.09412792263255483,-0.212440497743962,0.04907381765282467,-0.12683295661365324,0.010731937843061949
63,63,61332.09244489442,2098.9503853385404,22.931688604375807,61442.69864360057,-2615.0927046290226,9.177877039580268,61469.39728720114,46541.25667640901,9.44382250234047,61497.87669549929,-5733.620510352287,5.290760907802932,61714.95881659626,7167.552345454146,36.77344639505576,0.9885340358763852,110.0,85.0,72.0,247.0,319.0,25.0,956.0,958.0,25.0,9.0,16.0,0.36,119.41347858280196,3210.2083818641336,12.0,10.0,2.0,0.8333333333333334,818.9344685445442,9026.45605666398,24.0,11.0,13.0,0.4583333333333333,2208.5836301613517,45861.56831718398,12.0,5.0,7.0,0.4166666666666667,911.3086170151907,13228.945077839551,80.0,41.0,39.0,0.5125,78.4149941668592,8228.325174651198,0.0,0.0,0.0,0.0,61323.0,61348.0,61433.0,61445.0,61458.0,61482.0,61493.0,61505.0,61676.0,61752.0,0.05689199678892921,-0.3131569550459659,0.047454318767478534,-0.15894121617741977,0.010940275060089669
64,64,62438.07789409452,1681.184160192389,14.837523988865357,62546.54796540086,-4575.320466710553,13.708400325397587,62571.972626301,44847.16320958384,9.6104965552466,62601.55693271585,-6907.383306549428,5.952195809277018,62829.50678199713,6452.6538302070385,30.763331372625004,0.982443508143882,106.0,84.0,74.0,248.0,322.0,22.0,1105.0,1103.0,23.0,9.0,14.0,0.391304347826087,107.18385050263298,2318.136873797542,16.0,13.0,3.0,0.8125,879.4570120282632,8400.432816914084,24.0,11.0,13.0,0.4583333333333333,2179.3321611337956,44769.81927704548,15.0,7.0,8.0,0.4666666666666667,866.8668705218602,13034.879451524448,75.0,46.0,29.0,0.6133333333333333,79.24065546639547,6722.89360576139,0.0,0.0,0.0,0.0,62430.0,62452.0,62536.0,62550.0,62562.0,62585.0,62595.0,62610.0,62785.0,62858.0,0.06375497285815923,-0.1922175765450923,0.048594649140886396,-0.12549859071812566,0.01228032024520568
65,65,63409.13420756675,1490.9623510580066,13.902684807862652,63521.12330450071,-3566.053060373067,11.916677676796889,63547.1081900517,45491.88395278368,9.463336296404004,63575.87669549929,-6905.941081082933,6.6858627140830995,63796.2327992967,6682.771398091209,29.723156953021267,0.98815744999584,107.0,86.0,73.0,246.0,319.0,21.0,973.0,975.0,22.0,7.0,15.0,0.3181818181818182,83.56580237708637,1951.297562497845,18.0,14.0,4.0,0.7777777777777778,834.7921790109652,8630.811073529318,25.0,12.0,13.0,0.48,2198.1684435063235,43472.05855881442,13.0,6.0,7.0,0.4615384615384615,910.5753283162846,13947.347972085208,74.0,40.0,34.0,0.5405405405405406,60.39090136817295,7198.999025285285,0.0,0.0,0.0,0.0,63403.0,63424.0,63510.0,63524.0,63536.0,63559.0,63570.0,63583.0,63760.0,63829.0,0.05604823107557812,-0.23409415532466374,0.04832001342894079,-0.1318539092102268,0.009036804907829455
66,66,64582.58670533786,1726.1521882804398,14.084260986494744,64690.54796540086,-4388.979395376323,13.916653951485957,64715.972626301,45939.238739543565,9.451511434941374,64745.87669549929,-6579.524512321318,5.958813368806123,64965.843284679504,6669.013455073134,33.39631634505851,0.9857451781796768,107.0,83.0,73.0,251.0,324.0,24.0,1171.0,1169.0,27.0,11.0,16.0,0.4074074074074074,94.75804912584296,2157.5479510534865,16.0,12.0,4.0,0.75,888.2158846081054,8753.676291222151,24.0,11.0,13.0,0.4583333333333333,2217.941162594409,45524.00584982004,14.0,7.0,7.0,0.5,848.8009767817827,12980.345640106332,79.0,40.0,39.0,0.5063291139240507,77.10528573553769,7713.296000524593,0.0,0.0,0.0,0.0,64573.0,64597.0,64680.0,64694.0,64706.0,64729.0,64739.0,64753.0,64928.0,65004.0,0.054895535729233204,-0.20237412951717615,0.04827988498392879,-0.12900643126904587,0.011561722922733575
67,67,65548.84101619084,1690.1685988720596,11.348026910835824,65656.12330450071,-3938.648908910227,10.364830541528026,65682.39728720112,44537.91380095825,9.480834050816568,65711.87669549929,-6289.918610328336,6.799021456037003,65933.65746019685,6597.727866882834,30.585058768713505,0.9865743924367286,105.0,85.0,74.0,246.0,320.0,20.0,966.0,966.0,21.0,9.0,12.0,0.4285714285714285,105.88997408348372,2045.8664161433471,16.0,12.0,4.0,0.75,821.9484289369517,7527.265130112015,24.0,11.0,13.0,0.4583333333333333,2186.533287193384,43499.46148372465,14.0,7.0,7.0,0.5,802.4998301786741,12314.84694145526,76.0,44.0,32.0,0.5789473684210527,56.84088897817619,6942.151548789479,0.0,0.0,0.0,0.0,65540.0,65560.0,65645.0,65659.0,65671.0,65695.0,65705.0,65719.0,65891.0,65965.0,0.06265053921493383,-0.20868791505571746,0.04909375183052107,-0.12758508971180205,0.008615221804386314
68,68,66490.56849418177,1851.7513510405424,18.378003757137297,66602.12330450071,-3520.8311413622205,8.926848723322278,66628.36077081757,46198.0495754746,9.557064658673664,66655.45203459915,-6268.582083515669,5.919460181947465,66878.2327992967,7058.1013564970335,33.38203812183446,0.9887492155565814,108.0,84.0,72.0,247.0,319.0,24.0,946.0,946.0,27.0,8.0,19.0,0.2962962962962963,95.84844322063854,2527.79857084427,14.0,11.0,3.0,0.7857142857142857,857.9768372796606,8794.870083412028,25.0,12.0,13.0,0.48,2217.3445179416444,45100.07495303746,13.0,4.0,9.0,0.3076923076923077,1090.0900082015912,15907.302840732453,80.0,46.0,34.0,0.575,83.7835658788765,7796.832613592483,0.0,0.0,0.0,0.0,66484.0,66508.0,66592.0,66605.0,66617.0,66640.0,66651.0,66664.0,66834.0,66911.0,0.051760968429578336,-0.2436858806434286,0.04799649635249488,-0.17389738120653683,0.011870552950015817
69,69,67434.64832344025,1440.2869235449502,9.48672482515833,67540.972626301,-5531.174278793438,14.030585844849773,67565.972626301,44734.16317098095,9.676531293430385,67596.04545321572,-7052.424764761422,6.321385642038154,67817.65746019685,6080.9824039651,29.876030495526926,0.9815798878528584,103.0,83.0,75.0,245.0,320.0,20.0,940.0,938.0,24.0,11.0,13.0,0.4583333333333333,102.8902674304812,1461.872176521112,18.0,13.0,5.0,0.7222222222222222,872.9605651795264,7616.664051770653,24.0,10.0,14.0,0.4166666666666667,2171.579452047608,45081.7804597472,16.0,7.0,9.0,0.4375,867.9335578010634,13606.292285973726,72.0,40.0,32.0,0.5555555555555556,50.69319013223603,6360.72172650693,0.0,0.0,0.0,0.0,67426.0,67446.0,67529.0,67545.0,67556.0,67579.0,67589.0,67604.0,67781.0,67849.0,0.07143734053853616,-0.1578255396013218,0.04854409467206288,-0.12306881487596061,0.008336348761539185
70,70,68229.28373679325,1487.81415738163,7.204828812278378,68338.972626301,-5240.504790786741,15.076377925269142,68363.972626301,45782.598567239824,9.676136352805807,68393.51485180263,-6974.936516504729,6.096212351950677,68610.2327992967,6404.032881385491,29.065277581879577,0.9833854466196952,104.0,91.0,77.0,241.0,318.0,13.0,795.0,798.0,17.0,8.0,9.0,0.4705882352941176,120.91207392696492,1611.3502510802696,21.0,16.0,5.0,0.7619047619047619,889.5331087602231,8318.11286004578,24.0,11.0,13.0,0.4583333333333333,2182.8698233077475,45398.64273321232,15.0,7.0,8.0,0.4666666666666667,867.1186562782573,13645.771959574717,75.0,41.0,34.0,0.5466666666666666,69.41098069800167,6775.63411927711,0.0,0.0,0.0,0.0,68221.0,68234.0,68325.0,68343.0,68354.0,68377.0,68387.0,68402.0,68574.0,68643.0,0.08126826413572735,-0.1697418749285563,0.047679028530934475,-0.12431921842247629,0.010838635900786448
71,71,69001.38870357496,2145.4796730666426,19.12117658893537,69111.12330450071,-3196.348297157706,9.13696748764134,69137.39728720114,46880.139771805865,9.474660754470683,69165.87669549929,-6083.222811629556,5.43022211474074,69379.95881659626,6707.726074550651,36.26517950122793,0.9901487543214648,110.0,84.0,72.0,244.0,316.0,26.0,772.0,773.0,26.0,10.0,16.0,0.3846153846153846,110.68412267323288,2888.611840230744,14.0,11.0,3.0,0.7857142857142857,836.4521431294228,8970.670012387405,24.0,11.0,13.0,0.4583333333333333,2230.7071296402196,46152.287851181296,13.0,6.0,7.0,0.4615384615384615,934.2844290540786,13453.240232421049,85.0,46.0,39.0,0.5411764705882353,69.59541301044395,7440.978475534521,0.0,0.0,0.0,0.0,68991.0,69017.0,69101.0,69114.0,69126.0,69150.0,69160.0,69173.0,69341.0,69417.0,0.0515894529613634,-0.26168992405277686,0.0475832013406621,-0.15358379233914746,0.010375410718468573
72,72,69841.63538485189,1785.7844670572736,6.906546917590559,69951.972626301,-4333.233084895575,17.8357578060484,69978.25725801931,44967.031447295936,9.53914825540628,70007.45203459915,-7201.377856923703,8.222501393423503,70228.93144289727,5710.17974988834,27.53317844884936,0.9848503268163432,106.0,92.0,76.0,240.0,316.0,14.0,841.0,841.0,16.0,10.0,6.0,0.625,136.60971627253963,1893.3346386374535,19.0,14.0,5.0,0.7368421052631579,839.3854290430395,6750.26975390098,24.0,11.0,13.0,0.4583333333333333,2169.8778972255254,42240.07848956306,16.0,7.0,9.0,0.4375,883.2300609903958,14162.511416719472,72.0,44.0,28.0,0.6111111111111112,70.17945213329072,5871.337260427863,0.0,0.0,0.0,0.0,69834.0,69848.0,69940.0,69956.0,69967.0,69990.0,70000.0,70016.0,70190.0,70256.0,0.07649843460541103,-0.1937088110881687,0.048254862004149704,-0.12264737089739318,0.012290235195251612
73,73,70823.25198168127,1899.328112643445,15.191839483736228,70932.54796540085,-4440.912693694312,14.570237385456688,70957.972626301,45653.65289389533,9.616979772356975,70987.87669549929,-6388.621732851346,5.782989663455253,71206.38347749642,6498.524352486701,32.15892907445892,0.984857398577987,107.0,82.0,75.0,247.0,322.0,25.0,983.0,980.0,25.0,10.0,15.0,0.4,116.17365079231242,2482.010236350351,18.0,15.0,3.0,0.8333333333333334,851.6678737313408,9053.372734689448,24.0,11.0,13.0,0.4583333333333333,2187.709935155137,45597.581970669664,13.0,6.0,7.0,0.4615384615384615,864.7512959835377,13144.322391878191,77.0,40.0,37.0,0.5194805194805194,72.30247299859451,7161.955818145673,0.0,0.0,0.0,0.0,70813.0,70838.0,70920.0,70936.0,70948.0,70971.0,70982.0,70995.0,71172.0,71242.0,0.06116565643343444,-0.19177766654603026,0.04791971280457322,-0.13535803685744047,0.011125983235090519
74,74,72068.12330450071,1239.6869559714596,12.739827003834554,72174.54796540085,-3740.961634639316,15.28779240518434,72200.39728720114,45536.05890121117,9.330869476816536,72229.87669549929,-6776.496703020124,6.748286945620359,72454.2327992967,6302.752627284358,29.35189016753916,0.9874033522297868,102.0,79.0,74.0,250.0,324.0,23.0,1242.0,1242.0,24.0,8.0,16.0,0.3333333333333333,94.34003023339126,1733.7953494476285,18.0,14.0,4.0,0.7777777777777778,886.5145146285873,8820.96342485595,24.0,11.0,13.0,0.4583333333333333,2203.1238521889013,44354.94583668324,14.0,7.0,7.0,0.5,835.0150231550145,13295.49561439598,72.0,38.0,34.0,0.5277777777777778,72.36215120137716,6757.8478329683585,0.0,0.0,0.0,0.0,72061.0,72084.0,72163.0,72178.0,72189.0,72213.0,72223.0,72237.0,72419.0,72487.0,0.07609988132807552,-0.23697503508721773,0.0483819615783724,-0.12322222820279218,0.011481039393506318
75,75,73080.12330450071,1244.576866777132,10.631425766285762,73188.54796540085,-4523.747222667915,13.7784585389074,73213.972626301,45092.15699609781,9.617839717080368,73243.50130010475,-6147.499381130143,5.888284470968466,73463.38347749642,6912.16585946646,35.46803853167145,0.9853641401565234,105.0,82.0,74.0,247.0,321.0,23.0,1012.0,1014.0,24.0,7.0,17.0,0.2916666666666667,107.67226270896748,1668.4757872577047,15.0,12.0,3.0,0.8,889.1563308699757,8683.58724873351,24.0,11.0,13.0,0.4583333333333333,2189.932936942697,44815.08111541325,14.0,6.0,8.0,0.4285714285714285,832.3781215773766,12309.881880534173,83.0,46.0,37.0,0.5542168674698795,59.49008668898447,7584.1581606861,0.0,0.0,0.0,0.0,73073.0,73096.0,73178.0,73192.0,73204.0,73227.0,73238.0,73252.0,73420.0,73499.0,0.0865131480290068,-0.1965530537193873,0.048565717029952896,-0.13540109074795126,0.008606576852826913
76,76,74012.11473585939,1481.4636918029446,15.351180574461944,74123.12330450071,-4700.055273244744,12.739827004320285,74147.972626301,46005.35225939323,9.616924365275857,74177.07067617944,-6679.356519192881,5.5650453778132665,74398.65746019685,6926.527155700348,30.80630001515468,0.9838038890212926,106.0,83.0,75.0,245.0,320.0,23.0,935.0,934.0,23.0,8.0,15.0,0.3478260869565217,91.97242181735416,2051.501121275741,16.0,13.0,3.0,0.8125,854.9668674010039,9081.965272220328,24.0,11.0,13.0,0.4583333333333333,2214.945083992315,46279.408363426104,13.0,5.0,8.0,0.3846153846153846,953.775523099082,14512.748808568544,78.0,45.0,33.0,0.5769230769230769,72.8430287844928,7404.854878215147,0.0,0.0,0.0,0.0,74004.0,74027.0,74110.0,74126.0,74138.0,74161.0,74172.0,74185.0,74361.0,74430.0,0.06208213021098311,-0.18190570486860816,0.04814537820520817,-0.14279452225052575,0.01051652973374181
77,77,75024.54796540085,1499.5415932211488,8.398775534513925,75131.54796540085,-4131.352851715231,11.39837562327716,75157.27362783496,44447.86517714537,9.44141241622913,75186.87669549929,-6669.246790213735,7.287746375044304,75403.79632962462,6231.43855792862,32.07265285367273,0.9879482385353476,103.0,83.0,75.0,248.0,323.0,20.0,1009.0,1009.0,22.0,10.0,12.0,0.4545454545454545,102.46782460879976,1559.8871166438917,19.0,15.0,4.0,0.7894736842105263,944.0058936132544,9534.379588182355,24.0,11.0,13.0,0.4583333333333333,2192.12683437454,42793.37405790395,15.0,7.0,8.0,0.4666666666666667,798.2635381497811,12565.742836577265,80.0,41.0,39.0,0.5125,60.007991716282355,6828.140829373237,0.0,0.0,0.0,0.0,75016.0,75036.0,75119.0,75135.0,75146.0,75169.0,75180.0,75194.0,75367.0,75442.0,0.06833276587459622,-0.22849800718941923,0.049319057858862224,-0.11969320723310622,0.009629877781580741
78,78,75880.18070399566,1576.991156404643,13.172068243781911,75987.54796540085,-4639.1086117073,14.532115146677384,76012.972626301,45786.13639122134,9.66302852736594,76042.61862018715,-6686.139962837977,5.903983609059498,76257.31866968302,6537.248569182084,33.156710351772595,0.9849396763032188,104.0,82.0,76.0,243.0,319.0,22.0,857.0,856.0,23.0,9.0,14.0,0.391304347826087,99.81346361511126,2023.8961243540068,19.0,16.0,3.0,0.8421052631578947,863.804366020439,8930.073818551846,24.0,11.0,13.0,0.4583333333333333,2177.0104558203734,45945.41888154523,14.0,6.0,8.0,0.4285714285714285,870.8427648632734,13320.411427303428,81.0,41.0,40.0,0.5061728395061729,66.43234046166802,6981.7084430138,0.0,0.0,0.0,0.0,75871.0,75893.0,75975.0,75991.0,76003.0,76026.0,76037.0,76051.0,76220.0,76294.0,0.0632936102461566,-0.18620050495057042,0.04754737192102926,-0.13024596698595559,0.010162125511770127
79,79,76734.17370469311,1741.2227421349126,19.411265318357625,76845.12330450071,-3470.6431166294765,10.581970257624812,76871.39728720114,46183.65576016491,9.464827969030123,76899.87669549929,-6331.77645697472,5.577805968424989,77120.2327992967,6702.276794687193,34.130951103960115,0.989461511573204,110.0,84.0,71.0,246.0,317.0,26.0,856.0,858.0,27.0,8.0,19.0,0.2962962962962963,89.49416734541107,2482.374227858116,14.0,10.0,4.0,0.7142857142857143,808.8251513591288,7924.497792725713,24.0,11.0,13.0,0.4583333333333333,2220.2635138408546,45995.13452983461,13.0,6.0,7.0,0.4615384615384615,937.9817569647572,13850.069866560736,82.0,47.0,35.0,0.573170731707317,70.57413374291218,7369.168097661492,0.0,0.0,0.0,0.0,76726.0,76752.0,76836.0,76848.0,76860.0,76884.0,76895.0,76907.0,77074.0,77153.0,0.05139731131450897,-0.23304762955420819,0.04807465925544839,-0.14813879854073664,0.010529874534405289
80,80,77592.0447675524,1615.2860349911366,6.645077334281811,77700.39728720114,-5860.0776342198205,14.28770482583798,77724.972626301,44543.10117688712,9.652022115946163,77755.27166378665,-7287.750417527201,6.635440306726287,77971.68055978109,5600.16166333264,29.27871900824263,0.9827563712717982,104.0,87.0,76.0,242.0,318.0,17.0,855.0,854.0,17.0,8.0,9.0,0.4705882352941176,121.081755010049,1728.637462555142,18.0,13.0,5.0,0.7222222222222222,867.2178677259643,7045.89006469766,23.0,10.0,13.0,0.4347826086956521,2164.1291577014204,44804.92888054659,16.0,7.0,9.0,0.4375,858.3928550759942,13834.71251824082,77.0,41.0,36.0,0.5324675324675324,63.571761660026034,6140.610764112738,0.0,0.0,0.0,0.0,77584.0,77601.0,77688.0,77705.0,77715.0,77738.0,77748.0,77764.0,77940.0,78006.0,0.07495994665162409,-0.14798743666156586,0.04858505807908052,-0.11778570970426491,0.011351772588328219
81,81,78402.47113649936,1642.7401875557457,9.058121616977893,78510.12330450071,-3811.414718714717,11.0895766623976,78536.39728720114,45113.102053268754,9.513641246289437,78565.87669549929,-6160.585489281611,6.740226263453295,78783.65746019685,6160.72378150531,30.770483081177115,0.9880044160941478,106.0,85.0,74.0,242.0,316.0,21.0,810.0,811.0,22.0,9.0,13.0,0.4090909090909091,112.27605634644604,1882.3154365004757,16.0,12.0,4.0,0.75,829.690621604405,7862.996937059913,24.0,11.0,13.0,0.4583333333333333,2165.7127869954206,44052.873127156854,14.0,7.0,7.0,0.5,820.4637727683713,12299.601994624283,76.0,44.0,32.0,0.5789473684210527,63.90350743670727,6672.287813003989,0.0,0.0,0.0,0.0,78393.0,78414.0,78499.0,78513.0,78525.0,78549.0,78559.0,78573.0,78744.0,78815.0,0.0683468129634687,-0.21768573688149917,0.04800629281573644,-0.13317951259597666,0.01037272724814374
82,82,79315.51250196586,1880.1170888696672,18.97504031762895,79426.12330450071,-3120.571886852215,11.472453054292018,79452.39728720114,46162.47819057344,9.47778203066818,79480.87669549929,-6235.64020228607,5.3454917720674215,79701.80813839656,6618.035156680512,34.803649624476684,0.9893598888150164,109.0,84.0,71.0,248.0,319.0,25.0,916.0,916.0,25.0,8.0,17.0,0.32,101.85322528138128,2742.508675319151,13.0,10.0,3.0,0.7692307692307693,790.1120707687608,8232.078160269457,24.0,11.0,13.0,0.4583333333333333,2188.858633802485,45952.46478653549,13.0,6.0,7.0,0.4615384615384615,949.852217867406,13710.51906545112,83.0,47.0,36.0,0.5662650602409639,72.34759742651993,7180.615837946332,0.0,0.0,0.0,0.0,79308.0,79333.0,79417.0,79429.0,79441.0,79465.0,79476.0,79488.0,79658.0,79736.0,0.054173873470091054,-0.25319463848844803,0.04741640222966753,-0.15232633491572803,0.01093188472314012
83,83,80299.52784443108,1635.3056155492902,9.984257650235923,80406.54796540085,-4943.479033949947,14.933825467891326,80431.972626301,44198.66829160827,9.619456467328623,80461.96284001162,-6856.709700384454,6.227780852324536,80680.95881659626,5742.213959135367,32.68477079740719,0.9836014593419552,107.0,85.0,74.0,248.0,322.0,22.0,982.0,980.0,24.0,12.0,12.0,0.5,108.0660267376076,1735.7796160244038,18.0,13.0,5.0,0.7222222222222222,859.4887314590429,7949.083165135096,24.0,11.0,13.0,0.4583333333333333,2159.0493758783846,43987.73699336064,15.0,7.0,8.0,0.4666666666666667,838.1646637265403,13224.303335395773,81.0,43.0,38.0,0.5308641975308642,57.63716816083464,6337.126820528879,0.0,0.0,0.0,0.0,80289.0,80311.0,80396.0,80410.0,80422.0,80445.0,80455.0,80470.0,80643.0,80718.0,0.06608307689404516,-0.17386312869062434,0.048848742718529146,-0.12224006853892978,0.010037446979686098
84,84,81145.06940504993,1398.6653640910629,14.01347202968816,81255.12330450071,-3648.017753508418,12.739827004320285,81281.39728720114,45252.713401681634,9.542089000704788,81310.87669549929,-6404.202603567581,6.483170394594357,81534.93144289727,6147.742772556197,31.067877896597015,0.9847149178594984,107.0,87.0,74.0,244.0,318.0,20.0,847.0,849.0,20.0,8.0,12.0,0.4,92.6550586807753,1904.8493677537465,15.0,12.0,3.0,0.8,814.813438699976,7667.713323620907,24.0,11.0,13.0,0.4583333333333333,2172.5205891904084,44313.303573497455,14.0,7.0,7.0,0.5,834.199598447569,12728.099761748344,76.0,49.0,27.0,0.6447368421052632,72.40787328030459,6475.746002565296,0.0,0.0,0.0,0.0,81137.0,81157.0,81244.0,81258.0,81270.0,81294.0,81304.0,81318.0,81486.0,81562.0,0.06624533720472026,-0.2233578600094101,0.04800862591169341,-0.13025815235496493,0.011777960783189663
85,85,82102.07192459129,1920.7892053378807,20.289287781021557,82214.12330450071,-3380.0788924567605,10.273182240157078,82240.39728720114,45699.36111331159,9.540466814373424,82267.69432960163,-6469.888910889142,5.856765859299022,82489.80813839656,6682.922767844547,34.7825790137096,0.9892121132835432,111.0,84.0,72.0,248.0,320.0,27.0,959.0,959.0,27.0,9.0,18.0,0.3333333333333333,87.28210918827655,2582.348575709506,14.0,11.0,3.0,0.7857142857142857,806.6535069243727,8455.076977591136,24.0,11.0,13.0,0.4583333333333333,2189.9681861366043,45009.105748211885,13.0,5.0,8.0,0.3846153846153846,1002.4810983890504,14794.010350527044,82.0,47.0,35.0,0.573170731707317,79.67994189575107,7553.224444314868,0.0,0.0,0.0,0.0,82093.0,82120.0,82204.0,82217.0,82229.0,82253.0,82263.0,82276.0,82449.0,82524.0,0.04544075369942689,-0.2386493134005131,0.047921199176211175,-0.15494564314726106,0.011922918259528287
86,86,83161.54796540085,1542.6033078673356,10.549407147500728,83269.12330450071,-4279.631716720648,10.382162798175102,83295.38729383596,43904.27377911294,9.524115309508565,83324.45203459915,-6624.977746747335,7.426877489247484,83548.2327992967,5980.296703039566,31.09365143142047,0.9880176775076602,105.0,84.0,75.0,248.0,323.0,21.0,1055.0,1055.0,25.0,12.0,13.0,0.48,92.67196171603048,1609.19265271925,15.0,11.0,4.0,0.7333333333333333,840.9105824276363,7202.068669339656,24.0,11.0,13.0,0.4583333333333333,2153.4277974653187,42554.8368567053,15.0,6.0,9.0,0.4,873.7243512760168,13489.260902142212,74.0,40.0,34.0,0.5405405405405406,64.56177267738236,6435.433346562512,0.0,0.0,0.0,0.0,83153.0,83174.0,83258.0,83272.0,83284.0,83308.0,83318.0,83333.0,83509.0,83581.0,0.060075044078668795,-0.19649134273451002,0.049048250024574885,-0.13188336394110745,0.010795747415770857
87,87,84074.10773059659,1579.5287489672091,14.43799373888515,84183.54796540085,-4554.621391882449,13.983186913664175,84208.972626301,45226.301203314186,9.63785557638064,84238.57754375794,-6429.787142047954,5.917958915132002,84453.76100935314,6120.915244805843,32.77752191803347,0.9857424271795436,106.0,85.0,74.0,246.0,320.0,21.0,915.0,914.0,21.0,7.0,14.0,0.3333333333333333,118.54706342107951,2302.2509512545917,16.0,13.0,3.0,0.8125,874.8963574204834,8718.711478061181,24.0,11.0,13.0,0.4583333333333333,2169.5882775423815,45120.72274579951,15.0,7.0,8.0,0.4666666666666667,843.6595648380719,12966.87857451196,81.0,40.0,41.0,0.4938271604938271,62.10934573462949,6606.091698485558,0.0,0.0,0.0,0.0,84067.0,84088.0,84173.0,84187.0,84199.0,84222.0,84233.0,84247.0,84416.0,84493.0,0.07505217204725949,-0.19208980991916963,0.047971826565896436,-0.1312111188441858,0.010147068412250106
88,88,84993.16098653666,1678.2556012455243,16.218334663412637,85103.12330450071,-3465.9272835867755,10.978079460719856,85129.39728720114,45959.12717549552,9.474544282503969,85157.87669549929,-6350.721905052235,5.9307091250752935,85373.8501509794,6433.994784290264,34.30092756842865,0.9903148105489624,106.0,83.0,73.0,247.0,320.0,23.0,920.0,920.0,23.0,7.0,16.0,0.3043478260869565,98.37284432359183,2355.717339951996,14.0,11.0,3.0,0.7857142857142857,807.0363026824979,8211.555488364713,24.0,11.0,13.0,0.4583333333333333,2206.4543345356783,45281.9035595912,13.0,6.0,7.0,0.4615384615384615,921.1758991146908,13794.366742729686,83.0,43.0,40.0,0.5180722891566265,74.18277965195342,7243.284595028783,0.0,0.0,0.0,0.0,84986.0,85009.0,85092.0,85106.0,85118.0,85142.0,85152.0,85165.0,85334.0,85412.0,0.05861612751394008,-0.2328485962484828,0.04800905652777747,-0.14505058053035846,0.011529816566386377
89,89,85919.45065208586,1608.4714933491225,13.76741649809124,86027.972626301,-5102.400650071302,13.701542038982751,86052.972626301,44842.02124456595,9.634278158955398,86082.80813669857,-6813.089541107708,6.203656531498663,86309.08212109699,5858.3843327437135,30.793734596944375,0.9816304411187452,106.0,85.0,74.0,248.0,322.0,21.0,925.0,924.0,21.0,8.0,13.0,0.3809523809523809,107.78758042012426,2311.736241889803,16.0,12.0,4.0,0.75,871.2643340789143,7980.60776887766,24.0,11.0,13.0,0.4583333333333333,2173.3179879689974,44844.11444420263,15.0,7.0,8.0,0.4666666666666667,854.4276276964526,13246.353505730844,79.0,48.0,31.0,0.6075949367088608,77.1463253542666,5865.6398602573445,0.0,0.0,0.0,0.0,85911.0,85932.0,86017.0,86032.0,86043.0,86066.0,86077.0,86091.0,86262.0,86339.0,0.06701242817533025,-0.1707557665168334,0.04846610227750081,-0.12540971647901392,0.013168532648682663
90,90,86736.51713667567,1783.5609479963323,14.19673605802899,86844.54796540085,-3722.728341118641,10.095505440896478,86871.39728720114,44702.82036406031,9.473548548965766,86900.87669549929,-5860.356583853314,6.617934131042061,87111.35222638775,6002.633784026906,36.14520728400544,0.9893330495574668,106.0,85.0,74.0,243.0,317.0,21.0,816.0,818.0,23.0,10.0,13.0,0.4347826086956521,129.12891880906827,2299.578108702689,16.0,12.0,4.0,0.75,831.3237244613334,7810.474828787494,24.0,11.0,13.0,0.4583333333333333,2171.2528491316557,43600.78299690963,14.0,7.0,7.0,0.5,798.7781290422013,11753.16121687883,87.0,43.0,44.0,0.4942528735632184,70.82003136337329,6579.015378012465,0.0,0.0,0.0,0.0,86728.0,86749.0,86834.0,86848.0,86860.0,86884.0,86894.0,86908.0,87074.0,87151.0,0.07239949885319748,-0.22331033808701964,0.04857082464705686,-0.1363019668876509,0.011798159593181647
91,91,87530.52263449391,1660.8596910916087,14.403146562832683,87641.12330450071,-4795.41436309362,12.739827004320285,87665.972626301,46008.44645049683,9.721581440851915,87695.19692184757,-6675.702362808161,5.355504855811356,87910.38347749642,6229.48658553313,32.95168607624516,0.9843703654186384,106.0,90.0,73.0,243.0,316.0,16.0,795.0,795.0,16.0,7.0,9.0,0.4375,121.5585450698817,2506.3332074761174,15.0,12.0,3.0,0.8,860.7777930088453,8968.361245370634,25.0,11.0,14.0,0.44,2192.122508401516,46968.36778290737,13.0,5.0,8.0,0.3846153846153846,980.9288533096242,14754.236296134137,81.0,43.0,38.0,0.5308641975308642,66.31212645613462,6881.649906981603,0.0,0.0,0.0,0.0,87524.0,87540.0,87630.0,87644.0,87656.0,87679.0,87690.0,87703.0,87871.0,87946.0,0.07319013503782894,-0.17950019077257381,0.04764608843639501,-0.14694017198468876,0.01064487828100195
92,92,88338.45769653331,1747.444526478909,8.122778439875312,88447.54796540085,-4111.511057866597,15.28779240518434,88473.39728720114,45411.64823628908,9.503434412099686,88502.45203459915,-7001.411643246676,7.018121093500448,88721.65746019685,5611.246227603768,30.05681569954933,0.988293441645158,105.0,86.0,76.0,242.0,318.0,19.0,806.0,807.0,21.0,9.0,12.0,0.4285714285714285,117.7517687705452,1973.8873431878187,19.0,15.0,4.0,0.7894736842105263,908.9568171435908,8745.9033417833,24.0,11.0,13.0,0.4583333333333333,2188.4286371840744,44117.88614788694,15.0,6.0,9.0,0.4,916.637515055353,14334.425891477393,75.0,43.0,32.0,0.5733333333333334,72.89935359684941,6016.697277726409,0.0,0.0,0.0,0.0,88330.0,88349.0,88435.0,88451.0,88462.0,88486.0,88496.0,88511.0,88680.0,88753.0,0.06738512552831326,-0.22107609692657257,0.04819090964937209,-0.13092181430862024,0.012991651166229507
93,93,89108.13014252337,1529.3238560507343,7.09849012124168,89218.972626301,-5351.403595102393,16.504737981569246,89243.972626301,45203.96183285061,9.603090109849092,89274.02419003773,-7255.375959777509,6.485473611837731,89489.65746019685,5449.914564248745,28.83450173846646,0.9817606920812826,106.0,91.0,76.0,239.0,315.0,15.0,771.0,771.0,20.0,8.0,12.0,0.4,122.51899641789394,1555.7235439176134,33.0,28.0,5.0,0.8484848484848485,867.8971174083795,7630.910712029605,23.0,10.0,13.0,0.4347826086956521,2171.094513048431,44763.14806215797,15.0,7.0,8.0,0.4666666666666667,859.4387205259495,13885.034175370693,75.0,43.0,32.0,0.5733333333333334,60.47018471176379,5990.925128159926,0.0,0.0,0.0,0.0,89100.0,89115.0,89206.0,89223.0,89234.0,89257.0,89267.0,89282.0,89450.0,89521.0,0.08011317938522333,-0.16218121133727967,0.04802885466270467,-0.11845543570595407,0.011095620674211328
94,94,90007.3384906028,1901.331689828422,18.53594994559435,90119.12330450072,-3291.011077695201,12.739826952457216,90145.39728720114,46364.385473884504,9.46499893629927,90173.87669549928,-6404.590020108286,5.342069917649927,90393.80813839656,6252.364005384916,36.97075793634752,0.9876907767033616,112.0,85.0,71.0,247.0,318.0,27.0,900.0,901.0,27.0,9.0,18.0,0.3333333333333333,88.61280183720156,2620.1022612688284,14.0,10.0,4.0,0.7142857142857143,769.9794557650548,7646.832139669405,24.0,11.0,13.0,0.4583333333333333,2207.4712688675854,46312.181509968315,13.0,6.0,7.0,0.4615384615384615,958.4298880103833,14159.898148845556,84.0,49.0,35.0,0.5833333333333334,73.7731474023285,7299.347212169547,0.0,0.0,0.0,0.0,89998.0,90025.0,90110.0,90122.0,90134.0,90158.0,90168.0,90181.0,90347.0,90428.0,0.04660565135018502,-0.2339644071645896,0.047611356136942215,-0.14964734432668317,0.011799240629430817
95,95,91045.18877245608,1372.3218281287352,8.638216240068845,91151.54796540084,-3911.288178018216,15.28779240518434,91177.39728720114,44433.460245412,9.471307936863258,91206.45203459916,-6835.093051652349,7.5111284204922,91429.2327992967,5392.790936647172,30.143712737691228,0.9868879447676936,103.0,87.0,76.0,247.0,323.0,16.0,1036.0,1032.0,20.0,9.0,11.0,0.45,112.27098951204913,1605.9786445202888,18.0,14.0,4.0,0.7777777777777778,915.1424214375778,8711.578684275319,24.0,11.0,13.0,0.4583333333333333,2166.2490689627093,42678.205491544184,15.0,6.0,9.0,0.4,870.3406725118276,13858.88458354057,76.0,42.0,34.0,0.5526315789473685,67.76672941572663,6121.657163207097,0.0,0.0,0.0,0.0,91036.0,91052.0,91139.0,91155.0,91166.0,91190.0,91200.0,91215.0,91392.0,91462.0,0.0818109769959275,-0.2339746855219615,0.04875265300064913,-0.12733413662911688,0.01256617032105065
96,96,91931.69228072472,1716.52590568022,16.63827955022927,92041.12330450072,-3327.910625083057,11.425062755156237,92067.39728720114,45774.05047656297,9.424599295734245,92095.87669549928,-6548.907191927999,6.034809305006309,92312.80813839656,6261.815938843106,33.32252451831332,0.9897369079247164,107.0,85.0,72.0,244.0,316.0,22.0,888.0,890.0,22.0,8.0,14.0,0.3636363636363636,111.42558911862132,2569.537361554438,13.0,10.0,3.0,0.7692307692307693,808.8918566925747,7904.36812299816,24.0,11.0,13.0,0.4583333333333333,2219.0034008936323,44892.09331398832,14.0,6.0,8.0,0.4285714285714285,920.7571471245024,13738.372848319832,80.0,45.0,35.0,0.5625,66.23533071563394,7029.8281159940325,0.0,0.0,0.0,0.0,91924.0,91946.0,92031.0,92044.0,92056.0,92080.0,92090.0,92103.0,92270.0,92347.0,0.06491343285289126,-0.24306297488755024,0.04847732236477077,-0.14059706759310958,0.010577655325951845
97,97,92858.54796540068,1315.7964316544326,8.021482104570316,92965.97262630014,-3764.052498700168,17.835757806043976,92991.27379068435,45510.64105817692,9.486640681358674,93019.45203459916,-7211.405303490725,7.28734271308801,93242.082121097,5977.726130554091,29.096590795681873,0.9869621715965364,103.0,85.0,75.0,244.0,319.0,18.0,925.0,924.0,20.0,10.0,10.0,0.5,102.360731930001,1419.297223637664,18.0,14.0,4.0,0.7777777777777778,944.5651746429093,9219.019064192558,24.0,11.0,13.0,0.4583333333333333,2181.27832168537,42787.443548972034,15.0,6.0,9.0,0.4,970.1414135064822,15389.318684229864,71.0,40.0,31.0,0.5633802816901409,71.48595403651673,6697.5966405668805,0.0,0.0,0.0,0.0,92850.0,92868.0,92953.0,92970.0,92980.0,93003.0,93014.0,93028.0,93205.0,93272.0,0.07779374488901485,-0.2509436770526165,0.047928973773342584,-0.13452876002363637,0.01195872016804666
98,98,93719.7761510438,1640.2355897117754,8.835781952530287,93827.54796540084,-4719.781371745145,15.04454469395876,93852.972626301,44952.54302619925,9.53027680423637,93882.92382951968,-6997.494151409775,6.277762200300128,94099.80813839656,5850.496979609686,31.085712876414604,0.9844806974724932,106.0,86.0,75.0,243.0,318.0,20.0,862.0,862.0,21.0,10.0,11.0,0.4761904761904761,108.46088892911789,1811.768349681644,17.0,13.0,4.0,0.7647058823529411,866.4514436336591,8125.690519259945,24.0,11.0,13.0,0.4583333333333333,2174.243323512331,44425.846867015534,15.0,7.0,8.0,0.4666666666666667,854.7795755812493,13236.621585742818,79.0,44.0,35.0,0.5569620253164557,58.60524352070103,6348.620691766037,0.0,0.0,0.0,0.0,93710.0,93730.0,93816.0,93831.0,93843.0,93866.0,93876.0,93891.0,94062.0,94134.0,0.06612518933830523,-0.18357872439190706,0.048367526665735856,-0.12215509682263015,0.010017139351571952
99,99,94593.35244352568,1867.097064384816,17.8357578060484,94703.12330450072,-3261.336667322005,9.128524170296208,94729.39728720114,45817.02196444116,9.48120147127093,94756.45203460116,-6387.022629696832,5.903527486707305,94980.082121097,6475.393056616111,33.09268598247458,0.987897816611086,107.0,83.0,72.0,245.0,317.0,24.0,875.0,876.0,24.0,7.0,17.0,0.2916666666666667,109.48029765203164,2704.8745650194187,14.0,11.0,3.0,0.7857142857142857,825.3606286773272,8655.78157650628,24.0,11.0,13.0,0.4583333333333333,2211.9233806558605,44846.46691179171,13.0,4.0,9.0,0.3076923076923077,1091.081725563598,16109.064162051693,79.0,49.0,30.0,0.620253164556962,60.729667308313765,6805.547665519944,0.0,0.0,0.0,0.0,94586.0,94610.0,94693.0,94706.0,94718.0,94741.0,94752.0,94765.0,94934.0,95010.0,0.05863663959436622,-0.25307434125010436,0.048277327635404724,-0.17082790978233742,0.00937852988650077
100,100,95484.34947548996,1582.4410375885002,6.4336780312550585,95591.54796540084,-5126.104317656197,15.287792402345731,95616.972626301,44428.905559877,9.561393201598126,95647.45203459916,-7341.288653637258,6.859392371745427,95863.3834774995,5510.551682123608,29.809263626381178,0.9844305012815832,103.0,88.0,76.0,243.0,319.0,15.0,890.0,888.0,15.0,7.0,8.0,0.4666666666666667,110.60610547443936,1672.280910640323,17.0,13.0,4.0,0.7647058823529411,887.0886837713692,7624.469033668722,24.0,11.0,13.0,0.4583333333333333,2169.67675793808,43797.79467158314,16.0,7.0,9.0,0.4375,857.9559998743932,13604.43877457694,75.0,39.0,36.0,0.52,59.76786424715659,6077.328698385956,0.0,0.0,0.0,0.0,95477.0,95492.0,95580.0,95595.0,95607.0,95630.0,95640.0,95656.0,95828.0,95899.0,0.06989587785399781,-0.17305318596734523,0.04883480091612877,-0.11686722050485196,0.010846076344959307
101,101,96301.80359924203,1682.4042400284727,18.164059392008937,96413.12330450072,-3392.465818147264,8.949852484816576,96439.2985174106,45589.27309718909,9.466822082322851,96467.87669549928,-6090.837633528404,6.244854414847359,96687.65746019685,6490.271495654721,34.956419805729205,0.9857375360882882,109.0,82.0,72.0,244.0,316.0,27.0,821.0,822.0,27.0,8.0,19.0,0.2962962962962963,82.20671813129125,2240.9593709119936,14.0,11.0,3.0,0.7857142857142857,854.8754961933057,8625.395337766839,25.0,12.0,13.0,0.48,2192.4366971666145,43811.98083219952,13.0,6.0,7.0,0.4615384615384615,881.5212925595865,12831.339526166248,81.0,49.0,32.0,0.6049382716049383,60.32521863685685,6998.872232378033,0.0,0.0,0.0,0.0,96294.0,96321.0,96403.0,96416.0,96428.0,96451.0,96462.0,96475.0,96640.0,96719.0,0.04886264321938466,-0.2519923683888968,0.04809106502954517,-0.14472907432420323,0.009294714200668644
102,102,97137.5881117674,1748.3155764341382,16.507635605222504,97249.54796540084,-3659.2784347286342,13.600842586328689,97275.39728720114,45911.46206093885,9.490491561395736,97303.45203459916,-7133.863174865982,6.186328320178506,97526.93144289729,5948.561173095118,29.997061836792813,0.9890661514551128,107.0,83.0,74.0,242.0,316.0,24.0,835.0,836.0,26.0,8.0,18.0,0.3076923076923077,86.04494145146477,2285.9137531119704,17.0,14.0,3.0,0.8235294117647058,899.2972296268083,9499.05342546308,24.0,11.0,13.0,0.4583333333333333,2194.647803128393,45226.90154217434,14.0,5.0,9.0,0.3571428571428571,1036.924545392351,15915.0365775408,72.0,44.0,28.0,0.6111111111111112,74.57371583931163,6231.415004069033,0.0,0.0,0.0,0.0,97131.0,97155.0,97238.0,97253.0,97264.0,97288.0,97298.0,97312.0,97484.0,97554.0,0.049215909651140845,-0.24575807653551748,0.04780174066805823,-0.14535245770421312,0.012536429174941124
103,103,97959.87157159497,791.5782841498549,2.285840060698385,98071.39728720114,-5833.466873566229,20.383723206912453,98096.39728720114,46415.16300529589,9.764457461028131,98126.740728253,-6495.333834636555,17.835757806048022,98342.73854394985,4372.956857417294,22.910204422411415,0.9758925890074202,84.0,77.0,95.0,237.0,332.0,7.0,821.0,821.0,7.0,4.0,3.0,0.5714285714285714,123.1759946550878,959.8009086344592,74.0,69.0,5.0,0.9324324324324323,947.4857740186058,7573.691472311037,24.0,11.0,13.0,0.4583333333333333,2152.671915416964,40624.41351263968,17.0,9.0,8.0,0.5294117647058824,726.8853484663066,13363.92938341733,61.0,31.0,30.0,0.5081967213114754,59.86818197039675,4791.3757642983455,0.0,0.0,0.0,0.0,97956.0,97963.0,98040.0,98076.0,98085.0,98108.0,98118.0,98135.0,98314.0,98372.0,0.15560810234628566,-0.16242241441569552,0.04637863525700314,-0.11190885133419463,0.013690549420548233
104,104,98762.24182897278,1316.5559023777455,11.479031316033144,98872.54796540084,-4659.5119893915535,15.050013016856427,98897.972626301,45382.78132789703,9.607159255415054,98927.87669549928,-6840.655233061018,5.920998751229251,99140.41895171104,5793.649355300709,31.200647136445003,0.9847361806867756,105.0,89.0,74.0,242.0,316.0,16.0,802.0,802.0,16.0,6.0,10.0,0.375,97.580868797324,1867.946156097644,17.0,14.0,3.0,0.8235294117647058,879.3075812776588,8495.837376405716,24.0,11.0,13.0,0.4583333333333333,2156.489461945117,45194.5675587329,14.0,7.0,7.0,0.5,872.2817596075012,13646.438399992358,79.0,40.0,39.0,0.5063291139240507,56.93270432629097,6146.748327106048,0.0,0.0,0.0,0.0,98756.0,98772.0,98861.0,98876.0,98888.0,98911.0,98922.0,98935.0,99104.0,99177.0,0.07411828743548951,-0.18871237659214182,0.04751778976180801,-0.12751435789246426,0.009826743186348042
105,105,99659.24272399548,1875.9932538342775,18.68408996993844,99770.12330450072,-3103.56838617405,11.04303516660154,99796.39728720114,45538.40652351702,9.448494932326703,99824.45203459916,-6601.031773655256,6.030657075924096,100039.53415569612,6205.670041710825,35.52490872470945,0.9906593038318716,108.0,84.0,74.0,245.0,319.0,24.0,898.0,898.0,24.0,8.0,16.0,0.3333333333333333,103.5330232461403,2711.017871448763,15.0,11.0,4.0,0.7333333333333333,776.6702235928313,8387.76111145819,24.0,11.0,13.0,0.4583333333333333,2192.287029919882,44768.499341455856,14.0,5.0,9.0,0.3571428571428571,1002.6976995521866,14952.33536951646,81.0,42.0,39.0,0.5185185185185185,61.80924145103639,7001.5490189479715,0.0,0.0,0.0,0.0,99651.0,99675.0,99759.0,99773.0,99785.0,99809.0,99819.0,99833.0,100001.0,100078.0,0.055188377162088804,-0.25025072012357946,0.04814149631669122,-0.15190014742149205,0.009960123731295963
106,106,100591.1435445898,1596.0060586748348,7.057386123984402,100698.54796540084,-4127.01272530542,15.28779240518434,100724.390383316,44360.561578380046,9.570791567351415,100753.45203459916,-6793.281358542185,7.510037435063912,100972.2327992967,5647.233053075083,30.989608254271243,0.9869776801623814,103.0,85.0,76.0,243.0,319.0,18.0,929.0,928.0,19.0,9.0,10.0,0.4736842105263157,112.40245417001412,1752.0070183099,19.0,15.0,4.0,0.7894736842105263,935.1438440456784,8830.171943036134,24.0,11.0,13.0,0.4583333333333333,2147.4152890348737,42693.83867158738,15.0,6.0,9.0,0.4,884.4486834278824,13793.309097013267,80.0,46.0,34.0,0.575,53.1839857121841,6013.437015804073,0.0,0.0,0.0,0.0,100583.0,100601.0,100686.0,100702.0,100713.0,100737.0,100747.0,100762.0,100930.0,101005.0,0.07042733550983007,-0.2265909766431537,0.04840820793579532,-0.13019461976438468,0.009417706903954295
107,107,101457.39042427985,1936.3860069520863,20.749526305389,101568.12330450072,-3051.9989365686974,11.741522158404251,101594.39728720114,46137.58489101416,9.500674281461553,101622.87669549928,-6304.0221300513585,5.52076080281627,101839.38347749642,6523.416567976345,35.68196153963177,0.9891536434661276,111.0,83.0,71.0,245.0,316.0,28.0,869.0,870.0,31.0,10.0,21.0,0.3225806451612903,90.94435007471884,2531.9548743335117,13.0,10.0,3.0,0.7692307692307693,777.7441554494346,8253.416788240796,24.0,11.0,13.0,0.4583333333333333,2194.942178678485,45733.260464269966,13.0,6.0,7.0,0.4615384615384615,940.0411041578816,13817.050659936349,82.0,45.0,37.0,0.5487804878048781,63.508951432391555,7321.069759610738,0.0,0.0,0.0,0.0,101448.0,101476.0,101559.0,101571.0,101583.0,101607.0,101617.0,101630.0,101798.0,101875.0,0.0469660231731726,-0.2548310702636866,0.047573842104292205,-0.14911767198225606,0.009735535170965317
108,108,102374.91292785232,1560.4250206803752,7.173582182806941,102482.12330450072,-5713.845221121297,12.739827004320285,102506.972626301,44008.30550095137,9.68254432691139,102536.89440893388,-7353.089345566896,6.769291241135153,102755.2327992967,5538.577539386902,29.41980873357483,0.98296582353951,104.0,87.0,74.0,243.0,317.0,17.0,915.0,913.0,19.0,9.0,10.0,0.4736842105263157,117.8528385256834,1577.316297158388,17.0,13.0,4.0,0.7647058823529411,886.8397693863812,7339.835966349941,23.0,10.0,13.0,0.4347826086956521,2156.7738263928554,44027.569655978106,16.0,7.0,9.0,0.4375,854.0110974804622,13726.844863880537,77.0,42.0,35.0,0.5454545454545454,56.667655742183705,5863.842131135414,0.0,0.0,0.0,0.0,102367.0,102384.0,102471.0,102485.0,102497.0,102520.0,102530.0,102545.0,102717.0,102788.0,0.07552611433665508,-0.1552089241248901,0.04900833608206592,-0.1161431688566843,0.010231445770903947
109,109,103243.92466227643,1837.241823594847,15.548210240580772,103353.12330450072,-3324.750868200379,11.397123462215362,103379.39728720114,45670.91604116021,9.540903163732816,103407.45203459916,-6240.349799437844,6.165937053911338,103621.19699365603,6049.503915728894,33.73989149630097,0.9913554606809488,108.0,85.0,73.0,243.0,316.0,23.0,871.0,872.0,23.0,9.0,14.0,0.391304347826087,113.50334955493176,2551.2062430748606,14.0,11.0,3.0,0.7857142857142857,799.4785923276738,8210.818803952527,24.0,11.0,13.0,0.4583333333333333,2194.7310958457574,44808.09010889556,14.0,5.0,9.0,0.3571428571428571,987.9297090858856,14676.351898886323,81.0,41.0,40.0,0.5061728395061729,69.21252434164647,6586.369517088768,0.0,0.0,0.0,0.0,103235.0,103258.0,103343.0,103356.0,103368.0,103392.0,103402.0,103416.0,103584.0,103659.0,0.0617792106064976,-0.24046270653669025,0.04805533337382131,-0.1583131941057026,0.011441024802329957
110,110,104129.7915170437,1573.6059521259183,16.501252772652062,104239.54796540084,-3736.605230061616,12.616300512271312,104265.39728720114,45427.463584984514,9.511573349694126,104293.45203459916,-6719.321672176365,6.474790359897885,104516.50678199712,6119.902838063992,31.29620648117264,0.988515813635932,107.0,81.0,74.0,243.0,317.0,26.0,886.0,886.0,26.0,9.0,17.0,0.3461538461538461,80.71579724430951,2147.380307311878,18.0,15.0,3.0,0.8333333333333334,909.8947613867656,9595.243760025542,24.0,11.0,13.0,0.4583333333333333,2201.1764487793407,44365.74714755993,14.0,5.0,9.0,0.3571428571428571,1001.2073550187972,15270.756999657977,75.0,46.0,29.0,0.6133333333333333,67.00965806588083,6546.640651677714,0.0,0.0,0.0,0.0,104121.0,104147.0,104228.0,104243.0,104254.0,104278.0,104288.0,104302.0,104473.0,104545.0,0.05129352563471412,-0.24350840010245384,0.04845475126872178,-0.14900423046639313,0.01094946436879692
111,111,104969.39269712316,1189.3750942309998,5.422534936524753,105077.972626301,-5230.900810268281,16.22101864005753,105102.972626301,44873.641107538526,9.615794602498118,105132.83866338244,-7185.843330935608,6.793924608715271,105346.38347749642,5343.362127847526,30.371530961884226,0.9841897383077984,101.0,91.0,77.0,241.0,318.0,10.0,839.0,838.0,10.0,6.0,4.0,0.6,118.24279296892676,1385.5313021417671,20.0,15.0,5.0,0.75,908.2757090935024,7887.031688882029,24.0,11.0,13.0,0.4583333333333333,2183.2429947142145,43592.02490614832,16.0,7.0,9.0,0.4375,841.0442505320035,13401.1029822684,79.0,41.0,38.0,0.5189873417721519,59.75910613469705,5817.448181032756,0.0,0.0,0.0,0.0,104963.0,104973.0,105064.0,105082.0,105093.0,105116.0,105126.0,105141.0,105310.0,105382.0,0.09941589793031408,-0.17363657657406795,0.04865312777900347,-0.1170418295805648,0.011183802389745555
112,112,105794.463834226,1765.5752262833266,17.162564740971376,105905.12330450072,-3861.920685850197,12.467749776961451,105930.39728720114,46324.655049696594,9.604465872752051,105958.61535976783,-6395.346868018904,5.498115760592582,106176.2327992967,6200.304644616314,33.917360039684894,0.988282698887423,107.0,82.0,73.0,242.0,315.0,25.0,826.0,827.0,25.0,7.0,18.0,0.28,96.065316181617,2501.6351783025884,15.0,12.0,3.0,0.8,880.4518358814297,9400.4479411853,24.0,11.0,13.0,0.4583333333333333,2195.0889651600964,46605.96045136901,13.0,5.0,8.0,0.3846153846153846,960.2904880939616,14141.462420540658,79.0,44.0,35.0,0.5569620253164557,64.52710896528339,6957.408555000035,0.0,0.0,0.0,0.0,105787.0,105812.0,105894.0,105908.0,105919.0,105943.0,105954.0,105967.0,106134.0,106209.0,0.05441020849836117,-0.22798288921555088,0.04738489607327304,-0.150154558917839,0.01040708685520991
113,113,106665.88700553632,1467.0188722485611,5.812179809238288,106773.972626301,-5215.220133176405,15.91255511666272,106798.972626301,45097.217471149415,9.568810284039117,106828.70712622083,-7330.805416624898,6.58118222646882,107045.2327992967,5460.8747117035755,29.25773505479216,0.9840171268083008,102.0,89.0,76.0,241.0,317.0,13.0,869.0,869.0,15.0,8.0,7.0,0.5333333333333333,110.89350491187432,1694.3549080284097,25.0,21.0,4.0,0.84,869.9841802017927,7821.646272744276,24.0,11.0,13.0,0.4583333333333333,2179.819215246297,44120.939491772224,15.0,7.0,8.0,0.4666666666666667,848.6287654783198,13656.175910075674,77.0,42.0,35.0,0.5454545454545454,70.24573122387004,6049.241290661186,0.0,0.0,0.0,0.0,106659.0,106672.0,106761.0,106778.0,106789.0,106812.0,106822.0,106837.0,107008.0,107078.0,0.07559105544559437,-0.1668163870336795,0.04833600247378497,-0.11576200939037179,0.012863457766815559
114,114,107495.86831510405,1352.6460348350802,5.78162252922026,107605.972626301,-5914.609038396555,14.999118823882773,107629.972626301,45121.84864006685,9.649408965939609,107659.76981294555,-7124.428262722959,6.564391343831459,107873.51992485618,5449.6003038094195,28.91796703035752,0.9816675122788544,103.0,87.0,77.0,240.0,317.0,16.0,831.0,831.0,16.0,8.0,8.0,0.5,97.52310885943888,1521.2438706656928,37.0,32.0,5.0,0.8648648648648649,979.2135481585368,9677.249780049182,23.0,10.0,13.0,0.4347826086956521,2184.12183867922,44671.174331008835,15.0,7.0,8.0,0.4666666666666667,845.0363261270647,13551.39653283573,74.0,38.0,36.0,0.5135135135135135,56.85321620434873,5870.615377596208,0.0,0.0,0.0,0.0,107488.0,107504.0,107591.0,107610.0,107620.0,107643.0,107653.0,107668.0,107837.0,107908.0,0.07209802590470704,-0.16555845733871208,0.04840497241373629,-0.11861110744121545,0.010432547899816944
115,115,108329.01178441755,1858.085205957182,16.319270330507283,108439.12330450072,-3579.9923960543533,11.363801038056478,108465.39728720114,46144.66265640603,9.527379729522746,108492.96359947952,-6315.948267716031,5.578722774390007,108708.38347749642,6208.246671091695,35.24482481017548,0.989453898420051,107.0,86.0,72.0,243.0,315.0,21.0,834.0,835.0,21.0,7.0,14.0,0.3333333333333333,107.8041149239854,2608.212900129024,14.0,10.0,4.0,0.7142857142857143,806.8610895004111,7812.364877871792,24.0,11.0,13.0,0.4583333333333333,2216.5418860377927,45797.811676212,13.0,5.0,8.0,0.3846153846153846,1014.27807214823,14958.394343389424,78.0,40.0,38.0,0.5128205128205128,68.53844944408416,6971.196560400278,0.0,0.0,0.0,0.0,108322.0,108343.0,108429.0,108442.0,108454.0,108478.0,108488.0,108501.0,108671.0,108744.0,0.058018929690821536,-0.22538067130804065,0.0480346319257376,-0.1605899904742273,0.011039904352259244
116,116,109197.9222060621,1572.5951708051218,13.214169461506527,109306.54796540084,-4025.869475278661,11.457262030572224,109332.39728720114,44420.26978750878,9.463316919137704,109361.45203459916,-6590.293791252208,6.880615681203861,109573.7279786112,5450.476872024085,32.991397111196875,0.9895753825061774,106.0,85.0,74.0,242.0,316.0,21.0,868.0,867.0,21.0,8.0,13.0,0.3809523809523809,104.06529489961208,2149.014055268356,16.0,12.0,4.0,0.75,919.6488166892408,8950.661316891812,24.0,11.0,13.0,0.4583333333333333,2182.6711030317792,43504.16127441115,15.0,6.0,9.0,0.4,886.3417906282062,13474.666037331506,85.0,45.0,40.0,0.5294117647058824,65.59732087052089,5946.227560689136,0.0,0.0,0.0,0.0,109190.0,109211.0,109296.0,109310.0,109321.0,109345.0,109355.0,109370.0,109537.0,109612.0,0.06617424295302507,-0.22843483186339142,0.049136826801658866,-0.13449199970488634,0.012035152595035362
117,117,110003.95123534968,1451.0162014875552,9.037535301510449,110113.12330450072,-3838.9925105361226,12.73982700431768,110139.1796973664,45168.361944514,9.543919603356573,110167.45203459916,-6455.755874077118,7.207502189911522,110386.082121097,5944.933365487162,29.88172679152011,0.9880740694283846,104.0,89.0,76.0,240.0,316.0,15.0,806.0,807.0,19.0,8.0,11.0,0.4210526315789473,111.59936410460313,1762.3517355933848,19.0,15.0,4.0,0.7894736842105263,836.5625055779153,8201.07503559145,24.0,11.0,13.0,0.4583333333333333,2182.535377176537,43115.09330364487,15.0,6.0,9.0,0.4,939.3430756940804,14477.96751985123,77.0,46.0,31.0,0.5974025974025974,67.42139491934786,6293.381898905662,0.0,0.0,0.0,0.0,109996.0,110011.0,110100.0,110116.0,110128.0,110151.0,110162.0,110176.0,110344.0,110416.0,0.07691117713929968,-0.21791199208697798,0.04832000283423209,-0.145504739339042,0.011340984124524828
118,118,110860.96206463012,1930.035782411774,19.689155248118983,110971.12330450072,-3392.82856086608,10.980402899359945,110997.39728720114,45855.37769668794,9.496597535101628,111025.074820742,-6673.724268777204,5.738350734489573,111239.95881659626,6263.023410522605,35.16418351544919,0.9905155999758936,108.0,80.0,72.0,244.0,316.0,28.0,859.0,858.0,28.0,8.0,20.0,0.2857142857142857,96.79030037733696,2755.4798710375917,14.0,10.0,4.0,0.7142857142857143,791.2252776063638,7959.814874852794,24.0,11.0,13.0,0.4583333333333333,2200.9304652115725,45473.47602689019,13.0,5.0,8.0,0.3846153846153846,1030.9304399603532,15194.86045335753,83.0,43.0,40.0,0.5180722891566265,65.2437089372319,7082.49388021221,0.0,0.0,0.0,0.0,110853.0,110881.0,110961.0,110974.0,110986.0,111010.0,111020.0,111033.0,111201.0,111277.0,0.05014948492633009,-0.23320520427486305,0.0479972159376749,-0.15447603143922603,0.010417286454273013
119,119,111708.3849332449,1434.2918963740956,6.84502061489202,111816.54796540084,-5154.598022631654,15.28779240518434,111841.972626301,44316.13184226057,9.56616449274779,111871.87901730444,-7335.23388418843,6.962048285094182,112085.80813839656,5254.731445588804,30.31125847113681,0.984429204097672,105.0,88.0,76.0,239.0,315.0,17.0,846.0,845.0,17.0,8.0,9.0,0.4705882352941176,100.66479287700582,1544.1045593259605,18.0,14.0,4.0,0.7777777777777778,913.3652415082676,7586.428539810808,24.0,11.0,13.0,0.4583333333333333,2177.038985489972,43284.046648539486,16.0,7.0,9.0,0.4375,832.0544583078498,13264.59757726631,74.0,38.0,36.0,0.5135135135135135,57.677161574927865,5846.765518564814,0.0,0.0,0.0,0.0,111700.0,111717.0,111805.0,111820.0,111832.0,111855.0,111865.0,111881.0,112051.0,112120.0,0.07018431403781018,-0.17719427150246597,0.04912520328351206,-0.11343257371811918,0.010976233927872031
120,120,112501.9788988943,1521.1963743517867,8.523469487514426,112611.12330450072,-4138.258717656354,12.739827004320128,112637.31630084851,45352.26838078798,9.537087583209717,112665.45203459916,-6800.458241785073,6.97652482942221,112880.2327992967,5756.732937265382,28.966405560232396,0.989016319109102,107.0,89.0,74.0,239.0,313.0,18.0,793.0,795.0,20.0,9.0,11.0,0.45,106.96152773538311,1695.18766208364,16.0,12.0,4.0,0.75,851.7141387812758,7494.275394204389,24.0,11.0,13.0,0.4583333333333333,2194.1950707146334,43794.03182092341,14.0,5.0,9.0,0.3571428571428571,968.8295843851812,15130.388476077886,75.0,40.0,35.0,0.5333333333333333,66.13782099607076,6230.1672732714305,0.0,0.0,0.0,0.0,112493.0,112511.0,112600.0,112614.0,112626.0,112649.0,112660.0,112674.0,112846.0,112913.0,0.07031408274356533,-0.20581461839187096,0.0483811537780574,-0.1424653383550327,0.01148877700543256
121,121,113333.74485171169,1852.320155239236,16.447127878756447,113442.12330450072,-4263.05581167344,12.739827004320285,113467.972626301,45791.781691655226,9.579152438943884,113497.1398077242,-6547.552439900101,5.448796944880433,113714.80813839656,6093.959144851167,34.55202456291072,0.9839152587408068,109.0,84.0,72.0,244.0,316.0,25.0,832.0,831.0,26.0,10.0,16.0,0.3846153846153846,104.20357669823508,2491.353169307896,14.0,10.0,4.0,0.7142857142857143,757.3097626652542,7195.560372369725,24.0,11.0,13.0,0.4583333333333333,2198.2148430014076,46186.23846616293,14.0,6.0,8.0,0.4285714285714285,949.7077654294797,14198.416972284524,82.0,47.0,35.0,0.573170731707317,64.03953077674859,6738.718751148308,0.0,0.0,0.0,0.0,113324.0,113349.0,113433.0,113445.0,113458.0,113481.0,113492.0,113505.0,113671.0,113749.0,0.056255705258887435,-0.17764481539076454,0.04800457116526643,-0.14504775244594603,0.010508690533453293
122,122,114182.92531331198,1479.485734019789,4.523668654448744,114293.39728720114,-4535.41670941197,20.383723206912453,114318.39728720108,45252.19849319521,9.564840752737805,114347.45203459916,-7035.335615478363,8.284955930222786,114562.61614341452,5231.547483565799,27.73874420119837,0.985632350028258,103.0,93.0,76.0,239.0,315.0,10.0,850.0,850.0,10.0,6.0,4.0,0.6,137.50422158335368,1675.9277333733862,20.0,15.0,5.0,0.75,951.432338444787,8087.413126979971,24.0,11.0,13.0,0.4583333333333333,2164.8179948736724,42056.633760356795,16.0,7.0,9.0,0.4375,885.8741314004054,14162.312977558437,71.0,37.0,34.0,0.5211267605633803,65.22100719690111,5758.372096864907,0.0,0.0,0.0,0.0,114177.0,114187.0,114280.0,114298.0,114307.0,114331.0,114340.0,114356.0,114533.0,114595.0,0.09294055253223177,-0.20977837305894279,0.0478389573757219,-0.12591782109888314,0.01246686709846066
123,123,115040.09468312672,1613.868597899419,14.95133050502518,115150.12330450072,-4819.054674368631,12.739827004320285,115174.972626301,45646.25784796361,9.668821468032212,115204.87669549928,-6564.047583670466,5.455440944495385,115417.53415569612,6116.3748714775975,34.39053402314887,0.9834856869102766,108.0,86.0,72.0,244.0,316.0,22.0,857.0,857.0,22.0,8.0,14.0,0.3636363636363636,105.68409743228705,2266.870384609091,14.0,11.0,3.0,0.7857142857142857,846.4952270297913,8518.763464404521,24.0,10.0,14.0,0.4166666666666667,2175.500628677403,46405.46975995692,13.0,6.0,7.0,0.4615384615384615,893.7764769901127,13372.165752807045,82.0,43.0,39.0,0.524390243902439,55.30739909245513,6625.082954057687,0.0,0.0,0.0,0.0,115032.0,115054.0,115140.0,115153.0,115165.0,115188.0,115199.0,115212.0,115379.0,115456.0,0.06548494565780849,-0.1756558670172579,0.047659999554036984,-0.13616240065254573,0.009042512967995032
124,124,115931.32030632514,1558.02352579957,13.130347279344564,116039.54796540084,-4675.709398403775,14.061176066802837,116064.972626301,45193.409426702165,9.560230307250562,116094.45203459916,-6793.517327329627,6.002304923189266,116318.93144289729,5760.890479527619,31.77832670595065,0.981247237860318,105.0,86.0,74.0,243.0,317.0,19.0,891.0,890.0,19.0,7.0,12.0,0.3684210526315789,110.97277837939454,2269.079308042742,16.0,12.0,4.0,0.75,872.961870784811,8273.398884357304,24.0,11.0,13.0,0.4583333333333333,2182.1356564385346,45066.133605507246,15.0,6.0,9.0,0.4,931.580818424718,14286.333250632597,78.0,50.0,28.0,0.6410256410256411,80.42136478515337,5945.535065478682,0.0,0.0,0.0,0.0,115924.0,115943.0,116029.0,116043.0,116055.0,116078.0,116088.0,116103.0,116272.0,116346.0,0.07122663845685119,-0.18670148129454509,0.04828437783561506,-0.13712790790671328,0.01395988433922593
125,125,116769.9154316284,1709.803791136848,9.36195903179008,116876.54796540084,-3949.573477568123,14.340600175255114,116902.39728720114,45036.43318328675,9.525969271258456,116931.87669549928,-6398.578958416741,6.624008227178755,117145.80813839656,5703.9472486708855,32.53771442458325,0.9883329986743562,105.0,85.0,74.0,241.0,315.0,20.0,836.0,837.0,21.0,10.0,11.0,0.4761904761904761,113.8795963371348,1925.8531753209468,17.0,14.0,3.0,0.8235294117647058,912.17086096432,8993.649328513238,24.0,11.0,13.0,0.4583333333333333,2163.04243596327,43919.45895769105,15.0,7.0,8.0,0.4666666666666667,830.5983622778991,12591.477282022885,77.0,41.0,36.0,0.5324675324675324,61.34219514291135,6335.040194629708,0.0,0.0,0.0,0.0,116760.0,116780.0,116865.0,116880.0,116891.0,116915.0,116925.0,116939.0,117109.0,117180.0,0.06660389743399521,-0.23095427041554178,0.04802872436989495,-0.12980981678522907,0.010754341242760458
126,126,117576.24475832014,2085.280295467983,22.93168860777651,117688.12330450072,-3158.698811405656,10.896363370255576,117714.39728720114,46194.060559129495,9.473368162590688,117742.87669549928,-6145.595694837031,5.372747629060202,117953.13804230557,6224.261205165535,36.664674300923735,0.9900556556182162,110.0,84.0,70.0,242.0,312.0,26.0,812.0,812.0,30.0,8.0,22.0,0.2666666666666666,95.44553560405038,2650.2659333837046,12.0,9.0,3.0,0.75,787.2345702720224,7964.465245577732,24.0,11.0,13.0,0.4583333333333333,2216.4664116933977,45892.9079913133,13.0,6.0,7.0,0.4615384615384615,929.2695463617096,13486.162740470354,89.0,46.0,43.0,0.5168539325842697,64.52771104876744,6645.222284857505,0.0,0.0,0.0,0.0,117570.0,117596.0,117680.0,117691.0,117703.0,117727.0,117737.0,117750.0,117917.0,117992.0,0.045771082099363675,-0.2492274880496423,0.047981631942839664,-0.15120902716434748,0.010367127747661952
127,127,118421.7371034566,1861.6583711060616,10.343570675573622,118528.54796540084,-3703.78719225515,13.2969241932704,118554.39728720114,45174.517495664855,9.463652809100426,118583.87669549928,-6720.496660569353,6.628619082361195,118802.65746019685,5858.782925564545,34.86277117725366,0.9891069316620472,106.0,85.0,73.0,243.0,316.0,21.0,840.0,840.0,22.0,10.0,12.0,0.4545454545454545,125.10541202800842,2031.935017298225,16.0,13.0,3.0,0.8125,906.3659493764512,9214.836379276434,24.0,11.0,13.0,0.4583333333333333,2177.379760683672,44164.061701527826,15.0,7.0,8.0,0.4666666666666667,840.9693881789317,12849.07121432571,79.0,48.0,31.0,0.6075949367088608,67.351768158217,6511.3845360032,0.0,0.0,0.0,0.0,118412.0,118433.0,118518.0,118532.0,118543.0,118567.0,118577.0,118591.0,118755.0,118834.0,0.0672010579221793,-0.24471329002695374,0.04819929202105198,-0.12513500573746075,0.011495863392434372
128,128,119217.69864360055,1544.68612473048,6.066432833251663,119326.972626301,-4120.784148968526,17.8357578060484,119353.22649162576,44987.46761313186,9.59897188036726,119382.45203459916,-6754.008158075511,7.7152206099311185,119598.65746019685,5373.1676402857765,28.89048293031056,0.9862620673911168,103.0,86.0,76.0,239.0,315.0,17.0,797.0,799.0,19.0,7.0,12.0,0.3684210526315789,128.59381579717743,1750.588019556587,18.0,13.0,5.0,0.7222222222222222,860.4279302538591,7078.640895675329,24.0,11.0,13.0,0.4583333333333333,2143.2603649686007,42175.96847309445,16.0,7.0,9.0,0.4375,873.4164680657299,13736.87999627489,74.0,42.0,32.0,0.5675675675675675,67.97298507394183,5897.53480610322,0.0,0.0,0.0,0.0,119212.0,119229.0,119315.0,119331.0,119342.0,119365.0,119376.0,119391.0,119559.0,119630.0,0.08324915575946844,-0.20880198990020696,0.04764127608603117,-0.1293182429786406,0.012650449348408312
129,129,119993.25964587583,1578.7267923675577,13.099474977722268,120103.12330450072,-3638.3023312389696,12.181799330982944,120129.39167393102,45765.08623358247,9.505867723652912,120157.87669549928,-6591.249348799026,6.389136949685886,120374.082121097,6029.110429006507,30.097811911992753,0.9892711702914871,106.0,83.0,74.0,239.0,313.0,23.0,776.0,776.0,23.0,8.0,15.0,0.3478260869565217,105.68272722944008,2186.5754666591274,17.0,13.0,4.0,0.7647058823529411,826.2805665637246,8122.7273403408035,24.0,11.0,13.0,0.4583333333333333,2196.205332464748,44552.65099325537,13.0,6.0,7.0,0.4615384615384615,929.3466588132862,14063.729210731704,74.0,43.0,31.0,0.581081081081081,64.26483491910567,6452.601284725733,0.0,0.0,0.0,0.0,119985.0,120008.0,120091.0,120106.0,120118.0,120142.0,120152.0,120165.0,120334.0,120404.0,0.06694174555114228,-0.2271060762238379,0.04798866369999692,-0.14099704162802157,0.01065909070265535
130,130,120781.972626301,1923.537983597981,10.876546778274706,120891.54796540084,-5526.270726203271,13.844098058986704,120915.972626301,45260.36125895189,9.687403444597932,120946.87669549928,-6797.038594515032,6.275624385113218,121159.80813839656,5410.161173125996,31.91623503499681,0.9832740293073238,108.0,86.0,74.0,240.0,314.0,22.0,787.0,787.0,24.0,11.0,13.0,0.4583333333333333,130.33651846604627,1966.20785723152,17.0,14.0,3.0,0.8235294117647058,972.3290117105004,9846.196922330884,24.0,10.0,14.0,0.4166666666666667,2168.172033732078,45773.688637431726,14.0,7.0,7.0,0.5,800.6308815581938,12769.81046824561,79.0,44.0,35.0,0.5569620253164557,52.01164975059246,5953.58269431235,0.0,0.0,0.0,0.0,120772.0,120794.0,120880.0,120895.0,120906.0,120929.0,120940.0,120954.0,121119.0,121194.0,0.06775874434371791,-0.17594668446120848,0.04790443499394833,-0.11779113365698327,0.009613696909613523
131,131,121549.69864360055,1516.9693707421882,6.760643497125495,121659.54796540084,-5412.354714787625,15.28779240518434,121684.972626301,44707.53385831247,9.730417967337996,121714.79249595874,-6876.985476607392,6.553988989261322,121925.29520301156,5119.439540246734,30.15576123602016,0.9836041758954528,102.0,86.0,77.0,238.0,315.0,16.0,769.0,769.0,18.0,7.0,11.0,0.3888888888888889,119.7434835761399,1469.7749889151212,29.0,24.0,5.0,0.8275862068965517,899.7457296125048,8132.234865693894,24.0,11.0,13.0,0.4583333333333333,2152.064743363171,43971.49779502678,15.0,7.0,8.0,0.4666666666666667,847.2442952582426,13427.375964178878,73.0,36.0,37.0,0.4931506849315068,59.98099642051514,5698.484238228627,0.0,0.0,0.0,0.0,121544.0,121560.0,121646.0,121663.0,121675.0,121698.0,121708.0,121723.0,121891.0,121961.0,0.07893599296441597,-0.16623923911605815,0.04813651207386018,-0.12319995412818753,0.011716320888052585
132,132,122314.94764308084,1906.7454194886925,15.909072183186682,122426.12330450072,-3463.488197820671,12.26386812992038,122452.39728720114,45819.841121838326,9.548020437484396,122480.87669549928,-6391.466730982899,5.822124895741644,122690.20580677188,5880.585971592815,34.234618861494326,0.991085509864087,110.0,86.0,73.0,240.0,313.0,24.0,766.0,767.0,24.0,10.0,14.0,0.4166666666666667,114.23543206317396,2612.441458855441,17.0,13.0,4.0,0.7647058823529411,805.8144977867585,8168.693399380041,24.0,11.0,13.0,0.4583333333333333,2192.290451058175,44934.12448998363,13.0,6.0,7.0,0.4615384615384615,926.5229579534994,13960.875650149625,82.0,42.0,40.0,0.5121951219512195,67.87117728574643,6579.061947888584,0.0,0.0,0.0,0.0,122305.0,122329.0,122415.0,122429.0,122441.0,122465.0,122475.0,122488.0,122651.0,122728.0,0.05991121357659116,-0.23265980761643731,0.04784587631433976,-0.144962494048845,0.011541567050224221
133,133,123155.972626301,1639.8602481891962,11.133551304997228,123266.12330450072,-5377.903795358414,12.739827004320285,123290.972626301,44438.55449728477,9.684038152324154,123320.74469896517,-7065.970959757817,6.17373969374841,123535.13284622708,5318.192478498776,29.39317449379952,0.984643823859807,108.0,85.0,75.0,240.0,315.0,23.0,839.0,839.0,24.0,10.0,14.0,0.4166666666666667,102.06942445050409,1854.6780476199017,25.0,21.0,4.0,0.84,845.1106165192438,8087.960383703393,23.0,10.0,13.0,0.4347826086956521,2167.1883256690976,44764.929301397584,15.0,7.0,8.0,0.4666666666666667,871.8572928093857,13413.778375743444,72.0,37.0,35.0,0.5138888888888888,67.30114345463626,5930.568214447252,0.0,0.0,0.0,0.0,123146.0,123169.0,123254.0,123269.0,123281.0,123304.0,123315.0,123329.0,123500.0,123569.0,0.062242757919898056,-0.15714498597922963,0.04876820027531531,-0.12338817945542027,0.01265489049648577
134,134,123981.8571212012,1299.6888820559357,4.3742123763861365,124093.39728720114,-5558.768726748212,16.529711332972006,124117.972626301,44895.37193301655,9.685707770560269,124147.94537143275,-6843.790248616818,6.753112263067463,124366.35610379744,5077.68513181865,25.24842964363933,0.9814321308197508,92.0,82.0,88.0,236.0,324.0,10.0,828.0,827.0,10.0,6.0,4.0,0.6,115.48892824805962,1400.8449206694422,34.0,29.0,5.0,0.8529411764705882,873.7988192932899,7871.15808581413,24.0,11.0,13.0,0.4583333333333333,2142.142942615765,43807.37839258285,15.0,7.0,8.0,0.4666666666666667,838.7268882007323,13388.74410991909,59.0,33.0,26.0,0.559322033898305,63.33295724477474,5565.224892523643,0.0,0.0,0.0,0.0,123976.0,123986.0,124068.0,124098.0,124108.0,124131.0,124141.0,124156.0,124333.0,124392.0,0.0888589029594309,-0.1571928717035234,0.04771411507207962,-0.1225529798155701,0.012472801207760412
135,135,124836.33904749704,1933.827324569918,18.97946417896711,124947.69864360055,-3582.3194719460057,10.191861603456228,124973.39728720114,45734.26835029008,9.615199409798771,125001.87669549928,-6087.319732104901,5.2646342903058025,125215.38347749642,6104.614805643836,36.888778584748614,0.9884595088871222,111.0,84.0,71.0,242.0,313.0,27.0,857.0,855.0,28.0,9.0,19.0,0.3214285714285714,86.87662462781337,2512.887612014575,13.0,11.0,2.0,0.8461538461538461,884.4465837905846,9713.47096593296,24.0,11.0,13.0,0.4583333333333333,2178.3388129790737,46044.449604740046,12.0,5.0,7.0,0.4166666666666667,949.3036247093808,13825.260448150788,86.0,47.0,39.0,0.5465116279069767,70.54625396766548,6943.8940860389175,0.0,0.0,0.0,0.0,124827.0,124854.0,124938.0,124950.0,124962.0,124986.0,124997.0,125009.0,125173.0,125251.0,0.04492470631892363,-0.2468921576416888,0.047630341351361245,-0.15594771861624004,0.011556217093737688
