Unnamed: 0,cycle,p_center,p_height,p_width,q_center,q_height,q_width,r_center,r_height,r_width,s_center,s_height,s_width,t_center,t_height,t_width,r_squared,pr_interval,pr_segment,qrs_duration,st_segment,qt_interval,p_duration,pp_interval,rr_interval,fwhm_p,rise_time_p,decay_time_p,rise_decay_symmetry_p,sharpness_deriv_p,sharpness_diff_p,fwhm_q,rise_time_q,decay_time_q,rise_decay_symmetry_q,sharpness_deriv_q,sharpness_diff_q,fwhm_r,rise_time_r,decay_time_r,rise_decay_symmetry_r,sharpness_deriv_r,sharpness_diff_r,fwhm_s,rise_time_s,decay_time_s,rise_decay_symmetry_s,sharpness_deriv_s,sharpness_diff_s,fwhm_t,rise_time_t,decay_time_t,rise_decay_symmetry_t,sharpness_deriv_t,sharpness_diff_t,Average_Heart_Rate,SDNN,RMSSD,NN50,p_on,p_off,q_on,q_off,r_on,r_off,s_on,s_off,t_on,t_off,sharpness_deriv_p_norm,sharpness_deriv_q_norm,sharpness_deriv_r_norm,sharpness_deriv_s_norm,sharpness_deriv_t_norm
0,0,0.0,0.0,0.0,0.0,0.0,0.0,0.0,0.0,0.0,0.0,0.0,0.0,0.0,0.0,0.0,0.0,0.0,0.0,0.0,0.0,0.0,0.0,0.0,0.0,0.0,0.0,0.0,0.0,0.0,0.0,0.0,0.0,0.0,0.0,0.0,0.0,0.0,0.0,0.0,0.0,0.0,0.0,0.0,0.0,0.0,0.0,0.0,0.0,0.0,0.0,0.0,0.0,0.0,0.0,70.52250002140623,317.7491332563183,513.1057405662151,505.0,,,,,,,,,,,,,,,
1,1,1686.4120047659694,2365.7896671486674,16.755892770184754,1828.094786211013,-5006.025176861838,7.86934260080019,1852.1513005164936,39813.01552586608,9.27402346107547,1934.726017299568,-303.9704427478781,3.018193616223353,2094.2279665029178,9158.782014202588,33.36449758530827,0.9855358006699242,143.0,114.0,122.0,195.0,317.0,29.0,,,29.0,12.0,17.0,0.4137931034482758,108.7685718119954,2929.706530364114,15.0,12.0,3.0,0.8,1047.39405273702,8394.317247527588,22.0,11.0,11.0,0.5,2040.986010853559,42242.743626994044,10.0,6.0,4.0,0.6,51.81810270083185,278.7877834225444,81.0,40.0,41.0,0.4938271604938271,80.98187105678595,9608.553179157325,0.0,0.0,0.0,0.0,1674.0,1703.0,1817.0,1831.0,1841.0,1863.0,1929.0,1939.0,2056.0,2134.0,0.04597558832991569,-0.20922668499114647,0.051264290933389675,-0.17047085970727519,0.008841991318409674
2,2,2556.496924464545,1931.623494627847,11.81817459086942,2694.12330450072,-5359.057206686005,10.463590091900022,2717.188529350482,39916.17493378832,9.13833882215794,2806.14145933958,-1658.750667460015,27.21006492845077,2958.492679677683,8107.891756066837,29.94299968276688,0.9846305930703264,137.0,111.0,162.0,154.0,316.0,26.0,867.0,865.0,27.0,13.0,14.0,0.4814814814814814,92.7336478305146,1981.9245365068832,17.0,14.0,3.0,0.8235294117647058,1086.9458702804532,8847.027082013257,21.0,10.0,11.0,0.4761904761904761,2055.308869583123,42318.37834892397,79.0,41.0,38.0,0.5189873417721519,42.95755323506823,1296.7299003522146,82.0,42.0,40.0,0.5121951219512195,62.81725170337031,8348.804518134468,0.0,0.0,0.0,0.0,2544.0,2570.0,2681.0,2697.0,2707.0,2728.0,2767.0,2843.0,2920.0,2997.0,0.04800813827768282,-0.20282408422966083,0.051490626869744,-0.025897534860285894,0.007747667777676789
3,3,3472.602712798848,1964.8298477902763,14.763771577749225,3612.12330450072,-5440.7511846535745,10.4677165649652,3635.123970079234,39425.19172679652,9.155971022699646,3712.054747397984,-1420.9016005908488,16.143404897378225,3875.684833895824,8722.411103949771,36.92093753092154,0.9777402849754036,136.0,115.0,133.0,185.0,318.0,21.0,922.0,917.0,25.0,12.0,13.0,0.48,116.9122300044589,2074.9306200432356,17.0,14.0,3.0,0.8235294117647058,1087.798854204501,8734.598075189937,21.0,10.0,11.0,0.4761904761904761,2029.499813407695,41859.96748058616,49.0,27.0,22.0,0.5510204081632653,42.24648642822373,1066.2411282994274,102.0,59.0,43.0,0.5784313725490197,94.80829958428065,9387.216196952322,0.0,0.0,0.0,0.0,3463.0,3484.0,3599.0,3615.0,3625.0,3646.0,3686.0,3732.0,3820.0,3917.0,0.059502470473941,-0.19993541650513166,0.05147723383240479,-0.029732168934609206,0.010869505971960963
4,4,0.0,0.0,0.0,0.0,0.0,0.0,0.0,0.0,0.0,0.0,0.0,0.0,0.0,0.0,0.0,0.0,0.0,0.0,0.0,0.0,0.0,0.0,0.0,0.0,0.0,0.0,0.0,0.0,0.0,0.0,0.0,0.0,0.0,0.0,0.0,0.0,0.0,0.0,0.0,0.0,0.0,0.0,0.0,0.0,0.0,0.0,0.0,0.0,0.0,0.0,0.0,0.0,0.0,0.0,0.0,0.0,0.0,0.0,,4141.0,4509.0,4526.0,4536.0,4557.0,4587.0,4673.0,4751.0,4825.0,,,,,
5,5,5270.587831434641,1577.7901429892486,7.813026122294046,5410.1233045006275,-5403.872555454074,9.450332210305602,5434.237296683838,39412.57222740133,9.234662550666,5515.4520345992305,-756.6859093589313,15.287792400354569,5674.937852312789,8636.612177780484,32.4331719622423,0.9775424088593642,137.0,117.0,126.0,191.0,317.0,20.0,1795.0,1800.0,20.0,10.0,10.0,0.5,98.49024295644908,1660.0604761214968,16.0,12.0,4.0,0.75,1037.3265242993934,7398.906802910649,22.0,11.0,11.0,0.5,2047.845820853,42043.94268081279,22.0,13.0,9.0,0.5909090909090909,47.886262575157,789.7237928082134,82.0,41.0,41.0,0.5,66.2842811430681,8758.24232645476,0.0,0.0,0.0,0.0,5261.0,5281.0,5398.0,5413.0,5423.0,5445.0,5502.0,5524.0,5636.0,5715.0,0.06242290420819305,-0.1919598424378884,0.05195920248588212,-0.06328420019837097,0.007674801157981652
6,6,6162.575674182867,1497.2091708986034,8.33542811095026,6302.123304500719,-5222.1186523037395,9.970975000256548,6325.8239313134145,39884.29485634255,9.21444824754075,6404.178051898705,-943.2891395216816,16.55131200546202,6572.808138396545,7932.038948852357,34.059352793284376,0.9626916511626716,138.0,119.0,127.0,190.0,317.0,19.0,891.0,891.0,19.0,11.0,8.0,0.5789473684210527,97.82701346752424,1786.6772590497123,16.0,13.0,3.0,0.8125,1042.847550861939,8178.609553664386,22.0,11.0,11.0,0.5,2032.4473144299425,41895.14896822701,45.0,26.0,19.0,0.5777777777777777,56.80771987153651,775.4750592056048,99.0,65.0,34.0,0.6565656565656566,75.57500674371353,8360.06691150664,0.0,0.0,0.0,0.0,6152.0,6171.0,6290.0,6305.0,6315.0,6337.0,6378.0,6417.0,6509.0,6607.0,0.06533957670644636,-0.19969817238868873,0.050958587126850884,-0.060223019105618336,0.009527815890849611
7,7,7070.751114385917,1264.5225705183225,5.256026300433253,7213.123304500719,-5524.49349444589,11.561608828941427,7236.56554812607,39638.86575384037,9.099471288965338,7316.930342251992,-1956.1522435157497,24.36816007917829,7481.657460196832,6710.134284069334,28.82350248958911,0.9518859482508516,137.0,123.0,147.0,166.0,313.0,14.0,909.0,911.0,14.0,8.0,6.0,0.5714285714285714,97.36080483373844,1331.8950954156326,17.0,14.0,3.0,0.8235294117647058,1058.0986743760725,7746.302010507006,21.0,11.0,10.0,0.5238095238095238,2023.89442343953,40893.39338379181,68.0,37.0,31.0,0.5441176470588235,38.89360063813924,1914.6296706819817,95.0,63.0,32.0,0.6631578947368421,82.72507240494625,7116.895822144801,0.0,0.0,0.0,0.0,7063.0,7077.0,7200.0,7216.0,7226.0,7247.0,7280.0,7347.0,7420.0,7513.0,0.07699412181613387,-0.19152863071335743,0.051058333404594126,-0.01988270635226051,0.012328378077521567
8,8,7947.709067243098,2062.617651999985,12.600699741521394,8088.698643600575,-5205.348831475291,10.10643250583892,8112.156532914436,39351.36152236531,9.183085665991523,8192.437646384993,-973.0189569448156,18.446829357513455,8353.181159363003,8921.753238443618,32.526906718339426,0.9827326607911356,140.0,114.0,141.0,176.0,317.0,26.0,876.0,876.0,28.0,13.0,15.0,0.4642857142857143,105.2056611088399,2429.8297462730434,17.0,14.0,3.0,0.8235294117647058,1102.401602328854,9282.814775909514,22.0,11.0,11.0,0.5,2030.6057780927756,41866.15571549148,52.0,26.0,26.0,0.5,55.62528320430006,786.4864742351997,82.0,41.0,41.0,0.5,69.05101159274712,9089.740877622193,0.0,0.0,0.0,0.0,7936.0,7962.0,8076.0,8091.0,8102.0,8123.0,8166.0,8217.0,8315.0,8393.0,0.051005895836695125,-0.2117824641574335,0.051601919210309474,-0.057167728138574,0.0077396235635847875
9,9,8806.767582726257,2056.936169087707,11.111413870364752,8946.123304500139,-5445.063777211955,10.154914879096411,8969.473660113159,39625.963994754755,9.24938586472637,9051.945632466695,-773.8940147429622,17.83575779047585,9210.282101824358,8222.482205668131,31.21224704406228,0.9867647856154724,138.0,112.0,126.0,190.0,316.0,26.0,861.0,857.0,26.0,12.0,14.0,0.4615384615384615,101.79039955937174,2109.4594036465696,16.0,13.0,3.0,0.8125,1088.5016398997625,8497.576834766345,21.0,10.0,11.0,0.4761904761904761,2052.0746620408345,42394.746532387755,16.0,9.0,7.0,0.5625,51.35170324578702,801.7224404316361,79.0,39.0,40.0,0.4936708860759494,76.62374709010425,8457.582412713044,0.0,0.0,0.0,0.0,8795.0,8821.0,8933.0,8949.0,8959.0,8980.0,9043.0,9059.0,9173.0,9249.0,0.049486416296776886,-0.19990613231294596,0.051786113324901455,-0.06635495593391139,0.00931880971871049
10,10,9714.289983416316,1695.2316625806488,15.56462657162811,9851.123304500716,-5062.044384923964,8.302041866786428,9874.56583267598,39437.04857967553,9.12374222071734,9951.947384548534,-1195.7631213448274,19.445058078103887,10117.958816596258,8557.072547687087,33.941681999096794,0.9653475730402608,137.0,109.0,142.0,174.0,316.0,28.0,906.0,905.0,28.0,12.0,16.0,0.4285714285714285,89.2685085394222,2245.851069446473,15.0,12.0,3.0,0.8,1065.540184139616,8586.780853592025,21.0,11.0,10.0,0.5238095238095238,2014.2163836200773,40881.717396584165,60.0,31.0,29.0,0.5166666666666667,53.727610444807546,1063.01642763046,100.0,62.0,38.0,0.62,78.9268858387868,8896.925539608066,0.0,0.0,0.0,0.0,9702.0,9730.0,9839.0,9854.0,9864.0,9885.0,9921.0,9981.0,10059.0,10155.0,0.05265858968415495,-0.210496017639249,0.05107421716791793,-0.04493165032919081,0.009223584981772786
11,11,10606.849321800286,733.6205542216576,2.5844738950580455,10746.54796540086,-5486.058169221748,15.28779240518418,10769.709987402422,40453.810524057735,9.099490990631931,10838.917878903025,-2486.0291686978653,53.50727341814519,11014.23279929669,7165.791009551896,25.424925253334568,0.9316688291525722,128.0,121.0,179.0,136.0,315.0,7.0,892.0,895.0,7.0,3.0,4.0,0.4285714285714285,114.3653570630259,825.301222504979,19.0,16.0,3.0,0.8421052631578947,1108.8355039531864,8224.25273897569,21.0,11.0,10.0,0.5238095238095238,2033.575849138876,39759.10676663213,112.0,31.0,81.0,0.2767857142857143,60.3016573507866,2522.2562560277183,72.0,38.0,34.0,0.5277777777777778,58.97592355796126,7004.485508967921,0.0,0.0,0.0,0.0,10604.0,10611.0,10732.0,10750.0,10759.0,10780.0,10809.0,10911.0,10976.0,11047.0,0.15589170233154526,-0.2021188018337191,0.05026908028675113,-0.02425621473394516,0.0082302042411434
12,12,11455.106241356045,2087.407544174372,12.918607352799876,11595.123304500716,-5174.280544876847,8.00761308090883,11619.272384948972,39480.392492482344,9.229253151604448,11682.698643600574,-573.324004845682,10.105888350658685,11859.634638285368,8837.537509876869,32.157884971476406,0.9851051623069516,142.0,115.0,101.0,214.0,315.0,27.0,848.0,850.0,27.0,13.0,14.0,0.4814814814814814,102.85565752095115,2319.696824683844,14.0,11.0,3.0,0.7857142857142857,1046.9105439545804,7723.015093929627,22.0,11.0,11.0,0.5,2027.1168872273408,41989.08552189638,40.0,10.0,30.0,0.25,64.12475462279049,780.482663191935,80.0,40.0,40.0,0.5,67.39437114366605,9065.56832868012,0.0,0.0,0.0,0.0,11442.0,11469.0,11584.0,11598.0,11608.0,11630.0,11674.0,11685.0,11822.0,11899.0,0.04927435363928103,-0.20232968330083037,0.051344902095725974,-0.11184732207410458,0.007625921934514656
13,13,12346.59221262224,778.1269400987768,4.0380054824978515,12482.418164372611,-6000.189320781013,12.739827004320226,12507.451952608404,39257.8378305772,8.93676497713044,12593.4449653529,-1839.0778519102544,29.37137616207246,12748.276592250251,7921.8526591317295,30.31642525970352,0.9685872388498512,127.0,117.0,164.0,154.0,318.0,10.0,894.0,888.0,10.0,5.0,5.0,0.5,85.08708422700873,685.9308817958812,18.0,13.0,5.0,0.7222222222222222,888.7176161734892,4054.023005706932,21.0,10.0,11.0,0.4761904761904761,2063.1818936684117,41937.3725780348,83.0,42.0,41.0,0.5060240963855421,45.8102783081225,1660.60902457943,84.0,44.0,40.0,0.5238095238095238,76.16715623964367,8247.574700765648,0.0,0.0,0.0,0.0,12342.0,12352.0,12469.0,12487.0,12497.0,12518.0,12556.0,12633.0,12708.0,12787.0,0.10934859062482483,-0.14811492915657026,0.05255464915241557,-0.02490937415212698,0.00961481606854222
14,14,13230.350887792354,1401.5862046028342,7.758473491917183,13369.153494917278,-6157.908043935674,12.73982700367772,13393.174678752248,39238.69249279922,8.86892614292714,13475.214028025151,-2302.6728589675563,32.83231073549311,13635.038762182528,8111.0150284649135,28.571140988441737,0.9701105428853498,135.0,115.0,158.0,158.0,316.0,20.0,884.0,886.0,20.0,9.0,11.0,0.45,86.63087221529513,1418.2322463474484,17.0,13.0,4.0,0.7647058823529411,1000.9452990028128,5430.909424168575,21.0,10.0,11.0,0.4761904761904761,2054.1823041989924,41007.87698682565,81.0,42.0,39.0,0.5185185185185185,53.2754589284509,2281.4559752069017,76.0,38.0,38.0,0.5,74.08568279265198,8200.56456158466,0.0,0.0,0.0,0.0,13221.0,13241.0,13356.0,13373.0,13383.0,13404.0,13433.0,13514.0,13599.0,13672.0,0.061809164452958934,-0.16254632122812335,0.05235093663164133,-0.02313635596171394,0.009133959502313164
15,15,14101.115866110677,1934.8966178497265,18.062043129249748,14241.123304500716,-5239.097434303837,8.444279196017714,14265.121828638892,39548.966253491395,9.28583516150459,14345.52076734244,-596.9360599987392,15.287792405165868,14506.103989920197,8716.19355578681,33.26725408892203,0.9850727949525456,140.0,111.0,124.0,192.0,316.0,29.0,871.0,872.0,30.0,12.0,18.0,0.4,83.69626477548782,2341.2540848433623,15.0,12.0,3.0,0.8,1058.677955020671,8050.257621058112,22.0,11.0,11.0,0.5,2035.8564909407055,42104.78607138616,17.0,9.0,8.0,0.5294117647058824,52.23006045824275,551.2728947056149,83.0,41.0,42.0,0.4939759036144578,64.70416757907918,9025.09149998151,0.0,0.0,0.0,0.0,14090.0,14119.0,14230.0,14244.0,14254.0,14276.0,14337.0,14354.0,14468.0,14546.0,0.04325619467385315,-0.2020725837410097,0.05147685726832315,-0.08749690956574656,0.0074234431767662085
16,16,14955.8643652144,1297.7225484818284,6.143546217195497,15092.123304500716,-5443.756257548268,11.842904934788544,15115.667471009025,39946.65042927959,9.107936246305918,15184.095930801726,-1445.7586992099834,22.839285243935763,15356.607799471509,8213.139777042557,30.78805932743242,0.9786879272873223,132.0,114.0,151.0,166.0,317.0,18.0,853.0,850.0,18.0,9.0,9.0,0.5,94.3421943860744,1311.7567967544464,17.0,14.0,3.0,0.8235294117647058,1054.9436769034464,7758.018144228425,21.0,11.0,10.0,0.5238095238095238,2042.86473383849,41261.25878990766,70.0,22.0,48.0,0.3142857142857143,56.299148706308515,1494.215679901305,82.0,42.0,40.0,0.5121951219512195,65.15991406199919,8227.17647411782,0.0,0.0,0.0,0.0,14947.0,14965.0,15079.0,15095.0,15105.0,15126.0,15167.0,15230.0,15318.0,15396.0,0.0726982778379268,-0.1937896604831765,0.051139825539443406,-0.03894090261194518,0.007933618059701695
17,17,15851.6783936281,1108.0357228436997,6.663081025435702,15989.54796540086,-5684.56094324512,15.287792405183486,16012.918703979123,40206.55481890469,8.967172873486104,16104.39753225435,-2774.5087196134104,41.32268460636666,16257.326914964791,7635.9624380391615,26.572145286280485,0.97702014540284,134.0,116.0,185.0,130.0,315.0,18.0,897.0,897.0,18.0,10.0,8.0,0.5555555555555556,88.35975012455924,1072.523123337007,19.0,16.0,3.0,0.8421052631578947,1086.7831166979572,8140.768226369828,21.0,10.0,11.0,0.4761904761904761,2035.8248077938515,40555.106360488586,111.0,52.0,59.0,0.4684684684684684,45.64458275279808,2325.6364882268763,71.0,36.0,35.0,0.5070422535211268,82.74840969067145,7746.526952403484,0.0,0.0,0.0,0.0,15842.0,15860.0,15976.0,15993.0,16003.0,16024.0,16053.0,16161.0,16224.0,16291.0,0.07974449587039473,-0.1911815402365183,0.050634151992466375,-0.01645141081378833,0.010836670604671075
18,18,16718.441163727122,1931.6041243207517,10.136891135987662,16857.123304500717,-5284.518163850725,9.27819065965852,16880.716952705603,39248.884335854425,9.255603592931584,16964.47072038765,-358.21377656588146,7.64389620259217,17121.610982366947,8817.92847399257,32.82535853509576,0.9815408841959644,137.0,115.0,123.0,194.0,317.0,22.0,865.0,869.0,22.0,10.0,12.0,0.4545454545454545,100.46173022586154,2195.9207566724835,16.0,13.0,3.0,0.8125,1068.702182691599,8244.813199765718,21.0,11.0,10.0,0.5238095238095238,2025.203969735912,41349.01030006123,15.0,11.0,4.0,0.7333333333333333,82.36281299507877,560.947943295091,83.0,42.0,41.0,0.5060240963855421,66.3584262376894,8823.591219649177,0.0,0.0,0.0,0.0,16708.0,16730.0,16845.0,16860.0,16870.0,16891.0,16962.0,16968.0,17084.0,17162.0,0.05200948215058761,-0.20223266333005785,0.05159902004872681,-0.22992642489820847,0.007525398559696382
19,19,17560.37110135051,2059.259445093568,12.701178448925448,17698.69864360057,-5556.134992946776,8.501581308542615,17722.447261186302,39932.43410169855,9.47132176449621,17799.72601729957,-223.78787483363584,7.643896180185028,17961.515975281167,8340.02905083826,32.61136536625647,0.9817841287902948,137.0,114.0,121.0,194.0,315.0,23.0,843.0,841.0,23.0,10.0,13.0,0.4347826086956521,107.33503777549107,2527.6337272828314,16.0,13.0,3.0,0.8125,1132.0130321391111,9500.898338794956,22.0,11.0,11.0,0.5,2050.1742455420035,43021.478894073975,12.0,3.0,9.0,0.25,39.60308751109543,129.03416090473638,81.0,40.0,41.0,0.4938271604938271,65.09067126424864,8561.154533836821,0.0,0.0,0.0,0.0,17550.0,17573.0,17687.0,17701.0,17711.0,17733.0,17798.0,17808.0,17923.0,18002.0,0.052123125151242906,-0.2037410958474088,0.05134107879125751,-0.17696708340671455,0.007804609656330435
20,20,18425.881120734,1271.85507195994,7.00711042556508,18563.123304500717,-5385.898574166871,12.739827004309156,18585.984940173497,40263.205664097855,9.06892104206556,18659.493218002877,-1600.451190394241,29.57985209491896,18829.3834774964,8193.336467994957,28.824079561070324,0.9809884452906658,133.0,115.0,163.0,153.0,316.0,18.0,866.0,863.0,19.0,10.0,9.0,0.5263157894736842,105.76442351784668,1408.0558001646705,18.0,15.0,3.0,0.8333333333333334,1079.5357341818185,8723.313480418108,21.0,10.0,11.0,0.4761904761904761,2057.1398640442194,41809.64009949249,88.0,29.0,59.0,0.3295454545454545,32.71160305432377,1344.3708344403958,76.0,39.0,37.0,0.5131578947368421,77.26885694109748,8396.505199752613,0.0,0.0,0.0,0.0,18416.0,18434.0,18549.0,18566.0,18576.0,18597.0,18631.0,18712.0,18791.0,18865.0,0.08315760643613486,-0.20043744220504722,0.05109230201902534,-0.020438988236977023,0.009430694960829118
21,21,19280.758198163192,1402.6405384976651,10.919585863847615,19415.69864360057,-5315.290381885387,10.191861603456228,19438.693361529713,39663.01718004413,9.16262388757596,19517.95600679466,-1295.5720439114357,20.47038353303617,19680.95881659626,8653.6899550201,30.224408293984247,0.9842738803450852,133.0,111.0,144.0,171.0,315.0,22.0,853.0,853.0,22.0,11.0,11.0,0.5,85.46946246609289,1649.1458968212469,18.0,15.0,3.0,0.8333333333333334,1115.939012435731,9950.677852901115,21.0,11.0,10.0,0.5238095238095238,2035.8968648765813,41282.37010709188,64.0,34.0,30.0,0.53125,57.53303465090046,997.693902874399,79.0,40.0,39.0,0.5063291139240507,78.44430806007179,8706.326728723183,0.0,0.0,0.0,0.0,19270.0,19292.0,19403.0,19418.0,19428.0,19449.0,19486.0,19547.0,19643.0,19718.0,0.06093468719907183,-0.20994883294408012,0.05132985359220007,-0.04440743756495673,0.009064839215156465
22,22,20066.808760192147,1483.0636138635589,9.722038675391849,20202.123304500717,-4900.0130837022725,11.423113207001744,20225.48332876262,39825.78237222571,9.04582265503087,20303.602712798853,-1090.944212561992,19.292014765850677,20465.53415569611,8680.984178367622,32.31521596718129,0.9821865345665324,135.0,108.0,126.0,189.0,315.0,27.0,787.0,787.0,27.0,13.0,14.0,0.4814814814814814,78.89776583649196,1439.809482008948,16.0,13.0,3.0,0.8125,1043.2196869651775,8394.78888937442,21.0,10.0,11.0,0.4761904761904761,2066.506893665442,42323.95133200643,47.0,33.0,14.0,0.7021276595744681,52.252941111029905,810.172614341997,86.0,46.0,40.0,0.5348837209302325,80.69800909166182,8719.91846361982,0.0,0.0,0.0,0.0,20054.0,20081.0,20189.0,20205.0,20215.0,20236.0,20271.0,20315.0,20422.0,20504.0,0.05319917844316455,-0.2129014084543951,0.05188867036813351,-0.04789698731552754,0.009295951637920888
23,23,20794.876323526172,1650.3425175014513,10.222039173731991,20937.405223409383,-5242.5990446826945,15.28779240518434,20961.607155666727,40098.99310402321,8.976948009647202,21032.369913502156,-1621.2514775996062,30.004287729118744,21200.22691744616,8052.3524417537565,29.57537329703144,0.9796206034388496,140.0,113.0,150.0,165.0,315.0,27.0,728.0,736.0,27.0,12.0,15.0,0.4444444444444444,61.3243445347642,1638.6796746830055,19.0,14.0,5.0,0.7368421052631579,926.5050149299116,6131.818900871725,21.0,11.0,10.0,0.5238095238095238,2031.467336856921,40361.10623356022,89.0,28.0,61.0,0.3146067415730337,68.59318261755912,1627.8442991496786,77.0,38.0,39.0,0.4935064935064935,71.64231599457175,8326.411717807892,0.0,0.0,0.0,0.0,20783.0,20810.0,20923.0,20942.0,20951.0,20972.0,21011.0,21073.0,21164.0,21238.0,0.03715855580549828,-0.17672627775523272,0.0506613054244771,-0.04230878649320762,0.008897066604174674
24,24,21585.07308297509,2479.0853951535787,15.145685769747612,21727.123304500717,-5145.278338727806,8.057472968922724,21751.437745124415,39813.268146403854,9.190503203984605,21814.123304500717,-548.8031074377657,6.778084615349418,21990.08180969388,8471.100400969663,33.720779373899944,0.9862018023852764,151.0,115.0,106.0,209.0,315.0,36.0,791.0,790.0,36.0,20.0,16.0,0.5555555555555556,78.8704683293547,2416.932211709681,15.0,11.0,4.0,0.7333333333333333,1031.891231322695,7562.9303738768685,22.0,11.0,11.0,0.5,2054.714251697446,42495.60550682022,17.0,7.0,10.0,0.4117647058823529,59.29294536758562,992.420567334426,84.0,42.0,42.0,0.5,71.76543095587583,8727.444030007442,0.0,0.0,0.0,0.0,21565.0,21601.0,21716.0,21730.0,21740.0,21762.0,21807.0,21822.0,21950.0,22031.0,0.0318143410806019,-0.20055110013306585,0.05160878137764831,-0.10804046945800037,0.008471795582503194
25,25,22453.39096580631,2388.404451695434,13.856329862097144,22595.54796540086,-5444.179755843934,14.239021195325822,22618.476650252345,40522.93194965678,8.946497555440473,22688.493218002877,-1712.5718044883556,31.749579073841947,22859.694312860192,8126.486741309825,29.18293399234351,0.9822790877353672,144.0,108.0,162.0,153.0,315.0,36.0,866.0,867.0,38.0,17.0,21.0,0.4473684210526316,91.48665275078186,2443.5522591647073,19.0,16.0,3.0,0.8421052631578947,1120.7054679645476,9474.397472321029,21.0,10.0,11.0,0.4761904761904761,2077.7229805240713,42131.8725362374,85.0,29.0,56.0,0.3411764705882353,58.297895284664655,1820.5645968431968,77.0,39.0,38.0,0.5064935064935064,83.1840986567861,8304.639803816382,0.0,0.0,0.0,0.0,22437.0,22473.0,22581.0,22599.0,22608.0,22629.0,22660.0,22743.0,22823.0,22896.0,0.03830450604203115,-0.20585386931090052,0.05127277027006111,-0.03404113925727138,0.010236169860947624
26,26,23391.52059170187,2604.0555074332538,14.348813463411764,23530.54796540086,-5242.116605978803,13.19126122926388,23553.904398405743,39810.60441783152,8.959156248366096,23630.30521161469,-1438.0013545618058,19.354653580437,23797.53415569611,8446.316052718566,32.51911263762367,0.9811496364713168,144.0,105.0,142.0,177.0,319.0,39.0,934.0,935.0,41.0,20.0,21.0,0.4878048780487805,72.21767968614316,2316.6721550366015,17.0,14.0,3.0,0.8235294117647058,1089.3607737542045,8740.761648001746,21.0,10.0,11.0,0.4761904761904761,2043.211459422526,41193.14300067445,56.0,27.0,29.0,0.4821428571428571,44.5381756507072,1297.019841442983,89.0,50.0,39.0,0.5617977528089888,62.41208949561023,8575.78049938415,0.0,0.0,0.0,0.0,23373.0,23412.0,23517.0,23534.0,23544.0,23565.0,23603.0,23659.0,23752.0,23836.0,0.027732772776923695,-0.20780933650193004,0.05132329662664839,-0.030972276562478675,0.00738926759383128
27,27,24285.174551190044,1600.0642976258416,8.741201819932765,24425.123304500717,-5219.423487860779,10.23933924065157,24448.028051151447,39302.79419447221,9.118534571868942,24535.074832322036,-1185.5215653878768,23.06682085990194,24689.07189716556,8127.659352002427,30.99690925811553,0.9834829838574972,137.0,117.0,151.0,164.0,315.0,20.0,900.0,895.0,20.0,10.0,10.0,0.5,91.26843420126332,1842.5285597912195,16.0,13.0,3.0,0.8125,1077.3515713835432,9130.33043480138,22.0,11.0,11.0,0.5,2025.7195885362344,41594.27885339255,77.0,38.0,39.0,0.4935064935064935,58.20550665620783,1043.3927208556838,79.0,40.0,39.0,0.5063291139240507,73.14670360542604,8175.694958594343,0.0,0.0,0.0,0.0,24275.0,24295.0,24412.0,24428.0,24437.0,24459.0,24501.0,24563.0,24652.0,24727.0,0.05704047914617334,-0.206411986666578,0.05154136315379694,-0.04909696150247951,0.008999725559044837
28,28,25132.06148584503,1880.4978698663967,10.430079495997964,25272.43307006914,-5466.709098358376,8.572139726813068,25296.131415774395,39083.47143497086,9.215841751265948,25377.464693951773,-856.0828020331992,16.78477358769778,25536.53415569611,8823.069973769267,32.37811994176954,0.9836188088908892,138.0,117.0,131.0,184.0,315.0,21.0,846.0,848.0,21.0,10.0,11.0,0.4761904761904761,104.46707028155645,2213.889653753753,16.0,12.0,4.0,0.75,1034.4449416090674,7548.322725754002,22.0,11.0,11.0,0.5,2018.379476807714,41419.737889015,40.0,23.0,17.0,0.575,46.44896896753856,778.3121919443545,84.0,45.0,39.0,0.5357142857142857,63.46938212134143,8987.973416688477,0.0,0.0,0.0,0.0,25122.0,25143.0,25260.0,25276.0,25285.0,25307.0,25354.0,25391.0,25495.0,25575.0,0.0555528788176604,-0.189226264466808,0.051642789207350735,-0.05425756580697816,0.007193571207078044
29,29,26001.60736019861,1879.6420624176635,11.27015195625084,26139.123304500717,-4962.150583729374,9.240963827977232,26162.74049332039,39542.78190504968,9.130989317215834,26246.82856220693,-764.2268810265713,16.521574336055707,26400.684833895823,8608.666110095153,33.30486631733316,0.9824420054047328,136.0,115.0,143.0,172.0,315.0,21.0,870.0,866.0,21.0,11.0,10.0,0.5238095238095238,109.57987929985823,2354.7815261674064,15.0,12.0,3.0,0.8,1037.3362715007995,8370.31260798313,21.0,11.0,10.0,0.5238095238095238,2030.7903515180749,41417.10439178378,51.0,28.0,23.0,0.5490196078431373,35.49393139230155,861.5097565630282,86.0,44.0,42.0,0.5116279069767442,69.1811668311458,8740.103750637525,0.0,0.0,0.0,0.0,25991.0,26012.0,26127.0,26142.0,26152.0,26173.0,26219.0,26270.0,26359.0,26442.0,0.05829826938375311,-0.209049736399006,0.05135679013162045,-0.04644423308510587,0.008036223724604547
30,30,26884.26806017906,1129.895817038221,5.344671164160265,27024.54796540086,-5577.900031880956,12.840496129990653,27047.597002201015,39530.483908931084,8.972539710269318,27127.706937978634,-1858.0565563128343,27.900513477792472,27289.95881659626,8191.6396580801475,31.758821642921504,0.9704920070743484,135.0,119.0,152.0,164.0,316.0,16.0,882.0,885.0,16.0,8.0,8.0,0.5,101.59699199204674,1165.1094730804032,19.0,16.0,3.0,0.8421052631578947,1113.3405417050574,9052.381843042993,21.0,11.0,10.0,0.5238095238095238,2020.4386486809292,40216.74904970386,76.0,41.0,35.0,0.5394736842105263,47.822718472239266,1677.5895508136762,91.0,53.0,38.0,0.5824175824175825,65.1247622186694,8235.250266507821,0.0,0.0,0.0,0.0,26876.0,26892.0,27011.0,27028.0,27037.0,27058.0,27088.0,27163.0,27239.0,27327.0,0.08991713258870311,-0.199598511149656,0.051110900977978,-0.02573803165988642,0.00795014977916308
31,31,27782.047172373062,1806.2751779168295,12.507602398412384,27922.123304500717,-5288.451651385437,9.604597574383677,27945.52369946537,38897.98237907169,9.174124267748574,28025.947983014023,-1006.3642360761676,17.616835372135128,28185.28125889172,8465.205643812134,31.61376384868208,0.974769537407658,138.0,116.0,139.0,177.0,316.0,22.0,901.0,898.0,22.0,10.0,12.0,0.4545454545454545,103.2766764589218,2265.275291056524,16.0,13.0,3.0,0.8125,1048.8201673182164,8255.168279579877,21.0,11.0,10.0,0.5238095238095238,1991.3925772154223,40338.285389978686,52.0,28.0,24.0,0.5384615384615384,50.18788842442578,991.509350522528,82.0,40.0,42.0,0.4878048780487805,75.31695842043668,8760.558656476338,0.0,0.0,0.0,0.0,27772.0,27794.0,27910.0,27925.0,27935.0,27956.0,28001.0,28049.0,28147.0,28226.0,0.05717660172799939,-0.19832272968657144,0.051195266577293036,-0.04987050078419844,0.008897239073629782
32,32,28648.406591028343,1770.7359166514786,12.053710279636311,28789.123304490244,-5113.976803014258,8.496818133219053,28812.835653559767,39264.6907807437,9.275107210746947,28876.123304500717,-801.1282214831084,11.830630259747354,29052.44590553397,8647.534185365896,32.625538266753594,0.9865657427093988,139.0,119.0,141.0,174.0,315.0,20.0,863.0,868.0,20.0,9.0,11.0,0.45,103.06773470499158,2231.754445062081,15.0,12.0,3.0,0.8,1059.1686186373406,8511.701369280996,21.0,11.0,10.0,0.5238095238095238,2021.4257617930048,41408.18690259298,53.0,8.0,45.0,0.1509433962264151,64.9893236544522,1082.4366779757147,81.0,39.0,42.0,0.4814814814814814,60.456007054500695,8786.431097693137,0.0,0.0,0.0,0.0,28639.0,28659.0,28778.0,28792.0,28802.0,28823.0,28869.0,28919.0,29014.0,29093.0,0.05820615809267377,-0.20711251916767595,0.051482024220711756,-0.08112224973692615,0.006991126690983144
33,33,29523.986831436618,1421.1075528879785,6.515030983196275,29662.123304500717,-5667.439726176423,12.739827004309609,29685.342015216964,39608.93470862327,8.970013338114782,29761.493218002877,-1443.7614108131943,24.209708893188655,29931.232799296693,8440.455350404234,30.180029134516516,0.975089865422946,133.0,116.0,149.0,167.0,316.0,17.0,876.0,872.0,17.0,9.0,8.0,0.5294117647058824,103.90010973689571,1613.713750255058,18.0,14.0,4.0,0.7777777777777778,1054.1330872468052,7566.911906767652,21.0,10.0,11.0,0.4761904761904761,2044.3611358585792,41621.80057004058,70.0,33.0,37.0,0.4714285714285714,32.98383148989921,1257.7819571885884,82.0,48.0,34.0,0.5853658536585366,63.62123720417118,8302.930685894218,0.0,0.0,0.0,0.0,29515.0,29532.0,29648.0,29665.0,29675.0,29696.0,29733.0,29797.0,29884.0,29964.0,0.07311206637791041,-0.18599811170078084,0.05161363593587134,-0.022845763325479912,0.0075376546125706595
34,34,30416.48448200099,803.9959198975595,3.583231180700578,30553.96270815103,-5702.348527729486,15.28779240518434,30579.399642684028,39535.407533933685,8.840986532754933,30664.080978763617,-2387.416854974408,35.19525778150563,30821.201524015523,7903.961203276533,27.80790439173756,0.9714819365317824,128.0,120.0,167.0,149.0,316.0,8.0,893.0,894.0,10.0,4.0,6.0,0.4,103.8013788482779,738.0994095180677,19.0,13.0,6.0,0.6842105263157895,875.3223069989396,3811.581782349253,21.0,10.0,11.0,0.4761904761904761,2037.256854833724,41000.55497714422,89.0,45.0,44.0,0.5056179775280899,55.96574125697707,2219.2817216390836,74.0,37.0,37.0,0.5,68.11106618902619,8099.892205027483,0.0,0.0,0.0,0.0,30413.0,30421.0,30541.0,30560.0,30569.0,30590.0,30620.0,30708.0,30786.0,30857.0,0.12910684778288886,-0.1535020707244403,0.0515299318233946,-0.023441964540196307,0.008617333060894987
35,35,31264.00528697036,1437.7621782681113,6.366251199993232,31403.54796540086,-6723.350518601498,11.539456303621709,31426.77192782516,39485.61593480796,9.309233601362086,31499.342539803165,-1314.3849371447914,56.055238819009254,31668.21302966036,8021.088545858061,28.485795192163067,0.9824679008279116,134.0,115.0,164.0,150.0,314.0,19.0,848.0,848.0,20.0,9.0,11.0,0.45,109.22876455907202,1490.0513650620578,18.0,15.0,3.0,0.8333333333333334,1189.978594642359,8004.14017368975,21.0,11.0,10.0,0.5238095238095238,2051.180859492565,40652.69811200718,105.0,33.0,72.0,0.3142857142857143,50.324843372833115,1177.4352753107669,73.0,36.0,37.0,0.4931506849315068,103.49296477043104,8104.799219395583,0.0,0.0,0.0,0.0,31256.0,31275.0,31390.0,31407.0,31416.0,31437.0,31468.0,31554.0,31633.0,31704.0,0.07597137148971743,-0.17699190178320234,0.05194754623757501,-0.03828775113792207,0.012902608440081722
36,36,32058.147002755213,1885.5414312432056,10.451313692418385,32192.425313608208,-6680.815081456024,9.288037778551857,32217.498991723976,41042.674661215024,9.255443256813354,32278.54796540086,-2021.8920582538071,15.28779240518434,32459.71428941951,8890.189795251095,29.091427411455516,0.9879896786777296,136.0,110.0,178.0,138.0,316.0,26.0,792.0,791.0,26.0,13.0,13.0,0.5,95.34068659979752,1920.7449508936409,16.0,11.0,5.0,0.6875,1040.5322951057217,4716.747273953032,22.0,11.0,11.0,0.5,2138.9244457585937,43783.88308024673,105.0,22.0,83.0,0.2095238095238095,98.84023830975966,1984.6205153501037,74.0,37.0,37.0,0.5,66.08944065655182,9169.204683330618,0.0,0.0,0.0,0.0,32045.0,32071.0,32181.0,32197.0,32207.0,32228.0,32270.0,32359.0,32423.0,32497.0,0.050564089984984295,-0.15574930340370188,0.05211464563199774,-0.04888502227716465,0.007433974097139641
37,37,32857.48302341215,1083.1458109518612,5.600161245806434,32992.12330450071,-5712.836538667528,10.295492865410289,33015.90724091901,41501.34896632715,9.38345055417287,33069.38347751813,-1900.0090450380708,63.69913502160143,33256.4329724507,7732.391951680669,28.068594663843477,0.9832557564538028,130.0,113.0,167.0,146.0,313.0,17.0,801.0,798.0,17.0,8.0,9.0,0.4705882352941176,102.8497234539419,857.3953369065564,18.0,14.0,4.0,0.7777777777777778,1107.6510044433628,7347.163451154886,21.0,11.0,10.0,0.5238095238095238,2104.1600167881697,41892.364289061865,111.0,15.0,96.0,0.1351351351351351,72.5895754587374,2504.976763908553,75.0,38.0,37.0,0.5066666666666667,74.31700091297722,7863.226930444851,0.0,0.0,0.0,0.0,32849.0,32866.0,32979.0,32995.0,33005.0,33026.0,33055.0,33146.0,33221.0,33292.0,0.09495464268431068,-0.1938880969105609,0.05070100296005841,-0.03820485783912829,0.009611126980807549
38,38,0.0,0.0,0.0,0.0,0.0,0.0,0.0,0.0,0.0,0.0,0.0,0.0,0.0,0.0,0.0,0.0,0.0,0.0,0.0,0.0,0.0,0.0,0.0,0.0,0.0,0.0,0.0,0.0,0.0,0.0,0.0,0.0,0.0,0.0,0.0,0.0,0.0,0.0,0.0,0.0,0.0,0.0,0.0,0.0,0.0,0.0,0.0,0.0,0.0,0.0,0.0,0.0,0.0,0.0,0.0,0.0,0.0,0.0,33709.0,33749.0,33857.0,33872.0,33882.0,33903.0,33946.0,33998.0,34094.0,34171.0,,,,,
39,39,34671.515134937166,1187.2993827827638,6.469957508500236,34813.12330450071,-5045.500598243682,11.8658830329779,34835.850257445396,39594.48440025216,9.039109206018814,34917.75032534271,-1413.3943855819264,22.176452521756858,35077.53415569612,8698.459359218585,31.25698926162392,0.9810585655174467,137.0,122.0,151.0,165.0,316.0,15.0,1814.0,1819.0,15.0,9.0,6.0,0.6,88.060385667676,1348.9522372033716,17.0,14.0,3.0,0.8235294117647058,1070.5954740690668,9238.610374782187,22.0,11.0,11.0,0.5,2027.5904945952493,41083.37123132084,66.0,33.0,33.0,0.5,37.53460254095338,1390.2693385004611,81.0,42.0,39.0,0.5185185185185185,78.29184010605853,9140.242765410938,0.0,0.0,0.0,0.0,34663.0,34678.0,34800.0,34816.0,34825.0,34847.0,34885.0,34951.0,35039.0,35116.0,0.07416864435765323,-0.2121881571952913,0.051208912688413155,-0.026556354633812652,0.009000655963643174
40,40,35595.09650017355,1203.603555178226,7.730366795297747,35741.12330450071,-5017.80643803303,9.82590620421002,35764.68960109922,39646.35482657478,9.055593529865392,35843.798251145185,-1064.4177180935772,18.86673075914869,36004.32319634743,8445.765221178912,31.52566935481917,0.9738168525728272,142.0,127.0,141.0,174.0,315.0,15.0,924.0,929.0,15.0,8.0,7.0,0.5333333333333333,85.0942576723578,1257.0722074473945,15.0,12.0,3.0,0.8,1040.09425467007,8193.367044437462,21.0,11.0,10.0,0.5238095238095238,2048.1897666614336,41213.26160088747,55.0,26.0,29.0,0.4727272727272727,37.46715840198913,880.576822824126,87.0,44.0,43.0,0.5057471264367817,69.42466242058433,8594.763585381652,0.0,0.0,0.0,0.0,35587.0,35602.0,35729.0,35744.0,35754.0,35775.0,35818.0,35870.0,35966.0,36044.0,0.07069957321599743,-0.20728066487111946,0.05166149008202239,-0.03519967562085926,0.008220055921811855
41,41,36515.20417860458,1133.0797406654606,15.291283616625776,36662.12330450071,-5439.993782444706,10.854875383876042,36685.12698750474,39322.05804393618,9.021253912892885,36768.700858914555,-1732.617915813256,24.844839027007477,36924.53415569869,7658.497381644864,29.818424523757077,0.9769210570760912,142.0,119.0,148.0,166.0,314.0,23.0,921.0,920.0,28.0,9.0,19.0,0.3214285714285714,58.60057068765363,1298.760628123359,17.0,14.0,3.0,0.8235294117647058,1079.6837339696854,8434.713953503462,21.0,10.0,11.0,0.4761904761904761,2045.7031378318593,41500.75327121815,73.0,40.0,33.0,0.547945205479452,46.43263704963235,1351.8091031852305,83.0,44.0,39.0,0.5301204819277109,75.00428887721522,7903.0220846596,0.0,0.0,0.0,0.0,36507.0,36530.0,36649.0,36665.0,36675.0,36696.0,36734.0,36797.0,36886.0,36963.0,0.05171795821999021,-0.19847150146640075,0.052024315094243274,-0.026799120929000553,0.009793603776241819
42,42,37417.896361704086,2142.7320897375507,16.07736022918399,37560.12330450071,-4962.848014755943,9.214489893010873,37584.0666319439,39194.864899508495,9.120237369176891,37646.69864360057,-940.3264542727106,10.191861603456228,37826.53415569712,8823.849532538145,31.707646188017037,0.9826004083935386,141.0,115.0,133.0,184.0,317.0,26.0,904.0,900.0,26.0,11.0,15.0,0.4230769230769231,107.40260046478602,2587.356455943298,15.0,12.0,3.0,0.8,1014.5679871335592,7896.640739365346,22.0,11.0,11.0,0.5,2020.3780656790489,41358.20731012905,53.0,9.0,44.0,0.1698113207547169,74.4968009937647,1179.2565804598912,79.0,40.0,39.0,0.5063291139240507,75.3367158349752,8993.70647869934,0.0,0.0,0.0,0.0,37407.0,37433.0,37548.0,37563.0,37573.0,37595.0,37641.0,37681.0,37788.0,37865.0,0.0501241387008588,-0.2044326129103618,0.051547009304894545,-0.07922440196727609,0.008537851371690932
43,43,38301.38389643945,1845.8489804004976,9.9550486459717,38440.69864360057,-5591.620249185385,10.191861603442876,38463.88315648223,39526.81075768601,9.205497216674706,38532.94525260201,-1474.77053338023,35.67151561018668,38705.372991262666,8262.577336791272,30.557951774799417,0.985907396465901,137.0,115.0,166.0,150.0,316.0,22.0,879.0,879.0,24.0,11.0,13.0,0.4583333333333333,105.6379846098336,2260.071214815203,17.0,14.0,3.0,0.8235294117647058,1123.6796758320322,9421.90386092234,21.0,11.0,10.0,0.5238095238095238,2048.101162522816,41384.47982561444,81.0,20.0,61.0,0.2469135802469135,60.93972548075702,1874.9270300193211,81.0,41.0,40.0,0.5061728395061729,63.45158195095694,8261.373235364314,0.0,0.0,0.0,0.0,38291.0,38313.0,38428.0,38443.0,38453.0,38474.0,38513.0,38594.0,38666.0,38744.0,0.05723002571256566,-0.20095779501401861,0.05181549240282589,-0.04132149653212887,0.0076793934101436236
44,44,39237.726017299574,998.3068978009458,4.028936548288881,39378.12749481007,-5594.889515410746,12.739827004307138,39402.04952075782,39204.88651519454,8.926696490712535,39481.24738556506,-1952.236489256782,28.933405932546354,39647.808138396555,7545.883309543301,29.74120900125356,0.966050615067268,132.0,123.0,149.0,168.0,317.0,9.0,939.0,939.0,9.0,5.0,4.0,0.5555555555555556,101.232174093726,1114.2597451965582,17.0,13.0,4.0,0.7647058823529411,996.0745935316288,6389.749172664222,21.0,10.0,11.0,0.4761904761904761,2031.4380992371373,40637.21992500414,72.0,39.0,33.0,0.5416666666666666,53.371484895610905,1797.1720882798863,81.0,46.0,35.0,0.5679012345679012,68.34916920402566,7707.297889084531,0.0,0.0,0.0,0.0,39233.0,39242.0,39365.0,39382.0,39392.0,39413.0,39442.0,39514.0,39604.0,39682.0,0.10140386119410634,-0.17803293358841288,0.05181594132276898,-0.027338637091006056,0.009057808927098602
45,45,40168.49813003637,1671.9848607217675,11.04456341015044,40310.12330450071,-5245.80976917247,10.554305715596817,40333.71547330625,39487.297321076934,9.0509201209256,40412.21133175828,-1267.8235463825868,18.710707310522796,40577.53415569612,7727.971629907869,37.29381924283607,0.9686444038669998,140.0,116.0,141.0,178.0,319.0,24.0,930.0,931.0,24.0,11.0,13.0,0.4583333333333333,104.11277304006876,1861.9161250386223,17.0,13.0,4.0,0.7647058823529411,1033.9949745014185,7955.748135026655,21.0,11.0,10.0,0.5238095238095238,2029.981121271442,40904.47648143752,50.0,24.0,26.0,0.48,36.88829458594193,1118.830388661632,109.0,68.0,41.0,0.6238532110091743,83.52975739417228,8141.798381687674,0.0,0.0,0.0,0.0,40157.0,40181.0,40297.0,40313.0,40323.0,40344.0,40388.0,40438.0,40514.0,40616.0,0.06226896874839228,-0.19710874393078343,0.051408459403168856,-0.02909576391067458,0.01080875569870177
46,46,41086.123098538344,2045.9418665870876,17.51257482700844,41227.12330450071,-5412.674651139181,9.285631076285055,41250.58360265319,39513.57207407914,9.167936075747944,41326.49390908713,-1126.7941029463375,14.594123946170464,41495.95881659626,8377.656494845485,36.429394893704824,0.9698152538319932,140.0,113.0,129.0,189.0,318.0,27.0,919.0,917.0,34.0,16.0,18.0,0.4705882352941176,93.11909993431183,2344.529844723126,15.0,12.0,3.0,0.8,1072.6377220282488,8217.798911955426,21.0,11.0,10.0,0.5238095238095238,2032.689353982067,41194.460419217976,46.0,20.0,26.0,0.4347826086956521,42.946130220605966,982.8658201033666,103.0,65.0,38.0,0.6310679611650486,77.25979813274537,8845.181619693663,0.0,0.0,0.0,0.0,41075.0,41102.0,41215.0,41230.0,41240.0,41261.0,41307.0,41344.0,41434.0,41533.0,0.0455140497660607,-0.19817147550194905,0.0514428143871991,-0.03811355606877118,0.009222125325892862
47,47,42003.41165190025,1879.207745243858,11.75924075324482,42140.69864360057,-5291.24152323582,9.532909578614705,42163.598883246275,39727.50237679394,9.138549888413946,42241.17717484928,-1262.7580902740224,18.05336934385628,42403.300686144525,8275.479863615648,31.97676501379166,0.9808525345228,138.0,111.0,142.0,173.0,315.0,27.0,913.0,913.0,28.0,13.0,15.0,0.4642857142857143,89.82922619246163,2129.2001407263097,16.0,14.0,2.0,0.875,1141.359343123452,10357.41552878022,21.0,11.0,10.0,0.5238095238095238,2036.1516357880223,41087.36211581848,54.0,25.0,29.0,0.4629629629629629,48.127866894074664,1035.7558858566413,85.0,42.0,43.0,0.4941176470588235,93.51940573044236,8327.907011273874,0.0,0.0,0.0,0.0,41990.0,42017.0,42128.0,42143.0,42153.0,42174.0,42216.0,42270.0,42367.0,42443.0,0.04780164748672043,-0.21570728497486202,0.05125294856133219,-0.03811329126676256,0.011300783431497917
48,48,42894.10421904585,1741.5490687369097,7.92454389674291,43030.12330450071,-5732.818820265956,9.951982233975738,43053.77148013692,39388.668128194055,9.299288551016078,43115.69864360057,-736.1530957969234,9.89168180619029,43296.95881659626,8324.091317155397,31.34471244549856,0.9804081735691528,135.0,112.0,105.0,211.0,316.0,23.0,892.0,891.0,23.0,11.0,12.0,0.4782608695652174,108.32981807322408,1566.3126823780294,16.0,13.0,3.0,0.8125,1077.2810205980004,7906.709306479932,22.0,11.0,11.0,0.5,2015.702990526396,41261.3948740011,38.0,9.0,29.0,0.2368421052631578,65.52227404758543,1086.1335189723798,82.0,43.0,39.0,0.524390243902439,61.847698958609634,8218.653280821609,0.0,0.0,0.0,0.0,42883.0,42906.0,43018.0,43033.0,43043.0,43065.0,43110.0,43123.0,43256.0,43334.0,0.062203138583854116,-0.1879147160188857,0.051174692781337634,-0.08900631461266113,0.0074299640167504715
49,49,43790.60398611254,1857.187979441208,23.487236056877308,43924.69864360057,-4719.580415983979,8.126129757780829,43948.26178692815,39870.45738236282,9.138066892687304,44032.1947097436,-1067.991819506743,18.959328344968164,44188.46707444301,8828.715875493968,33.098181273686464,0.986622253221239,134.0,108.0,143.0,173.0,316.0,26.0,899.0,893.0,26.0,12.0,14.0,0.4615384615384615,110.36212557507572,2592.890515956474,16.0,13.0,3.0,0.8125,1091.117260926442,9947.033727825486,22.0,11.0,11.0,0.5,2043.667453392202,42513.83743579776,55.0,31.0,24.0,0.5636363636363636,51.09696665863688,1121.2582325374185,88.0,45.0,43.0,0.5113636363636364,73.15790634217825,9035.844787212814,0.0,0.0,0.0,0.0,43779.0,43805.0,43913.0,43927.0,43937.0,43959.0,44001.0,44056.0,44148.0,44229.0,0.059424316114883295,-0.23118946278171562,0.05125768771080723,-0.04784396820776797,0.008286358670261892
50,50,44701.64657774693,1326.5764752873624,7.7957907549243295,44838.12330450071,-5443.802456211285,12.439969058707309,44861.42636954744,39720.02261532322,9.016125133699347,44929.06855710273,-2138.9742710869195,23.2236932487718,45103.95881659626,7881.328947528283,33.33660977912239,0.9590656285877622,134.0,114.0,143.0,173.0,316.0,20.0,911.0,914.0,21.0,11.0,10.0,0.5238095238095238,84.28394811695179,1396.4168225449253,17.0,14.0,3.0,0.8235294117647058,1056.6416883073146,7717.632432039269,21.0,10.0,11.0,0.4761904761904761,2051.6320789999727,41979.49918995515,68.0,28.0,40.0,0.4117647058823529,39.34039262559442,1921.9841286771084,100.0,61.0,39.0,0.61,80.08702078610641,7847.351885229563,0.0,0.0,0.0,0.0,44691.0,44711.0,44825.0,44841.0,44851.0,44872.0,44902.0,44968.0,45046.0,45141.0,0.0635349334825904,-0.19409993231876085,0.051652339145660316,-0.018392176641565495,0.01016161377342625
51,51,45612.5962984915,1456.8392505473355,7.519211790784695,45752.54796540086,-5822.457393972118,15.287792405184224,45775.45657922102,40136.19805099857,8.97604265964443,45855.508536984955,-2853.9899464026516,36.91563795481256,46022.65746019684,6944.650750895717,28.867959326905364,0.9636427906289918,135.0,117.0,159.0,157.0,316.0,18.0,911.0,914.0,21.0,10.0,11.0,0.4761904761904761,104.74807444404404,1439.1714778915743,20.0,17.0,3.0,0.85,1123.101436475499,8734.665481959966,21.0,10.0,11.0,0.4761904761904761,2037.1767415735296,41061.57655155865,86.0,44.0,42.0,0.5116279069767442,38.04496180087993,2730.2709905700603,87.0,55.0,32.0,0.632183908045977,86.47081654396055,7696.336227442312,0.0,0.0,0.0,0.0,45603.0,45621.0,45738.0,45756.0,45765.0,45786.0,45812.0,45897.0,45969.0,46054.0,0.0719009145344554,-0.19289131040069527,0.05075659480713683,-0.013330447028670929,0.012451427673710965
52,52,46509.52851472721,1523.3256790356734,10.860952691796006,46648.12330450071,-5687.3813892905255,11.286568976285617,46671.24756916252,39047.874937897664,9.113841481347473,46742.36991350215,-1366.4228017455675,29.930632250997917,46916.808138396555,8662.602016322136,30.03431795244506,0.9748388516219272,136.0,115.0,159.0,157.0,316.0,21.0,896.0,896.0,21.0,11.0,10.0,0.5238095238095238,108.56014502052064,1905.602096710076,17.0,14.0,3.0,0.8235294117647058,1084.8479660053542,7853.107055489409,21.0,10.0,11.0,0.4761904761904761,2023.6224795812225,41035.960286768735,85.0,25.0,60.0,0.2941176470588235,54.3699567915141,1450.3639067190818,80.0,44.0,36.0,0.55,76.30020517991716,8504.029385469854,0.0,0.0,0.0,0.0,46499.0,46520.0,46635.0,46651.0,46661.0,46682.0,46721.0,46794.0,46876.0,46951.0,0.07126522352675338,-0.1907464774646815,0.05182413851713115,-0.03978999525041442,0.008808000764222085
53,53,47380.84967021628,1228.5242620641918,5.5223925657438535,47519.12330450023,-5510.190207349288,12.739826962536313,47541.96166338974,39943.80431076285,9.058976627348825,47624.353313238775,-1992.064652627952,26.987498806925142,47783.06565918281,8221.617360799773,29.713058381634237,0.978104426586888,133.0,118.0,153.0,163.0,316.0,15.0,871.0,871.0,15.0,9.0,6.0,0.6,97.76669896083332,1332.7900643268615,17.0,14.0,3.0,0.8235294117647058,1085.646435519469,8587.115581824424,21.0,10.0,11.0,0.4761904761904761,2043.9907333827432,41502.28289421336,69.0,35.0,34.0,0.5072463768115942,40.25220388657652,1868.872895210963,79.0,40.0,39.0,0.5063291139240507,63.370224880906854,8377.79744514763,0.0,0.0,0.0,0.0,47372.0,47387.0,47505.0,47522.0,47532.0,47553.0,47589.0,47658.0,47745.0,47821.0,0.07958060087194672,-0.1970252195779873,0.05117165900074246,-0.020206273844312932,0.0077077565276940105
54,54,48289.95965278678,1429.4987057209037,11.304059478838338,48430.54796540086,-5367.444578662079,14.705780780619625,48453.75223263192,39818.0891900197,8.951597570907166,48524.5729019464,-2267.618813779819,22.267231611942247,48698.808138396555,7629.689324861264,31.144144046563408,0.9527286855821464,136.0,115.0,136.0,180.0,316.0,21.0,911.0,911.0,23.0,10.0,13.0,0.4347826086956521,85.33839472511275,1613.0662934153563,19.0,16.0,3.0,0.8421052631578947,1082.5487009368242,8571.53081974982,21.0,11.0,10.0,0.5238095238095238,2017.490771142872,40463.87430364891,63.0,33.0,30.0,0.5238095238095238,40.311433564757486,1900.450455266954,96.0,62.0,34.0,0.6458333333333334,71.96834356351513,8013.129512786703,0.0,0.0,0.0,0.0,48281.0,48302.0,48417.0,48434.0,48443.0,48464.0,48492.0,48553.0,48639.0,48733.0,0.0596981266115076,-0.2016879140662998,0.0506676943113722,-0.0177769884955063,0.009432670256835626
55,55,49213.16343177556,1308.6507266144863,5.83160952169498,49353.1957371793,-5994.268093973696,12.739827003839071,49376.61906848511,39380.00790172699,8.981591517416891,49448.04020842539,-2306.5989686834355,22.69763871232144,49620.808138396555,7513.320753003566,29.829747933882857,0.9513851992130636,135.0,119.0,137.0,178.0,315.0,16.0,923.0,924.0,16.0,8.0,8.0,0.5,100.23407595581926,1273.6502668333455,18.0,14.0,4.0,0.7777777777777778,1026.0131774804747,6726.035390898232,21.0,11.0,10.0,0.5238095238095238,2022.6350978841688,40355.370856352805,64.0,32.0,32.0,0.5,43.81538795954692,1906.7750439471688,92.0,57.0,35.0,0.6195652173913043,74.7383999194224,7849.927567326586,0.0,0.0,0.0,0.0,49205.0,49221.0,49340.0,49357.0,49366.0,49387.0,49417.0,49477.0,49566.0,49655.0,0.07659345149727417,-0.17116571387789134,0.051361977959264636,-0.01899566788784092,0.009947452315215556
56,56,50124.090456166494,1167.4682104375624,5.170413425538437,50263.35517355844,-5515.096991983903,12.739827003682237,50286.74802168596,39314.87103901722,9.016237977840618,50376.74535768569,-1985.3847646076197,33.37330260340457,50528.43977720161,7689.746085357589,27.970913106637493,0.954642946256217,135.0,119.0,165.0,150.0,315.0,16.0,909.0,910.0,16.0,9.0,7.0,0.5625,95.22878624023836,1148.046222130077,17.0,13.0,4.0,0.7647058823529411,1024.934117268559,7028.899916230527,21.0,11.0,10.0,0.5238095238095238,2010.3238134733597,40414.846280239,98.0,47.0,51.0,0.4795918367346938,60.5649753996509,1494.5333511222716,78.0,39.0,39.0,0.5,59.51622212814333,7783.374663215645,0.0,0.0,0.0,0.0,50115.0,50131.0,50250.0,50267.0,50276.0,50297.0,50331.0,50415.0,50492.0,50565.0,0.0815686332089051,-0.1858415398239202,0.051133928723262397,-0.030505409570633336,0.007739686261093978
57,57,50996.94730334311,1533.582642812106,7.131067424754599,51135.12330450071,-5645.432180386453,11.710547123646004,51158.19586611404,39369.17382613851,9.205639157580157,51226.09593080172,-1142.3752717928717,18.044715212710845,51399.50233524357,8443.512388910201,30.383275798167553,0.979016100759231,135.0,117.0,143.0,173.0,316.0,18.0,874.0,871.0,18.0,10.0,8.0,0.5555555555555556,103.63159486218622,1641.8554263313692,17.0,14.0,3.0,0.8235294117647058,1097.5795019574605,8308.124477241916,21.0,10.0,11.0,0.4761904761904761,2031.785812198436,41516.40964405703,58.0,17.0,41.0,0.293103448275862,47.37306616455224,1142.6900413090634,78.0,39.0,39.0,0.5,64.40086838940955,8723.867803203539,0.0,0.0,0.0,0.0,50987.0,51005.0,51122.0,51138.0,51148.0,51169.0,51209.0,51265.0,51363.0,51438.0,0.06757483553162717,-0.19441903947951183,0.05160854584277472,-0.04146891773156451,0.00762726048391832
58,58,51888.54484507796,1415.730642168602,6.576905683735815,52026.12330450071,-5342.755745591221,12.73982699330998,52049.12648877308,39424.774170255485,9.071564174866042,52129.71881086168,-1748.0432874739424,24.155117826770137,52290.31088109568,8483.66008990038,30.79376758040775,0.9758580371718478,134.0,116.0,144.0,173.0,317.0,18.0,892.0,890.0,19.0,10.0,9.0,0.5263157894736842,100.21863598754702,1382.6052236663054,17.0,14.0,3.0,0.8235294117647058,1064.9075281138844,8210.060077696839,21.0,10.0,11.0,0.4761904761904761,2011.7311165568535,41288.68761443997,62.0,34.0,28.0,0.5483870967741935,63.9994211660062,1645.857975301799,82.0,42.0,40.0,0.5121951219512195,70.9153008565049,8560.348881375055,0.0,0.0,0.0,0.0,51879.0,51897.0,52013.0,52029.0,52039.0,52060.0,52099.0,52157.0,52252.0,52330.0,0.07078933873609822,-0.19931802590688028,0.051027080278740804,-0.036612034510020805,0.00835904551868221
59,59,52793.72910706971,2070.781011202182,19.344574664272617,52841.00515664209,-461.57964028791537,-0.849321800288019,52959.73765856245,42129.778766269905,9.748559558431785,52981.46510717236,7656.724932976463,51.275380644685015,53203.2327992967,9188.94783925413,31.04618511309215,0.9752893118997872,59.0,29.0,415.0,-19.0,396.0,30.0,908.0,911.0,49.0,28.0,21.0,0.5714285714285714,84.11688666709253,2219.7534512108396,2.0,1.0,1.0,0.5,79.24426794662818,307.23051677338094,25.0,13.0,12.0,0.52,2014.7479441473288,50764.5575842458,93.0,68.0,25.0,0.7311827956989247,1163.517883243586,5456.320988197038,88.0,55.0,33.0,0.625,73.00795957429621,9250.058387746963,0.0,0.0,0.0,0.0,52781.0,52811.0,52840.0,52842.0,52947.0,52972.0,52864.0,53255.0,53149.0,53236.0,0.04062085088285548,-0.17168059643444997,0.04782241927556438,0.1519602563012907,0.007945192512946323
60,60,53690.30135639943,810.0223796629989,4.468923394744112,53826.54796540086,-5624.764937816108,15.28779240518434,53849.61674359947,41157.50564138751,9.118652108681207,53929.06142983308,-1678.4433339398,17.500139536025756,54091.808138396555,8219.416932945644,28.478393673863735,0.9302658137327474,128.0,116.0,143.0,171.0,314.0,12.0,894.0,891.0,13.0,7.0,6.0,0.5384615384615384,88.45308572963317,660.8739396882501,19.0,16.0,3.0,0.8421052631578947,1125.2148430881114,9491.066918159551,21.0,11.0,10.0,0.5238095238095238,2044.4289971022336,41652.19548113472,53.0,27.0,26.0,0.5094339622641509,44.58941463278297,1508.9200767694322,90.0,55.0,35.0,0.6111111111111112,71.22417134421609,8242.523627741826,0.0,0.0,0.0,0.0,53684.0,53696.0,53812.0,53830.0,53839.0,53860.0,53902.0,53955.0,54041.0,54126.0,0.10919832334315643,-0.20004655403875268,0.049673296893055136,-0.026565933881198423,0.008665355696792843
61,61,54575.729830932345,1177.4905000552556,5.515054570423591,54711.54796540086,-5458.173231133499,13.730545779136664,54735.06710963798,40095.143640145885,9.117736373703224,54823.77602395722,-1511.770029416819,25.907657532285256,54977.288674497104,8602.95781463101,30.15849167638683,0.976263456996036,131.0,116.0,162.0,155.0,317.0,15.0,883.0,885.0,16.0,8.0,8.0,0.5,97.8600373422238,1389.47138608504,17.0,14.0,3.0,0.8235294117647058,1107.326110078603,8618.35101958826,21.0,10.0,11.0,0.4761904761904761,2031.2919773107285,41608.7188310622,79.0,38.0,41.0,0.4810126582278481,58.269870901765174,1113.0215817802427,79.0,39.0,40.0,0.4936708860759494,61.9453627610239,8781.860709807901,0.0,0.0,0.0,0.0,54568.0,54583.0,54699.0,54715.0,54725.0,54746.0,54790.0,54861.0,54939.0,55016.0,0.08310898248234833,-0.2028748563278276,0.05066179574118961,-0.03854413685145179,0.007200472685763228
62,62,55388.46098404633,1306.7302817458003,6.239141929189278,55451.57558481036,2732.7878696242356,135.03102982193548,55542.520264061735,46115.23714390386,10.685927182248172,55665.90406919828,2045.3217995601897,30.57558481036868,55780.127013938894,10862.79561092679,32.72320598824452,0.962042276796765,-18.0,-66.0,334.0,142.0,476.0,48.0,814.0,806.0,48.0,21.0,27.0,0.4375,105.4581746951154,3904.288569813152,334.0,101.0,233.0,0.3023952095808383,78.77379809732574,2314.650396684302,26.0,14.0,12.0,0.5384615384615384,2039.088775892954,48934.84361711578,239.0,223.0,16.0,0.9330543933054394,123.45216809218894,2007.37941914002,99.0,53.0,46.0,0.5353535353535354,76.84128785456032,9741.190940532477,0.0,0.0,0.0,0.0,55367.0,55415.0,55349.0,55687.0,55529.0,55555.0,55421.0,55683.0,55729.0,55825.0,0.08070385768838431,0.028825434631396148,0.04421724579947234,0.060358310422709595,0.00707380407464045
63,63,55780.95881659626,7874.102828595042,26.50555502437945,56242.92690123429,-5996.1445198936235,12.739827004320285,56267.730345154654,40949.15294228017,9.53350867139806,56318.53415569612,-4211.048689017985,68.79506582332952,56508.23827679176,5329.183053437957,19.50775241463991,0.8565596726623083,489.0,407.0,212.0,99.0,311.0,82.0,403.0,727.0,85.0,47.0,38.0,0.5529411764705883,76.64253893708356,6681.15454816554,23.0,18.0,5.0,0.782608695652174,987.6684174337544,4002.5760796200952,21.0,11.0,10.0,0.5238095238095238,2047.809120183844,39103.696641808914,145.0,21.0,124.0,0.1448275862068965,82.37897336806957,4099.647293490976,55.0,26.0,29.0,0.4727272727272727,82.68502324153683,5488.503796359139,0.0,0.0,0.0,0.0,55736.0,55818.0,56225.0,56248.0,56257.0,56278.0,56303.0,56437.0,56483.0,56536.0,0.00973349480003663,-0.16471724691707004,0.05000858315849246,-0.019562579170102234,0.015515515682688955
64,64,56811.32873009842,2458.6534446412757,16.561099141623316,56954.69864360057,-5642.24620517579,10.19186160324544,56977.397559275865,40222.23521634456,9.276246990390742,57057.726017299574,-797.5405244456236,7.64389620259217,57211.88713202355,8474.111588819946,33.23567393422338,0.9819102613320974,154.0,114.0,121.0,192.0,313.0,40.0,1024.0,710.0,45.0,25.0,20.0,0.5555555555555556,98.25572223501688,2278.493872453486,18.0,15.0,3.0,0.8333333333333334,1179.540672938845,10928.267298036351,21.0,10.0,11.0,0.4761904761904761,2065.8610916178923,42856.467145198854,12.0,7.0,5.0,0.5833333333333334,101.58897176347187,582.7980546922661,84.0,42.0,42.0,0.5,85.17379297960919,8734.651424916463,0.0,0.0,0.0,0.0,56787.0,56827.0,56941.0,56957.0,56967.0,56988.0,57051.0,57062.0,57172.0,57254.0,0.0399632255815348,-0.20905515818448678,0.05136117076801382,-0.1273778179912389,0.010051058696463305
65,65,57599.06791364886,2139.1763648153783,13.978303037861815,57742.54796540086,-4973.857870813673,9.67289615586202,57765.844562845734,39865.894687789136,9.01615933713164,57848.67126990158,-1108.5023074594123,23.477600268351978,58005.02497843065,8188.708016088757,31.731561238090844,0.9863018010941468,145.0,115.0,125.0,190.0,315.0,30.0,780.0,787.0,32.0,15.0,17.0,0.46875,94.5485618222563,2134.6031362400167,17.0,14.0,3.0,0.8235294117647058,1095.3733104578953,9942.95477007953,21.0,11.0,10.0,0.5238095238095238,2057.82657643452,41728.69486312303,79.0,38.0,41.0,0.4810126582278481,97.66638531924436,1217.771503076796,81.0,41.0,40.0,0.5061728395061729,65.32572219109504,8358.792248508971,0.0,0.0,0.0,0.0,57585.0,57615.0,57730.0,57746.0,57755.0,57776.0,57811.0,57855.0,57966.0,58045.0,0.0441985819296467,-0.220226097911942,0.05161872303507663,-0.08810661435887034,0.007977537123407792
66,66,58617.178051898714,1677.0772548074372,9.640315908826263,58751.693534425576,-5890.226117164233,15.28779240518432,58776.55571405758,39535.820111020155,8.863442909827157,58844.49321800287,-2349.247254970753,36.152838932012976,59021.383477496405,7869.78160960563,28.851396730412176,0.97161593391208,139.0,107.0,150.0,170.0,320.0,32.0,1025.0,1011.0,34.0,20.0,14.0,0.5882352941176471,85.93128760966376,846.7584068290303,20.0,15.0,5.0,0.75,940.337601363269,5077.79639699789,21.0,11.0,10.0,0.5238095238095238,2020.8559885394425,39094.9011252543,73.0,29.0,44.0,0.3972602739726027,69.09122351871699,2484.618008333417,76.0,39.0,37.0,0.5131578947368421,89.82343657428731,8028.566895058106,0.0,0.0,0.0,0.0,58598.0,58630.0,58737.0,58757.0,58766.0,58787.0,58816.0,58887.0,58983.0,59057.0,0.05123871745522566,-0.15964371870599448,0.05111455846532831,-0.029409941151374096,0.011413714005055921
67,67,59513.09593080172,3036.0609973137957,20.40085498087899,59658.12330450071,-5238.9408663361555,8.581735965396074,59682.02572371752,39710.48672669384,9.23382358415068,59748.972626301,-859.342108759535,11.668381412970776,59922.14689393881,8791.970184390939,33.717276457802434,0.9871718507919752,150.0,106.0,121.0,196.0,317.0,44.0,887.0,906.0,45.0,18.0,27.0,0.4,103.57765503739355,3364.116107444075,16.0,13.0,3.0,0.8125,1067.2479328557772,8200.081483314822,22.0,11.0,11.0,0.5,2048.201241029669,42087.22991118269,32.0,13.0,19.0,0.40625,67.9951493793147,897.5812076566708,83.0,41.0,42.0,0.4939759036144578,64.48528395927697,9189.58213070855,0.0,0.0,0.0,0.0,59496.0,59540.0,59646.0,59661.0,59671.0,59693.0,59739.0,59767.0,59882.0,59963.0,0.03411580173423247,-0.2037144453592879,0.05157834642336038,-0.07912465674173243,0.0073345658148116395
68,68,60399.178051898714,1529.1919933777858,9.75008548688498,60535.54796540086,-6023.443414532468,15.28779240518434,60558.78081587051,40930.556698249246,8.983235908870192,60630.34253980316,-2189.838087212751,40.01021984418741,60800.01584595011,7725.584841019556,28.466908637555672,0.9674336298194642,141.0,109.0,156.0,159.0,315.0,32.0,895.0,876.0,33.0,19.0,14.0,0.5757575757575758,81.38172957126113,956.879727672045,19.0,16.0,3.0,0.8421052631578947,1117.7675791891388,8236.425741549103,21.0,11.0,10.0,0.5238095238095238,2078.3695169753087,40927.72469862483,79.0,32.0,47.0,0.4050632911392405,58.02682254549292,2405.5633005049913,78.0,40.0,38.0,0.5128205128205128,85.65817157583385,7841.174970695021,0.0,0.0,0.0,0.0,60380.0,60412.0,60521.0,60539.0,60548.0,60569.0,60599.0,60677.0,60765.0,60836.0,0.05321877823300624,-0.18556953261856093,0.05077794402596553,-0.02649822508994264,0.011087597034858196
69,69,61308.246609001435,2350.1346567949654,15.600238438876175,61453.54796540086,-5405.2826134963025,15.287792405159644,61476.69660040367,40653.62743469938,8.97069310265523,61551.7672007033,-1919.1616461152369,26.702569099140785,61718.53415569612,8163.857672681155,31.956476344070385,0.9819736041973088,146.0,105.0,148.0,169.0,317.0,41.0,901.0,918.0,41.0,14.0,27.0,0.3414634146341463,88.10378387000654,2922.3563771650397,18.0,15.0,3.0,0.8333333333333334,1122.5246847536068,8619.69037428343,21.0,11.0,10.0,0.5238095238095238,2041.4274012157648,40820.3462302858,78.0,37.0,41.0,0.4743589743589743,55.249762102727054,1605.463871117062,87.0,47.0,40.0,0.5402298850574713,85.80089408730764,8298.671756936961,0.0,0.0,0.0,0.0,61294.0,61335.0,61440.0,61457.0,61466.0,61487.0,61519.0,61588.0,61677.0,61757.0,0.03748882372134349,-0.20767178425616556,0.05021513527900663,-0.02878848804349728,0.010509846879671178
70,70,62235.54796540086,1982.332124893997,15.075774303609611,62380.12330450071,-5622.3955523222485,12.739827004320222,62403.417621599976,39803.19326039129,9.048807739353585,62484.493008224665,-1521.7450168719504,24.447634107078393,62647.383477496405,8095.879616766092,30.69359840157777,0.9807862305006372,140.0,103.0,150.0,166.0,316.0,37.0,929.0,927.0,38.0,9.0,29.0,0.2368421052631578,83.70909692389517,2878.1730529980155,16.0,13.0,3.0,0.8125,1051.4270371746377,7597.910971711767,21.0,10.0,11.0,0.4761904761904761,2051.710162537858,42016.382754281694,75.0,40.0,35.0,0.5333333333333333,72.74579163105723,1425.7252828728967,81.0,44.0,37.0,0.5432098765432098,82.2842764533743,8227.120135524365,0.0,0.0,0.0,0.0,62227.0,62264.0,62367.0,62383.0,62393.0,62414.0,62451.0,62517.0,62605.0,62683.0,0.0422275843047095,-0.1870069487978947,0.051546370893300754,-0.04780419243993394,0.01016372282549365
71,71,63131.75589334778,3038.128256674898,13.63690873375085,63269.07556080792,-6134.473831965933,12.739827004306727,63292.71427812411,40139.5317913303,9.076387810108512,63375.15230866771,-2267.192359594881,28.87421536356983,63535.27480816525,8454.120683552526,29.396701540055012,0.982296152456042,139.0,104.0,151.0,167.0,318.0,35.0,899.0,890.0,35.0,16.0,19.0,0.4571428571428571,119.98257358379936,3263.7352222588315,18.0,14.0,4.0,0.7777777777777778,1069.081014448184,6861.9068188264,21.0,11.0,10.0,0.5238095238095238,2051.2173153739063,41195.45193855953,68.0,37.0,31.0,0.5441176470588235,65.93146324478103,2170.5309768874695,78.0,39.0,39.0,0.5,71.87491368036859,8531.087177902751,0.0,0.0,0.0,0.0,63116.0,63151.0,63255.0,63273.0,63282.0,63303.0,63338.0,63406.0,63498.0,63573.0,0.039492267424916155,-0.1742742806852226,0.05110217343932614,-0.02908066576960508,0.008501761019357233
72,72,64017.92662206843,4533.553745747638,39.89523125929191,64147.560559428486,-4855.3700937229305,8.125249547931041,64170.95567873887,39524.96289322113,9.00353502521014,64266.39753291166,3299.755237184589,88.9907119791087,64411.03502832185,9835.82336817838,36.435891321006174,0.9668671412614792,159.0,75.0,338.0,-21.0,317.0,84.0,890.0,877.0,84.0,39.0,45.0,0.4642857142857143,83.30679387359281,4632.511373751619,13.0,11.0,2.0,0.8461538461538461,1113.457493879374,11402.895194125183,22.0,11.0,11.0,0.5,2039.265503760842,43689.29222602879,324.0,115.0,209.0,0.3549382716049383,65.01890127179682,3224.165487937553,109.0,64.0,45.0,0.5871559633027523,68.32966378018355,11064.115474560358,0.0,0.0,0.0,0.0,63979.0,64063.0,64138.0,64150.0,64160.0,64182.0,64151.0,64476.0,64351.0,64455.0,0.018375605219576926,-0.22932494792083152,0.05159436858347041,0.019704158823389616,0.0069470202160450524
73,73,64894.808138396555,3392.7101638805366,24.066437926608035,65033.69864360057,-5114.677634474775,9.811543286212588,65057.6126866235,39471.92761051163,8.999023647650713,65095.684588185315,2300.3342212685866,259.8924708881338,65299.96705266454,9073.761349515184,33.642964125011886,0.9860167061758351,169.0,97.0,490.0,-173.0,317.0,72.0,883.0,887.0,80.0,44.0,36.0,0.55,99.68592516781844,5199.102473642839,11.0,9.0,2.0,0.8181818181818182,1046.0426021304472,10446.495082252906,22.0,11.0,11.0,0.5,2042.3861479285845,43187.01276587285,80.0,59.0,21.0,0.7375,110.4707132173317,801.208530927096,97.0,53.0,44.0,0.5463917525773195,76.09522114535382,11060.70434524302,0.0,0.0,0.0,0.0,64857.0,64929.0,65026.0,65036.0,65047.0,65069.0,65037.0,65516.0,65252.0,65343.0,0.029382387634845592,-0.20451779699266717,0.05174275166092177,0.04802376637096213,0.008386292984156964
74,74,65725.82194810128,2134.440038107683,12.422437900353602,65867.12330450071,-6009.373646352316,12.030222985886049,65890.22608389276,40039.34807220637,9.190709961429516,65959.49321800287,-1527.352891983167,32.34855646280167,66131.99361657962,8348.379268891644,29.79109202031558,0.9818049818954336,141.0,106.0,160.0,155.0,315.0,35.0,817.0,834.0,36.0,14.0,22.0,0.3888888888888889,82.29991344154647,2401.078167501272,17.0,14.0,3.0,0.8235294117647058,1113.869962283262,8072.985332233449,21.0,10.0,11.0,0.4761904761904761,2059.353209569887,41478.64829312886,85.0,29.0,56.0,0.3411764705882353,49.24539470804978,1504.541902311717,81.0,42.0,39.0,0.5185185185185185,73.1251432597172,8466.564000818624,0.0,0.0,0.0,0.0,65713.0,65748.0,65854.0,65870.0,65880.0,65901.0,65931.0,66014.0,66094.0,66169.0,0.03855808173206429,-0.18535541769138952,0.05143323527286408,-0.032242316079362565,0.008759202343885069
75,75,66558.47940829814,2265.631487925584,13.421949325086638,66697.12330450071,-5595.328185387817,12.36922143602735,66719.82133464914,40190.07918816684,9.040828706008552,66792.91787890301,-1645.9129433625194,26.40083094818648,66962.80813839656,8239.78549703323,29.295314075741796,0.9814955629660174,144.0,107.0,150.0,163.0,313.0,37.0,842.0,828.0,40.0,20.0,20.0,0.5,71.63718027460749,1974.154900645166,17.0,14.0,3.0,0.8235294117647058,1123.560478366183,8687.913180733027,22.0,11.0,11.0,0.5,2057.571386511789,41434.99884608667,72.0,31.0,41.0,0.4305555555555556,58.29308081371155,1628.7922365393893,77.0,42.0,35.0,0.5454545454545454,71.87721763582121,8313.983071238466,0.0,0.0,0.0,0.0,66540.0,66577.0,66684.0,66700.0,66709.0,66731.0,66763.0,66834.0,66924.0,66997.0,0.031619078679118555,-0.20080332040225232,0.05119600229893549,-0.03541686761064145,0.0087231903866552
76,76,67449.6706076131,2432.089211637441,15.132626440337969,67590.12330450071,-5253.567424273345,12.739827004320285,67613.22223379092,40034.201410401045,8.999213688118846,67695.86810418258,-1386.4812181742218,22.09356256010257,67858.38347749642,8235.053614694238,31.37899331728904,0.9758060130657076,146.0,105.0,146.0,172.0,318.0,41.0,881.0,893.0,44.0,21.0,23.0,0.4772727272727273,84.54506485061165,2400.1450519042614,17.0,14.0,3.0,0.8235294117647058,1052.106208161408,8240.31565594638,21.0,10.0,11.0,0.4761904761904761,2055.879754677139,42044.27363144921,60.0,30.0,30.0,0.5,52.90421576241604,1292.9144123255342,85.0,48.0,37.0,0.5647058823529412,68.01153177249383,8316.230155894318,0.0,0.0,0.0,0.0,67430.0,67471.0,67576.0,67593.0,67603.0,67624.0,67666.0,67722.0,67811.0,67894.0,0.03476232057856562,-0.20026510049158294,0.051353085168398364,-0.03815718169776767,0.00825878433276224
77,77,68355.90406919828,1457.557685786855,15.364952094796568,68502.12330450071,-5614.779037172214,11.522281704240218,68525.2599430988,39245.0046729508,9.089748745213608,68600.36991350215,-1522.9325771668573,23.68209130284865,68767.74017810596,8040.26939681527,29.96558803242508,0.9814429703162606,139.0,115.0,144.0,174.0,318.0,24.0,916.0,913.0,29.0,8.0,21.0,0.2758620689655172,103.45951741389268,1352.5001252354964,17.0,14.0,3.0,0.8235294117647058,1072.2847881118032,8023.059439505305,21.0,10.0,11.0,0.4761904761904761,2021.6206840213931,41390.65677609871,73.0,31.0,42.0,0.4246575342465753,46.59839019866961,1085.9237887064808,79.0,39.0,40.0,0.4936708860759494,67.13867618012586,8008.152665074632,0.0,0.0,0.0,0.0,68349.0,68373.0,68488.0,68505.0,68515.0,68536.0,68579.0,68632.0,68730.0,68806.0,0.07098142215760099,-0.1909754205842873,0.05151281547469845,-0.03059780248798509,0.008350301820324492
78,78,69214.70973553446,1428.5719658812814,5.855308102244606,69355.54796540085,-6731.041905545733,14.240091523942777,69378.70929771714,40651.90143295277,9.171567084075347,69450.49321800287,-2176.799787097532,50.95930801728114,69621.09522961179,7979.629207809699,27.89715337788113,0.9690017083336624,137.0,120.0,171.0,143.0,314.0,17.0,854.0,854.0,17.0,10.0,7.0,0.5882352941176471,112.54083723348712,1603.6365239420045,18.0,15.0,3.0,0.8333333333333334,1183.8655008673702,7305.981876197944,20.0,10.0,10.0,0.5,2082.2287553521583,40641.67466511259,110.0,30.0,80.0,0.2727272727272727,85.19165266224755,2103.0396623879237,74.0,38.0,36.0,0.5135135135135135,97.33584978993292,7842.802833141767,0.0,0.0,0.0,0.0,69205.0,69222.0,69342.0,69359.0,69369.0,69389.0,69422.0,69513.0,69586.0,69656.0,0.0787785564334948,-0.1758814634465399,0.05122094371861992,-0.03913619119553438,0.012198041695304574
79,79,70090.38603076547,1104.791985941933,5.402968274741258,70227.0163123808,-5963.817553600063,12.739827004320285,70249.38248558994,39853.37131334622,9.001262217035832,70317.7672007033,-2516.894975123677,34.70988691687453,70458.7544589021,11828.218047252873,45.02878469048616,0.946365786339299,131.0,116.0,130.0,181.0,311.0,15.0,875.0,870.0,15.0,8.0,7.0,0.5333333333333333,84.51286143582858,1199.357306839683,19.0,16.0,3.0,0.8421052631578947,1131.8660300350473,9042.297617139511,21.0,10.0,11.0,0.4761904761904761,2056.556387259457,41173.96395255066,64.0,34.0,30.0,0.53125,75.63838115395662,2345.0303720236902,126.0,61.0,65.0,0.4841269841269841,63.131935645709866,10086.340575984868,0.0,0.0,0.0,0.0,70082.0,70097.0,70213.0,70230.0,70239.0,70260.0,70285.0,70343.0,70398.0,70524.0,0.07649662788219258,-0.1897888424423372,0.05160307194816292,-0.03005225959030724,0.0053374003923078155
80,80,71064.21923530243,2233.1336408068696,17.91641437640571,71114.12330450071,-4232.8248681356245,7.067107244552301,71138.37727100792,41424.3769982772,9.646589044893917,71219.57533965577,-106.36996376721076,0.5422187801850741,71379.38347749642,9117.268874480376,32.23996449770589,0.9368589921460976,66.0,14.0,115.0,194.0,309.0,52.0,967.0,888.0,59.0,26.0,33.0,0.4406779661016949,69.65970071037127,1528.5111590849947,11.0,8.0,3.0,0.7272727272727273,1038.819157244797,9909.249122340658,22.0,11.0,11.0,0.5,2053.857989726013,44905.123559721906,3.0,2.0,1.0,0.6666666666666666,69.22323979782405,438.7353329349702,86.0,48.0,38.0,0.5581395348837209,121.34879730847696,10106.38514014106,0.0,0.0,0.0,0.0,71040.0,71092.0,71106.0,71117.0,71127.0,71149.0,71218.0,71221.0,71343.0,71415.0,0.03119369993692004,-0.24541982945359886,0.04958090232259693,-0.6507780706715119,0.013309774997218455
81,81,0.0,0.0,0.0,0.0,0.0,0.0,0.0,0.0,0.0,0.0,0.0,0.0,0.0,0.0,0.0,0.0,0.0,0.0,0.0,0.0,0.0,0.0,0.0,0.0,0.0,0.0,0.0,0.0,0.0,0.0,0.0,0.0,0.0,0.0,0.0,0.0,0.0,0.0,0.0,0.0,0.0,0.0,0.0,0.0,0.0,0.0,0.0,0.0,0.0,0.0,0.0,0.0,0.0,0.0,0.0,0.0,0.0,0.0,71904.0,71990.0,71823.0,,72014.0,72038.0,72002.0,72579.0,72216.0,72313.0,,,,,
82,82,72738.60271279886,1673.0507066312066,15.602631884727806,72877.54796540085,-5612.808711977308,12.261140681762836,72900.69519661977,39711.814530475254,8.844757500310946,72978.65314554899,-1819.0852806996184,24.280406658087067,73143.80813839656,8734.964307001015,28.134083620247463,0.9734479692883856,132.0,115.0,144.0,169.0,313.0,17.0,1685.0,1765.0,36.0,17.0,19.0,0.4722222222222222,130.0637179752405,1295.5758766172871,18.0,15.0,3.0,0.8333333333333334,1110.6577294996102,8811.074895808424,20.0,10.0,10.0,0.5,2060.2321793997044,40541.52924156565,68.0,38.0,30.0,0.5588235294117647,95.47238087767587,1877.036397012544,72.0,38.0,34.0,0.5277777777777778,119.42420560349612,9104.304335672212,0.0,0.0,0.0,0.0,72733.0,72750.0,72865.0,72881.0,72891.0,72911.0,72941.0,73009.0,73107.0,73178.0,0.07774045189409233,-0.19787913440369898,0.05187957799859941,-0.052483730087111304,0.013671974080967729
83,83,73612.47742206811,1599.2578884164138,6.435404070311077,73745.20784342225,-6014.492022543999,12.739827003948006,73768.68045266942,38458.039296504845,8.853131890167893,73850.83307969155,-3684.588483142604,44.07456302821448,74011.93144289727,4285.306159806015,21.6521028624297,0.9679101045460052,128.0,110.0,162.0,146.0,308.0,18.0,868.0,867.0,18.0,9.0,9.0,0.5,144.06232008556924,1407.4896077958135,18.0,14.0,4.0,0.7777777777777778,988.992335376353,5523.033315377842,20.0,10.0,10.0,0.5,1989.0282739826512,38406.370911479346,92.0,46.0,46.0,0.5,68.15479095353503,3492.241872683301,77.0,48.0,29.0,0.6233766233766234,68.65721310958466,3964.2078858113578,0.0,0.0,0.0,0.0,73603.0,73621.0,73731.0,73749.0,73759.0,73779.0,73806.0,73893.0,73972.0,74039.0,0.09008073127481638,-0.16443489020674282,0.05171944046984784,-0.0184972599424198,0.01602154211373607
84,84,74421.3957574938,2505.1940076514115,15.63756549826297,74557.69864360057,-6725.4089978631755,9.561142470920467,74581.7589894174,38964.89957048234,9.445496001330822,74638.18883314096,3700.079494962628,77.9112820804368,74820.35241019963,9572.36472999739,34.62879652215959,0.9883261535624314,139.0,109.0,335.0,-21.0,314.0,30.0,812.0,813.0,30.0,12.0,18.0,0.4,102.25328568131812,2951.370430208697,14.0,12.0,2.0,0.8571428571428571,1148.3626350944096,9935.10584033298,22.0,11.0,11.0,0.5,2009.4125266316175,44499.763175079686,318.0,76.0,242.0,0.2389937106918239,102.01242107316452,2425.8156740361146,93.0,51.0,42.0,0.5483870967741935,109.14055599083296,9942.10888489172,0.0,0.0,0.0,0.0,74409.0,74439.0,74548.0,74560.0,74571.0,74593.0,74562.0,74883.0,74772.0,74862.0,0.04081651375862076,-0.1707498585527322,0.05156981151707722,0.027570332262332888,0.011401629489609169
85,85,75288.2622001339,2142.3415286310633,30.57558481031765,75416.27398270041,-4676.8123820702085,7.641155365458606,75439.22136003485,40389.161730584725,9.246460920129577,75501.04527888597,-267.7812725207327,1.4768986345374064,75680.1702972119,9510.475778281629,33.39364885875937,0.9892966713320216,132.0,105.0,98.0,217.0,315.0,27.0,866.0,856.0,27.0,15.0,12.0,0.5555555555555556,113.76879024991426,2986.330771403732,15.0,12.0,3.0,0.8,1093.7498869045305,10118.778645670149,22.0,11.0,11.0,0.5,2053.7361699453227,43125.15947411339,4.0,2.0,2.0,0.5,61.13581046419595,438.1989965794831,84.0,43.0,41.0,0.5119047619047619,112.1521924217063,9585.223378522172,0.0,0.0,0.0,0.0,75273.0,75300.0,75405.0,75418.0,75428.0,75450.0,75499.0,75503.0,75638.0,75720.0,0.053104880211425246,-0.23386653078017597,0.050848695094113064,-0.22830502629515498,0.011792490200944519
86,86,76103.46033938408,2897.1847732731208,20.799669665441428,76236.12330450071,-4907.292547535045,7.32556946990701,76260.18461258594,41360.56894899961,9.42791980886002,76346.95519922693,-42.57713496608061,0.2053257527079225,76510.65746019685,9112.393645003349,33.36749901874897,0.9684749623917062,144.0,105.0,123.0,194.0,317.0,39.0,820.0,822.0,44.0,22.0,22.0,0.5,104.68921854115128,2659.3511730276305,14.0,11.0,3.0,0.7857142857142857,1079.093028074131,9470.085518506428,22.0,11.0,11.0,0.5,2081.2207390705635,44220.89257332758,2.0,1.0,1.0,0.5,59.71395910266806,17.368000911507465,92.0,60.0,32.0,0.6521739130434783,91.74737128969043,9502.830351345128,0.0,0.0,0.0,0.0,76081.0,76120.0,76225.0,76239.0,76249.0,76271.0,76346.0,76348.0,76451.0,76542.0,0.03613480904184019,-0.21989580152831206,0.050318958175765184,-1.4024888980961174,0.010068416144423128
87,87,76901.45203459915,1844.1876628177597,8.718635207965619,77036.12330450071,-5932.4633617697655,12.739827004320285,77058.70795635035,39852.74143078352,8.94239194217377,77151.28779240517,-2692.7494327228183,46.74063686455375,77304.14763798183,8193.943526898047,24.332993556698767,0.9594063601909304,139.0,113.0,204.0,108.0,312.0,26.0,796.0,800.0,28.0,18.0,10.0,0.6428571428571429,126.7751654540826,1061.2684033337105,18.0,15.0,3.0,0.8333333333333334,1100.5129296072023,8076.885643292159,20.0,10.0,10.0,0.5,2071.1742788143774,40485.8980093523,128.0,52.0,76.0,0.40625,52.551854005058054,2500.5460047662627,62.0,30.0,32.0,0.4838709677419355,130.8529567423349,8518.12465651975,0.0,0.0,0.0,0.0,76884.0,76910.0,77023.0,77039.0,77049.0,77069.0,77100.0,77227.0,77276.0,77335.0,0.06874309378058688,-0.18550690707997877,0.051970685188912416,-0.01951605796159035,0.015969472612642165
88,88,0.0,0.0,0.0,0.0,0.0,0.0,0.0,0.0,0.0,0.0,0.0,0.0,0.0,0.0,0.0,0.0,0.0,0.0,0.0,0.0,0.0,0.0,0.0,0.0,0.0,0.0,0.0,0.0,0.0,0.0,0.0,0.0,0.0,0.0,0.0,0.0,0.0,0.0,0.0,0.0,0.0,0.0,0.0,0.0,0.0,0.0,0.0,0.0,0.0,0.0,0.0,0.0,0.0,0.0,0.0,0.0,0.0,0.0,77713.0,77740.0,77839.0,77867.0,77877.0,77898.0,77743.0,77989.0,78085.0,78163.0,,,,,
89,89,78531.82194810128,1615.210090533648,10.837331060282844,78670.972626301,-6154.565530951167,17.8357578060484,78693.74462078104,40712.76663894388,8.960093883214263,78746.69864360057,-2529.2570794805674,6.5319759949894785,78932.65746019685,7776.1299376194,26.357743110574123,0.9630889385377758,134.0,104.0,96.0,215.0,311.0,30.0,1624.0,1634.0,36.0,16.0,20.0,0.4444444444444444,163.9842285767469,1185.7102874063207,23.0,19.0,4.0,0.8260869565217391,1080.2317216964325,7947.654940183835,20.0,10.0,10.0,0.5,2042.8992740678304,40882.293942471144,10.0,7.0,3.0,0.7,401.6444811862784,2023.7186569145056,74.0,37.0,37.0,0.5,204.72963992818185,7640.499739733214,0.0,0.0,0.0,0.0,78519.0,78549.0,78653.0,78675.0,78684.0,78704.0,78740.0,78749.0,78897.0,78964.0,0.10152501494252568,-0.17551713703655802,0.05017834558346351,-0.15879938992550494,0.026327960254077003
90,90,80102.4581200249,3075.9991853561537,28.989624485994625,80235.027373699,-5928.078905744588,17.8357578060484,80264.13582227478,40396.9992463929,8.868398625245758,80363.65770590241,-3419.4623170523314,129.9462354440669,80509.20542559771,8631.162025584668,25.92317984945559,0.9189816234620464,116.0,77.0,218.0,115.0,333.0,39.0,1570.0,1570.0,40.0,20.0,20.0,0.5,170.23207888046997,2965.6025163503996,46.0,36.0,10.0,0.782608695652174,611.5663338936386,3605.8639133633073,20.0,10.0,10.0,0.5,2071.9972765285875,38461.885351735094,131.0,73.0,58.0,0.5572519083969466,141.1013674413387,3912.3291233018494,58.0,35.0,23.0,0.603448275862069,119.32870599484072,5958.910809125506,0.0,0.0,0.0,0.0,80083.0,80122.0,80199.0,80245.0,80254.0,80274.0,80291.0,80417.0,80476.0,80532.0,0.05534204290134092,-0.10316433765768568,0.0512908709850175,-0.04126419722120871,0.01382533494807815
91,91,81635.17972673567,4108.61883946504,15.5126633423235,81773.84932180027,-3900.634305303018,5.095930801728113,81798.48111765322,40308.353857891736,8.678749912254395,81835.98594458475,2979.438130989262,119.80897893119968,82036.95306265434,7881.316026195037,33.54260453490903,0.9789907203351657,157.0,112.0,361.0,-57.0,304.0,45.0,1538.0,1533.0,45.0,21.0,24.0,0.4666666666666667,134.66992568382483,4625.125778456356,5.0,4.0,1.0,0.8,1000.4990590616638,10730.474272845046,22.0,11.0,11.0,0.5,2091.2304609067287,45656.77947334807,86.0,59.0,27.0,0.686046511627907,155.8446347672464,1638.155743372878,96.0,57.0,39.0,0.59375,115.14659784342444,8848.52602590949,0.0,0.0,0.0,0.0,81614.0,81659.0,81771.0,81775.0,81787.0,81809.0,81775.0,82132.0,81985.0,82075.0,0.03277742008829406,-0.2564965030691183,0.05188082024583346,0.05230671956108091,0.01461007241185521
92,92,82400.15067819973,497.2163572223446,3.413087778676034,82533.40647672932,-5996.365910255585,12.739827001841354,82557.35339997198,39292.767725351274,8.994123323623562,82634.14553037548,-2490.6065443370812,25.802114249016224,82804.35610379743,7147.2898789221135,25.45354086630266,0.911424620699459,119.0,115.0,145.0,167.0,312.0,4.0,765.0,760.0,10.0,6.0,4.0,0.6,153.73985914134664,441.8256306454557,20.0,15.0,5.0,0.75,979.5135718011576,5587.219971667648,21.0,10.0,11.0,0.4761904761904761,2034.342580012252,41602.04394490599,65.0,36.0,29.0,0.5538461538461539,138.57483587545454,2513.5211075914035,76.0,50.0,26.0,0.6578947368421053,99.81594753752148,7018.429599417332,0.0,0.0,0.0,0.0,82399.0,82403.0,82518.0,82537.0,82547.0,82568.0,82598.0,82663.0,82754.0,82830.0,0.3092011292633268,-0.1633512007874462,0.05177397006573594,-0.055638991309379486,0.013965565861808136
93,93,82915.53559454768,200.0213551654641,1.248393113126383,83239.86312515078,-5696.977146264732,12.739827004320274,83265.94818513741,38444.70976733646,8.765610405616847,83339.34253980315,-1518.4103166787345,33.10381704781745,83504.2327992967,7352.614965271203,26.228781078245337,0.9371760554448684,315.0,310.0,166.0,143.0,309.0,5.0,515.0,708.0,5.0,3.0,2.0,0.6,52.073642438960725,210.2956156531803,19.0,13.0,6.0,0.6842105263157895,820.591124898673,3183.2725719132213,20.0,10.0,10.0,0.5,2028.7729063366312,40010.64392138022,88.0,32.0,56.0,0.3636363636363636,64.54298798508272,1238.9374277891736,71.0,37.0,34.0,0.5211267605633803,89.26573325199236,7345.006979282151,0.0,0.0,0.0,0.0,82913.0,82918.0,83228.0,83246.0,83256.0,83276.0,83308.0,83394.0,83468.0,83537.0,0.2603404141316998,-0.14403974315338441,0.052771185388433464,-0.04250694774404561,0.012140678340103964
94,94,83813.81495137037,2169.416764704109,12.37504481430304,83957.84953257776,-5675.393169386346,10.191861603456196,83981.72878155287,38954.06343470908,9.166971106607653,84053.64389620257,-1197.9336697098015,18.877588728570792,84221.80813839656,7731.723941365868,30.52292873499438,0.9864702490262426,148.0,115.0,130.0,181.0,311.0,33.0,899.0,717.0,33.0,17.0,16.0,0.5151515151515151,73.19436420836828,2183.1126206952536,16.0,13.0,3.0,0.8125,1058.8228325146708,7494.682632080463,21.0,11.0,10.0,0.5238095238095238,2009.2155544630052,40633.51962870823,66.0,28.0,38.0,0.4242424242424242,64.14802029905982,827.0739665170081,80.0,45.0,35.0,0.5625,66.61219832217512,7513.23890015753,0.0,0.0,0.0,0.0,83797.0,83830.0,83945.0,83961.0,83971.0,83992.0,84028.0,84075.0,84178.0,84256.0,0.03373918990542668,-0.18656378525915526,0.051579100543147495,-0.05354889166325848,0.00861543930271359
95,95,84671.2057937785,2269.930186050392,15.52746772736956,84810.54796540085,-5158.154545116658,9.126758871647093,84834.0685694421,39569.34260315349,9.002085310594392,84904.52059170186,-1494.6435302747757,20.09750124044684,85073.94646958727,7848.97883315998,29.53314616085728,0.9868912682663296,147.0,108.0,142.0,171.0,313.0,39.0,860.0,851.0,42.0,21.0,21.0,0.5,79.1984509769454,2234.2239498407716,17.0,14.0,3.0,0.8235294117647058,1096.2136697578512,9281.914374032249,22.0,11.0,11.0,0.5,2055.6060443503584,41964.26373375156,60.0,20.0,40.0,0.3333333333333333,57.454959886136386,1483.9758518234714,77.0,40.0,37.0,0.5194805194805194,74.02961411405386,8172.75527909471,0.0,0.0,0.0,0.0,84651.0,84690.0,84798.0,84814.0,84823.0,84845.0,84886.0,84940.0,85038.0,85111.0,0.03489025850383013,-0.2125205168184931,0.051949461606332986,-0.03844057711578482,0.009431751019801095
96,96,85532.33102016934,2655.5986886618343,13.552001261332457,85672.54796540085,-6412.572281446899,12.339406960942783,85695.63493224827,40435.80385133235,9.07583629410864,85780.9428013873,-1988.3904058946416,31.456240570568056,85934.55297688162,7230.682560494309,29.78722629883491,0.986340996684438,143.0,107.0,168.0,146.0,314.0,36.0,854.0,863.0,36.0,16.0,20.0,0.4444444444444444,83.94329679187587,2699.7747087121497,17.0,14.0,3.0,0.8235294117647058,1192.8352421951645,8528.122703501098,21.0,11.0,10.0,0.5238095238095238,2072.071839261431,41302.171920657165,90.0,43.0,47.0,0.4777777777777778,46.20973654224404,1798.9243640176994,83.0,43.0,40.0,0.5180722891566265,119.58595466997431,7071.113477797762,0.0,0.0,0.0,0.0,85516.0,85552.0,85659.0,85676.0,85685.0,85706.0,85739.0,85827.0,85897.0,85973.0,0.03160993306340846,-0.18601509501051883,0.051243493189344784,-0.023239770421972426,0.0165386813304938
97,97,86384.78076469757,3609.282444623077,32.4524848703231,86520.54796540085,-4877.208915354308,6.907990797091087,86545.78238675326,40904.259722948984,8.917404609888223,86592.79372668,2005.9195287238597,88.21793801935031,86777.81726395694,9843.672041568308,36.231033399955344,0.9813885003376572,158.0,103.0,340.0,-28.0,312.0,55.0,863.0,850.0,69.0,41.0,28.0,0.5942028985507246,76.88015980393622,4162.570986091855,12.0,9.0,3.0,0.75,1013.6435623672708,9055.244896422437,22.0,11.0,11.0,0.5,2091.8277941984365,44302.71610163138,70.0,68.0,2.0,0.9714285714285714,207.50858492049585,1002.668090576144,102.0,55.0,47.0,0.5392156862745098,120.88434671243095,9961.475009507189,0.0,0.0,0.0,0.0,86354.0,86409.0,86512.0,86524.0,86535.0,86557.0,86525.0,86852.0,86727.0,86824.0,0.021300677069057958,-0.2078327133324437,0.05113960766841197,0.10344811042968914,0.012280411842446092
98,98,87274.9047383173,2567.340085011592,14.95541519804556,87414.12330450071,-6065.44615620705,12.739827002057094,87436.49312394795,41230.33468805384,9.06711337409627,87521.92535462481,-2039.0446762907775,29.46303445858694,87678.80813839656,7542.528510760518,27.75491500976245,0.9781067990831352,144.0,106.0,154.0,158.0,312.0,38.0,879.0,891.0,42.0,21.0,21.0,0.5,84.90183500727062,2466.8164941080313,19.0,16.0,3.0,0.8421052631578947,1164.4806742423398,9555.91627761043,21.0,10.0,11.0,0.4761904761904761,2113.783812229072,43449.44403529237,76.0,43.0,33.0,0.5657894736842105,101.50694673027624,2070.12038763006,75.0,41.0,34.0,0.5466666666666666,94.47045512648246,7697.491258981899,0.0,0.0,0.0,0.0,87257.0,87295.0,87401.0,87417.0,87426.0,87447.0,87480.0,87555.0,87639.0,87713.0,0.03306996042438502,-0.19198598821138213,0.051267685024189824,-0.0497816197509352,0.012525037855900256
99,99,88161.75339099858,1617.932667322113,10.285831126987548,88294.12330450071,-5986.378806624614,12.739827002369426,88317.34892259452,40845.11613264463,9.065881706380791,88391.79457440229,-1470.4866802285148,23.407004839124003,88563.2327992967,7470.530233562768,29.800543858528,0.9761684157351684,136.0,105.0,147.0,168.0,315.0,31.0,895.0,880.0,32.0,17.0,15.0,0.53125,86.88081989622488,936.032723428158,16.0,13.0,3.0,0.8125,1122.820192434203,7558.666441079,21.0,10.0,11.0,0.4761904761904761,2101.9051717871084,43143.75547313967,67.0,31.0,36.0,0.4626865671641791,60.75753215793845,1249.0825367128857,77.0,43.0,34.0,0.5584415584415584,108.69154594820488,7072.06866244847,0.0,0.0,0.0,0.0,88145.0,88176.0,88281.0,88297.0,88307.0,88328.0,88369.0,88428.0,88520.0,88596.0,0.053698662281183696,-0.18756250292608842,0.05146037937463969,-0.04131797518118061,0.014549375017570717
100,100,88980.24660900142,2374.5310902672272,13.040522967586872,89118.54796540085,-5862.692928720731,11.769846948352722,89142.146472518,41024.40139579184,9.001521650569988,89225.19186160344,-1720.165976190527,26.11802846156635,89381.16792877653,8423.520873314665,31.095660020523415,0.9824246562138134,140.0,105.0,157.0,156.0,313.0,35.0,810.0,824.0,38.0,15.0,23.0,0.3947368421052631,122.76154133893512,2331.3747240961948,18.0,15.0,3.0,0.8333333333333334,1128.4718155738865,8480.50222618368,21.0,10.0,11.0,0.4761904761904761,2120.6349755526708,43239.11749963689,76.0,35.0,41.0,0.4605263157894737,61.08169975518137,1396.5331538257817,78.0,39.0,39.0,0.5,84.76356628891669,8866.075973268784,0.0,0.0,0.0,0.0,88966.0,89001.0,89106.0,89122.0,89132.0,89153.0,89191.0,89263.0,89342.0,89419.0,0.05169927731926208,-0.1924835275007529,0.051692039454601255,-0.03550918957858512,0.010062724075088821
101,101,89829.12330450071,2126.7834830677566,12.739827004320285,89974.33422392239,-6087.418548195899,12.739827004320206,89997.56695481885,40034.876658654175,8.977233452838437,90086.55614866845,-2340.7941393227684,33.54782095635642,90242.2327992967,7637.348080341989,27.75013477580176,0.9810205118061432,139.0,106.0,165.0,149.0,314.0,33.0,851.0,856.0,36.0,8.0,28.0,0.2222222222222222,101.71929159672246,2917.154284982007,18.0,14.0,4.0,0.7777777777777778,1057.417821954036,6839.58525094046,21.0,11.0,10.0,0.5238095238095238,2060.5583082077533,41073.54551795675,93.0,48.0,45.0,0.5161290322580645,63.10130645908507,2050.7133597061247,74.0,41.0,33.0,0.5540540540540541,70.93332523099646,7727.103223205961,0.0,0.0,0.0,0.0,89822.0,89855.0,89961.0,89978.0,89987.0,90008.0,90041.0,90126.0,90202.0,90275.0,0.047827760750708166,-0.17370545717895777,0.051469080965991454,-0.02695722165356299,0.009287690502620141
102,102,90679.4099919126,2502.658237768469,12.301406148566596,90818.12330450072,-6454.620732136419,10.927449117704343,90840.79879148676,40022.0333986007,9.204446269514678,90925.42131124654,-1429.5512738957138,25.99707151690297,91081.29187354664,7784.2393484338,29.404524142200547,0.9882489857981216,143.0,108.0,145.0,168.0,313.0,35.0,851.0,844.0,36.0,17.0,19.0,0.4722222222222222,82.90258468445494,2561.069411563377,16.0,13.0,3.0,0.8125,1180.2722244007596,8471.951735873945,22.0,11.0,11.0,0.5,2060.9140526773517,41965.34974548507,57.0,30.0,27.0,0.5263157894736842,58.37815180510058,1315.7624071222065,75.0,37.0,38.0,0.4933333333333333,63.214474912227494,7997.513964601105,0.0,0.0,0.0,0.0,90662.0,90697.0,90805.0,90821.0,90830.0,90852.0,90896.0,90950.0,91045.0,91118.0,0.033125811360633965,-0.18285694440951306,0.05149448635334475,-0.04083669671113824,0.008120828777566601
103,103,91460.60681363294,3221.1919258334005,15.495152573917526,91600.12330450072,-5352.031174499529,8.799592535770845,91623.7100150705,40488.14787319844,9.28794576097164,91686.2948435937,-337.57825557833326,4.859537047389617,91862.53415569612,8744.889225699435,34.01764896150703,0.9872729184734808,145.0,107.0,101.0,212.0,313.0,38.0,781.0,783.0,38.0,18.0,20.0,0.4736842105263157,80.44899960439007,3303.2723516490655,16.0,13.0,3.0,0.8125,1099.9502153419182,8937.909638364736,21.0,11.0,10.0,0.5238095238095238,2075.4247593963555,42635.47193839494,11.0,7.0,4.0,0.6363636363636364,52.66011449696892,627.4275589695703,82.0,44.0,38.0,0.5365853658536586,79.41309947989627,9183.945871315893,0.0,0.0,0.0,0.0,91443.0,91481.0,91588.0,91603.0,91613.0,91634.0,91680.0,91689.0,91820.0,91901.0,0.02497491657023074,-0.2055201435639573,0.05126005679232873,-0.15599379885043993,0.009081086956083728
104,104,92269.66645122987,1331.9237134684502,7.66747631476336,92406.38624326444,-6640.713334154789,15.28779240518434,92431.63462685412,40529.51235662661,9.030899704220936,92518.4464218537,-2648.478827525691,38.3196287049805,92671.60859250136,6960.965551984923,25.411397258305357,0.9717543663935112,135.0,116.0,151.0,159.0,310.0,19.0,809.0,808.0,27.0,12.0,15.0,0.4444444444444444,91.19778553836224,1400.1551910085714,19.0,13.0,6.0,0.6842105263157895,924.4873054735,2904.276154170061,21.0,11.0,10.0,0.5238095238095238,2069.752586540157,40805.9941331921,88.0,47.0,41.0,0.5340909090909091,60.16268358921772,2465.445142963981,68.0,35.0,33.0,0.5147058823529411,94.87605014152022,7236.277930962837,0.0,0.0,0.0,0.0,92258.0,92277.0,92393.0,92412.0,92421.0,92442.0,92471.0,92544.0,92640.0,92703.0,0.06847072742692968,-0.13921506003257797,0.051067789030571714,-0.022715939037890657,0.013629725565078578
105,105,93028.5602148712,2596.5184726609477,13.094003789916648,93169.41739812572,-6967.534231736656,12.739827004319864,93193.52392020955,41887.67395943861,9.283803720131294,93274.04571541504,-2089.8075287866873,32.166348832874064,93434.08372518492,7612.868884183264,28.711789846061073,0.9865378152892508,141.0,109.0,133.0,179.0,312.0,32.0,763.0,762.0,37.0,18.0,19.0,0.4864864864864865,106.13994391186864,2654.811262090406,17.0,13.0,4.0,0.7647058823529411,1089.2445160349575,5448.871199429703,22.0,11.0,11.0,0.5,2135.356830422979,42517.37345405134,50.0,34.0,16.0,0.68,133.95122044555146,2207.149690690676,69.0,35.0,34.0,0.5072463768115942,182.3340613093525,8117.043125883278,0.0,0.0,0.0,0.0,93015.0,93047.0,93156.0,93173.0,93183.0,93204.0,93247.0,93289.0,93400.0,93468.0,0.040877792717220675,-0.15633141938126707,0.05097816681085525,-0.06409739586081482,0.023950768637060794
106,106,93754.25444471872,3363.1761020438853,15.475283044019672,93895.27203139676,-6576.060794534941,8.63658189670539,93921.2011616458,43923.21615626804,9.079986908172604,93998.45508727108,-1547.0026390408557,23.573924022075175,94161.2327992967,7963.644807384217,27.717408151290694,0.9880567500980212,150.0,108.0,127.0,183.0,310.0,42.0,728.0,727.0,42.0,20.0,22.0,0.4761904761904761,100.52843387950384,3363.864152411672,16.0,11.0,5.0,0.6875,1027.8991341396509,4433.092987510934,22.0,11.0,11.0,0.5,2273.246359549072,46283.835029337104,41.0,27.0,14.0,0.6585365853658537,146.53999405795489,1382.479483899387,72.0,39.0,33.0,0.5416666666666666,171.14774616610208,8213.014889675867,0.0,0.0,0.0,0.0,93734.0,93776.0,93884.0,93900.0,93910.0,93932.0,93973.0,94011.0,94122.0,94194.0,0.029890921804067952,-0.15630925051573277,0.051755006998153746,-0.09472510929186904,0.02149113255370291
107,107,94606.07888590012,2863.176459950831,14.060326818513987,94749.89021097436,-6379.036739029946,10.406418126799538,94773.7319880358,43180.07165942887,9.198011686440395,94839.67126990156,-1251.3447083836545,23.84812108349436,95012.82631036227,8084.390289537782,30.798643687964624,0.9891233084947804,149.0,110.0,127.0,187.0,314.0,39.0,851.0,854.0,40.0,19.0,21.0,0.475,80.39836426473427,2810.321976280314,16.0,13.0,3.0,0.8125,1184.0380162028505,8285.108485838095,22.0,11.0,11.0,0.5,2206.2785270371337,44437.30585498313,60.0,26.0,34.0,0.4333333333333333,74.10539570731835,1355.5867222197578,79.0,40.0,39.0,0.5063291139240507,75.1167972744223,8555.741525050245,0.0,0.0,0.0,0.0,94588.0,94627.0,94737.0,94753.0,94763.0,94785.0,94824.0,94864.0,94975.0,95051.0,0.028080128971902395,-0.1856139201955601,0.05109483245971796,-0.059220609006321936,0.009291584718718104
108,108,95574.86611884582,2094.2412946636714,12.229769950634871,95721.54796540084,-5840.13739012337,10.85527500430472,95745.08378781656,42051.175164291475,9.167837030741104,95816.36991350216,-1283.59099342098,21.69715846956859,95985.75754056036,8002.384632847112,30.331802178674995,0.9844941104289432,151.0,115.0,151.0,164.0,315.0,36.0,969.0,971.0,38.0,18.0,20.0,0.4736842105263157,71.01400597115959,1840.6691317432603,17.0,14.0,3.0,0.8235294117647058,1165.1378435941117,9556.858015498854,22.0,11.0,11.0,0.5,2149.0129764081057,44104.17891249642,78.0,22.0,56.0,0.282051282051282,39.58792046699436,1226.5692342983343,78.0,39.0,39.0,0.5,83.97167583040316,8479.433545639542,0.0,0.0,0.0,0.0,95558.0,95594.0,95709.0,95725.0,95734.0,95756.0,95795.0,95860.0,95948.0,96024.0,0.033909180452181,-0.19950521122406312,0.051104706777207486,-0.03084153805215326,0.010493331635888573
109,109,96574.63008649784,3115.134839273193,16.93523634618104,96714.54796540084,-5156.800177004683,8.09739745653604,96738.59871331572,41320.15193374331,9.235730025805427,96804.39728720114,-700.6707653270225,10.877221434839113,96985.65038151556,11035.234593079607,35.35560995661303,0.976687881669846,148.0,107.0,125.0,202.0,327.0,41.0,1002.0,993.0,44.0,23.0,21.0,0.5227272727272727,57.28138007198864,2930.8732437019203,16.0,13.0,3.0,0.8125,1121.638722870336,9720.453070011856,22.0,11.0,11.0,0.5,2097.2269502878144,42750.420762646616,51.0,12.0,39.0,0.2352941176470588,49.3498833836852,803.6529949038137,87.0,43.0,44.0,0.4942528735632184,105.46145138524965,10658.0715551261,0.0,0.0,0.0,0.0,96555.0,96596.0,96703.0,96718.0,96728.0,96750.0,96793.0,96828.0,96944.0,97030.0,0.01838809009158436,-0.21750672594838408,0.050755547889821624,-0.07043234258625339,0.009556792879726037
110,110,97579.47940829814,3022.9021783166536,17.08289319720452,97713.12330450072,-5254.049702460493,8.07301809129541,97736.40545091398,40875.459157620855,9.229393804571547,97804.24660900142,-439.9634115357683,10.798649186338418,97976.68483389584,8878.387537338042,34.31734234313623,0.9845031908014056,146.0,104.0,120.0,196.0,316.0,42.0,1004.0,997.0,44.0,24.0,20.0,0.5454545454545454,82.45767357723916,2539.0704340984453,15.0,12.0,3.0,0.8,1113.338987444832,9427.635849636148,22.0,11.0,11.0,0.5,2099.1143787269,43808.45144248346,35.0,14.0,21.0,0.4,50.28356382176062,477.0107321350689,86.0,44.0,42.0,0.5116279069767442,79.68526133942699,9392.993607285409,0.0,0.0,0.0,0.0,97556.0,97598.0,97702.0,97716.0,97725.0,97747.0,97790.0,97822.0,97937.0,98018.0,0.027277651975876012,-0.21190111447241367,0.0513539033441179,-0.11429033074872558,0.008975195214706586
111,111,98573.21541923696,3187.7390561481297,16.78346109729749,98704.69864360055,-5326.18476358671,8.640829876266055,98728.29915983391,40698.878316464805,9.354183112542149,98791.95599115537,-276.5821185272973,0.6950128180824336,98968.75452569575,8672.79336922823,33.60706307401233,0.9889300175712108,138.0,99.0,101.0,215.0,316.0,39.0,993.0,992.0,41.0,20.0,21.0,0.4878048780487805,87.8974980360313,3006.45612790062,17.0,14.0,3.0,0.8235294117647058,1134.7236882832865,10045.767709480366,22.0,11.0,11.0,0.5,2080.378456955052,43523.972270858256,2.0,1.0,1.0,0.5,90.1849062270166,570.7748517466576,85.0,43.0,42.0,0.5058823529411764,75.69476294122524,8975.034498383262,0.0,0.0,0.0,0.0,98554.0,98593.0,98692.0,98707.0,98717.0,98739.0,98791.0,98793.0,98929.0,99008.0,0.02757361769198301,-0.21304624954826978,0.051116358558546106,-0.3260691859156317,0.008727841160126835
112,112,99492.054747398,3199.5656134471014,19.695241375028715,99623.12330450072,-5455.842705685783,8.015996541652813,99647.18945583938,40784.35976595672,9.266923514228877,99732.15067819972,-762.0973979666869,5.095930801728113,99887.9470266593,9374.928578015197,34.325031475720365,0.989887511434104,146.0,100.0,123.0,194.0,317.0,46.0,920.0,919.0,46.0,26.0,20.0,0.5652173913043478,76.39254240142208,2687.8328942860176,15.0,12.0,3.0,0.8,1092.792202605283,8324.442107262212,22.0,11.0,11.0,0.5,2079.646029133781,43381.566499818146,19.0,16.0,3.0,0.8421052631578947,88.06809907553928,639.7918938529053,85.0,43.0,42.0,0.5058823529411764,81.72867420448262,9702.466223909883,0.0,0.0,0.0,0.0,99466.0,99512.0,99612.0,99626.0,99636.0,99658.0,99716.0,99735.0,99847.0,99929.0,0.023875910554970427,-0.2002976004910175,0.050991263343790214,-0.11556016240248199,0.008717791663623076
113,113,100401.23022399833,2918.176365432329,17.98337496669301,100537.12330450072,-5797.065668466009,11.254176808445347,100560.4070162746,41120.41956674858,9.140219825672345,100632.66826080738,-1231.8466780017498,15.146173347630322,100804.38347749642,8847.429307567834,31.849838375815388,0.98276786356039,146.0,99.0,125.0,191.0,316.0,47.0,901.0,914.0,49.0,24.0,25.0,0.4897959183673469,106.48235620939472,2927.647071453597,16.0,13.0,3.0,0.8125,1109.2700346312724,8278.47907701568,21.0,10.0,11.0,0.4761904761904761,2140.105053196659,43498.65983142893,50.0,30.0,20.0,0.6,102.93698993973402,562.2773658441674,80.0,42.0,38.0,0.525,104.70223567179288,9464.638888516743,0.0,0.0,0.0,0.0,100378.0,100425.0,100524.0,100540.0,100550.0,100571.0,100614.0,100649.0,100765.0,100840.0,0.03648934912596324,-0.1913502620239943,0.05204482531416638,-0.08356315098134949,0.01183419861656692
114,114,101303.39728720114,3039.5121593934273,11.909602471692404,101440.63875862426,-5931.574887802422,15.28779240518434,101464.29424241204,42011.02937133517,9.06065377934424,101542.54323128624,-2271.028219009519,24.13555570464114,101705.53415569612,8250.903483188957,32.97941723901099,0.9688744532453912,134.0,102.0,144.0,174.0,318.0,32.0,901.0,903.0,32.0,11.0,21.0,0.34375,111.93754876598852,3395.9205632700205,22.0,18.0,4.0,0.8181818181818182,1091.9570610504663,8374.987844268184,21.0,10.0,11.0,0.4761904761904761,2125.688126478203,43615.97888876111,72.0,35.0,37.0,0.4861111111111111,182.8242798041204,1752.0213440785667,97.0,57.0,40.0,0.5876288659793815,114.47754476052766,8949.006006558706,0.0,0.0,0.0,0.0,101292.0,101324.0,101426.0,101445.0,101454.0,101475.0,101510.0,101570.0,101658.0,101744.0,0.03682747194152599,-0.18409226583245977,0.05059833472989347,-0.0805028657388753,0.01387454658677965
115,115,101975.66478232526,467.0209527689968,1.1413352760816948,102321.54796540084,-6185.635765379093,15.28779240518281,102344.55007168076,42365.22869151017,9.3183122203663,102396.95881661908,-3153.981165328158,66.24710042246546,102585.68791665928,6074.369045335779,24.449633336651218,0.9018476837226173,331.0,327.0,184.0,130.0,314.0,4.0,676.0,880.0,4.0,2.0,2.0,0.5,90.56321014116584,313.9152177310331,21.0,18.0,3.0,0.8571428571428571,1192.2599059296551,7712.391322044216,21.0,11.0,10.0,0.5238095238095238,2094.823938644586,40301.25812810755,120.0,17.0,103.0,0.1416666666666666,87.20037061947913,3549.04268987233,66.0,32.0,34.0,0.4848484848484848,92.97183055548696,6174.133128906267,0.0,0.0,0.0,0.0,101974.0,101978.0,102305.0,102325.0,102334.0,102355.0,102382.0,102489.0,102556.0,102619.0,0.19391680309889917,-0.19274654233647498,0.04944677518203462,-0.027647714443597926,0.01530559468178438
116,116,0.0,0.0,0.0,0.0,0.0,0.0,0.0,0.0,0.0,0.0,0.0,0.0,0.0,0.0,0.0,0.0,0.0,0.0,0.0,0.0,0.0,0.0,0.0,0.0,0.0,0.0,0.0,0.0,0.0,0.0,0.0,0.0,0.0,0.0,0.0,0.0,0.0,0.0,0.0,0.0,0.0,0.0,0.0,0.0,0.0,0.0,0.0,0.0,0.0,0.0,0.0,0.0,0.0,0.0,0.0,0.0,0.0,0.0,,102771.0,103118.0,103136.0,103146.0,103167.0,103195.0,103302.0,103362.0,103430.0,,,,,
117,117,103778.01395946609,3065.186172228638,14.048242037381842,103914.29318807134,-6270.9235063764145,10.191861600824236,103937.82497642134,40340.46956720988,9.147742552659397,104008.36991350216,-1374.3560355342995,22.78683155591477,104177.95881659626,8660.289269633153,31.525134114678796,0.9890460357263776,140.0,106.0,144.0,169.0,313.0,34.0,1800.0,1594.0,34.0,16.0,18.0,0.4705882352941176,94.9135538977222,3138.7255523287304,17.0,13.0,4.0,0.7647058823529411,1120.7791701711508,6988.284720854923,22.0,11.0,11.0,0.5,2114.753854272223,42437.7482103736,80.0,28.0,52.0,0.35,62.21959493396416,1169.5702581439032,77.0,39.0,38.0,0.5064935064935064,89.08486468391597,8714.792030709381,0.0,0.0,0.0,0.0,103762.0,103796.0,103902.0,103917.0,103927.0,103948.0,103987.0,104046.0,104140.0,104215.0,0.030965020904003483,-0.17872633417255332,0.05242263853049365,-0.04527181700029822,0.01028659227311117
118,118,104516.972626301,2066.914405107045,11.272778607060536,104659.54796540084,-5949.150130944849,15.287792405184248,104682.79184948636,41625.75943701498,9.07694837942172,104768.3214895536,-1776.57688946731,30.64553349692874,104922.21454304284,8241.242142863384,28.55517138996429,0.981071459451648,139.0,107.0,147.0,165.0,312.0,32.0,738.0,745.0,32.0,10.0,22.0,0.3125,90.1931708835655,2741.9283208034603,19.0,16.0,3.0,0.8421052631578947,1171.5439606003736,8943.076916045868,22.0,11.0,11.0,0.5,2073.491812241464,42130.15325178343,89.0,45.0,44.0,0.5056179775280899,68.1107935016676,1553.919908076084,73.0,36.0,37.0,0.4931506849315068,85.49136604899898,8535.930973046248,0.0,0.0,0.0,0.0,104507.0,104539.0,104646.0,104663.0,104672.0,104694.0,104726.0,104793.0,104887.0,104958.0,0.0436366260067235,-0.19692627262951726,0.04981270829133864,-0.03833821879901297,0.010373602008895151
119,119,0.0,0.0,0.0,0.0,0.0,0.0,0.0,0.0,0.0,0.0,0.0,0.0,0.0,0.0,0.0,0.0,0.0,0.0,0.0,0.0,0.0,0.0,0.0,0.0,0.0,0.0,0.0,0.0,0.0,0.0,0.0,0.0,0.0,0.0,0.0,0.0,0.0,0.0,0.0,0.0,0.0,0.0,0.0,0.0,0.0,0.0,0.0,0.0,0.0,0.0,0.0,0.0,0.0,0.0,0.0,0.0,0.0,0.0,,104972.0,105343.0,105362.0,105371.0,105392.0,105422.0,105521.0,105586.0,105651.0,,,,,
120,120,105921.48039609398,1403.3690324417405,8.794294179267396,106064.2582271108,-6275.315255239774,12.739827004320285,106088.33677011672,40729.17267447161,9.113970167725627,106162.7672007033,-1957.1146815398076,39.36395286401667,106325.80813839656,6775.15675181673,26.649071892120848,0.9744716917034004,140.0,116.0,167.0,142.0,309.0,24.0,1406.0,1405.0,25.0,10.0,15.0,0.4,75.54247786394212,1263.6894803954422,17.0,13.0,4.0,0.7647058823529411,1034.41926945223,5958.612149767672,21.0,10.0,11.0,0.4761904761904761,2095.979994416235,42404.21637413366,95.0,36.0,59.0,0.3789473684210526,68.88009659106038,1738.6391968578591,70.0,35.0,35.0,0.5,88.63900539562147,6900.954602176555,0.0,0.0,0.0,0.0,105911.0,105935.0,106051.0,106068.0,106078.0,106099.0,106130.0,106218.0,106292.0,106360.0,0.053829374966686244,-0.16483941083095527,0.05146139380655679,-0.035194716610509144,0.013082945331390788
121,121,106714.91658080912,2659.905880233645,15.74672151833308,106859.12330450072,-5723.171063211156,9.612320304608142,106882.35877676334,41299.20524421097,9.237521497785057,106943.84932180028,-455.1483287531703,5.095930801727494,107117.7766829734,7722.435240324634,33.19084877812502,0.989540635551146,151.0,114.0,99.0,213.0,312.0,37.0,797.0,794.0,40.0,23.0,17.0,0.575,121.4559744761436,2780.3460654619953,16.0,13.0,3.0,0.8125,1143.9891049252983,9218.41073407483,21.0,10.0,11.0,0.4761904761904761,2116.4750431270672,44126.01293692799,35.0,4.0,31.0,0.1142857142857142,80.63764299643941,662.1441464015726,87.0,45.0,42.0,0.5172413793103449,80.65916188104315,8133.423801657094,0.0,0.0,0.0,0.0,106695.0,106732.0,106846.0,106862.0,106872.0,106893.0,106940.0,106945.0,107080.0,107158.0,0.04566175644736533,-0.19988728141972206,0.05124735526051654,-0.1771678327751692,0.01044478320256557
122,122,107646.47940829814,2849.945276531429,15.43174313653037,107780.54796540084,-5998.4206211422315,10.807158855497196,107803.83620808485,41379.77435435028,9.08725445597876,107866.67126990156,-1203.169146684982,18.679891415248463,108043.53511746672,8043.906883951719,32.52798122595887,0.9879141115998872,141.0,102.0,145.0,171.0,316.0,39.0,935.0,923.0,43.0,23.0,20.0,0.5348837209302325,67.24150335385278,2247.432362946184,18.0,15.0,3.0,0.8333333333333334,1180.739613280039,9402.246630454389,22.0,11.0,11.0,0.5,2126.7022361813283,43023.87909754056,61.0,16.0,45.0,0.2622950819672131,69.21719905726033,1596.0682340989629,84.0,43.0,41.0,0.5119047619047619,89.96456269580668,8347.416183511927,0.0,0.0,0.0,0.0,107626.0,107665.0,107767.0,107784.0,107793.0,107815.0,107851.0,107912.0,108005.0,108083.0,0.023593962981524372,-0.19684175016309546,0.051394727723007676,-0.057529067503077375,0.01118418748423029
123,123,108598.32873009844,2912.0316674366795,15.738521036852449,108730.12330450072,-5977.700882044771,9.237212448653343,108753.56234044836,41067.397732321464,9.121081429819853,108832.027373699,-1016.9666763460395,15.616145543722908,108991.15803798818,8600.716519449858,33.056070405266624,0.9825409826132742,144.0,105.0,123.0,189.0,312.0,39.0,951.0,949.0,45.0,28.0,17.0,0.6222222222222222,125.03402495696083,1922.1507149588736,17.0,13.0,4.0,0.7647058823529411,1126.0833432188067,8358.778810466225,21.0,11.0,10.0,0.5238095238095238,2105.2086908129063,42554.09291366211,46.0,26.0,20.0,0.5652173913043478,94.9944435233257,550.8026128072772,83.0,42.0,41.0,0.5060240963855421,113.7385310745238,9250.99695397984,0.0,0.0,0.0,0.0,108575.0,108614.0,108719.0,108733.0,108743.0,108764.0,108807.0,108842.0,108952.0,109031.0,0.04293704163836317,-0.188380677695203,0.05126228607263406,-0.09340959318808818,0.013224308790705156
124,124,109544.75339099858,2508.6971321754445,13.625092945197324,109675.54796540084,-5987.883575316903,15.287792405175097,109698.75615636862,42273.819384263166,9.022992644631156,109774.49321800288,-2008.318050696177,26.42934051700658,109944.95881659626,9704.359790459635,32.64171644293742,0.9744586184379946,140.0,103.0,140.0,180.0,320.0,37.0,946.0,944.0,40.0,24.0,16.0,0.6,134.91150361217484,1287.567244142806,19.0,16.0,3.0,0.8421052631578947,1169.3866993940817,8930.50818283717,22.0,11.0,11.0,0.5,2105.2215611538845,42862.10415854758,79.0,32.0,47.0,0.4050632911392405,109.47647943046807,1436.869209543639,86.0,46.0,40.0,0.5348837209302325,152.84262494286,10059.880782054004,0.0,0.0,0.0,0.0,109522.0,109559.0,109662.0,109679.0,109688.0,109710.0,109746.0,109802.0,109904.0,109982.0,0.05377751737420166,-0.1952921570176309,0.049799653587429896,-0.054511524901406136,0.015749892650633143
125,125,110474.17805189872,2320.0401946854045,11.190116349798371,110604.54796540084,-7506.787560716716,15.28779240518434,110626.67063354902,41658.47141230404,8.913378792506947,110703.49995405752,-1595.6357394135612,26.636683044390995,110866.69297386626,8527.612688222296,32.373082160556834,0.9838509979246884,133.0,101.0,145.0,174.0,319.0,32.0,929.0,929.0,34.0,20.0,14.0,0.5882352941176471,115.08635843732532,1488.3774143719309,21.0,18.0,3.0,0.8571428571428571,1234.1833483435523,9117.74758028558,20.0,10.0,10.0,0.5,2113.6163785708545,41730.717381604176,66.0,36.0,30.0,0.5454545454545454,80.10804069508228,1537.8684315847902,83.0,42.0,41.0,0.5060240963855421,85.68279126958645,8761.869634725477,0.0,0.0,0.0,0.0,110455.0,110487.0,110588.0,110608.0,110617.0,110637.0,110667.0,110733.0,110827.0,110907.0,0.049605329554616155,-0.1644089883137332,0.05073677230381015,-0.05020446629286715,0.010047687952329864
126,126,111337.90244726106,1478.6689993282887,9.752529265284531,111474.12330450072,-7278.860074152699,11.631436974850349,111497.18278080008,40853.22960609053,9.2114268628282,111579.49210936196,-1576.4358362183063,26.985621199939818,111736.75706245836,8232.620745966371,29.200778297848032,0.9825999904590116,134.0,110.0,151.0,163.0,314.0,24.0,863.0,870.0,25.0,12.0,13.0,0.48,106.72521996924782,1300.3166855612776,17.0,14.0,3.0,0.8235294117647058,1195.8384749096138,7076.90322446704,21.0,10.0,11.0,0.4761904761904761,2122.8326958751445,43357.889791080954,69.0,36.0,33.0,0.5217391304347826,85.37644255738108,1443.7662336449614,78.0,39.0,39.0,0.5,94.67811899382984,8439.966219324037,0.0,0.0,0.0,0.0,111327.0,111351.0,111461.0,111477.0,111487.0,111508.0,111543.0,111612.0,111699.0,111775.0,0.07217654526992154,-0.16428925171347195,0.05196242050735362,-0.05415789250401059,0.011500362025083937
127,127,111946.87842783486,327.7924292863875,0.9629391661663632,112312.972626301,-5525.277901945909,8.094976118506123,112336.12968230528,42204.50309629553,9.508576430228006,112393.01356399426,-4882.92372650711,101.91861603456223,112632.26563898734,21713.33824666767,26.41909215283514,0.8676897401968013,353.0,350.0,223.0,144.0,367.0,3.0,606.0,840.0,3.0,2.0,1.0,0.6666666666666666,81.2941437907107,6382.5306562708565,23.0,19.0,4.0,0.8260869565217391,1193.135530767193,7020.136016111822,20.0,10.0,10.0,0.5,2110.714507019325,40381.58233012159,152.0,23.0,129.0,0.1513157894736842,105.93000114190754,5353.245033661777,60.0,26.0,34.0,0.4333333333333333,399.1301077045865,19912.289723733687,0.0,0.0,0.0,0.0,111945.0,111948.0,112298.0,112317.0,112326.0,112346.0,112370.0,112521.0,112607.0,112665.0,0.2480049462023578,-0.2159412706367205,0.05001159478654285,-0.021693970062825904,0.01838179386192912
128,128,113868.62705741284,2836.607483546509,31.01948986933196,114001.69864360055,-5415.494325119988,7.520154361231961,114025.37883586342,41065.927185644265,9.23126746657428,114090.32360330057,-90.40726941013324,-0.5520341221233834,114260.1800625752,8899.229756349909,36.77233155994094,0.9883165767761264,144.0,103.0,345.0,-34.0,311.0,41.0,1926.0,1688.0,50.0,25.0,25.0,0.5,91.62645393118912,2738.109349015252,14.0,11.0,3.0,0.7857142857142857,1179.858085597141,9708.140729395862,22.0,11.0,11.0,0.5,2116.655581120936,44360.37955652746,3.0,1.0,2.0,0.3333333333333333,111.87158543194938,182.9773161777142,89.0,44.0,45.0,0.4943820224719101,79.40607922243308,9256.906521924411,0.0,0.0,0.0,0.0,113848.0,113889.0,113992.0,114004.0,114014.0,114036.0,114087.0,114337.0,114220.0,114303.0,0.03230142149122157,-0.2178671077401599,0.051542865976270266,-1.237418032442094,0.008922803590476366
129,129,114693.09593080172,2896.634309117676,17.590359667076218,114832.12330450068,-5759.672998311458,9.605219156038718,114855.8721378048,41028.18367931585,9.230618167831317,114914.69864360055,-527.2524365193492,5.055070681631298,115096.95881659626,9177.360285374163,34.81025936659446,0.986465056865172,143.0,102.0,103.0,212.0,315.0,41.0,815.0,831.0,46.0,21.0,25.0,0.4565217391304347,84.91616324281998,2966.922655515749,17.0,13.0,4.0,0.7647058823529411,1102.7518824562153,8316.085679526495,22.0,11.0,11.0,0.5,2101.04316850305,43219.01678018252,16.0,7.0,9.0,0.4375,70.67602207382379,728.8850663135075,84.0,47.0,37.0,0.5595238095238095,101.05403967859787,9580.801240456443,0.0,0.0,0.0,0.0,114676.0,114717.0,114819.0,114835.0,114845.0,114867.0,114909.0,114922.0,115051.0,115134.0,0.02931545862573371,-0.1914608490411704,0.05120975339598765,-0.13404588993536137,0.011011231610863785
130,130,115523.32873009844,2073.944191280558,11.49453723948204,115660.12330450072,-6412.660804507306,12.739827004320285,115682.32964692892,41422.74394936013,9.025606715355451,115755.80813839656,-1582.049247302204,28.524187035574343,115920.95881659626,8608.637029614674,31.762670072305056,0.971760946095774,140.0,107.0,144.0,168.0,312.0,33.0,840.0,827.0,35.0,17.0,18.0,0.4857142857142857,99.40046641249494,1520.8664297780017,18.0,15.0,3.0,0.8333333333333334,1212.5824209374562,9361.89374818692,21.0,10.0,11.0,0.4761904761904761,2121.142024841413,43508.4998419163,79.0,38.0,41.0,0.4810126582278481,76.1651171811583,1079.5023741157984,92.0,52.0,40.0,0.5652173913043478,97.20090369447983,8932.993592774907,0.0,0.0,0.0,0.0,115506.0,115539.0,115646.0,115663.0,115672.0,115693.0,115719.0,115790.0,115872.0,115958.0,0.0479282262417679,-0.18909193202378036,0.05120718288084773,-0.048143328857201614,0.011291090954363373
131,131,116388.32873009844,2896.109373176799,14.046527994767152,116522.12330450072,-6116.020991160242,10.91480448336105,116544.84375717244,40293.44397422252,9.14976376869913,116612.79457440229,-1036.4973855111211,17.979249159979307,116783.95881659626,8132.611536164042,32.10378612149109,0.9818509355814564,141.0,105.0,133.0,179.0,312.0,36.0,865.0,862.0,41.0,24.0,17.0,0.5853658536585366,94.3276663143685,1970.84842344512,17.0,14.0,3.0,0.8235294117647058,1158.6352251666488,8855.417451271083,22.0,11.0,11.0,0.5,2072.964060725665,42241.48122318814,68.0,27.0,41.0,0.3970588235294117,64.0357526139186,703.9175687004454,89.0,51.0,38.0,0.5730337078651685,99.71895683370442,8598.527304931513,0.0,0.0,0.0,0.0,116368.0,116404.0,116509.0,116525.0,116534.0,116556.0,116590.0,116642.0,116741.0,116821.0,0.03257047789286308,-0.18944265018731554,0.051446683536205816,-0.06178091089186981,0.012261615643422145
132,132,117258.50879435649,2131.526369668542,11.390873601384834,117397.12330450072,-6049.726731217907,11.868883458833803,117419.71258062682,40888.28775530125,9.097348539915394,117493.49321800288,-1684.591620250795,24.50657721349007,117661.38347749642,8109.4556301414,29.372199142185753,0.9733349409140916,141.0,107.0,147.0,166.0,313.0,34.0,864.0,874.0,35.0,17.0,18.0,0.4857142857142857,60.545512889367096,1832.79850489305,17.0,14.0,3.0,0.8235294117647058,1161.7591251863769,9346.569853781924,21.0,11.0,10.0,0.5238095238095238,2100.9793364534107,42551.22036649289,74.0,30.0,44.0,0.4054054054054054,88.57714860383498,1164.2997237409616,78.0,41.0,37.0,0.5256410256410257,85.32199870653486,8168.533860645324,0.0,0.0,0.0,0.0,117243.0,117277.0,117384.0,117400.0,117409.0,117430.0,117465.0,117531.0,117621.0,117697.0,0.02840476840958908,-0.1920349755950871,0.051383402235546397,-0.05258078429159466,0.010521297926510405
133,133,118106.87669549928,1227.9063655494483,6.857312335712365,118239.54796540084,-6788.3285596747455,11.696850326210823,118262.85119145837,40876.08894051329,9.26372086990372,118352.60726108705,-1813.877714318574,36.500871511684615,118503.98215554965,7617.108203031355,27.79905152897817,0.9794483968606827,135.0,113.0,145.0,167.0,312.0,22.0,852.0,844.0,23.0,15.0,8.0,0.6521739130434783,98.96759682693282,768.8400806595523,18.0,15.0,3.0,0.8333333333333334,1211.08753890846,8755.893783647954,22.0,11.0,11.0,0.5,2085.02152256054,42641.23770932514,108.0,52.0,56.0,0.4814814814814814,82.01130735806501,1310.8215244506305,72.0,36.0,36.0,0.5,67.4430236850099,7584.037709968044,0.0,0.0,0.0,0.0,118092.0,118114.0,118227.0,118243.0,118252.0,118274.0,118307.0,118372.0,118468.0,118539.0,0.08059865117048076,-0.17840732490509972,0.0510083419574426,-0.04521325043616543,0.008854150668119672
134,134,118941.60271279886,1686.7326361696412,11.27924372628138,119077.54796540084,-6059.8580084460145,14.171253148823627,119101.20928846778,42406.68889442576,9.081625770334291,119186.20894392062,-1884.3405421883544,28.746108212999413,119339.95881659626,8355.706597556584,29.202026654245763,0.9781064907787052,137.0,112.0,155.0,157.0,312.0,25.0,836.0,837.0,28.0,16.0,12.0,0.5714285714285714,103.76803477469196,1377.0169362374454,18.0,14.0,4.0,0.7777777777777778,1149.2243214400903,8567.836495166315,21.0,10.0,11.0,0.4761904761904761,2140.873131514026,44449.25866734296,84.0,44.0,40.0,0.5238095238095238,83.63253287581924,1564.8492675722434,79.0,41.0,38.0,0.5189873417721519,118.31661456355216,8554.45929575816,0.0,0.0,0.0,0.0,118928.0,118953.0,119065.0,119081.0,119091.0,119112.0,119143.0,119220.0,119303.0,119377.0,0.06152014406405047,-0.18964542070760443,0.0504843265845129,-0.0443829185878969,0.014159977158383096
135,135,119818.7260172996,854.1968105390541,3.804804017760815,119949.54796540084,-6193.656625576238,15.28779240518434,119972.5694971463,42000.813113840355,9.030830070410673,120059.04842177597,-2288.30770086166,34.902969861024324,120217.38347749642,11446.901393366928,29.49137825914653,0.9608507270563535,126.0,113.0,164.0,153.0,317.0,13.0,875.0,872.0,14.0,10.0,4.0,0.7142857142857143,115.79550326924183,169.17008007149124,19.0,16.0,3.0,0.8421052631578947,1183.347894499955,9094.93718497171,22.0,11.0,11.0,0.5,2091.3733311632736,41900.02700833697,90.0,48.0,42.0,0.5333333333333333,95.3598916370716,1946.6201488034772,78.0,41.0,37.0,0.5256410256410257,119.03510408355474,11115.127831767795,0.0,0.0,0.0,0.0,119810.0,119823.0,119936.0,119953.0,119962.0,119984.0,120012.0,120100.0,120177.0,120253.0,0.1355606832530401,-0.191058039868308,0.049793639125384266,-0.04167266998278418,0.010398893114649466
136,136,120676.88766992193,1083.4343867672026,6.801640224964636,120811.62728312147,-6756.4090094101675,15.28779240518434,120836.64610930064,42424.52207277441,9.054242705534673,120924.1051222034,-2590.339894558744,25.607732445961883,121077.9697431667,9365.043486968309,31.541055252715555,0.9649015609034282,125.0,114.0,154.0,164.0,318.0,11.0,856.0,866.0,21.0,11.0,10.0,0.5238095238095238,134.2560829504933,1007.7577413941332,20.0,15.0,5.0,0.75,1043.4087344883533,5254.172135626495,22.0,11.0,11.0,0.5,2143.0644647231316,43222.275042618894,64.0,35.0,29.0,0.546875,102.17356605722586,2524.512917968463,81.0,42.0,39.0,0.5185185185185185,124.56953703911296,10070.748868899938,0.0,0.0,0.0,0.0,120673.0,120684.0,120798.0,120817.0,120826.0,120848.0,120889.0,120952.0,121037.0,121116.0,0.12391713295263988,-0.1544324408180615,0.05051475797528019,-0.0394440769228205,0.01330154389698826
137,137,121534.47314182612,1047.7448051524632,4.874467481986126,121669.54796540084,-5939.827137629056,13.78748991482622,121692.6388813512,41278.06880749284,9.028737394799384,121782.0023285514,-1940.4053526635316,34.21927786645016,121936.2327992967,7174.553950891055,25.96983268910615,0.9761064926321766,131.0,116.0,159.0,154.0,313.0,15.0,859.0,855.0,15.0,9.0,6.0,0.6,118.87576658628014,1028.9073683552094,19.0,16.0,3.0,0.8421052631578947,1157.607428310833,9219.907967670264,21.0,11.0,10.0,0.5238095238095238,2071.7585938479406,41724.64056403385,94.0,50.0,44.0,0.5319148936170213,73.76132764516657,1647.7937627355846,72.0,38.0,34.0,0.5277777777777778,82.61810717934331,7308.606411508044,0.0,0.0,0.0,0.0,121525.0,121540.0,121656.0,121673.0,121682.0,121703.0,121732.0,121815.0,121899.0,121969.0,0.11345870292239899,-0.19488907698632188,0.0501902984732627,-0.03801336022079963,0.011515434652084875
138,138,122341.60271279886,1811.8118951420909,8.670530311953957,122475.12330450072,-6292.334679590384,10.053209835597482,122498.60266955708,41534.88820585949,9.359200715207333,122577.30664843968,-707.5261587831133,12.739827004320285,122737.12432113412,8453.715047674772,31.32554582047052,0.9887614016571816,133.0,109.0,121.0,192.0,313.0,24.0,810.0,806.0,25.0,14.0,11.0,0.56,122.6157395990642,1489.5687485814906,17.0,14.0,3.0,0.8235294117647058,1161.3667271965817,8512.334249309857,21.0,11.0,10.0,0.5238095238095238,2105.1648540638253,43359.87003091562,17.0,7.0,10.0,0.4117647058823529,92.99846523048038,647.1116310411378,78.0,40.0,38.0,0.5128205128205128,82.51821191204641,8876.463673675307,0.0,0.0,0.0,0.0,122329.0,122353.0,122462.0,122478.0,122488.0,122509.0,122573.0,122583.0,122701.0,122775.0,0.06767575592578173,-0.18456849267149658,0.05068425473134754,-0.13144173409846793,0.009761177357727876
139,139,123190.5442970128,1140.196364049899,8.177348154512787,123325.12330437254,-6659.815019617818,12.739827004317156,123347.2651251878,41606.543339712065,9.097988963661226,123426.9811164446,-1892.6102721020225,26.971968121139675,123588.38347749642,8317.77268375235,30.952094881161393,0.9743372287181096,130.0,110.0,147.0,167.0,314.0,20.0,847.0,848.0,20.0,11.0,9.0,0.55,88.08225249850418,1230.6441090572005,19.0,16.0,3.0,0.8421052631578947,1196.8440426552345,9676.283575176594,21.0,10.0,11.0,0.4761904761904761,2133.95453895715,43782.41477365825,76.0,39.0,37.0,0.5131578947368421,80.41094507573189,1615.1311167933854,91.0,54.0,37.0,0.5934065934065934,87.81674122599888,8441.337040670165,0.0,0.0,0.0,0.0,123180.0,123200.0,123310.0,123328.0,123337.0,123358.0,123389.0,123457.0,123537.0,123624.0,0.07725182720776452,-0.17971130416230643,0.05128891678248025,-0.04248679522722007,0.010557723150758504
