Unnamed: 0,cycle,p_center,p_height,p_width,q_center,q_height,q_width,r_center,r_height,r_width,s_center,s_height,s_width,t_center,t_height,t_width,r_squared,pr_interval,pr_segment,qrs_duration,st_segment,qt_interval,p_duration,pp_interval,rr_interval,fwhm_p,rise_time_p,decay_time_p,rise_decay_symmetry_p,sharpness_deriv_p,sharpness_diff_p,fwhm_q,rise_time_q,decay_time_q,rise_decay_symmetry_q,sharpness_deriv_q,sharpness_diff_q,fwhm_r,rise_time_r,decay_time_r,rise_decay_symmetry_r,sharpness_deriv_r,sharpness_diff_r,fwhm_s,rise_time_s,decay_time_s,rise_decay_symmetry_s,sharpness_deriv_s,sharpness_diff_s,fwhm_t,rise_time_t,decay_time_t,rise_decay_symmetry_t,sharpness_deriv_t,sharpness_diff_t,Average_Heart_Rate,SDNN,RMSSD,NN50,p_on,p_off,q_on,q_off,r_on,r_off,s_on,s_off,t_on,t_off,sharpness_deriv_p_norm,sharpness_deriv_q_norm,sharpness_deriv_r_norm,sharpness_deriv_s_norm,sharpness_deriv_t_norm
0,0,,,,,,,,,,,,,,,,,,,,,,,,,,,,,,,,,,,,,,,,,,,,,,,,,,,,,,,65.59045382272004,295.05647564204514,440.81708771244007,643.0,,,,,,,,,,,,,,,
1,1,1609.430121500781,4877.892858232662,22.84621787784659,1714.575339099856,-904.2945944972475,1.4276667361136568,1741.693376527904,30296.987917166145,6.423818036443419,1769.4189313181405,-5866.420569619382,6.0470599102382145,2016.986190295248,4300.570763760163,41.71696980375444,0.984270087106586,126.0,76.0,67.0,287.0,354.0,50.0,,,52.0,26.0,26.0,0.5,174.07518002471264,5172.878479605959,6.0,5.0,1.0,0.8333333333333334,340.230598830111,2470.835895640229,16.0,8.0,8.0,0.5,1969.5101717617547,28900.473127676993,14.0,6.0,8.0,0.4285714285714285,583.8836890158025,8709.747767422217,104.0,56.0,48.0,0.5384615384615384,143.15504372929038,4699.844788909284,,,,,1584.0,1634.0,1710.0,1716.0,1734.0,1750.0,1763.0,1777.0,1981.0,2064.0,0.03568655259225658,-0.3762386736584065,0.06500679794131742,-0.09952980392159053,0.0332874521995132
2,2,2398.3445614190796,3877.326989676689,17.075754621243203,2503.7260172995684,-2179.835945712145,7.643896202093112,2532.2517855299993,31531.10115466008,6.419010307600609,2560.6304737940277,-6579.7023806160305,7.585320390565945,2809.958816600773,3736.218065027075,30.20800686390932,0.9676327238040862,104.0,67.0,85.0,278.0,363.0,37.0,791.0,791.0,37.0,18.0,19.0,0.4864864864864865,169.13333915912438,4135.7529451528535,24.0,20.0,4.0,0.8333333333333334,290.0348508815407,452.14622971630934,15.0,7.0,8.0,0.4666666666666667,2087.298540639463,30385.65009764157,16.0,8.0,8.0,0.5,500.0357913023779,7579.260164304882,82.0,41.0,41.0,0.5,163.97528570306852,3652.794779986532,,,,,2380.0,2417.0,2484.0,2508.0,2525.0,2540.0,2553.0,2569.0,2775.0,2847.0,0.04362111826251403,-0.13305352242312313,0.06619808583281828,-0.07599671875364697,0.04388803941556881
3,3,3160.173709507596,5930.0105939571595,27.25461829322993,3265.0390269390205,-394.93261821540864,0.9618655928607316,3295.2356968611484,34621.649734086204,7.248915045632472,3321.315704745737,-5369.323328828144,5.883854663595244,3565.4655124508467,5278.502980977283,57.025068702691414,0.979925419662528,138.0,73.0,66.0,289.0,355.0,65.0,761.0,763.0,67.0,36.0,31.0,0.5373134328358209,170.29690931091744,6220.837433636577,4.0,2.0,2.0,0.5,270.12248171539153,1793.568137862297,17.0,8.0,9.0,0.4705882352941176,2116.432816081159,33805.42291112211,13.0,5.0,8.0,0.3846153846153846,750.9612976555142,10951.279381594495,112.0,58.0,54.0,0.5178571428571429,155.49618321321438,6268.829299087453,,,,,3125.0,3190.0,3263.0,3267.0,3287.0,3304.0,3316.0,3329.0,3519.0,3618.0,0.028717808613100047,-0.6839710605216667,0.0611303283447368,-0.13986144094239367,0.02945838692780755
4,4,4194.163900354489,4268.606081954583,22.92421597448833,4296.7447919375145,-801.0789684238583,1.4980406037115468,4328.057885358726,36132.8969984592,7.461685511551778,4350.451812687028,-7860.938790528528,7.568910774474619,4608.429884885663,5978.920825115453,35.0829784354242,0.9909843811725368,129.0,74.0,65.0,288.0,353.0,55.0,1033.0,1035.0,56.0,28.0,28.0,0.5,171.95747970020912,4539.008674073948,4.0,2.0,2.0,0.5,267.947057262325,1530.5510264942673,18.0,9.0,9.0,0.5,2280.038878072899,33678.19154450271,16.0,6.0,10.0,0.375,1145.1943742046658,18421.52612901796,85.0,43.0,42.0,0.5058823529411764,164.97438751799413,6541.042701560532,,,,,4166.0,4221.0,4295.0,4299.0,4319.0,4337.0,4344.0,4360.0,4566.0,4648.0,0.04028422309267532,-0.3344827012367047,0.06310146895141361,-0.14568162972907067,0.02759266970470519
5,5,5281.470635853435,3162.7215379015747,23.94201816479792,5350.902778819572,-577.6046575123707,7.643896202591985,5412.367274940374,37193.73964374023,7.242257805015893,5434.698643600575,-6953.566482246341,6.057952845988185,5690.007713897588,6276.079930792411,37.71470358958783,0.9914837299572212,91.0,42.0,97.0,287.0,384.0,49.0,1084.0,1084.0,49.0,25.0,24.0,0.5102040816326531,164.22653255779616,3089.809314812551,12.0,5.0,7.0,0.4166666666666667,138.77233465129666,532.5541688034015,17.0,8.0,9.0,0.4705882352941176,2343.4314353183804,36529.408484003914,15.0,6.0,9.0,0.4,1101.5425990501749,16808.87019486501,98.0,53.0,45.0,0.5408163265306123,121.28290340813916,6542.714908991964,,,,,5256.0,5305.0,5347.0,5357.0,5404.0,5421.0,5429.0,5444.0,5650.0,5731.0,0.05192570088442196,-0.24025487475977378,0.06300607192944052,-0.15841404577961593,0.01932462695592631
6,6,6399.472036436278,3448.58899285249,21.244931999196336,6460.945252602007,805.7635382957927,35.671515612029594,6532.32233982216,36344.18008330398,7.258669118897576,6554.544975554549,-5776.208773112691,5.172780409374865,6809.986190295452,7045.13143731656,43.682994691073496,0.9826389839633392,-47.0,-97.0,234.0,294.0,528.0,50.0,1119.0,1120.0,50.0,23.0,27.0,0.46,185.400180141339,4106.301326718229,14.0,6.0,8.0,0.4285714285714285,156.12047758372688,229.7654677680789,17.0,8.0,9.0,0.4705882352941176,2262.0893548935874,35762.975477384396,13.0,5.0,8.0,0.3846153846153846,1056.234615473871,14912.072597658822,96.0,47.0,49.0,0.4895833333333333,145.84106065844995,7791.338352746944,,,,,6376.0,6426.0,6329.0,6469.0,6524.0,6541.0,6550.0,6563.0,6763.0,6857.0,0.053761170300548285,0.19375470614359774,0.06224075903511055,-0.18285949434349924,0.02070097086989193
7,7,7435.971550307276,4471.344175470564,20.504572524574986,7525.301356399425,-844.238902328243,10.191861603456228,7567.685757879671,33093.774639396855,6.809576267828081,7592.404967202477,-6648.486963277055,6.476891461512508,7845.520869138086,5706.760613067632,39.633516946393776,0.9884141948030716,111.0,60.0,81.0,286.0,367.0,51.0,1036.0,1033.0,52.0,27.0,25.0,0.5192307692307693,163.69385614109342,5001.217729954385,13.0,7.0,6.0,0.5384615384615384,151.49968548543015,820.8927803584817,17.0,8.0,9.0,0.4705882352941176,2109.6524421459403,31364.224244194993,16.0,7.0,9.0,0.4375,847.0394625665143,13527.381934335295,100.0,53.0,47.0,0.53,158.00968991162773,6028.659585449709,,,,,7409.0,7460.0,7520.0,7531.0,7560.0,7576.0,7585.0,7601.0,7807.0,7887.0,0.036609540602824724,-0.17945120162980427,0.06374771282918211,-0.12740334263196126,0.027688158068135724
8,8,8438.305978055352,4007.804494586961,20.065657083515347,8508.283172358464,-1284.411309897225,10.191861603456228,8571.603308354564,33734.56789759681,6.998945200415986,8595.86240982854,-7211.763438678623,7.693315975317431,8850.325592476773,5787.052189640269,33.91964021633263,0.9861088643506926,91.0,43.0,102.0,286.0,388.0,48.0,1007.0,1006.0,52.0,26.0,26.0,0.5,148.19489847009962,4374.094040053968,14.0,6.0,8.0,0.4285714285714285,158.44808500306775,1020.9103123228653,17.0,9.0,8.0,0.5294117647058824,2159.3737318431604,31214.135587836572,17.0,8.0,9.0,0.4705882352941176,869.7471447810524,14434.460318258847,86.0,44.0,42.0,0.5116279069767442,130.9022985267826,5906.839850496672,,,,,8412.0,8460.0,8503.0,8516.0,8563.0,8580.0,8588.0,8605.0,8812.0,8891.0,0.03697657874036902,-0.12336241808377281,0.06401071264342444,-0.12060117503527154,0.022619857958274207
9,9,9413.896040955313,4215.671138036847,22.81806625250468,9517.301356399426,-1379.8484187831798,4.784335571750246,9550.430158460766,33208.035605839745,7.135961163371635,9572.698643600574,-6634.438685051405,8.794353644361419,9828.608659494574,6059.163835813872,36.21637102905086,0.9825232443476156,127.0,71.0,70.0,287.0,357.0,56.0,973.0,977.0,58.0,29.0,29.0,0.5,152.44793671748,4523.853578998009,22.0,16.0,6.0,0.7272727272727273,218.1785185449051,44.936267360374586,17.0,8.0,9.0,0.4705882352941176,2127.53812082035,31715.098277249093,16.0,6.0,10.0,0.375,978.6618304282532,15884.810425916035,91.0,50.0,41.0,0.5494505494505495,132.40003885794624,6384.989740903612,,,,,9386.0,9442.0,9513.0,9523.0,9542.0,9559.0,9567.0,9583.0,9785.0,9870.0,0.036162198550542514,-0.15811774364122255,0.06406696698573207,-0.14751237849757448,0.021851206279548004
10,10,10375.827810496388,5143.859984452186,31.152066290462837,10477.575339099858,-353.0068342266733,0.514364657856464,10509.16629750522,34057.356328100825,7.1384315178668905,10534.876695499284,-5940.934379991106,6.273973244373409,10786.593064769626,6310.304477766511,41.99959572220257,0.987839299168728,132.0,71.0,66.0,291.0,357.0,61.0,964.0,961.0,62.0,32.0,30.0,0.5161290322580645,151.6101457077425,5868.159185902129,3.0,2.0,1.0,0.6666666666666666,208.9486689637324,1468.4046976519055,17.0,8.0,9.0,0.4705882352941176,2080.4109418754874,32848.87460129756,15.0,8.0,7.0,0.5333333333333333,767.0269433817909,11367.75543090582,91.0,44.0,47.0,0.4835164835164835,134.6054760086407,6363.899766446168,,,,,10344.0,10405.0,10476.0,10479.0,10501.0,10518.0,10527.0,10542.0,10744.0,10833.0,0.02947400321276217,-0.5919111153229457,0.061085508864319404,-0.12910880584123524,0.02133105882337446
11,11,11252.238163726688,5068.5253964316835,20.03211771076627,11352.301356399426,-1368.7889874358232,10.191861603408654,11384.025688880747,33029.32955646365,6.936749630973729,11409.12595243044,-6988.279115561063,7.823280801717638,11665.005763809826,5656.593481817109,31.850409948411013,0.979970694979148,106.0,58.0,83.0,284.0,367.0,48.0,873.0,874.0,48.0,23.0,25.0,0.4791666666666667,164.44333216160882,5891.945675851064,23.0,17.0,6.0,0.7391304347826086,219.47822433292555,375.4074677767701,17.0,8.0,9.0,0.4705882352941176,2112.9046657931926,31642.77676123795,17.0,8.0,9.0,0.4705882352941176,811.856901789019,13419.713374777228,81.0,42.0,39.0,0.5185185185185185,146.1054427308287,5788.636950317998,,,,,11229.0,11277.0,11335.0,11358.0,11376.0,11393.0,11402.0,11418.0,11625.0,11702.0,0.03244401858524362,-0.1603448203832192,0.06397055871755379,-0.11617408068049641,0.025829227997465037
12,12,12161.192900672157,5147.673210195677,20.318760082931735,12260.301356399426,-1914.952068264064,6.265792452192648,12293.9558074969,34444.66157180487,7.085637344253772,12317.123304500716,-7474.174351901021,7.818725455485881,12573.023071518552,5690.468297039864,33.20678041429046,0.9758417359737672,108.0,56.0,83.0,286.0,369.0,52.0,913.0,910.0,57.0,28.0,29.0,0.4912280701754385,157.02575402716008,4781.07925865701,55.0,49.0,6.0,0.8909090909090909,238.31004881633768,186.12146798636445,17.0,8.0,9.0,0.4705882352941176,2226.4265025049663,32474.88535785766,16.0,7.0,9.0,0.4375,1024.4007291022228,16636.663242840972,88.0,46.0,42.0,0.5227272727272727,157.20883552743345,6090.180845579867,,,,,12135.0,12187.0,12243.0,12266.0,12286.0,12303.0,12310.0,12326.0,12529.0,12612.0,0.03050421959889546,-0.12444700458344615,0.06463778132537777,-0.13705871456446175,0.02762669561118761
13,13,13057.767571488905,5433.239908077228,22.084106773090657,13159.150678199714,-1259.738950296724,2.2275157740896967,13190.117762377517,33725.97174341627,7.066647836578199,13214.929930069278,-6756.261033737213,7.337438096268232,13467.082121096975,6149.482561107082,39.85619472468989,0.977855150168788,130.0,70.0,68.0,273.0,341.0,60.0,894.0,896.0,60.0,32.0,28.0,0.5333333333333333,135.6181276733126,5602.4084517604515,6.0,3.0,3.0,0.5,221.2923408555932,217.73193376820268,17.0,8.0,9.0,0.4705882352941176,2103.266420950093,32612.975980688894,17.0,8.0,9.0,0.4705882352941176,811.4946469519132,12993.635774274851,106.0,56.0,50.0,0.5283018867924528,365.79577381484506,6206.498521781776,,,,,13026.0,13086.0,13156.0,13162.0,13182.0,13199.0,13207.0,13224.0,13439.0,13497.0,0.024960820793445613,-0.17566523667738393,0.062363404587761864,-0.12011001986153819,0.05948399238146492
14,14,13916.45504823085,5169.129070802489,20.35620605651413,14017.72601729957,-2120.8923202164456,2.8654597135786735,14050.073879848502,30867.56087128266,6.884571743724586,14074.123304500716,-6082.0186901843035,9.533692056738875,14329.657460196831,5458.293769201753,31.937280707672404,0.9635847577245028,116.0,72.0,70.0,276.0,346.0,44.0,858.0,858.0,44.0,17.0,27.0,0.3863636363636363,272.50903357012027,6058.3164177280305,7.0,3.0,4.0,0.4285714285714285,351.33443188737954,937.7599610639594,16.0,8.0,8.0,0.5,2008.1045066342635,28696.6721630931,18.0,7.0,11.0,0.3888888888888889,831.7669379090869,13079.317754269396,77.0,41.0,36.0,0.5324675324675324,225.55145404260537,5476.473325266224,,,,,13899.0,13943.0,14015.0,14022.0,14042.0,14058.0,14067.0,14085.0,14296.0,14361.0,0.05271855854971217,-0.1656540638760597,0.06505549677242183,-0.136758365976656,0.04132270331715603
15,15,14726.593010839846,6125.515042004343,29.661558458764215,14800.424660900142,-1280.039856316864,0.3190970774239244,14859.312782861887,30439.66657694033,7.503354264936803,14880.849321800286,-3281.8777797263306,5.095930801728113,15122.491752615775,6782.1647515080185,58.54261050497671,0.9490129135861128,-68.0,-134.0,269.0,290.0,559.0,66.0,816.0,810.0,66.0,36.0,30.0,0.5454545454545454,186.8536401439408,6712.616018065715,2.0,1.0,1.0,0.5,265.9842371484048,973.447402070602,18.0,8.0,10.0,0.4444444444444444,1881.988307186974,31253.723804179088,14.0,3.0,11.0,0.2142857142857142,903.3304826413912,11526.052273762834,118.0,58.0,60.0,0.4915254237288136,180.73718697996108,7683.317975055954,,,,,14691.0,14757.0,14623.0,14801.0,14851.0,14868.0,14878.0,14892.0,15077.0,15182.0,0.030504151710122978,-0.20779371504394975,0.06182683711170084,-0.2752480571402382,0.026648893620547048
16,16,16268.713498605495,4115.677701622707,16.81392650966733,16367.301356399426,-2407.752505467649,10.191861603456228,16400.157769809535,34968.64282680779,7.541689801992138,16421.35575510922,-7468.724137878485,12.739827004320285,16675.74951312401,4925.593549362835,27.08046795682152,0.9561277468735656,66.0,20.0,120.0,278.0,398.0,46.0,1538.0,1542.0,50.0,25.0,25.0,0.5,157.2015959285877,3926.9945904279457,60.0,54.0,6.0,0.9,254.55592069660833,767.7844782775819,17.0,9.0,8.0,0.5294117647058824,2195.285905313054,31276.34226226118,17.0,5.0,12.0,0.2941176470588235,1134.594342689582,19716.82457095168,71.0,35.0,36.0,0.4929577464788732,135.603219128823,5228.611245583941,,,,,16247.0,16293.0,16313.0,16373.0,16391.0,16408.0,16416.0,16433.0,16641.0,16711.0,0.038195798438397426,-0.10572345792125626,0.06277869908151243,-0.15191273927702825,0.027530330663674916
17,17,17028.661072805957,5927.957091597235,24.59944206945378,17133.150678199716,-1346.091347492414,2.6157500967524316,17164.03602159394,33244.27141431235,7.004423153336882,17188.537297780458,-6964.57692999419,6.862091907770875,17440.034648714143,6619.768154268421,35.484749562980426,0.9771501281558302,135.0,71.0,67.0,281.0,348.0,64.0,759.0,763.0,64.0,34.0,30.0,0.53125,166.08128908291596,6152.5543320366,20.0,17.0,3.0,0.85,234.0927365814545,494.2759388653151,17.0,8.0,9.0,0.4705882352941176,2100.1109013104547,32099.701658275673,16.0,8.0,8.0,0.5,812.2131015531021,12863.675355508603,85.0,46.0,39.0,0.5411764705882353,142.67163382400997,7123.320704442889,,,,,16995.0,17059.0,17130.0,17136.0,17156.0,17173.0,17182.0,17197.0,17400.0,17478.0,0.028016614580144816,-0.17390553547315907,0.06317211393017064,-0.11662059443340511,0.021552361124915743
18,18,17788.765226551284,5711.140374550605,23.477589868992546,17891.159171417716,-326.9175847432712,-0.3954603673108823,17922.327131015532,32950.39043732209,7.284408980234641,17945.680264816227,-6057.0018407058315,6.023897308725896,18190.98621777438,7079.881914465824,44.3809693139461,0.979857416231594,131.0,73.0,64.0,284.0,348.0,58.0,759.0,758.0,58.0,30.0,28.0,0.5172413793103449,161.0830499383665,5779.430657496038,5.0,2.0,3.0,0.4,249.29446896510905,1349.057321366895,17.0,8.0,9.0,0.4705882352941176,2037.2723440267544,32888.85074490565,15.0,6.0,9.0,0.4,945.6581314673724,13864.376223087524,99.0,52.0,47.0,0.5252525252525253,154.20471980416542,7606.177354059424,,,,,17759.0,17817.0,17890.0,17894.0,17914.0,17931.0,17940.0,17954.0,18141.0,18238.0,0.02820505877533114,-0.7625605981424349,0.061828473562461544,-0.15612643950545232,0.021780690930605747
19,19,18714.29513524135,5584.166429532934,33.567260354410244,18784.575339099854,-767.0391895147379,2.268286661209725,18846.54933238791,34686.33320993599,7.211335040407379,18869.540904850743,-6229.069915819432,5.822791444685352,19121.8789052563,7262.491813379786,43.99356039152712,0.9825613528492833,102.0,37.0,95.0,290.0,385.0,65.0,927.0,926.0,70.0,35.0,35.0,0.5,138.2732343079558,6269.066093966881,3.0,2.0,1.0,0.6666666666666666,140.59284327387618,361.97421202524174,18.0,9.0,9.0,0.5,2195.3976170765864,33254.12463336675,15.0,6.0,9.0,0.4,977.1750025234928,14436.822053225447,93.0,45.0,48.0,0.4838709677419355,134.0235766226738,7578.596213705759,,,,,18681.0,18746.0,18783.0,18786.0,18838.0,18856.0,18864.0,18878.0,19077.0,19168.0,0.02476166067985927,-0.18329290757988687,0.0632928711083162,-0.15687333995751848,0.01845421379694506
20,20,19750.871098745196,5587.448166252996,22.901996414676383,19841.96100607163,1236.3051325286435,168.16571645702774,19882.496503557468,33598.96766552921,7.02282581527209,19905.677574712747,-6599.498925513205,6.151659923325666,20161.546762523176,7017.479764004221,43.44823557294979,0.990433852607729,-154.0,-218.0,350.0,294.0,644.0,64.0,1036.0,1036.0,64.0,34.0,30.0,0.53125,157.27599616325406,7358.542991772234,239.0,231.0,8.0,0.9665271966527196,192.539188446247,1541.3043788505915,18.0,8.0,10.0,0.4444444444444444,2097.871041161993,33735.42283399654,14.0,6.0,8.0,0.4285714285714285,955.252452164272,12978.089332558504,102.0,55.0,47.0,0.5392156862745098,141.26565814930618,7772.869233770391,,,,,19717.0,19781.0,19563.0,19917.0,19874.0,19891.0,19900.0,19913.0,20110.0,20207.0,0.028148090413288803,0.1557375953397865,0.06243855650702921,-0.14474620921163156,0.020130540151169465
21,21,20774.77285833044,5087.226545937868,24.458646800982446,20878.72601729957,-1276.7228625526834,3.3323163360201336,20910.193914245127,32726.78201100437,6.9077544771624755,20934.08043415979,-7133.932298999395,6.787836749492426,21193.62849028985,6140.100270710825,34.668741063994595,0.9770577480058712,129.0,67.0,70.0,286.0,356.0,62.0,1025.0,1027.0,64.0,32.0,32.0,0.5,155.2692437058299,5106.923334526613,11.0,6.0,5.0,0.5454545454545454,239.9243508075292,9.751944548242932,17.0,8.0,9.0,0.4705882352941176,2096.1303689432752,31747.097334913688,16.0,7.0,9.0,0.4375,906.244866523494,14922.581305422533,85.0,45.0,40.0,0.5294117647058824,152.3828505355201,5896.395790006594,,,,,20744.0,20806.0,20873.0,20883.0,20902.0,20919.0,20927.0,20943.0,21154.0,21229.0,0.030521393593098745,-0.18792202900465318,0.06404938830339177,-0.1270330062777024,0.024817648542713313
22,22,21782.116062656813,5561.350668354175,25.24855198877308,21881.575339099854,-523.8706501015481,1.3763243380783945,21913.12648642848,33200.210887409834,7.04604112434957,21937.026287871515,-6056.993221784687,6.087572767388044,22192.385629832406,6364.166402462396,39.74978961987449,0.9911949146766708,131.0,70.0,66.0,287.0,353.0,61.0,1006.0,1001.0,63.0,34.0,29.0,0.5396825396825397,144.4772103236119,6125.691765228797,3.0,2.0,1.0,0.6666666666666666,223.09981664949697,740.5177955174221,17.0,8.0,9.0,0.4705882352941176,2070.671437960209,31840.40542933597,15.0,6.0,9.0,0.4,877.1450081204807,13337.648675755148,85.0,39.0,46.0,0.4588235294117647,144.81393832104777,6682.740324271292,,,,,21749.0,21810.0,21880.0,21883.0,21905.0,21922.0,21931.0,21946.0,22153.0,22233.0,0.02597879884570711,-0.4258681348272725,0.06236922545409035,-0.14481525337781884,0.022754580751536756
23,23,22764.872731002935,4591.503110715438,17.7561661651136,22862.30135639943,-2136.9514720668635,10.191861603456228,22893.867673348195,29939.312681555217,6.652923461325487,22920.807779867773,-7002.151450496073,9.08772644060184,23176.049145382527,4650.023757920003,30.409975389594933,0.9675609162422348,104.0,55.0,85.0,283.0,368.0,49.0,979.0,982.0,49.0,25.0,24.0,0.5102040816326531,134.26490655464124,4763.255182578601,27.0,20.0,7.0,0.7407407407407407,243.3126659416204,1039.4415527055671,16.0,8.0,8.0,0.5,1998.2977639515943,28998.656772318987,19.0,10.0,9.0,0.5263157894736842,619.9327059747492,10742.896674060872,80.0,39.0,41.0,0.4875,159.1908383454817,4651.975709779941,,,,,22740.0,22789.0,22844.0,22868.0,22886.0,22902.0,22912.0,22929.0,23140.0,23212.0,0.02924203758923739,-0.11385970581086145,0.0667449445218123,-0.08853460402242935,0.0342344139800028
24,24,23677.906239065876,5492.748857451941,21.065498839177856,23774.72601729957,-1509.8462307607126,4.663687456904102,23806.58669150321,33417.34324855221,6.808210656640963,23831.925363738243,-7052.186470816898,7.312645420808388,24086.076305798797,5785.64952633031,37.6557291097343,0.9893444020082308,118.0,65.0,71.0,289.0,360.0,53.0,913.0,913.0,53.0,27.0,26.0,0.5094339622641509,151.63800097689602,5960.861686676053,19.0,14.0,5.0,0.7368421052631579,241.7011872379425,403.75510065827007,17.0,9.0,8.0,0.5294117647058824,2146.58240617584,31320.35828194324,16.0,8.0,8.0,0.5,791.1243496000683,13021.808217525682,85.0,41.0,44.0,0.4823529411764706,121.01061006055032,6339.116363035169,,,,,23651.0,23704.0,23769.0,23779.0,23798.0,23815.0,23824.0,23840.0,24046.0,24129.0,0.027606942336562634,-0.16008331332930845,0.06423557941784733,-0.11218142811082356,0.02091564819297035
25,25,24652.165208828737,5169.074106618216,22.369718172135553,24747.876695499283,-1510.08550419416,5.7863063649906294,24782.58859098915,33837.39424245803,7.049592415253629,24806.123304500717,-7253.288803714035,7.976554378585596,25061.844937822672,5775.202941184654,34.49673068126765,0.9816344690657508,110.0,56.0,82.0,284.0,366.0,54.0,979.0,977.0,57.0,31.0,26.0,0.543859649122807,150.69566469947884,5654.968002143094,23.0,15.0,8.0,0.6521739130434783,217.9165033348462,26.675108983885707,17.0,9.0,8.0,0.5294117647058824,2203.267851614828,31257.529270975167,17.0,7.0,10.0,0.4117647058823529,984.9045365230512,15963.8851397485,91.0,47.0,44.0,0.5164835164835165,142.72306381315846,5651.44894334946,,,,,24624.0,24678.0,24734.0,24755.0,24774.0,24791.0,24799.0,24816.0,25021.0,25100.0,0.029153318677814247,-0.14430739367380052,0.06511340193123503,-0.13578730465257807,0.024713081993250615
26,26,25643.7074216145,5674.710079278901,24.21155453229281,25741.72601729957,-624.293408713434,2.9949722080651955,25774.73822669103,33866.87126128626,7.053378914531106,25798.627243428567,-6392.430715914422,6.387432355751121,26053.68619693671,6257.752367972188,39.21034420329275,0.9911414159780656,125.0,67.0,68.0,289.0,357.0,58.0,993.0,992.0,60.0,32.0,28.0,0.5333333333333333,154.9996478740548,6289.925555292406,7.0,3.0,4.0,0.4285714285714285,198.428677004942,494.69416953759696,18.0,9.0,9.0,0.5,2133.8433366650097,32177.15039279549,15.0,7.0,8.0,0.4666666666666667,867.1973815818361,13456.94936621226,98.0,51.0,47.0,0.5204081632653061,152.64801696382673,6413.775736708234,,,,,25614.0,25672.0,25739.0,25746.0,25766.0,25784.0,25792.0,25807.0,26011.0,26096.0,0.027314108687249622,-0.31784522187070796,0.06300680450231726,-0.1356600360834393,0.024393425624365514
27,27,26646.77151899916,5126.13030981017,22.753636010160385,26746.150678199716,-910.3575333358284,2.5810597822974666,26777.95929966417,33348.20008644756,6.949908565852522,26802.09574835265,-6350.889888373674,6.289490899816734,27056.929289342323,6488.0600453609895,41.84246535908,0.989255767998512,129.0,71.0,65.0,291.0,356.0,58.0,1002.0,1002.0,62.0,34.0,28.0,0.5483870967741935,160.08475737161064,5121.776525555837,13.0,9.0,4.0,0.6923076923076923,220.7251302011397,280.72893187166085,17.0,8.0,9.0,0.4705882352941176,2111.6564252192356,32172.3300739421,16.0,7.0,9.0,0.4375,875.2910945357278,13518.830965190651,103.0,54.0,49.0,0.5242718446601942,141.94864427840994,6760.203574678666,,,,,26616.0,26674.0,26745.0,26749.0,26770.0,26787.0,26795.0,26810.0,27007.0,27101.0,0.031229162681496263,-0.24245982717618134,0.06332145122511111,-0.1378218029158542,0.02187844182790883
28,28,28546.05280969379,6000.507776918786,25.65360721601203,28644.82264136922,-748.3258165623358,1.2080317365049191,28676.36786871634,35225.18506433635,7.120937443983688,28699.95337694167,-6919.966968584674,6.169918697153587,28957.029695803903,6199.780810013533,40.27905025896134,0.9912062438285034,129.0,69.0,65.0,296.0,361.0,60.0,1894.0,1900.0,62.0,33.0,29.0,0.532258064516129,153.5625916695777,6442.746627219227,3.0,2.0,1.0,0.6666666666666666,221.32899561417003,798.9595903104455,17.0,8.0,9.0,0.4705882352941176,2194.2075538663744,34240.37245218453,14.0,6.0,8.0,0.4285714285714285,984.4805903799526,15116.435125951106,94.0,47.0,47.0,0.5,124.20929704984913,6243.218152020038,,,,,28514.0,28574.0,28643.0,28646.0,28668.0,28685.0,28694.0,28708.0,28912.0,29004.0,0.02559159947434164,-0.29576554852926584,0.06229087369899709,-0.14226666035391586,0.020034465871637486
29,29,29553.158542255005,5179.39357081355,21.818903724469845,29650.30135639943,-1188.2814088235027,5.462284814397941,29683.161708139494,33681.668234589306,6.905941500636631,29707.29192864766,-6801.083260960364,6.931627629950362,29964.46841904625,6206.170023326084,36.89289182064301,0.9886423959161614,112.0,56.0,80.0,290.0,370.0,56.0,1011.0,1005.0,56.0,29.0,27.0,0.5178571428571429,153.68073488379434,6035.801472594735,22.0,16.0,6.0,0.7272727272727273,217.1040788889028,292.7996958738861,17.0,8.0,9.0,0.4705882352941176,2138.761224526861,32066.92280280489,16.0,7.0,9.0,0.4375,912.8233086941242,14256.222417761366,91.0,46.0,45.0,0.5054945054945055,155.1069631407255,6397.98865398381,,,,,29524.0,29580.0,29636.0,29656.0,29675.0,29692.0,29700.0,29716.0,29924.0,30006.0,0.029671569225749154,-0.1827042628764628,0.06349926641491188,-0.1342173406307081,0.02499238057574174
30,30,30575.60156972073,4712.527596579085,24.920814527724545,30679.26212832492,-964.2592973603146,2.3858842758501817,30710.35073193348,32603.190275105433,6.878543352919402,30735.24886217016,-6527.846551415108,6.6218899956041115,30993.32391028525,5763.8054476671105,37.437458076668904,0.9904789051923076,132.0,71.0,68.0,292.0,360.0,61.0,1026.0,1029.0,63.0,33.0,30.0,0.5238095238095238,164.71304650725153,5113.281276194795,7.0,3.0,4.0,0.4285714285714285,222.23513327373897,0.000838296031361,17.0,8.0,9.0,0.4705882352941176,2048.7463198237874,31935.52825634421,16.0,7.0,9.0,0.4375,812.5602248019445,13241.338040137967,88.0,45.0,43.0,0.5113636363636364,117.46962718327532,6126.682584382541,,,,,30544.0,30605.0,30676.0,30683.0,30702.0,30719.0,30728.0,30744.0,30950.0,31036.0,0.03495216593040642,-0.23047237800259074,0.06283882965245069,-0.12447599961212287,0.02038056770823535
31,31,31507.40677034305,4631.231629234282,20.28386582619635,31576.69864360057,-1443.744947200973,10.19186160345622,31638.20075885609,31434.926008101447,6.649579038619563,31664.69090253842,-6749.576137223346,7.769593003513039,31919.15634200082,5014.555090316013,35.00718860033364,0.984294371041483,89.0,38.0,102.0,287.0,389.0,51.0,931.0,926.0,51.0,25.0,26.0,0.4901960784313725,145.44045771072626,4815.025372442083,14.0,6.0,8.0,0.4285714285714285,162.11918694379855,1391.957085989986,17.0,8.0,9.0,0.4705882352941176,2035.935414777548,30452.80533598093,17.0,9.0,8.0,0.5294117647058824,627.450860726102,10759.117901968166,89.0,44.0,45.0,0.4943820224719101,121.20262375257344,5076.329680543123,,,,,31482.0,31533.0,31571.0,31583.0,31630.0,31647.0,31656.0,31673.0,31881.0,31960.0,0.03140427198515507,-0.11229073892733156,0.06476666794930086,-0.09296152054138082,0.02417016496371473
32,32,32463.85212975195,4726.920497529415,23.15826672290328,32534.849321800284,-535.0899920725939,3.044280814645883,32598.030639331777,35077.02119885796,7.224046386669091,32621.173392187644,-6640.7719495395,6.452707932667952,32876.343017359395,6481.91363855986,38.50614551264634,0.9906928307128772,98.0,41.0,98.0,289.0,387.0,57.0,959.0,961.0,59.0,31.0,28.0,0.5254237288135594,161.63124948901523,4801.285247285227,9.0,3.0,6.0,0.3333333333333333,118.0062434362867,168.9063681525788,17.0,8.0,9.0,0.4705882352941176,2210.6160254859637,33659.6950603691,15.0,6.0,9.0,0.4,1034.1886865337417,15554.10889138827,99.0,51.0,48.0,0.5151515151515151,135.51926828389873,6917.744223574618,,,,,32434.0,32491.0,32532.0,32541.0,32590.0,32607.0,32615.0,32630.0,32829.0,32919.0,0.03419377363623819,-0.22053532150583968,0.06302177180193218,-0.15573320306616714,0.02090729309901885
33,33,33558.99601499188,4460.076492392717,24.440802530265582,33654.300972546924,-596.6804926988152,4.859594794510932,33693.66059163052,32240.845480242147,6.884682780974919,33718.06079339303,-6750.42460861569,6.759886383872111,33977.21887956171,5368.908709642909,37.27936267297703,0.9865706396334356,116.0,63.0,78.0,291.0,369.0,53.0,1092.0,1096.0,62.0,32.0,30.0,0.5161290322580645,189.29883202716093,4406.319478983704,8.0,5.0,3.0,0.625,189.46832768050547,153.41565689843048,16.0,8.0,8.0,0.5,2062.3595202225506,30404.65301664183,16.0,7.0,9.0,0.4375,822.8084064230245,13456.190995512909,93.0,44.0,49.0,0.4731182795698925,135.37086982321563,5482.074625025658,,,,,33533.0,33586.0,33649.0,33657.0,33686.0,33702.0,33711.0,33727.0,33938.0,34018.0,0.042442956382034366,-0.3175373252501199,0.06396729023394895,-0.12188987421218794,0.025213852040374747
34,34,34525.75900389736,4777.480979809951,24.15446363954845,34603.547719690396,1645.3004772598588,170.71368185767673,34661.962177471476,33222.56563523186,6.773449993181829,34686.93244647178,-6850.022020885662,7.148198540741885,34944.241842678806,6366.6043168709875,44.39703987891295,0.9797585093076546,-183.0,-248.0,386.0,296.0,682.0,65.0,966.0,966.0,69.0,35.0,34.0,0.5072463768115942,166.6948064786828,6397.014603177346,293.0,266.0,27.0,0.9078498293515358,139.02932410971115,612.1170133722565,17.0,8.0,9.0,0.4705882352941176,2140.269110793025,32805.84097732294,15.0,7.0,8.0,0.4666666666666667,777.069313209356,11273.891931002208,111.0,59.0,52.0,0.5315315315315315,148.1779688250827,6960.059290933876,,,,,34492.0,34557.0,34309.0,34699.0,34654.0,34671.0,34680.0,34695.0,34897.0,34991.0,0.03489177815320448,0.08450087144036783,0.0644221501220638,-0.11344041097095424,0.023274254445564184
35,35,35506.71824862818,5005.333535030182,29.30072994492037,35581.438330120094,-273.86325319160517,1.5477579548869915,35643.10247914792,35467.67333114871,7.347585096161422,35665.6986435755,-6020.047878439452,6.045427770050234,35922.29393660388,6651.005570181526,46.248977322803846,0.9889507785881732,-172.0,-236.0,371.0,297.0,668.0,64.0,984.0,983.0,64.0,31.0,33.0,0.484375,137.15519442533207,5250.474380598013,3.0,1.0,2.0,0.3333333333333333,147.35467024498527,75.31536659368862,17.0,8.0,9.0,0.4705882352941176,2180.9380498001906,34156.38882007189,15.0,6.0,9.0,0.4,1030.660534551444,15018.238051591668,105.0,52.0,53.0,0.4952380952380952,149.05242060683025,7070.618972264076,,,,,35476.0,35540.0,35304.0,35583.0,35635.0,35652.0,35660.0,35675.0,35871.0,35972.0,0.027401809183232585,-0.5380592997699123,0.06149086886634961,-0.17120470723209882,0.02241050906273142
36,36,36478.22710285498,3844.0212389729054,17.642348075160143,36579.30135639943,-1489.5038393525838,10.191861603455584,36610.9314442765,30701.600757136635,6.581629297064912,36637.54796521057,-6837.312684190571,7.980692889090013,36896.29286850327,3905.0467869936942,30.510833297591823,0.9771450707025487,105.0,65.0,81.0,288.0,369.0,40.0,965.0,967.0,40.0,18.0,22.0,0.45,158.48567704104764,4508.163594277976,23.0,17.0,6.0,0.7391304347826086,245.72026398003985,623.7602848768622,16.0,8.0,8.0,0.5,2024.9512189441004,29280.437839880393,18.0,10.0,8.0,0.5555555555555556,612.5402722421143,10283.928208865,79.0,41.0,38.0,0.5189873417721519,134.29082553348883,4254.4364388208,,,,,36460.0,36500.0,36565.0,36585.0,36603.0,36619.0,36629.0,36646.0,36855.0,36934.0,0.041229136674435715,-0.16496786210825928,0.06595588402579945,-0.08958786887989593,0.03438904393687759
37,37,37393.82134275879,5272.429892612427,25.281252929919308,37571.39039662519,1005.0447469840324,257.26294640526453,37526.419483076184,35349.067413567165,7.165547182547702,37549.69864360057,-6463.816904739055,6.3112963514242395,37806.681864495025,6572.971386156332,39.36211534581533,0.9932806854844324,-171.0,-237.0,370.0,295.0,665.0,66.0,919.0,916.0,68.0,37.0,31.0,0.5441176470588235,152.19488428410733,6320.279924185463,19.0,5.0,14.0,0.2631578947368421,209.90988057413355,3121.305793469957,18.0,8.0,10.0,0.4444444444444444,2190.254052467665,35510.43826722395,14.0,6.0,8.0,0.4285714285714285,979.115371305352,13881.949036761667,104.0,53.0,51.0,0.5096153846153846,130.40225250424558,7193.442891380692,,,,,37359.0,37425.0,37188.0,37918.0,37518.0,37536.0,37544.0,37558.0,37756.0,37853.0,0.02886617506234807,0.20885625361859483,0.06196073086858958,-0.15147634682961042,0.01983916327079901
38,38,38422.34618067849,3771.4029623585,19.185991831304804,38525.726017299574,-1513.6083691815722,4.797022852230476,38558.26235844408,33916.594293068105,7.076760457558447,38581.5724850154,-7473.810554811363,8.569611572773379,38843.42182671983,5619.041564274303,31.57787649255644,0.9757581131286934,130.0,71.0,68.0,289.0,357.0,59.0,1033.0,1033.0,59.0,29.0,30.0,0.4915254237288136,156.69402536929138,3570.2629780165016,8.0,4.0,4.0,0.5,242.2199505123043,192.84860093311556,17.0,8.0,9.0,0.4705882352941176,2182.9774943762745,31688.991247426307,17.0,8.0,9.0,0.4705882352941176,936.9420534467516,15323.14992447209,79.0,39.0,40.0,0.4936708860759494,155.03894168986668,5676.524422520394,,,,,38393.0,38452.0,38523.0,38530.0,38550.0,38567.0,38574.0,38591.0,38804.0,38880.0,0.041547940364161075,-0.1600281522249218,0.06436311014937113,-0.12536336672911558,0.02759170579473902
39,39,39434.745272341934,3582.787490329402,16.411881143504715,39537.87669549929,-2412.7490294007475,12.739827004320285,39569.6350997977,29371.743740162496,6.5539994463879765,39596.76154683804,-7216.40402198895,9.801308358389097,39859.11849902507,3962.0014768086744,27.700618740512116,0.9575906418154256,69.0,27.0,121.0,286.0,407.0,42.0,1012.0,1009.0,45.0,21.0,24.0,0.4666666666666667,154.4600145422443,3751.451898415513,61.0,54.0,7.0,0.8852459016393442,178.70682629476977,1427.9155685661835,16.0,8.0,8.0,0.5,1992.6335326807084,27259.584527095576,18.0,9.0,9.0,0.5,591.3566657047218,11028.920033673852,73.0,34.0,39.0,0.4657534246575342,143.4188973612885,4060.3891914733326,,,,,39415.0,39457.0,39484.0,39545.0,39562.0,39578.0,39588.0,39605.0,39826.0,39891.0,0.04311168746657738,-0.07406772279964612,0.06784185339176885,-0.08194616929745224,0.03619859765342894
40,40,40334.80189128851,3822.009044740091,17.910463113518464,40435.87669549929,-1615.8598774930092,12.739827004320285,40470.04687676241,33667.155910501475,6.965577574995169,40494.89766695824,-7351.4714489457265,7.976004677668043,40748.95881659626,5526.398889624595,32.707255208175006,0.9804506894338272,109.0,58.0,84.0,282.0,366.0,51.0,899.0,900.0,51.0,24.0,27.0,0.4705882352941176,154.00989873823562,3342.839705779669,24.0,16.0,8.0,0.6666666666666666,247.097824553514,413.8902603034999,17.0,8.0,9.0,0.4705882352941176,2190.0807286795302,31785.668062002624,17.0,8.0,9.0,0.4705882352941176,834.2370338451436,14424.58801347189,88.0,48.0,40.0,0.5454545454545454,161.8952733562877,5426.256803468623,,,,,40311.0,40362.0,40420.0,40443.0,40462.0,40479.0,40487.0,40504.0,40710.0,40786.0,0.040295534870642566,-0.15292032929048516,0.06505095751186987,-0.11347891910330161,0.029294894666440766
41,41,41303.73758583533,5595.993015683782,26.941176309553423,41376.575339099865,-761.2905266415172,2.547965400863996,41437.1188594947,35783.820642179635,7.337497464869643,41459.69864358815,-6074.6910404640885,6.035151352154999,41716.097333334124,7173.037599740598,42.364857713048096,0.9899726935721492,103.0,39.0,96.0,296.0,392.0,64.0,968.0,970.0,65.0,35.0,30.0,0.5384615384615384,163.26678042592397,5886.391777774739,5.0,4.0,1.0,0.8,155.6209128025388,951.6026248633716,17.0,8.0,9.0,0.4705882352941176,2224.571480316799,34582.18483396455,15.0,6.0,9.0,0.4,1033.1010938934833,15288.073504320815,99.0,47.0,52.0,0.4747474747474747,118.49698908806243,7509.682065726576,,,,,41270.0,41334.0,41373.0,41378.0,41429.0,41446.0,41454.0,41469.0,41669.0,41765.0,0.029175658362749796,-0.20441724592196178,0.06216696373932243,-0.17006644239384353,0.016519778049448354
42,42,42372.16149681576,4939.007167512884,27.393297862164417,42447.575339099865,-645.352865946243,1.1898109776450387,42506.326369458315,34219.11677422872,7.15994597875021,42529.78357104355,-6261.254865688543,6.23594475523229,42787.1505338217,5997.337979331304,40.339906482131845,0.9916659508096308,101.0,40.0,97.0,289.0,386.0,61.0,1070.0,1068.0,62.0,32.0,30.0,0.5161290322580645,169.55245069607025,5502.370623483504,8.0,7.0,1.0,0.875,172.84198867196545,688.1823646558363,17.0,8.0,9.0,0.4705882352941176,2117.129628625322,33385.22332110328,15.0,7.0,8.0,0.4666666666666667,932.1188108194876,13883.239484005611,105.0,54.0,51.0,0.5142857142857142,132.45050721781493,6057.330219220013,,,,,42340.0,42401.0,42441.0,42449.0,42498.0,42515.0,42523.0,42538.0,42742.0,42827.0,0.034329257874199666,-0.2678255537279398,0.061869791748096356,-0.14887092616648878,0.02208488293877728
43,43,43329.45383918765,4585.104555573906,20.76499014645611,43421.7989409266,-1135.470900007668,10.191861603456228,43462.679765576744,30937.1195855728,6.571214693426865,43488.783611393075,-6713.194342109625,7.227535943199507,43744.41763788413,5334.446701300686,35.638993210095364,0.987105977710586,110.0,59.0,80.0,288.0,368.0,51.0,953.0,956.0,51.0,22.0,29.0,0.4313725490196078,138.12088116472793,4934.430515213198,19.0,5.0,14.0,0.2631578947368421,205.77570654652257,928.8520717682716,16.0,8.0,8.0,0.5,2022.080453886512,29578.58259370904,17.0,9.0,8.0,0.5294117647058824,665.3634093635458,10813.189110457644,83.0,41.0,42.0,0.4939759036144578,118.17986267349424,5786.175661399137,,,,,43307.0,43358.0,43417.0,43429.0,43455.0,43471.0,43480.0,43497.0,43703.0,43785.0,0.030123823675257434,-0.18122499356446117,0.06536097998048558,-0.09911278825788544,0.022154099439156215
44,44,44303.47641690918,4662.45586022019,22.708359404662204,44405.15067819971,-1018.2927577013502,3.665966028342042,44437.82179985358,34542.04105912257,7.049766921849369,44461.2877799878,-7064.687034744349,6.87773543067989,44719.24672671276,6277.226762530487,37.471417504137705,0.9902748286047348,130.0,72.0,66.0,292.0,358.0,58.0,976.0,976.0,58.0,29.0,29.0,0.5,147.36216729813702,4852.917942470816,20.0,15.0,5.0,0.75,211.4121130131136,495.720719340898,18.0,9.0,9.0,0.5,2224.082825122461,32618.15532960557,16.0,7.0,9.0,0.4375,1004.825855801918,15871.122314965523,92.0,46.0,46.0,0.5,146.47930358698946,6244.606304692122,,,,,44274.0,44332.0,44404.0,44410.0,44429.0,44447.0,44454.0,44470.0,44680.0,44762.0,0.031606125980821125,-0.2076142753782774,0.06438770718023566,-0.14223218252417316,0.02333503458268257
45,45,45330.02994798195,3746.54854751055,19.015470414973414,45430.45203459914,-1343.2526135917003,15.287792405182474,45465.47303544675,33248.201983042025,7.018935144532702,45489.504209458384,-6833.839304196083,7.768948926830616,45749.15676156187,5818.348854711489,33.22491569855298,0.9829709495941814,105.0,59.0,83.0,292.0,375.0,46.0,1027.0,1028.0,58.0,30.0,28.0,0.5172413793103449,154.06958125728377,3323.986855892348,44.0,35.0,9.0,0.7954545454545454,181.3909726651186,702.4467805867872,17.0,8.0,9.0,0.4705882352941176,2131.5847605047425,32143.662259447898,16.0,8.0,8.0,0.5,828.873838845647,14110.895921182006,87.0,44.0,43.0,0.5057471264367817,138.09530244233414,5701.42119341967,,,,,45310.0,45356.0,45415.0,45439.0,45457.0,45474.0,45482.0,45498.0,45706.0,45790.0,0.04112307082198564,-0.13503861509720078,0.06411127920817913,-0.12128962973078775,0.023734448705410565
46,46,46324.3318230723,5293.98950337817,22.674431214889836,46426.30135639943,-1443.6604537408198,4.487621806282783,46458.019685335625,31657.32856316663,6.823230270198826,46483.46119312013,-6255.7253375863165,6.935536822830409,46738.998177642374,5285.396335979884,36.76840936384277,0.9842489678169531,118.0,62.0,79.0,290.0,369.0,56.0,994.0,990.0,60.0,32.0,28.0,0.5333333333333333,170.11733342321105,5404.901300894222,24.0,18.0,6.0,0.75,214.98731504277572,189.2357806001304,17.0,8.0,9.0,0.4705882352941176,2018.2779479342275,30691.75637236315,16.0,7.0,9.0,0.4375,737.7707896213724,12575.938510371663,92.0,48.0,44.0,0.5217391304347826,116.17386268617172,5216.258040017101,,,,,46295.0,46351.0,46413.0,46432.0,46450.0,46467.0,46476.0,46492.0,46698.0,46782.0,0.0321340518931246,-0.1489181992106936,0.06375389331753338,-0.11793529124250696,0.021980161051561656
47,47,47262.32898511304,5280.602285670618,22.688932213492723,47362.15067819971,-1091.5759557992594,3.0747458401673744,47394.117397691574,34190.73636957003,6.915239967815063,47419.87669549929,-6223.592936855056,6.536961594964107,47674.29397851889,6260.118244176799,38.571983167414835,0.9900280734163937,129.0,70.0,67.0,289.0,356.0,59.0,936.0,937.0,61.0,33.0,28.0,0.5409836065573771,135.6553341120427,5236.646128121189,20.0,16.0,4.0,0.8,216.04955155948716,269.689211714016,17.0,8.0,9.0,0.4705882352941176,2133.6820007235724,32982.01694848346,16.0,9.0,7.0,0.5625,761.7319118607094,11204.979384054745,99.0,52.0,47.0,0.5252525252525253,143.99058401319854,6460.299043521893,,,,,47231.0,47290.0,47360.0,47365.0,47386.0,47403.0,47411.0,47427.0,47631.0,47716.0,0.025689367760218466,-0.19792443247918023,0.062405266083200316,-0.12239423747492592,0.02300125626974211
48,48,48253.06775138495,4750.160983173463,19.24240395914192,48353.726017299574,-1541.0136104849091,7.64389620259217,48385.51173928264,36217.37843990027,7.322492634091062,48405.60271279886,-6026.200646556017,20.383723206890473,48668.76476887101,5638.157859745702,32.82783812934607,0.9712141464976546,76.0,25.0,115.0,287.0,402.0,51.0,993.0,992.0,58.0,31.0,27.0,0.5344827586206896,126.95023652253296,4724.2460862406715,56.0,51.0,5.0,0.9107142857142856,200.06069433393836,806.5997076105099,17.0,9.0,8.0,0.5294117647058824,2162.869924000416,29449.51314667584,18.0,5.0,13.0,0.2777777777777778,1100.3239193852578,19073.62140647054,84.0,44.0,40.0,0.5238095238095238,144.8694691478725,5715.427197908073,,,,,48228.0,48279.0,48304.0,48358.0,48377.0,48394.0,48401.0,48419.0,48630.0,48706.0,0.026725459825936403,-0.12982409303379577,0.05971911875370878,-0.18258999059616354,0.025694468433064867
49,49,49269.27923184272,4954.92047061839,20.695733532116503,49336.69864360057,-1279.0871753789554,10.191861603456228,49398.28767180425,31725.995249668977,6.795824156922852,49423.63166961461,-6984.073004052633,7.510653366272368,49683.710419895135,5454.889890606889,33.38043183187532,0.9827349659995308,85.0,37.0,101.0,288.0,389.0,48.0,1013.0,1013.0,53.0,28.0,25.0,0.5283018867924528,143.8474598731499,5381.832361745221,16.0,6.0,10.0,0.375,148.9188625333157,1608.4441678139417,17.0,8.0,9.0,0.4705882352941176,2036.2307522347728,30944.84203713751,17.0,9.0,8.0,0.5294117647058824,728.8050755906502,11800.798274161602,84.0,43.0,41.0,0.5119047619047619,132.3573839577169,5865.681060479019,,,,,49246.0,49294.0,49331.0,49345.0,49390.0,49407.0,49416.0,49432.0,49643.0,49720.0,0.029031234855561115,-0.11642588980629523,0.06418177700055032,-0.10435244235960134,0.024263988203617318
50,50,50210.55362461391,5766.660094424669,24.115830602358397,50301.69864360057,-721.6004262580741,5.370501528811058,50342.32730052749,33839.569874750196,7.004651585668112,50366.89919412626,-6532.291792165003,6.586190649428854,50625.25004298251,6053.921253457545,39.43673861712212,0.9893310639923548,116.0,57.0,79.0,296.0,375.0,59.0,942.0,943.0,59.0,31.0,28.0,0.5254237288135594,124.90713868872125,6012.75589326702,19.0,6.0,13.0,0.3157894736842105,170.77913021179666,67.82077377486439,17.0,8.0,9.0,0.4705882352941176,2109.9164991892967,33244.336287895094,15.0,7.0,8.0,0.4666666666666667,840.3809468063023,13305.579928302805,94.0,46.0,48.0,0.4893617021276595,149.3257426198036,6238.052920226351,,,,,50180.0,50239.0,50296.0,50309.0,50334.0,50351.0,50360.0,50375.0,50580.0,50671.0,0.02166022214652189,-0.23666716924959103,0.06235057085532392,-0.12865024612254408,0.024665953911197632
51,51,51217.726223546386,5525.368672984834,23.6727447082545,51304.75233368303,-824.8943128431665,2.9895113805225852,51347.03444956118,34163.08645602122,7.047153355130127,51371.087968350854,-6727.958761409648,6.791826236276736,51629.995507013475,6156.308941502646,40.0208802389071,0.9896948000176364,115.0,58.0,78.0,295.0,373.0,57.0,1005.0,1007.0,58.0,32.0,26.0,0.5517241379310345,158.1457415528131,5584.939422437972,7.0,4.0,3.0,0.5714285714285714,184.31294404800113,364.6409985939872,17.0,8.0,9.0,0.4705882352941176,2165.981738459896,32701.879466741662,16.0,7.0,9.0,0.4375,897.922031540145,14426.16680991157,98.0,51.0,47.0,0.5204081632653061,158.8294297677212,6342.380593264963,,,,,51187.0,51244.0,51302.0,51308.0,51339.0,51356.0,51364.0,51380.0,51586.0,51675.0,0.02862175375301824,-0.22343825285051241,0.06340123106992118,-0.1334612864588979,0.025799457317188135
52,52,52246.67789197868,4980.254224202318,23.42785891375776,52318.40886167184,-1059.2557076441003,17.8357578060484,52379.02064782051,33435.07755747577,6.956357597712899,52403.455140157115,-7004.496789106457,7.442892815320362,52664.40829899626,5857.810704949633,39.56007899788654,0.9870968633713754,93.0,36.0,102.0,297.0,399.0,57.0,1031.0,1031.0,57.0,30.0,27.0,0.5263157894736842,134.54627669223723,5492.187440975943,14.0,8.0,6.0,0.5714285714285714,146.3494559873678,1332.5370107012252,17.0,8.0,9.0,0.4705882352941176,2144.139471154336,32067.137399679596,16.0,7.0,9.0,0.4375,906.8822615868462,15028.360135325527,93.0,46.0,47.0,0.4946236559139785,156.3173776543057,6363.703121160152,,,,,52217.0,52274.0,52310.0,52324.0,52371.0,52388.0,52396.0,52412.0,52620.0,52709.0,0.027015945499004594,-0.13816253708263218,0.06412844317374483,-0.12947143654876805,0.02668529003885757
53,53,53252.67426737016,4476.494325641256,19.974158625401195,53354.726017299574,-1360.9129121493943,7.64389620259217,53384.7993294358,30298.974162660714,6.521855386541293,53411.860988269866,-7055.307288171588,8.542338852712374,53672.32071521753,3996.998864700315,29.77995938252929,0.963380397038548,118.0,71.0,71.0,290.0,361.0,47.0,1007.0,1004.0,54.0,28.0,26.0,0.5185185185185185,132.5564917349942,4635.8491087211605,20.0,16.0,4.0,0.8,185.68240243294017,628.0859193745753,16.0,8.0,8.0,0.5,2023.1967563328064,28990.680536436063,19.0,10.0,9.0,0.5263157894736842,619.8916825379464,10589.302385806712,74.0,36.0,38.0,0.4864864864864865,137.88344138676015,4331.312293742729,,,,,53231.0,53278.0,53349.0,53359.0,53377.0,53393.0,53403.0,53420.0,53636.0,53710.0,0.029611674246008465,-0.13643959196454217,0.06677443089232096,-0.0878617553025949,0.034496742694746375
54,54,54151.03302809191,5155.028753563015,23.939592839752944,54219.632379482224,-1331.942268217436,20.383723206912453,54282.38189388606,34205.425095862476,6.98364167423515,54307.075951836545,-6899.0598030182555,7.110945875482365,54564.4500527753,6107.807147715263,37.64838659954104,0.9892904586882386,89.0,35.0,103.0,291.0,394.0,54.0,896.0,899.0,54.0,27.0,27.0,0.5,138.99416085744068,5734.618712334355,18.0,7.0,11.0,0.3888888888888889,168.10172940712744,1391.230333289575,17.0,8.0,9.0,0.4705882352941176,2151.5808166965494,33514.750305546986,16.0,7.0,9.0,0.4375,859.6741133846486,14014.409724250165,88.0,43.0,45.0,0.4886363636363636,145.58407998120836,6808.648733170461,,,,,54124.0,54178.0,54213.0,54231.0,54274.0,54291.0,54300.0,54316.0,54523.0,54607.0,0.026962829404466794,-0.1262079696833266,0.06290174177536553,-0.12460743027746354,0.02383573620782489
55,55,55120.77436955121,5235.88526822354,25.83488480349076,55221.39135428119,-697.8320051552735,1.2493228805680368,55252.984596698625,34822.897083675205,7.237848918105893,55275.67805114666,-6214.750552252568,5.928182545981457,55530.84972173237,7221.753117539815,42.91061119075181,0.9892027153397496,131.0,70.0,65.0,296.0,361.0,61.0,973.0,971.0,62.0,34.0,28.0,0.5483870967741935,157.04239212320965,5733.523028894103,5.0,2.0,3.0,0.4,237.9086924321123,1216.4005296734738,18.0,9.0,9.0,0.5,2177.3202465655813,33326.86964254053,14.0,6.0,8.0,0.4285714285714285,1024.728220476035,14920.85813240842,104.0,54.0,50.0,0.5192307692307693,139.27264667448247,7700.168671241139,,,,,55088.0,55149.0,55219.0,55224.0,55244.0,55262.0,55270.0,55284.0,55488.0,55580.0,0.029993474661543118,-0.3409254529378824,0.06252553431535993,-0.1648864603430651,0.019285157552149542
56,56,56128.67327906974,4398.340818658341,19.451968773658777,56232.15067819971,-1409.947201506232,5.095930801716422,56261.61891479861,30239.133102020445,6.507742223023682,56287.925651143465,-6984.12794555991,8.051379703960475,56549.21796355579,4511.34056535942,30.37637520049557,0.9700886618554362,108.0,65.0,79.0,288.0,367.0,43.0,1007.0,1007.0,52.0,28.0,24.0,0.5384615384615384,174.33407648433365,4889.650825488856,18.0,15.0,3.0,0.8333333333333334,221.09799781315525,711.3362605572315,16.0,8.0,8.0,0.5,2010.725374604201,28270.79206666885,17.0,9.0,8.0,0.5294117647058824,659.2597966052477,11187.099555318058,75.0,40.0,35.0,0.5333333333333333,131.23375669706854,4928.028985147685,,,,,56109.0,56152.0,56217.0,56235.0,56254.0,56270.0,56279.0,56296.0,56513.0,56584.0,0.039636327349800986,-0.15681296262509586,0.06649414742877842,-0.09439400333786348,0.029089747226080483
57,57,57089.860821176335,4508.069374581637,21.07118300431329,57190.726017299574,-1126.7877455209375,3.2976997860524784,57223.38221421397,35072.494362276375,7.13823285195552,57246.66523200802,-7124.130172663568,6.652692395988956,57505.0337185619,6101.076076387415,35.65937204273073,0.9905080676267592,121.0,65.0,73.0,291.0,364.0,56.0,959.0,964.0,56.0,29.0,27.0,0.5178571428571429,160.9890988168663,4864.9889257945815,19.0,15.0,4.0,0.7894736842105263,225.97143997500356,498.38907158821326,17.0,8.0,9.0,0.4705882352941176,2200.7687264471065,33760.14066922851,15.0,7.0,8.0,0.4666666666666667,986.6172840325274,15316.320338639773,91.0,45.0,46.0,0.4945054945054945,143.26294712741358,6005.0101955606615,,,,,57061.0,57117.0,57182.0,57195.0,57215.0,57232.0,57240.0,57255.0,57466.0,57546.0,0.03571131795898917,-0.20054481500465046,0.0627491362238048,-0.1384895082094845,0.023481586745307856
58,58,58187.51653213896,4665.727916543111,23.91292821219459,58282.98458436242,918.2844536087008,242.05671308207317,58324.81831575798,34122.310941594944,7.39749021253251,58346.273982700426,-6393.287132328556,7.111128076095656,58608.852880512735,6716.752244560735,40.38883721743518,0.9904726596229626,-186.0,-248.0,385.0,299.0,684.0,62.0,1100.0,1101.0,66.0,32.0,34.0,0.4848484848484848,146.3588057323498,5390.7092744583915,76.0,18.0,58.0,0.2368421052631578,173.65170193613588,1174.1088200925824,18.0,9.0,9.0,0.5,2173.0930972320775,33390.534196622655,14.0,4.0,10.0,0.2857142857142857,1101.3179986904747,15918.551395953673,96.0,50.0,46.0,0.5208333333333334,143.09881092484116,7520.574258606816,,,,,58157.0,58219.0,57971.0,58360.0,58316.0,58334.0,58342.0,58356.0,58559.0,58655.0,0.031368911421819176,0.1891044776525557,0.06368540222705393,-0.17226162002352519,0.021304762437936196
59,59,59204.41219597873,4392.037996663011,19.10990056931603,59308.726017299574,-1673.0619426376009,7.64389620259217,59338.381692067705,29759.361414901072,6.512434529395754,59365.42807980194,-6959.163156396097,9.295328187443875,59624.39992901358,4864.029857463526,31.422744339851043,0.9707899531102756,116.0,70.0,74.0,289.0,363.0,46.0,1018.0,1012.0,51.0,25.0,26.0,0.4901960784313725,152.84839949604185,4658.625110970259,13.0,9.0,4.0,0.6923076923076923,239.8201462425893,870.1913944644816,17.0,8.0,9.0,0.4705882352941176,1986.4389308247912,28888.7020448208,18.0,9.0,9.0,0.5,632.061833685355,11258.367014784311,85.0,46.0,39.0,0.5411764705882353,143.30841547205972,5298.481493593596,,,,,59184.0,59230.0,59300.0,59313.0,59330.0,59347.0,59356.0,59374.0,59584.0,59663.0,0.03480124707759205,-0.14334206052437612,0.06675005229884214,-0.09082440222779277,0.029462897982043143
60,60,60172.71971150837,4131.907839659242,23.576988889121218,60268.15130588264,-434.1059254679279,4.5915615610290645,60307.56396445276,35583.2684079352,7.2603785694818095,60330.576751154,-6384.358095438209,6.429092247932228,60587.042253677275,6838.2029910170795,38.54634468751575,0.9903565384065554,124.0,65.0,72.0,292.0,364.0,59.0,971.0,971.0,59.0,30.0,29.0,0.5084745762711864,138.40129048680754,4344.713081576765,6.0,1.0,5.0,0.1666666666666666,192.7003668349168,381.1154860931663,18.0,9.0,9.0,0.5,2231.235661682788,33073.95915050456,16.0,7.0,9.0,0.4375,995.0779467402374,14482.666830535154,90.0,44.0,46.0,0.4888888888888889,150.22264305583047,7293.620306184341,,,,,60143.0,60202.0,60267.0,60271.0,60299.0,60317.0,60325.0,60339.0,60545.0,60631.0,0.03349573510773693,-0.4439017196717663,0.06270462949337206,-0.15586186298842583,0.02196814620056886
61,61,61216.979349573056,5076.186139737002,24.39580311579375,61287.57535017639,-642.102955049812,0.4914555496537289,61352.14189333305,34892.793025821054,7.28691090390861,61374.69864360057,-6107.866453535087,6.076867527446424,61634.205403270375,6725.697790595668,45.973234111093056,0.9880301182541606,88.0,31.0,108.0,300.0,408.0,57.0,1039.0,1044.0,58.0,29.0,29.0,0.5,162.59171765274706,5566.318585007286,3.0,2.0,1.0,0.6666666666666666,138.1424185551088,4.923623523708329,17.0,8.0,9.0,0.4705882352941176,2175.4920469216136,33629.201225800236,15.0,6.0,9.0,0.4,1018.3841119136254,15181.68201527355,106.0,53.0,53.0,0.5,145.6020378232733,7127.544888394312,,,,,61188.0,61245.0,61276.0,61289.0,61344.0,61361.0,61369.0,61384.0,61588.0,61684.0,0.03203029069008312,-0.2151406055192383,0.06234789073238492,-0.16673319884461602,0.02164861436784508
62,62,62220.33703315431,4471.3426910341905,22.457199330695172,62325.15067819971,-1193.3646924321322,3.100040162418416,62354.284494449166,30540.42916459959,6.551283350135208,62380.819087340016,-6554.3521859439115,6.720101657298067,62639.63400818117,4827.215170061234,33.4813529251464,0.9839455058049904,125.0,70.0,71.0,292.0,363.0,55.0,1004.0,1001.0,59.0,32.0,27.0,0.5423728813559322,140.5003823205807,4410.14628454223,22.0,19.0,3.0,0.8636363636363636,222.0958263628978,273.05829700216054,17.0,8.0,9.0,0.4705882352941176,1983.61750727834,29862.8488552017,16.0,8.0,8.0,0.5,661.5129213948245,10479.119714187402,85.0,45.0,40.0,0.5294117647058824,149.94104553057366,4698.01073388213,,,,,62192.0,62247.0,62317.0,62328.0,62346.0,62363.0,62374.0,62388.0,62600.0,62680.0,0.03142241425652927,-0.18610893029712175,0.06495054462357117,-0.1009272774223923,0.031061603895455033
63,63,63140.434426918626,3900.883080108816,20.183733872206837,63244.15067819971,-1735.3124205152556,3.633619631824737,63274.96227534833,34699.89267499312,6.952050646483132,63299.102901769125,-7188.970881968992,7.034507432079684,63556.86496334309,5954.023349995338,34.06833522549222,0.988390589799963,117.0,64.0,79.0,291.0,370.0,53.0,922.0,922.0,58.0,29.0,29.0,0.5,190.77773268010108,4021.372649863124,18.0,15.0,3.0,0.8333333333333334,227.3973330786931,293.64178274191687,17.0,8.0,9.0,0.4705882352941176,2234.7111183495094,33390.477501268666,16.0,7.0,9.0,0.4375,914.5739791630516,15022.665945536077,85.0,43.0,42.0,0.5058823529411764,133.1966250244367,6101.910964759274,,,,,63112.0,63165.0,63229.0,63247.0,63267.0,63284.0,63292.0,63308.0,63516.0,63599.0,0.04890629346285849,-0.1310411487812514,0.06440109597111175,-0.12721904069147633,0.02237086037369017
64,64,64151.11218574706,4661.771027007413,25.85252788187316,64224.84932180029,-570.5352732481299,3.2438561752723225,64287.640442508615,34806.486772152486,7.201507633297894,64310.63907919425,-6554.171659935836,6.434869086557432,64572.53307772478,6804.154327769651,38.305197801178025,0.9913993839134068,101.0,41.0,98.0,297.0,395.0,60.0,1010.0,1013.0,64.0,32.0,32.0,0.5,143.56950201335152,4818.349720403556,6.0,3.0,3.0,0.5,140.50301282632293,216.13905215705825,18.0,9.0,9.0,0.5,2204.3596086079165,32682.413664422576,16.0,7.0,9.0,0.4375,998.6957121046502,14732.475718408848,92.0,48.0,44.0,0.5217391304347826,128.63993564504742,7537.073572338313,,,,,64121.0,64181.0,64222.0,64228.0,64279.0,64297.0,64304.0,64320.0,64526.0,64617.0,0.03079720157459446,-0.24626525197367974,0.06333186176007718,-0.15237558061065906,0.01890608728847198
65,65,65181.57065616939,4392.974438179333,20.643241106259335,65280.45203459914,-1155.3924005513056,15.287792405176289,65315.18919235576,31019.28053127862,6.739596824023309,65340.568405709426,-6982.4581698343045,7.129543666992079,65600.44041186718,5791.425039446469,34.42180075653173,0.9828032291016606,110.0,59.0,82.0,293.0,375.0,51.0,1027.0,1027.0,51.0,25.0,26.0,0.4901960784313725,160.20174710654223,4682.167549426793,24.0,15.0,9.0,0.625,197.99424513038463,255.38127211281395,17.0,8.0,9.0,0.4705882352941176,2009.3689841445891,30220.483251249003,16.0,8.0,8.0,0.5,716.9082286383968,11750.22507161623,85.0,43.0,42.0,0.5058823529411764,116.80484682400152,6086.639377551718,,,,,65157.0,65208.0,65267.0,65289.0,65307.0,65324.0,65333.0,65349.0,65557.0,65642.0,0.036467716660090056,-0.17136536906068445,0.06477806543960363,-0.10267275667122389,0.020168584765998362
66,66,66097.56798899636,4043.088181312584,20.565033545286493,66169.97262629349,-1647.7632121657116,17.83575780602654,66230.42559490705,32858.74312307458,6.822389937440868,66255.6021162566,-7079.828348036028,7.569097906788352,66511.37710789575,5506.263068406513,34.4241234066487,0.984657062796855,84.0,38.0,104.0,289.0,393.0,46.0,919.0,916.0,54.0,28.0,26.0,0.5185185185185185,150.53835349814045,4207.691822194143,31.0,24.0,7.0,0.7741935483870968,143.81050006669926,1668.8681874155338,17.0,8.0,9.0,0.4705882352941176,2107.457682530068,31991.67382388019,16.0,8.0,8.0,0.5,745.8152798436338,12701.9325081147,85.0,42.0,43.0,0.4941176470588235,134.9336285559153,5839.923933056127,,,,,66076.0,66122.0,66160.0,66177.0,66222.0,66239.0,66248.0,66264.0,66470.0,66553.0,0.03723350734568157,-0.08727619296566537,0.06413689271791215,-0.10534369523952171,0.024505481645097728
67,67,67077.45936960558,5374.53180121561,23.68031228229685,67178.15067819973,-974.476392104689,1.8978588681056785,67209.58942006221,34795.01440009644,7.170996051136972,67232.5866229729,-6746.701706341743,6.4472225856536225,67490.77299274567,6883.727477138849,41.68982587117988,0.9895601373723356,127.0,68.0,69.0,295.0,364.0,59.0,979.0,979.0,61.0,32.0,29.0,0.5245901639344263,141.6637195549075,5411.271207801211,8.0,5.0,3.0,0.625,212.66267474641305,888.7456645671919,18.0,9.0,9.0,0.5,2230.9570542530905,32692.598847000365,16.0,7.0,9.0,0.4375,974.468055587555,15218.811768090083,99.0,51.0,48.0,0.5151515151515151,141.50941364431597,7649.585474980491,,,,,67046.0,67105.0,67173.0,67181.0,67201.0,67219.0,67226.0,67242.0,67448.0,67537.0,0.026358336836497277,-0.21823276219868287,0.06411714703146974,-0.144436214613072,0.020557091214647112
68,68,68048.10325816955,4360.837920744588,20.48433982074915,68121.12330450071,-1683.7016685553954,12.739827004320285,68179.57602576957,30378.660799583344,6.556655526946719,68206.26342494896,-6912.80118378084,7.881264970281063,68468.49586233828,4656.85464538161,28.97786666366233,0.9674796847088548,82.0,36.0,106.0,289.0,395.0,46.0,970.0,968.0,53.0,28.0,25.0,0.5283018867924528,150.26628280677198,4639.305019499681,28.0,23.0,5.0,0.8214285714285714,147.73382753232823,1721.7682697416062,16.0,8.0,8.0,0.5,2020.938422437038,28323.097989797232,17.0,8.0,9.0,0.4705882352941176,681.3362701907158,11506.693529945896,71.0,35.0,36.0,0.4929577464788732,125.45534850406956,5026.776070818791,,,,,68027.0,68073.0,68109.0,68124.0,68172.0,68188.0,68198.0,68215.0,68434.0,68504.0,0.034458121475222106,-0.08774347040891327,0.06652493458384301,-0.09856153129201822,0.026939932219806062
69,69,68948.48196231246,5350.993493430599,21.29488867347967,69038.84932180027,-861.9640312963733,5.095930801718973,69079.96174427118,34588.918037265365,7.153205505875163,69104.22995963396,-6886.040951738416,7.410018889857073,69362.37294690646,6097.728445886813,34.92322133039618,0.9892647240206311,110.0,61.0,77.0,287.0,364.0,49.0,901.0,902.0,52.0,25.0,27.0,0.4807692307692308,148.3212519472237,5876.41996976723,19.0,5.0,14.0,0.2631578947368421,170.14199858283305,265.51855424240017,17.0,8.0,9.0,0.4705882352941176,2177.869615156369,33157.03781034359,16.0,7.0,9.0,0.4375,911.9626723223636,15096.424161337254,85.0,43.0,42.0,0.5058823529411764,120.49564705881906,6394.6772761896445,,,,,68926.0,68975.0,69036.0,69042.0,69072.0,69089.0,69097.0,69113.0,69321.0,69400.0,0.027718451186553916,-0.19738874524374708,0.06296437526059585,-0.13243642881504125,0.019760743386350487
70,70,69928.14894098366,5401.191554297458,24.98281510398938,70030.63060627907,-941.274545633877,1.495522341889361,70061.97832655313,34734.12179268808,7.21244803650121,70084.82800975842,-6372.925372764274,6.033594166968726,70341.71701316503,7041.140027191174,39.56302175936452,0.9909417512987534,132.0,72.0,64.0,294.0,358.0,60.0,977.0,983.0,60.0,31.0,29.0,0.5166666666666667,145.81661252736464,5747.656874239447,4.0,2.0,2.0,0.5,236.9754040591864,993.6890864851551,18.0,9.0,9.0,0.5,2162.624971882815,32721.48826255412,15.0,6.0,9.0,0.4,1008.1182473358386,15139.853541426395,99.0,52.0,47.0,0.5252525252525253,120.4168738614578,7139.793039603839,,,,,69897.0,69957.0,70029.0,70033.0,70053.0,70071.0,70079.0,70093.0,70297.0,70387.0,0.02699711925812845,-0.2517601322147742,0.062262261438205464,-0.1581876749481792,0.017101900174749694
71,71,71040.13015913671,4476.338016826494,18.974376734347288,71138.30135639943,-1341.396811740063,6.616327453307338,71171.19762295437,31188.75939858568,6.638413042633416,71196.76767170223,-6873.918212465706,7.563646233310614,71457.76754727443,5030.254386415219,29.943145190691197,0.9762942105120924,109.0,59.0,80.0,289.0,369.0,50.0,1112.0,1107.0,50.0,24.0,26.0,0.48,139.39674864418367,4605.856143039455,23.0,16.0,7.0,0.6956521739130435,219.4547971555813,141.58508306198215,17.0,8.0,9.0,0.4705882352941176,2027.9758967486885,30278.811516153088,17.0,9.0,8.0,0.5294117647058824,714.3444490391528,11548.566811324054,74.0,38.0,36.0,0.5135135135135135,136.85308641732198,5244.064682595361,,,,,71016.0,71066.0,71125.0,71144.0,71163.0,71180.0,71188.0,71205.0,71421.0,71494.0,0.031140800386430422,-0.1636016987925475,0.06502265354102707,-0.10392099919718337,0.02720599713344706
72,72,72017.54725196245,4588.547766503745,19.952724792269706,72108.84932180027,-1124.9227705026826,5.095930801728113,72151.44760355761,34330.964580670945,6.971714493616447,72175.51443570982,-7043.670408662638,7.108312723120884,72432.81513016278,6475.569313900091,35.81070431631757,0.989130175891576,115.0,61.0,78.0,292.0,370.0,54.0,977.0,982.0,54.0,27.0,27.0,0.5,142.13248889612967,4607.231481276562,13.0,5.0,8.0,0.3846153846153846,188.70932855260847,436.82017168366144,17.0,8.0,9.0,0.4705882352941176,2167.3024533189414,33442.28103690017,16.0,8.0,8.0,0.5,857.9304656267558,13583.478628822806,94.0,48.0,46.0,0.5106382978723404,147.19762140479688,6268.9676847758365,,,,,71991.0,72045.0,72106.0,72116.0,72143.0,72160.0,72168.0,72184.0,72393.0,72476.0,0.03097548421173522,-0.16775314137190225,0.06312966966675845,-0.12180161987301855,0.02273122474171202
73,73,73097.36082433982,5299.907227930073,23.86903663761231,73199.46887445911,-837.6272090585869,1.3601995422755973,73231.0721054606,35229.12414547992,7.249345208536364,73253.69864360057,-6739.568849268899,6.483440393336089,73514.32755059484,6820.294370073972,39.681743978648576,0.9909059220228318,130.0,71.0,65.0,295.0,360.0,59.0,1086.0,1079.0,63.0,33.0,30.0,0.5238095238095238,150.24605170087105,5041.231844095258,5.0,2.0,3.0,0.4,253.97770405348055,1205.325299932996,17.0,8.0,9.0,0.4705882352941176,2220.4539733302677,33487.959818040035,15.0,6.0,9.0,0.4,1046.6892422921828,15769.03517622124,86.0,42.0,44.0,0.4883720930232558,148.8247662214134,7664.672255797469,,,,,73067.0,73126.0,73197.0,73202.0,73223.0,73240.0,73248.0,73262.0,73473.0,73557.0,0.028348807863859727,-0.3032109049309982,0.0630289292507195,-0.15530507450869452,0.021820871379749446
74,74,74166.45319462125,4115.081159731035,18.64412547601192,74268.72601729959,-1949.3175923574872,7.64389620259217,74299.26948861715,30504.330607918677,6.63283392246023,74325.66637523497,-7213.801720072274,9.352063873210051,74586.85303227582,4769.257310706026,29.834302660857293,0.965185184215931,109.0,58.0,85.0,290.0,375.0,51.0,1067.0,1066.0,54.0,27.0,27.0,0.5,168.8793218399655,4539.006388883488,25.0,20.0,5.0,0.8,233.6212307842408,752.6237968081208,17.0,8.0,9.0,0.4705882352941176,2015.2436620416368,29285.31885802291,18.0,10.0,8.0,0.5555555555555556,636.9702074075205,11289.844281851092,82.0,42.0,40.0,0.5121951219512195,127.10090075996187,4710.835846359231,,,,,74140.0,74191.0,74249.0,74273.0,74291.0,74308.0,74316.0,74334.0,74550.0,74624.0,0.04103912299289952,-0.11984770039534777,0.0660641824252487,-0.08829882385527209,0.02665004055760335
75,75,75123.49146841333,4735.076685207052,23.854365272335578,75218.27398052475,-764.5199995214493,5.602321334766872,75258.0967238718,35038.312990193175,7.116594909469287,75282.13588570106,-6536.973928429144,6.881042832091974,75540.90515168275,6551.9416155588415,37.009739651963855,0.9910305567903296,117.0,62.0,79.0,292.0,371.0,55.0,959.0,962.0,62.0,33.0,29.0,0.532258064516129,167.5308422865346,4680.656683402821,9.0,7.0,2.0,0.7777777777777778,188.18291005986717,172.2298465800834,17.0,8.0,9.0,0.4705882352941176,2186.202157222532,33530.97458315466,16.0,7.0,9.0,0.4375,914.8746074999608,14557.009133786927,89.0,44.0,45.0,0.4943820224719101,156.1624214375417,6683.824639833463,,,,,75095.0,75150.0,75212.0,75220.0,75250.0,75267.0,75275.0,75291.0,75500.0,75583.0,0.03538080868044251,-0.24614517629056154,0.06239461808091118,-0.13995384064807004,0.023834525794110266
76,76,76131.53983043977,4387.58211522204,20.818125655265117,76201.04408994262,-1241.943025587991,7.64389620259217,76266.21492901102,34043.196821138976,7.074995112827613,76289.9194721361,-6996.933768176821,7.031822094145023,76548.6461130945,6752.5184024062355,38.19717305998781,0.9857507439341116,94.0,40.0,99.0,295.0,394.0,54.0,1004.0,1008.0,54.0,27.0,27.0,0.5,161.30201349806546,4802.4723719724025,12.0,3.0,9.0,0.25,179.5583552373694,993.7520564689264,17.0,8.0,9.0,0.4705882352941176,2154.4679170969557,32701.088544029382,16.0,7.0,9.0,0.4375,930.3581018934564,14801.585743729687,90.0,45.0,45.0,0.5,141.11280813556294,7176.78652290782,,,,,76105.0,76159.0,76199.0,76210.0,76258.0,76275.0,76283.0,76298.0,76505.0,76593.0,0.03676330362876925,-0.1445785769056181,0.06328629853466489,-0.13296654402030708,0.02089780430443224
77,77,77095.49734264654,3457.8902367676533,18.98934291438626,77149.972626301,-2194.2938222796693,17.8357578060484,77225.60809082845,33158.32578369329,7.142860198979811,77248.17805189872,-5883.35600025349,22.93168860777625,77511.92499853525,4771.763896158352,27.45552918948044,0.9583581691249088,65.0,25.0,121.0,285.0,406.0,40.0,965.0,958.0,50.0,27.0,23.0,0.54,169.60545163191446,3396.006762448445,61.0,11.0,50.0,0.180327868852459,159.46126607025224,2403.4102156500353,16.0,9.0,7.0,0.5625,2012.56475318002,27257.634747631593,20.0,6.0,14.0,0.3,890.5632371555886,16145.075014383028,73.0,38.0,35.0,0.5205479452054794,122.50098156052704,4638.524038744537,,,,,77075.0,77115.0,77140.0,77200.0,77217.0,77233.0,77243.0,77261.0,77481.0,77546.0,0.049048824577629525,-0.07267088137931622,0.0606956082858009,-0.15136993870797855,0.025672054239554903
78,78,78008.01571016182,4631.266482184995,23.061098615708193,78113.15067819973,-1267.6059169608156,2.3787609481775194,78143.857463654,34065.993660757245,7.030318037595696,78167.72203397135,-6576.350342026913,6.460763282300198,78428.11208030711,6222.928890353499,35.45895895917748,0.9911475715298048,128.0,70.0,68.0,294.0,362.0,58.0,919.0,919.0,58.0,28.0,30.0,0.4827586206896552,145.48192429303998,4754.5512048642795,12.0,9.0,3.0,0.75,217.17529948455345,624.2185417342579,18.0,9.0,9.0,0.5,2159.3846844889063,32265.714389251963,15.0,7.0,8.0,0.4666666666666667,913.5665497715588,13440.29662784417,84.0,42.0,42.0,0.5,121.61733084261898,6777.298931207916,,,,,77980.0,78038.0,78108.0,78116.0,78135.0,78153.0,78161.0,78176.0,78386.0,78470.0,0.03141298926603825,-0.1713271424333899,0.06338827823409235,-0.13891695275619795,0.01954342287779387
79,79,78962.8780425104,4911.447156399825,27.04599816973188,79065.42466090013,-346.44638879137483,0.9053406774740912,79098.03643784091,34487.00589566526,7.26408006780064,79120.69864360057,-5911.565164541147,6.439530144877734,79378.31945147007,6810.490559221648,45.566945370732704,0.9869258222795216,131.0,72.0,67.0,298.0,365.0,59.0,950.0,953.0,59.0,30.0,29.0,0.5084745762711864,153.29963167067766,5236.898360721103,4.0,1.0,3.0,0.25,216.78740755612887,1177.899319748003,17.0,8.0,9.0,0.4705882352941176,2131.5279231639806,32903.83422953686,16.0,6.0,10.0,0.375,1009.2356441832902,14694.619771156746,106.0,54.0,52.0,0.5094339622641509,147.82874686828077,6859.559650759675,,,,,78933.0,78992.0,79064.0,79068.0,79090.0,79107.0,79115.0,79131.0,79333.0,79429.0,0.031212721381094714,-0.6257459005776366,0.06180669698067053,-0.1707222395579609,0.0217060350620581
80,80,79943.01378375864,4688.956173382305,21.930852820590285,80047.15067819973,-1259.154303057726,2.78665905948113,80077.82356165363,33038.301153069515,6.869772829859094,80102.19579156644,-6736.946170763338,7.066230025662868,80361.87618270388,5864.867281672539,36.42675879103399,0.9897560144227286,118.0,62.0,78.0,295.0,373.0,56.0,981.0,981.0,60.0,31.0,29.0,0.5166666666666667,173.61766774408613,4408.685575904222,17.0,14.0,3.0,0.8235294117647058,205.20007220236567,256.577610591443,17.0,8.0,9.0,0.4705882352941176,2126.156826304521,31448.568063452964,16.0,7.0,9.0,0.4375,849.1122552973436,14199.552662949942,90.0,44.0,46.0,0.4888888888888889,162.3206146813143,5980.192340970207,,,,,79915.0,79971.0,80033.0,80050.0,80070.0,80087.0,80095.0,80111.0,80323.0,80406.0,0.03702693335665148,-0.16296658138248704,0.06435430249436372,-0.12603815345627645,0.027676775429950364
81,81,80891.47155182132,3168.9852380797274,15.044166776225588,80994.30135639943,-2600.011992205695,10.191861603456228,81025.52739963631,29607.850581959065,6.621317230375236,81052.33369400044,-6958.604788969996,10.512467164212197,81312.33895303078,4562.476723590371,30.481463348769836,0.9592105046928514,68.0,29.0,122.0,292.0,414.0,39.0,945.0,946.0,39.0,20.0,19.0,0.5128205128205128,157.19788954478776,3227.459051492345,62.0,56.0,6.0,0.9032258064516128,207.67168845421816,1536.9913772356783,16.0,8.0,8.0,0.5,2023.7488135576637,27410.300562800352,18.0,9.0,9.0,0.5,636.0243049846245,11722.714467672156,80.0,39.0,41.0,0.4875,121.44146378124574,4876.2054834158125,,,,,80871.0,80910.0,80939.0,81000.0,81018.0,81033.0,81043.0,81061.0,81276.0,81353.0,0.04960511890552166,-0.07987335792172323,0.06835176393354246,-0.09140112483364184,0.026617442923780935
82,82,81844.55816200042,4547.305962763995,23.11670452102047,81947.30135639943,-1122.9880416341618,3.695936001537123,81980.82099796843,34380.77381003687,7.160820298275068,82003.69864360057,-6671.429231010338,7.449230143745564,82263.94365787333,6073.980282641292,37.726841294801346,0.9883243259933476,128.0,68.0,70.0,295.0,365.0,60.0,959.0,957.0,60.0,30.0,30.0,0.5,156.8775861047626,4584.132228985702,21.0,15.0,6.0,0.7142857142857143,224.68706295511717,625.0941795771844,18.0,9.0,9.0,0.5,2198.83341962514,32214.729555327976,16.0,6.0,10.0,0.375,961.6795994725588,15305.205646669636,88.0,43.0,45.0,0.4886363636363636,113.87070053009737,6519.05192454063,,,,,81815.0,81875.0,81943.0,81953.0,81972.0,81990.0,81998.0,82013.0,82221.0,82308.0,0.034499017086021516,-0.20007965768553923,0.0639553208364155,-0.14414896211481204,0.018747295057168063
83,83,82853.93548072441,4795.228786354282,23.23732278598451,82958.15067819973,-873.1406943405866,1.762747714117619,82988.1398655062,32348.727371376637,6.889127906354572,83012.72039660749,-6386.262751553425,6.719069734424327,83273.68141987032,5963.315292024591,36.286366645263854,0.9886919949728888,128.0,73.0,68.0,297.0,365.0,55.0,1007.0,1008.0,60.0,31.0,29.0,0.5166666666666667,140.85144515619953,5014.074119120589,9.0,6.0,3.0,0.6666666666666666,229.06081663314657,860.9443413473012,17.0,8.0,9.0,0.4705882352941176,2037.5029839913796,31167.01263743121,16.0,8.0,8.0,0.5,763.1541765251444,12567.414593932244,91.0,46.0,45.0,0.5054945054945055,122.99874676210231,6389.757463066067,,,,,82825.0,82880.0,82953.0,82961.0,82980.0,82997.0,83005.0,83021.0,83228.0,83318.0,0.029373248166389594,-0.2623412447934727,0.06298556850784301,-0.1194993388487674,0.0206259003153166
84,84,83779.83495832774,2877.485325051213,14.349921071489282,83882.30135639943,-2988.2049248680305,10.191861603456228,83913.38115065558,30010.909486582033,6.474621636299631,83940.8113176169,-7394.768306625288,9.758568665108438,84202.69760058014,4035.5297422833823,26.2503046819662,0.9511568450875052,101.0,63.0,87.0,286.0,373.0,38.0,923.0,923.0,38.0,19.0,19.0,0.5,136.43510245885662,3152.6762413338256,64.0,57.0,7.0,0.890625,226.60354869342387,1614.5600300265382,15.0,7.0,8.0,0.4666666666666667,2051.670588427229,29495.917344361493,19.0,10.0,9.0,0.5263157894736842,590.1547276198568,10497.391057851071,76.0,41.0,35.0,0.5394736842105263,127.48051105464232,3831.8557190388,,,,,83761.0,83799.0,83862.0,83888.0,83906.0,83921.0,83931.0,83949.0,84173.0,84235.0,0.04741469965843471,-0.075832666898985,0.06836415901839087,-0.07980706130996856,0.031589535747668984
85,85,84684.5987749724,4574.551059723833,23.92395946371931,84755.64034961189,-997.1975936432426,17.835757806048203,84818.32420535729,34860.82468481401,7.12749127591538,84841.75443295961,-6968.493821053078,6.561538995161111,85100.05200381998,6499.7355962825595,35.93479106433273,0.9911114414940008,97.0,36.0,100.0,292.0,392.0,61.0,906.0,907.0,62.0,33.0,29.0,0.532258064516129,141.44507130806144,4578.657036097884,17.0,8.0,9.0,0.4705882352941176,130.00925993183955,1177.3434513949255,17.0,8.0,9.0,0.4705882352941176,2198.4454382918284,33692.49497116652,15.0,7.0,8.0,0.4666666666666667,981.8253776406348,15284.921456069447,87.0,43.0,44.0,0.4942528735632184,132.22859220876632,7118.302919119722,,,,,84653.0,84714.0,84750.0,84764.0,84810.0,84827.0,84835.0,84850.0,85058.0,85142.0,0.030919989625517598,-0.130374622602982,0.06306349485901605,-0.14089491974210597,0.020343687870071632
86,86,85663.72580848928,4561.134941850966,22.681198734410223,85734.30135639943,-694.446093763614,10.191861603456228,85798.58120775642,34138.02849296983,7.122515846331861,85822.02579806761,-6482.24285925579,6.446725509548698,86081.5149481518,6216.862646260961,36.23895368020407,0.9908896193917852,96.0,36.0,102.0,292.0,394.0,60.0,979.0,980.0,61.0,32.0,29.0,0.5245901639344263,157.07658112645166,4686.755012529573,16.0,7.0,9.0,0.4375,120.54241462821876,279.2357882998874,18.0,9.0,9.0,0.5,2168.9779485561317,32400.895525415108,16.0,7.0,9.0,0.4375,963.543316553853,14908.467553621296,91.0,46.0,45.0,0.5054945054945055,117.41932636241428,6511.617545686238,,,,,85633.0,85693.0,85729.0,85740.0,85790.0,85808.0,85815.0,85831.0,86039.0,86123.0,0.034438047356412566,-0.1735806648071532,0.06353553630089673,-0.14864350772943347,0.018887231879416603
87,87,86618.32561142274,5064.104148672471,23.161165141633138,86689.62033705668,-621.8029598264122,2.873792724628138,86751.3739411629,30937.155908473305,6.752497435003167,86777.54396654166,-6019.859263522464,6.452219955109614,87030.57146472349,5462.728196996203,38.52921986646216,0.9869124936653124,92.0,41.0,98.0,294.0,392.0,51.0,955.0,951.0,59.0,31.0,28.0,0.5254237288135594,179.70673089611762,5666.887607655066,7.0,4.0,3.0,0.5714285714285714,171.4523592038541,261.2920232543156,17.0,8.0,9.0,0.4705882352941176,1963.1801182933543,30646.32622937009,15.0,8.0,7.0,0.5333333333333333,642.7765336979988,9858.95998166886,100.0,51.0,49.0,0.51,146.59824079549665,5444.576434356031,,,,,86595.0,86646.0,86687.0,86693.0,86743.0,86760.0,86770.0,86785.0,86989.0,87079.0,0.03548638132634512,-0.27573422817369375,0.06345703283460725,-0.10677600680682428,0.02683608547027963
88,88,87472.34627568338,5335.835976518628,24.127811851667996,87547.15067819973,-740.1134525696401,3.7139274846221553,87607.35380264516,33765.17564326779,7.094977990525893,87632.14629475732,-6240.924514515343,6.329486941477871,87886.7386524593,6137.197267368108,39.06244799690648,0.9899071705329338,98.0,39.0,101.0,287.0,388.0,59.0,857.0,856.0,61.0,32.0,29.0,0.5245901639344263,147.49804034911924,5644.233020417571,10.0,7.0,3.0,0.7,158.55148674572308,1012.8512523882029,17.0,8.0,9.0,0.4705882352941176,2090.93627983453,33018.65113849641,16.0,7.0,9.0,0.4375,835.8951008219652,12961.476758632292,91.0,45.0,46.0,0.4945054945054945,112.64108043655018,6530.82886762811,,,,,87442.0,87501.0,87540.0,87550.0,87599.0,87616.0,87626.0,87641.0,87848.0,87928.0,0.027642911251060324,-0.21422592197890683,0.06192582268564114,-0.13393770408179326,0.018353830833411598
89,89,88423.09459988397,4441.780414837562,21.80264843860877,88526.15067819973,-1442.1936668079677,2.9731760000003007,88557.57284881332,34156.16644927803,7.077248998031797,88581.1233044995,-7110.257689927429,7.273914203869488,88840.85692432158,5984.756068513001,34.05438002115834,0.9883255448744642,124.0,65.0,73.0,290.0,363.0,59.0,945.0,952.0,59.0,30.0,29.0,0.5084745762711864,156.19643951943982,4947.283675108596,20.0,17.0,3.0,0.85,241.17566354909584,277.63531322213487,17.0,9.0,8.0,0.5294117647058824,2200.3626705163415,31490.221930736483,16.0,7.0,9.0,0.4375,979.9452154347422,15542.084017465637,84.0,41.0,43.0,0.4880952380952381,143.0111695065116,6058.44315204534,,,,,88393.0,88452.0,88517.0,88529.0,88549.0,88566.0,88574.0,88590.0,88801.0,88880.0,0.03516527719327881,-0.16722834741251785,0.06442065662678755,-0.13782133618349127,0.02389590617718272
90,90,89447.32939689654,4540.195688759887,22.391327111868527,89532.04093769804,1952.7638788386255,119.75437384061068,89583.21953825865,32428.683437576223,6.830891603433388,89607.39147310528,-6536.789574083262,6.494682676131927,89864.57108520519,6759.9111619403475,47.0828679568367,0.9846573162653453,-171.0,-233.0,369.0,296.0,665.0,62.0,1027.0,1026.0,65.0,33.0,32.0,0.5076923076923077,168.38521583282878,6898.288527047967,226.0,206.0,20.0,0.911504424778761,153.17527284181224,1583.1534796559467,17.0,8.0,9.0,0.4705882352941176,2056.9221686486553,32960.6157286587,14.0,6.0,8.0,0.4285714285714285,889.4144511894062,12309.264652226457,108.0,57.0,51.0,0.5277777777777778,156.64057791989168,7352.054673034594,,,,,89417.0,89479.0,89246.0,89599.0,89575.0,89592.0,89601.0,89615.0,89812.0,89911.0,0.03708765599018082,0.0784402428279812,0.06342909889043566,-0.1360628854745015,0.023171987644129036
91,91,90359.15104482578,2931.5971151157937,13.618803446791125,90462.30135639945,-2592.3699711884624,10.191861603456228,90494.1840629362,32055.07452141974,6.954683173829861,90519.37084792074,-6239.852993686415,20.383723206912453,90779.81723407492,4343.437364002036,26.192421226278547,0.9434486273118996,67.0,32.0,123.0,279.0,402.0,35.0,910.0,908.0,35.0,18.0,17.0,0.5142857142857142,137.502372267692,2846.743051645668,66.0,59.0,7.0,0.8939393939393939,193.73323334606764,1194.6946630332352,16.0,8.0,8.0,0.5,2031.3247697747584,28196.06302603348,20.0,8.0,12.0,0.4,719.4106316017916,13684.567331070964,63.0,30.0,33.0,0.4761904761904761,122.44602329196064,4496.799646332058,,,,,90341.0,90376.0,90408.0,90468.0,90486.0,90502.0,90511.0,90531.0,90750.0,90810.0,0.0469035706027637,-0.07473209283366732,0.06336983457696824,-0.11529288147167938,0.0281910415715398
92,92,91283.43052537688,4475.973647419668,21.238571205748695,91384.30135639945,-1398.7876454046504,4.6228840316197175,91417.80089427935,34426.256838,7.095535713992391,91441.13886050918,-6802.202070418568,6.583688039451672,91700.43360638396,6503.802517829422,36.11929990995512,0.9890860313907982,116.0,59.0,79.0,292.0,371.0,57.0,927.0,927.0,60.0,31.0,29.0,0.5166666666666667,166.46128394141087,4607.489293274726,22.0,16.0,6.0,0.7272727272727273,217.40784342674596,813.5429575911714,18.0,9.0,9.0,0.5,2189.785427702612,32644.608878165353,15.0,6.0,9.0,0.4,980.5903858162296,15633.66736001851,86.0,43.0,43.0,0.5,133.0043123680982,6747.956267192381,,,,,91255.0,91312.0,91371.0,91390.0,91409.0,91427.0,91435.0,91450.0,91657.0,91742.0,0.037189960677577565,-0.15542591053115343,0.06360800240372076,-0.14415778532669932,0.020450238457192123
93,93,92241.4736720192,5212.260614492986,26.47757757920038,92342.9293473208,-92.47676013241538,-0.1601257488578322,92374.44859590582,33865.605673750135,7.207091967535354,92397.69203432198,-5738.289581547769,6.159889070333993,92655.79996219756,6505.129686589682,38.74777405822141,0.989549830595485,105.0,44.0,93.0,295.0,388.0,61.0,957.0,956.0,63.0,33.0,30.0,0.5238095238095238,146.83794851003273,5447.7862257522975,3.0,2.0,1.0,0.6666666666666666,210.2879806600176,1672.980347199028,18.0,8.0,10.0,0.4444444444444444,2080.0186008113387,33076.17667895289,15.0,6.0,9.0,0.4,939.4825715049188,13182.288708237227,94.0,48.0,46.0,0.5106382978723404,145.81432487761867,6600.849594476377,,,,,92208.0,92269.0,92313.0,92344.0,92366.0,92383.0,92392.0,92406.0,92616.0,92701.0,0.028171643624599563,-2.2739548872485478,0.06141979626319219,-0.16372170803752215,0.02241528330760488
94,94,94034.60407979033,4827.827273072973,22.9370760125178,94107.69617127512,-802.9471545930593,10.191861603456228,94168.60594154688,34231.267650028625,7.205420045231454,94192.037335803,-6413.736467825302,6.529418775020915,94447.48839334668,6913.370190766797,38.104940629012766,0.99015281851366,96.0,39.0,99.0,290.0,389.0,57.0,1792.0,1794.0,61.0,33.0,28.0,0.5409836065573771,163.34219008808486,5165.824516082093,16.0,9.0,7.0,0.5625,128.73842414668272,723.0029593564967,18.0,9.0,9.0,0.5,2159.5148775722796,32348.813138794645,15.0,6.0,9.0,0.4,972.7935909627124,14972.244627944665,88.0,42.0,46.0,0.4772727272727273,132.86669125038628,7388.102959767328,,,,,94006.0,94063.0,94102.0,94113.0,94160.0,94178.0,94186.0,94201.0,94406.0,94491.0,0.03383347846745053,-0.160332374814789,0.06308603291150609,-0.15167345834097803,0.019218801768757787
95,95,94980.13734539963,4705.983774579185,21.583591289846563,95050.77953952888,-827.0634186278592,7.64389620259217,95115.4683957373,33657.022318988675,7.093475702061021,95138.9495517933,-6974.653644219636,6.756384776290792,95397.65916277884,6275.465374361998,36.54365573015417,0.9900389007753836,96.0,45.0,99.0,290.0,389.0,51.0,947.0,946.0,57.0,29.0,28.0,0.5087719298245614,173.9772023430454,5119.344004648236,12.0,3.0,9.0,0.25,145.02428623599397,689.7273345314611,17.0,8.0,9.0,0.4705882352941176,2110.187274186758,32660.231777024022,16.0,7.0,9.0,0.4375,949.7778342803772,15069.71229265006,91.0,46.0,45.0,0.5054945054945055,151.81794619968755,6468.02366810622,,,,,94953.0,95004.0,95049.0,95060.0,95107.0,95124.0,95132.0,95148.0,95358.0,95438.0,0.03696935873065195,-0.17534844725280768,0.06269679041084478,-0.1361756271678841,0.024192300832370107
96,96,95982.27597482904,5520.433305652854,26.645214562987785,96083.42466090011,-529.6925104015629,0.6335201965803852,96114.9828659106,33502.102930996516,7.090228910527353,96138.85095392958,-6067.4842848987055,6.267059608820526,96399.18958574632,6377.433444357729,40.15130393971351,0.9896348626039032,131.0,71.0,65.0,295.0,360.0,60.0,1002.0,998.0,60.0,31.0,29.0,0.5166666666666667,165.46746191097776,6169.976430819664,3.0,1.0,2.0,0.3333333333333333,199.46351781194596,844.3989310348563,17.0,8.0,9.0,0.4705882352941176,2088.8460860130863,32045.91410648577,14.0,6.0,8.0,0.4285714285714285,892.4887456666137,13280.48911570478,89.0,45.0,44.0,0.5056179775280899,131.44298207336584,6830.589043387423,,,,,95951.0,96011.0,96082.0,96085.0,96107.0,96124.0,96133.0,96147.0,96357.0,96442.0,0.029973636624056516,-0.3765647312262949,0.06234970056403423,-0.14709370535790575,0.020610639565302975
97,97,96918.44783138877,3694.503825589141,18.12500844654823,96994.24660900142,-2004.605927498797,25.47965400864057,97048.75990399468,29658.255825765555,6.419451168672992,97076.0060948084,-7201.872530972769,8.324434424573601,97334.24580423391,4915.5175096320745,29.376313151056088,0.97277299946714,81.0,37.0,106.0,286.0,392.0,44.0,933.0,934.0,44.0,21.0,23.0,0.4772727272727273,155.35608583106531,4190.631236042433,60.0,30.0,30.0,0.5,161.19421134048807,1871.372787442036,16.0,8.0,8.0,0.5,1989.6145912667785,28066.535152252392,18.0,9.0,9.0,0.5,611.8785203423554,10830.215266323808,77.0,38.0,39.0,0.4935064935064935,135.2139724122208,4940.05721327601,,,,,96897.0,96941.0,96978.0,97000.0,97041.0,97056.0,97067.0,97084.0,97302.0,97370.0,0.04205059546968843,-0.08041191993361738,0.06708467965733522,-0.08496103169153259,0.027507576190556902
98,98,97850.78264002304,5177.094303361444,26.766241011139787,97921.42466089908,-478.1277589509704,2.1687419661529828,97985.25020634542,35074.39936870455,7.214559512076842,98008.51947276176,-6184.961849624746,6.119888035969989,98266.50790404913,6536.915114927413,40.12549688764554,0.9917661444291328,103.0,38.0,98.0,295.0,393.0,65.0,933.0,938.0,65.0,35.0,30.0,0.5384615384615384,167.5826854482588,5782.572191619253,3.0,2.0,1.0,0.6666666666666666,138.77287060349343,263.24450825858344,17.0,8.0,9.0,0.4705882352941176,2172.5007806407066,34134.287918695176,14.0,6.0,8.0,0.4285714285714285,958.5864443000028,14217.107797368008,95.0,47.0,48.0,0.4947368421052631,152.16911792247203,6878.7793445290445,,,,,97816.0,97881.0,97919.0,97922.0,97977.0,97994.0,98003.0,98017.0,98221.0,98312.0,0.03237002759239845,-0.2902422375725813,0.06193978570532957,-0.15498663817274186,0.023278429541632763
99,99,98850.93607709058,4388.840428410714,20.473606172752813,98952.7260172996,-1157.4269775255857,3.168607505284623,98984.76125952424,33038.93177037444,7.009771882871534,99008.89416114154,-6735.761735161773,6.766176218539783,99267.6790824204,5986.315300018624,35.37343301390234,0.988032611492126,122.0,73.0,67.0,296.0,363.0,49.0,999.0,999.0,50.0,23.0,27.0,0.46,192.2524517361724,4722.006108931978,7.0,3.0,4.0,0.4285714285714285,246.60960099051937,285.23776113464834,18.0,9.0,9.0,0.5,2102.1150898972815,30976.684940526186,16.0,7.0,9.0,0.4375,854.9985437088066,13394.286997292997,88.0,43.0,45.0,0.4886363636363636,137.69383877803037,6272.912571292054,,,,,98828.0,98877.0,98950.0,98957.0,98976.0,98994.0,99002.0,99017.0,99227.0,99313.0,0.04380483976852875,-0.21306709259337953,0.06362539517037956,-0.12693420244448003,0.023001434417863353
100,100,99828.7851164975,4685.4438768270575,20.722583689162736,99930.7260172996,-1011.7985621658472,7.643896202592063,99960.85544605962,30500.133971141095,6.5943015456257275,99987.50826999558,-6507.483450299796,7.350102529873326,100244.6021503734,4846.930966457366,35.93521625604876,0.9834568536498212,113.0,60.0,81.0,290.0,371.0,53.0,979.0,976.0,53.0,27.0,26.0,0.5094339622641509,159.5524329973937,4877.702787513464,21.0,17.0,4.0,0.8095238095238095,255.2265154248028,108.63911996245032,16.0,8.0,8.0,0.5,1996.479222491831,29344.80291823121,17.0,9.0,8.0,0.5294117647058824,628.8657455978174,9522.100122651133,92.0,47.0,45.0,0.5108695652173914,163.07161112927187,5132.451919932286,,,,,99802.0,99855.0,99915.0,99935.0,99953.0,99969.0,99980.0,99996.0,100201.0,100286.0,0.03405278927499208,-0.25225032429228517,0.06545804763942606,-0.0966373176974958,0.0336443023962566
101,101,100772.5058053154,4435.8545697774825,21.27602773981821,100876.15067819972,-1003.9430923556084,2.2822699932581165,100907.07543520509,34311.49269275509,7.103752046665526,100930.81664826525,-6779.837871068342,6.604888988378131,101188.94243473528,6333.420879241658,36.390963708620305,0.9896127219269278,115.0,60.0,78.0,292.0,370.0,55.0,947.0,947.0,58.0,29.0,29.0,0.5,150.35107380311666,4789.730931159425,18.0,15.0,3.0,0.8333333333333334,235.85647841388555,914.1499513837211,17.0,8.0,9.0,0.4705882352941176,2162.2721457944303,33075.99403915864,15.0,7.0,8.0,0.4666666666666667,920.5789050148768,14526.194306059344,91.0,44.0,47.0,0.4835164835164835,128.49924342282446,6466.097448803843,,,,,100746.0,100801.0,100861.0,100879.0,100899.0,100916.0,100924.0,100939.0,101146.0,101231.0,0.033894500245227555,-0.23493012722512205,0.06301888889407008,-0.13578184648681213,0.02028907376801564
102,102,101754.60123304864,5320.260693875485,26.173023296616037,101856.42466084592,-370.5095181837816,0.4184625127180428,101888.1457477436,34287.18633779845,7.150055418273189,101911.69864360055,-5586.962071198491,5.769632730629475,102167.77714295716,6280.950555108121,41.07505734494174,0.9882980402272704,131.0,72.0,65.0,295.0,360.0,59.0,982.0,979.0,61.0,32.0,29.0,0.5245901639344263,151.62513112709345,5565.023253564848,3.0,1.0,2.0,0.3333333333333333,196.34875407749024,1174.7385283489552,17.0,8.0,9.0,0.4705882352941176,2102.429207747162,33466.586774498996,14.0,6.0,8.0,0.4285714285714285,894.525188789161,12830.257045727083,103.0,52.0,51.0,0.5048543689320388,147.23557863487957,6285.440747915873,,,,,101724.0,101783.0,101855.0,101926.0,101880.0,101897.0,101906.0,101920.0,102124.0,102215.0,0.02849956794441285,-0.5299425370770005,0.06131821920393125,-0.16010940783016114,0.02344160765843587
103,103,103583.72298003288,4637.990040221312,19.98167474553732,103687.15067819972,-1762.407819253782,5.095930801279986,103717.38278007552,33771.958970532025,6.988566364753385,103741.12330450072,-7377.799984286022,7.733318534096472,103996.7596258603,6313.892265676632,37.56371741713171,0.9814779187937848,107.0,56.0,83.0,289.0,372.0,51.0,1828.0,1832.0,51.0,24.0,27.0,0.4705882352941176,144.6138481032691,5091.581803481452,23.0,20.0,3.0,0.8695652173913043,263.47312872088975,361.4197199406899,17.0,8.0,9.0,0.4705882352941176,2168.372266489077,32697.363704861353,16.0,7.0,9.0,0.4375,959.5979965574336,15615.501898479732,93.0,49.0,44.0,0.5268817204301075,149.79350399594975,6684.124410340868,,,,,103560.0,103611.0,103667.0,103690.0,103709.0,103726.0,103734.0,103750.0,103957.0,104039.0,0.03118028431479093,-0.14949611879981697,0.06420629221956317,-0.1300656020224568,0.023724431411389794
104,104,104538.42302793292,4745.249218029568,21.760769340256275,104639.30135639945,-1262.9808541246373,4.5204720821999205,104672.46839213424,33561.85577084632,7.168388035015538,104694.69864360055,-6907.08792279947,7.146797900063936,104955.16946697987,6484.178476531174,37.54852946575925,0.9891351484522604,115.0,59.0,79.0,294.0,373.0,56.0,957.0,953.0,59.0,30.0,29.0,0.5084745762711864,169.9689861627179,4610.276757470635,22.0,16.0,6.0,0.7272727272727273,210.19088913958288,568.5619058830549,17.0,8.0,9.0,0.4705882352941176,2122.858635931294,32240.720627114973,15.0,6.0,9.0,0.4,1032.782874341536,16127.245123212022,93.0,48.0,45.0,0.5161290322580645,129.35341877434914,6767.578498565684,,,,,104510.0,104566.0,104625.0,104645.0,104664.0,104681.0,104689.0,104704.0,104913.0,104998.0,0.035818769121107694,-0.16642444614511961,0.06325212319681459,-0.14952508001707107,0.019949083641440577
105,105,105538.95805136093,5488.122275579315,24.208718033285255,105639.98548687526,-966.5754842349676,2.6314888571586645,105670.82568806926,31326.64632979165,6.694028470547803,105696.28037176888,-6317.876189146749,6.557391956137929,105957.6431436657,5344.130435043696,35.84449256600389,0.9817906468246376,127.0,70.0,68.0,298.0,366.0,57.0,999.0,998.0,59.0,32.0,27.0,0.5423728813559322,166.69913538108295,6073.836903974652,8.0,4.0,4.0,0.5,230.83061632851408,97.8101538221532,17.0,8.0,9.0,0.4705882352941176,2025.8754152318709,29849.705240372343,16.0,7.0,9.0,0.4375,721.5027523108438,11828.516399297194,89.0,44.0,45.0,0.4943820224719101,103.34591335177784,5692.1205785497,,,,,105509.0,105566.0,105636.0,105644.0,105663.0,105679.0,105689.0,105704.0,105916.0,106002.0,0.030374530123508686,-0.2388128191676759,0.06466939977884778,-0.11420020442158826,0.01933820938839657
106,106,106464.89072849082,4490.341145101108,21.55209379589615,106538.01293127872,-1254.5619325230214,12.739827004320285,106597.34054645238,33500.52844234033,6.95618853551798,106621.99499301016,-6737.274779420977,7.041769649259783,106878.53713861584,6176.94372002038,37.15540286388925,0.9880184501935168,84.0,38.0,102.0,291.0,393.0,46.0,926.0,928.0,55.0,29.0,26.0,0.5272727272727272,153.0969337315611,4623.178447107126,23.0,15.0,8.0,0.6521739130434783,129.43132433328782,1327.995907282423,17.0,8.0,9.0,0.4705882352941176,2111.716172800713,32735.884373760615,17.0,8.0,9.0,0.4705882352941176,830.8740801016461,13546.63893984936,94.0,49.0,45.0,0.5212765957446809,148.26759669613935,6388.95322814638,,,,,106445.0,106491.0,106529.0,106541.0,106589.0,106606.0,106614.0,106631.0,106836.0,106922.0,0.03409472215682042,-0.10316854112813019,0.06303530932162185,-0.12332495071145874,0.024003391226567652
107,107,107405.47570524222,3698.3870770763874,17.28700981554567,107507.30135639945,-2281.1961987458953,10.191861603456228,107540.33271251772,36267.761426101104,7.324160129903762,107560.027373699,-6641.561889077254,17.835757806008388,107821.5906715079,6090.742060778659,31.28657344854646,0.9663061036693168,67.0,27.0,117.0,285.0,402.0,40.0,940.0,943.0,46.0,21.0,25.0,0.4565217391304347,158.99006733302224,3979.3495671463616,60.0,53.0,7.0,0.8833333333333333,213.68082679052517,863.0962560096758,16.0,8.0,8.0,0.5,2187.7074803512937,31015.2617443549,17.0,4.0,13.0,0.2352941176470588,1161.187140716476,19770.619711519448,78.0,39.0,39.0,0.5,152.21966872885682,6212.77602751482,,,,,107389.0,107429.0,107456.0,107513.0,107532.0,107548.0,107556.0,107573.0,107784.0,107858.0,0.042989028465540036,-0.09367051677010413,0.06032099568121812,-0.17483645565754197,0.024991974247124266
108,108,108362.80669158064,5062.1142011183665,22.85471182591823,108467.15067819972,-1392.3393608470576,2.321569517357495,108497.52082036964,31514.58098999286,6.817321729001081,108522.59972032662,-6574.657572332152,7.432669960248925,108782.0497047992,6269.313784659766,34.67684861739844,0.9849069783067632,129.0,73.0,67.0,290.0,357.0,56.0,959.0,958.0,58.0,29.0,29.0,0.5,149.5182267691411,5158.230355266933,11.0,8.0,3.0,0.7272727272727273,229.48795665672205,86.89263291536975,17.0,9.0,8.0,0.5294117647058824,2050.1210101329566,29829.9819428983,16.0,8.0,8.0,0.5,717.7239124893174,11812.122067322967,83.0,43.0,40.0,0.5180722891566265,127.76736724763238,6124.901785091504,,,,,108335.0,108391.0,108464.0,108470.0,108489.0,108506.0,108515.0,108531.0,108743.0,108821.0,0.02953671545697413,-0.16482185529618903,0.06505309433699759,-0.10916521576875486,0.020379800985598027
109,109,109249.3658394108,4239.522522958104,17.114217964132123,109347.45203459916,-2230.3174736439096,15.28779240518434,109381.136741009,31988.74127587682,7.1895485522241005,109404.4286123966,-5987.3943335690055,20.383723206890245,109665.46300560984,4399.71138225793,28.945113268372367,0.9599977520038602,104.0,58.0,85.0,284.0,369.0,46.0,883.0,882.0,46.0,21.0,25.0,0.4565217391304347,149.2334095364141,4530.990486968297,24.0,15.0,9.0,0.625,204.66000808797037,2039.4704376137263,16.0,8.0,8.0,0.5,1996.8246666762775,27192.326219537616,20.0,6.0,14.0,0.3,866.9598022263992,15462.061728474657,77.0,41.0,36.0,0.5324675324675324,137.11844217848727,4224.5313373743265,,,,,109228.0,109274.0,109332.0,109356.0,109373.0,109389.0,109399.0,109417.0,109627.0,109701.0,0.035200522872157615,-0.09176272459256453,0.06242273334406291,-0.14479751189356124,0.03116532660106403
110,110,110072.40587929724,5470.360110680815,21.190243086861297,110172.7260172996,-1682.804999733273,4.317985328311743,110204.89690287992,33220.11167701232,7.117401822229805,110229.12330450072,-7018.750160862711,7.193001456655627,110484.83758559306,6303.085633241563,34.712715825192085,0.9859070729229654,111.0,57.0,81.0,287.0,368.0,54.0,820.0,824.0,59.0,31.0,28.0,0.5254237288135594,143.39367269802864,5341.247808637334,21.0,17.0,4.0,0.8095238095238095,244.6825361796596,449.3495565737578,17.0,8.0,9.0,0.4705882352941176,2105.030653184223,31411.763870637376,16.0,7.0,9.0,0.4375,904.9491401125445,14278.230311377136,85.0,44.0,41.0,0.5176470588235295,157.17200003962728,6379.7476391638575,,,,,110046.0,110100.0,110157.0,110177.0,110197.0,110214.0,110222.0,110238.0,110447.0,110525.0,0.026212839702829463,-0.14540159805707858,0.06336615221678692,-0.12893308913581739,0.024935723419451078
111,111,111040.86159828956,4898.804018333646,22.84534637579866,111132.8013155986,-1059.7301701882764,6.841977507521807,111173.18363600626,33779.265866022644,7.117204907262808,111196.12330450072,-7028.608295018961,7.530697876474953,111456.48636915284,6829.118076154641,35.92217235431129,0.9852445772968365,114.0,59.0,79.0,291.0,370.0,55.0,974.0,970.0,55.0,28.0,27.0,0.509090909090909,143.65139658387628,5368.6988484898375,9.0,6.0,3.0,0.6666666666666666,204.19728916436657,278.76305243338754,17.0,8.0,9.0,0.4705882352941176,2153.475715107108,31780.301429838208,17.0,7.0,10.0,0.4117647058823529,998.7496828441624,15845.209465819837,86.0,43.0,43.0,0.5,151.88512688843264,6944.785273969696,,,,,111013.0,111068.0,111127.0,111136.0,111165.0,111182.0,111189.0,111206.0,111414.0,111497.0,0.029323768831385103,-0.19268800201101,0.06375140666609964,-0.1420977867769295,0.02224081136022128
112,112,112114.52060585124,4662.686193521727,19.954028194344307,112216.7260172996,-1623.7183109257685,7.643896202450114,112247.28518629148,30651.61584746133,6.614736339245535,112273.10930008675,-7085.140656844752,8.084442253921646,112533.780572932,5640.3514670690165,31.649924902795583,0.9745037957864428,109.0,60.0,80.0,291.0,371.0,49.0,1070.0,1072.0,49.0,23.0,26.0,0.4693877551020408,124.99181916355404,4960.7871219708595,22.0,17.0,5.0,0.7727272727272727,195.13497825339425,904.1656864608732,17.0,8.0,9.0,0.4705882352941176,2002.72542094262,29966.416943814,18.0,9.0,9.0,0.5,710.0791556469854,12234.304768216793,83.0,42.0,41.0,0.5060240963855421,127.63776665375352,5902.7464437473445,,,,,112092.0,112141.0,112201.0,112221.0,112239.0,112256.0,112264.0,112281.0,112495.0,112572.0,0.026806826360567863,-0.12017785162633128,0.06533833096790859,-0.100220897514716,0.022629399497347265
113,113,113037.77458049364,4550.940947241344,19.20571712825956,113135.87669549928,-1169.5551088566613,12.739827004300786,113169.40273095736,31975.706476710977,6.805590921724862,113195.23497562272,-6576.966122231175,7.445741829069449,113449.77657423553,5830.871573133561,34.14877941522321,0.9857730655525,118.0,70.0,71.0,284.0,355.0,48.0,927.0,922.0,49.0,24.0,25.0,0.4897959183673469,133.33328554043015,4929.353579327749,43.0,35.0,8.0,0.813953488372093,230.9426696796091,183.99481845994345,17.0,8.0,9.0,0.4705882352941176,2061.317880991736,31246.172790472636,17.0,8.0,9.0,0.4705882352941176,721.4798900897039,12070.233658775893,80.0,41.0,39.0,0.5125,146.35904744745963,6240.073981745085,,,,,113015.0,113063.0,113133.0,113144.0,113161.0,113178.0,113187.0,113204.0,113410.0,113488.0,0.029297959935352086,-0.1974619818516932,0.0644651239369196,-0.10969797877641317,0.02510071532390226
114,114,114002.79326271606,4815.456640511033,23.54874365018677,114074.7260172996,-600.0305504250331,7.6438962025921695,114135.76858725936,35002.074263432376,7.245589394001636,114158.43613981956,-7145.846264100602,6.572153385397108,114414.00028535984,7026.836392765644,37.757559197769055,0.9897301879819504,98.0,42.0,95.0,289.0,384.0,56.0,963.0,969.0,60.0,32.0,28.0,0.5333333333333333,164.67063717506116,5054.041793091142,7.0,3.0,4.0,0.4285714285714285,137.04682795250486,940.7932590099446,18.0,9.0,9.0,0.5,2232.300884897611,32889.63414266051,15.0,6.0,9.0,0.4,1115.8452676819672,17146.256270599326,97.0,50.0,47.0,0.5154639175257731,138.44166244224726,7299.5860090059905,,,,,113974.0,114030.0,114072.0,114079.0,114127.0,114145.0,114152.0,114167.0,114370.0,114456.0,0.0341962662044831,-0.22839975040508756,0.0637762456046714,-0.156152991044289,0.01970184798734996
115,115,115089.39388583224,4836.515510151032,23.62091962527361,115160.97505380392,-821.5324948513892,4.919203794488878,115222.73710664758,34662.559968357156,7.033404414296491,115246.45203459916,-6520.112314697717,6.136045947183507,115506.69223027134,7006.191429890874,39.03488453957484,0.9907869301706248,101.0,41.0,96.0,294.0,390.0,60.0,1090.0,1086.0,62.0,32.0,30.0,0.5161290322580645,159.8471012642959,4882.0587862874545,8.0,2.0,6.0,0.25,158.90357513908378,1051.7777699950902,18.0,9.0,9.0,0.5,2199.5670919479876,32679.151340573306,16.0,7.0,9.0,0.4375,1002.5455449525908,15075.60037857787,91.0,46.0,45.0,0.5054945054945055,133.75153800888498,7441.220632108391,,,,,115058.0,115118.0,115159.0,115167.0,115214.0,115232.0,115239.0,115255.0,115464.0,115549.0,0.0330500545131725,-0.1934233595566157,0.06345656794985523,-0.15376200540175364,0.0190904772367843
116,116,116070.45164770378,4417.625531686926,19.66017289791079,116172.30135639945,-1725.6339654697997,10.191861603456228,116203.0784641892,30457.009921269193,6.501338651346002,116229.87678533477,-7148.30237466153,8.446615536576417,116489.80739261516,5096.669593441153,31.425347727303475,0.9693835910760602,91.0,35.0,106.0,288.0,394.0,56.0,975.0,979.0,56.0,29.0,27.0,0.5178571428571429,131.5852245361252,4387.8937454633915,57.0,51.0,6.0,0.8947368421052632,208.72576104548585,645.0717944940917,16.0,8.0,8.0,0.5,2031.6394586124932,29221.215221211576,18.0,9.0,9.0,0.5,626.1480085334671,10955.019513311963,78.0,42.0,36.0,0.5384615384615384,117.63263723208874,5429.683058153989,,,,,116041.0,116097.0,116132.0,116178.0,116195.0,116211.0,116221.0,116238.0,116448.0,116526.0,0.029786414351394272,-0.12095598789901008,0.06670515142045275,-0.08759394548738783,0.02308029490149192
117,117,116993.27243825416,4834.27139732391,24.22010858867497,117064.87669549928,-749.1061354451305,12.739827004320272,117127.68536295964,35420.09968161855,7.161413653618845,117150.52233069624,-6727.615719207776,5.856006458856883,117408.07606619902,6600.174578381035,37.45287691451095,0.9899651557500724,97.0,39.0,98.0,292.0,390.0,58.0,928.0,926.0,63.0,33.0,30.0,0.5238095238095238,140.72232970591588,4767.230553169209,11.0,4.0,7.0,0.3636363636363636,116.1143098137686,758.7404956428697,18.0,9.0,9.0,0.5,2253.9251929399206,33739.64730976716,14.0,6.0,8.0,0.4285714285714285,1015.6695029406096,15276.626897570944,85.0,41.0,44.0,0.4823529411764706,137.28137790296623,7125.615421647714,,,,,116964.0,117022.0,117061.0,117072.0,117119.0,117137.0,117145.0,117159.0,117368.0,117451.0,0.02910931516666918,-0.15500381630804783,0.0636340725520207,-0.15097020182660073,0.02079965859579432
118,118,117828.4345368774,4997.129831768665,21.708851136023405,117929.30135639945,-1298.4235141945808,3.9117585228572342,117961.29299020696,31843.01732851157,6.900832671490618,117986.27364250126,-6348.899398494018,6.746284886454837,118239.4817872265,6306.066303607598,37.76134398593395,0.9896460631026754,122.0,65.0,74.0,287.0,361.0,57.0,833.0,832.0,57.0,29.0,28.0,0.5087719298245614,134.7293982104365,5426.309035763116,19.0,13.0,6.0,0.6842105263157895,232.87301905943175,373.98954352436306,17.0,8.0,9.0,0.4705882352941176,2018.9113191660724,31354.25892509938,16.0,7.0,9.0,0.4375,786.5135317662708,12618.828955528694,92.0,46.0,46.0,0.5,113.22614510364934,6809.424165070792,,,,,117799.0,117856.0,117921.0,117935.0,117953.0,117970.0,117979.0,117995.0,118194.0,118282.0,0.026961356367791407,-0.17935058670274018,0.06340201050477655,-0.12388187028964968,0.017955114908778318
119,119,118604.92993817832,5786.240130530677,23.3228602314448,118707.15067819972,-1088.7777432375694,2.2127561935918476,118736.98688521402,32012.65436419816,6.9583759774747,118761.68488827956,-6546.022172560546,6.7271060519124495,119012.89491799458,6664.478784699434,38.41646506104638,0.9875656890482464,125.0,72.0,67.0,286.0,353.0,53.0,777.0,775.0,55.0,28.0,27.0,0.509090909090909,135.36177508545217,5963.1894156854305,8.0,5.0,3.0,0.625,228.22443154842728,802.3716162502162,17.0,8.0,9.0,0.4705882352941176,2042.1147745956391,30932.67225942932,15.0,7.0,8.0,0.4666666666666667,776.9884692284959,12650.31134745208,92.0,48.0,44.0,0.5217391304347826,118.21869167542948,6860.933454311501,,,,,118578.0,118631.0,118703.0,118710.0,118729.0,118746.0,118755.0,118770.0,118965.0,119056.0,0.023393736179600562,-0.20961526166927633,0.06379086068162687,-0.11869627825054686,0.017738625254061953
120,120,119442.1637987312,5379.984216867475,22.278674041039206,119529.45203459916,-972.5136961229164,15.287792381114766,119575.59617167,33115.75548053671,7.007889725123122,119599.40847480194,-6464.166665628872,6.164467073429817,119854.49636846772,6642.626961039444,39.77688107328951,0.9885571626342348,110.0,56.0,82.0,287.0,369.0,54.0,839.0,839.0,54.0,26.0,28.0,0.4814814814814814,120.46669749613538,5455.742870555535,26.0,7.0,19.0,0.2692307692307692,146.6093070750415,1099.194357496777,17.0,9.0,8.0,0.5294117647058824,2114.844198705774,31130.05740686114,15.0,6.0,9.0,0.4,920.2303869358922,14314.40591545772,99.0,50.0,49.0,0.5050505050505051,114.53730837356488,6776.7028150112055,,,,,119416.0,119470.0,119526.0,119539.0,119567.0,119584.0,119593.0,119608.0,119816.0,119895.0,0.022391645149895584,-0.15075294842584047,0.06386217581382801,-0.14235870368703848,0.017242772933863802
121,121,120367.41295382575,4866.909986327546,18.569690038922676,120464.87669549928,-1598.9783335923607,12.739827004308484,120497.4480638037,29875.747043502743,6.602822778528157,120524.28885649444,-6821.07819662956,8.423046885937273,120784.92859413609,4771.457904884001,31.631777686517953,0.975543795242648,103.0,61.0,81.0,288.0,369.0,42.0,921.0,922.0,42.0,18.0,24.0,0.4285714285714285,140.04447815129572,5318.148915110872,27.0,20.0,7.0,0.7407407407407407,195.6967875414463,779.3045814765976,16.0,7.0,9.0,0.4375,1988.1484681199092,29466.1402347182,18.0,9.0,9.0,0.5,634.4546598199145,10936.042591557973,74.0,37.0,37.0,0.5,143.3241383101657,5109.04974701713,,,,,120349.0,120391.0,120452.0,120472.0,120490.0,120506.0,120516.0,120533.0,120751.0,120821.0,0.028774823973469445,-0.12238864244131573,0.06654723864226464,-0.09301383762663973,0.030037808394675555
122,122,121193.4634550844,5266.720101671682,20.618859463226286,121269.19186160344,-2330.2573333082287,61.15116962073736,121320.04263859724,32124.285589553445,6.991646678002823,121346.88185693728,-6331.254522673267,7.56846423841308,121601.48011336748,4837.914680102379,29.450677074854504,0.9733623369395892,65.0,22.0,121.0,282.0,403.0,43.0,824.0,822.0,44.0,24.0,20.0,0.5454545454545454,141.8893752526202,4048.318439837133,65.0,38.0,27.0,0.5846153846153846,130.46574474180633,1658.5065582314485,17.0,8.0,9.0,0.4705882352941176,2032.882088882804,29962.32026203629,18.0,9.0,9.0,0.5,650.9002374166816,11763.470373867103,77.0,39.0,38.0,0.5064935064935064,114.169114143482,4848.283559886507,,,,,121170.0,121213.0,121235.0,121295.0,121312.0,121328.0,121338.0,121356.0,121564.0,121638.0,0.026940747279807758,-0.05598769838719324,0.06328178359688973,-0.10280746652747895,0.023598827530597537
123,123,122053.4786964624,5233.670083672046,21.09872878983445,122141.75339099858,-1009.138537526414,10.06401994916992,122185.36404770982,34202.076535549335,7.134646827509639,122208.6706115292,-7324.070660126937,7.305067543940436,122466.0727076908,6252.461953005627,34.25597720485049,0.9872605001705208,108.0,56.0,82.0,286.0,368.0,52.0,865.0,866.0,53.0,26.0,27.0,0.490566037735849,116.74453820274633,5075.35441684563,23.0,7.0,16.0,0.3043478260869565,130.91289623595642,664.1373179149616,17.0,8.0,9.0,0.4705882352941176,2142.0459260274883,32631.918112310897,16.0,7.0,9.0,0.4375,996.0665283492862,15377.481299846082,85.0,45.0,40.0,0.5294117647058824,119.44892750300536,6440.536980406987,,,,,122028.0,122080.0,122136.0,122158.0,122177.0,122194.0,122202.0,122218.0,122427.0,122504.0,0.022306438185120767,-0.12972737772640044,0.06262911913553157,-0.13599903312948416,0.019104302977099277
124,124,123062.86258665446,5197.10884862304,25.348927294701863,123164.6218433233,-672.5207775958289,1.0267992445309289,123195.45585425675,34613.5173588294,7.18937025474761,123218.15711658432,-6503.468772993782,6.097738846924285,123476.74931812924,6906.50261887496,41.203677838815146,0.9906454309952256,131.0,71.0,64.0,296.0,360.0,60.0,1011.0,1012.0,62.0,32.0,30.0,0.5161290322580645,125.6785839528919,5524.499148252826,3.0,2.0,1.0,0.6666666666666666,233.2872035873795,980.3205624837358,17.0,8.0,9.0,0.4705882352941176,2157.244407164287,33924.32304130457,15.0,6.0,9.0,0.4,1064.439285276525,15949.97522309969,93.0,46.0,47.0,0.4946236559139785,128.43167004413365,7112.715210697019,,,,,123032.0,123092.0,123163.0,123166.0,123187.0,123204.0,123212.0,123227.0,123433.0,123523.0,0.024182403642784987,-0.3468847526486093,0.062323755913064,-0.16367254498041128,0.018595760710079137
125,125,124072.92390225978,5390.942897901265,22.188696734625736,124173.7260172996,-1467.026692892337,3.3032595414927775,124204.15365439533,31094.65791670751,6.683775151311097,124229.78848164032,-6231.686533797115,6.707568890476998,124488.57739580506,5810.358233510485,35.65177193214602,0.9891467582560736,121.0,70.0,70.0,295.0,365.0,51.0,1007.0,1006.0,54.0,28.0,26.0,0.5185185185185185,162.71976403162208,6019.225862937013,10.0,6.0,4.0,0.6,175.6203375311323,6.601684121616813,17.0,8.0,9.0,0.4705882352941176,1982.8586248802649,30164.26908910132,16.0,8.0,8.0,0.5,699.9536678651878,11285.494410695888,89.0,44.0,45.0,0.4943820224719101,108.01666572952716,5672.614589289869,,,,,124047.0,124098.0,124168.0,124178.0,124196.0,124213.0,124222.0,124238.0,124450.0,124533.0,0.030183915339739572,-0.11971175329119987,0.06376846563778572,-0.11232170682351209,0.018590362485148525
126,126,124962.5122608414,2883.7175947012884,12.446905866211976,125060.027373699,-3365.1894590140537,17.8357578060484,125094.25107003804,32783.65522663834,7.06645535377436,125121.84958514136,-6538.466457402705,22.93168860777651,125379.8041510416,3792.127403893331,24.338635864677023,0.9345292272726652,58.0,24.0,123.0,281.0,404.0,34.0,885.0,891.0,39.0,19.0,20.0,0.4871794871794871,130.28494994153547,2589.1285418056777,69.0,59.0,10.0,0.855072463768116,195.02828448411427,2220.599989065654,16.0,8.0,8.0,0.5,2057.335132251603,27630.740513906858,21.0,11.0,10.0,0.5238095238095238,567.4918953621146,10870.394274752754,63.0,31.0,32.0,0.492063492063492,114.73384342756012,3970.392471472672,,,,,124949.0,124983.0,125007.0,125070.0,125086.0,125102.0,125111.0,125130.0,125351.0,125411.0,0.045179510705531174,-0.057954622424514074,0.06275490386989907,-0.08679281281922202,0.030255798713346042
127,127,125869.82954537898,5265.350564799494,23.469883164624388,125971.15067819972,-979.2089907410156,2.276442156012666,126002.70375561008,35146.4519171679,7.239399853955979,126025.69864360055,-7049.035395826305,6.473675705481782,126285.2148535303,6533.49896197012,36.19285113294702,0.9913557116908992,133.0,70.0,66.0,291.0,357.0,63.0,913.0,910.0,63.0,34.0,29.0,0.5396825396825397,139.5964835414767,5423.690164232747,17.0,13.0,4.0,0.7647058823529411,242.3389973432043,1236.8773746841343,18.0,9.0,9.0,0.5,2218.19961483586,33345.44186032358,15.0,6.0,9.0,0.4,1029.047489030948,15723.431473815192,86.0,43.0,43.0,0.5,157.15968420458455,6835.970439245969,,,,,125836.0,125899.0,125969.0,125974.0,125994.0,126012.0,126020.0,126035.0,126245.0,126326.0,0.026512286660402555,-0.24748444880986487,0.06311304538118516,-0.14598415687346974,0.024054443892831723
128,128,126890.86107401508,5064.395235159125,23.754697334177106,126962.63158895736,-987.6693673188228,10.191861603456228,127023.58359122871,33880.42677280118,7.0057490419997235,127047.15049237716,-6786.903835986598,7.027408809610428,127307.70956396963,6271.08866126871,39.01118399362158,0.9894397937570112,96.0,38.0,99.0,295.0,394.0,58.0,1016.0,1021.0,59.0,31.0,28.0,0.5254237288135594,128.73113113166886,5259.699874794222,11.0,6.0,5.0,0.5454545454545454,167.47872310788264,1333.345219836443,17.0,9.0,8.0,0.5294117647058824,2187.843634237997,31756.14083062342,16.0,7.0,9.0,0.4375,957.4567196305952,15051.687134602556,90.0,47.0,43.0,0.5222222222222223,128.71557696099265,6644.594097457426,,,,,126861.0,126919.0,126957.0,126968.0,127015.0,127032.0,127040.0,127056.0,127262.0,127351.0,0.02541885558969887,-0.1695696238535056,0.0645754449585143,-0.14107415439626775,0.02052523635265461
129,129,127865.5794915587,3969.532263124374,17.52897996940791,127963.027373699,-2289.042204328113,17.8357578060484,127997.23551792232,30282.91726496089,6.728578052611978,128023.36344040705,-7294.190948008677,9.04498902632667,128285.12479630596,4368.026219047211,28.218938208703868,0.9696107741364568,69.0,25.0,117.0,285.0,402.0,44.0,981.0,971.0,44.0,20.0,24.0,0.4545454545454545,164.7134363548959,3999.275492778997,62.0,51.0,11.0,0.8225806451612904,169.35201421400197,955.2768440113152,17.0,8.0,9.0,0.4705882352941176,2018.417910676491,28933.76724586465,18.0,8.0,10.0,0.4444444444444444,697.8920325050892,12643.90269151335,66.0,32.0,34.0,0.4848484848484848,136.32906772194397,4605.51665894958,,,,,127846.0,127890.0,127915.0,127973.0,127989.0,128006.0,128015.0,128032.0,128254.0,128317.0,0.04149441935137512,-0.07398378845693268,0.06665203002129252,-0.09567778489478872,0.031210679809445183
130,130,128755.0858732964,5336.294839886707,22.659745127820894,128857.15067819972,-1455.9770984236463,3.0504194511454816,128887.83496018844,33706.53968586946,6.945174511806361,128912.12504831648,-7089.9637801867675,7.590204723357164,129169.4790026508,5957.469664957591,36.493563237806875,0.9899706959634822,118.0,59.0,79.0,291.0,370.0,59.0,887.0,891.0,59.0,31.0,28.0,0.5254237288135594,152.35891180437707,5653.11446722503,19.0,15.0,4.0,0.7894736842105263,199.2892718834181,54.43218821995936,17.0,8.0,9.0,0.4705882352941176,2181.4965084113583,31667.943999701285,16.0,7.0,9.0,0.4375,887.3697660772627,14888.518927068248,93.0,46.0,47.0,0.4946236559139785,112.38921718002254,5686.814404407794,,,,,128724.0,128783.0,128842.0,128860.0,128880.0,128897.0,128905.0,128921.0,129129.0,129212.0,0.028551441847919284,-0.13687665286712553,0.06472027472241212,-0.12515857535930702,0.01886526050499371
131,131,129696.82816175748,4441.174240161797,20.171333131315937,129785.027373699,-1305.1120864980503,17.835757806044757,129829.24955836788,33793.48923833279,7.062299096517975,129852.9596689368,-6982.461994904436,7.440509002855728,130112.15563107425,5858.343671268458,34.903820468224346,0.988688746772466,104.0,58.0,81.0,292.0,373.0,46.0,945.0,943.0,55.0,28.0,27.0,0.509090909090909,137.60320361226934,4404.169780724265,44.0,26.0,18.0,0.5909090909090909,143.7356248068758,1165.7424080997291,17.0,8.0,9.0,0.4705882352941176,2140.0466766047884,32173.20728049157,16.0,7.0,9.0,0.4375,905.8466024896154,14953.574406672207,85.0,42.0,43.0,0.4941176470588235,131.83426848217368,6245.70285313045,,,,,129677.0,129723.0,129781.0,129802.0,129821.0,129838.0,129846.0,129862.0,130071.0,130154.0,0.030983518360508257,-0.110132781922628,0.06332718890055546,-0.12973169107840063,0.022503676103663738
132,132,130637.39099422903,5148.420642309435,21.570812221099857,130740.15067819972,-1073.8366788880369,2.144802571303352,130770.01222019029,31754.2384860361,6.947436973041024,130794.70277644473,-6290.826291126144,6.621849836415622,131052.33694531088,5528.021298783918,39.0808488644795,0.9908295556925756,124.0,70.0,69.0,291.0,360.0,54.0,939.0,939.0,58.0,30.0,28.0,0.5172413793103449,147.8107269610767,5507.1741765404495,9.0,6.0,3.0,0.6666666666666666,225.27915165206937,707.598952407733,17.0,8.0,9.0,0.4705882352941176,2010.0135319364151,30470.89866281897,15.0,7.0,8.0,0.4666666666666667,770.7074350684647,12541.675423259254,99.0,50.0,49.0,0.5050505050505051,119.08367973344424,5732.221396736031,,,,,130610.0,130664.0,130734.0,130743.0,130762.0,130779.0,130788.0,130803.0,131010.0,131094.0,0.028709916541468344,-0.20978902665659271,0.06329906266907698,-0.12251290997426312,0.021541827228422742
133,133,131513.33395194693,4585.8895788774935,18.418047096082628,131612.30135639946,-2012.387912219892,10.191861603456228,131643.49044865317,29772.811108808564,6.661098120984614,131670.4815155919,-7160.940520113492,9.210946511805846,131927.25996011283,4256.200913869096,29.71239633050237,0.9654852700812586,101.0,53.0,90.0,284.0,374.0,48.0,873.0,874.0,48.0,24.0,24.0,0.5,120.06294468396362,4936.646319936938,47.0,41.0,6.0,0.8723404255319149,200.61682932954227,945.8169205917438,16.0,7.0,9.0,0.4375,1988.6754965605928,29061.105033727545,19.0,8.0,11.0,0.4210526315789473,657.5326139104984,11748.397764417949,77.0,39.0,38.0,0.5064935064935064,98.78535273301908,4319.385932363863,,,,,131489.0,131537.0,131590.0,131618.0,131636.0,131652.0,131662.0,131680.0,131891.0,131964.0,0.02618094976315411,-0.09969093339873979,0.0667950194320826,-0.09182210242685793,0.023209748489814202
134,134,132377.76028084534,5014.142704185013,20.47935834367993,132465.30135639946,-884.0344599640941,9.088019671243435,132507.34799582086,34893.034060666614,7.203641207875363,132531.17414125093,-6294.396809969537,6.621692929069078,132787.72326979524,6433.770945588997,37.85561071964111,0.9892430989821456,108.0,60.0,77.0,292.0,369.0,48.0,864.0,864.0,50.0,24.0,26.0,0.48,153.679859838316,5081.264392189683,17.0,2.0,15.0,0.1176470588235294,148.3705560989728,557.6707933137474,17.0,8.0,9.0,0.4705882352941176,2154.038258086402,33889.89616025688,16.0,7.0,9.0,0.4375,935.7103464424638,14543.73583438758,92.0,47.0,45.0,0.5108695652173914,129.0287371061093,6791.840832643036,,,,,132355.0,132403.0,132463.0,132471.0,132499.0,132516.0,132525.0,132540.0,132745.0,132832.0,0.030649279229737193,-0.16783345312692788,0.06173261557998348,-0.14865766723833104,0.020054916191035926
135,135,133326.62922212243,5854.595588683085,30.47915145334486,133429.2931925269,-112887.95579719244,0.0815874829192404,133460.41266555703,34910.64557023029,7.269130298546848,133483.57082289856,-6007.32267650312,6.138192060097671,133741.98619029528,6347.399464715025,45.30749692323292,0.98594978355604,105.0,39.0,96.0,296.0,392.0,66.0,954.0,955.0,66.0,35.0,31.0,0.5303030303030303,136.3188310111466,6644.237773707882,2.0,1.0,1.0,0.5,221.5311644333947,1369.325821788575,17.0,8.0,9.0,0.4705882352941176,2144.323484151083,34162.05399091808,15.0,6.0,9.0,0.4,961.2352452637666,14254.412707141302,93.0,45.0,48.0,0.4838709677419355,94.59541326543012,6893.318226741734,,,,,133292.0,133358.0,133397.0,133430.0,133452.0,133469.0,133478.0,133493.0,133698.0,133789.0,0.023284072989541837,-0.001962398582461569,0.061423197684423045,-0.16001058991279363,0.01490301875457544
136,136,134313.39843859556,4761.036142790233,22.520913379816704,134415.97287201148,1297.3585570177074,203.83723205381705,134445.59261762272,34263.50141556979,7.079490719024975,134469.49826650668,-6296.1570693745025,6.182949681260117,134727.6798119624,6741.997878308221,45.12027649990754,0.992766870588116,-161.0,-225.0,360.0,298.0,658.0,64.0,983.0,985.0,64.0,35.0,29.0,0.546875,118.83864159656083,6279.34538290335,285.0,239.0,46.0,0.8385964912280702,211.7749782743733,2915.505845586099,18.0,9.0,9.0,0.5,2172.705962772043,33944.85358825163,15.0,6.0,9.0,0.4,957.7525059045756,13438.954293940762,105.0,57.0,48.0,0.5428571428571428,112.98197151248556,7465.309214848379,,,,,134278.0,134342.0,134117.0,134462.0,134437.0,134455.0,134463.0,134477.0,134676.0,134775.0,0.024960667811043915,0.16323550427045344,0.06341167344282965,-0.1521169969795122,0.01675793637906577
137,137,135249.7690590938,4828.8349931353505,23.568146842902944,135351.7324487312,-1111.7045789577676,2.4502210540970006,135382.16758046066,30787.93357363521,6.6304622460193245,135408.895355752,-6343.030993700161,7.368499233243805,135667.85379837756,4561.773498207646,31.000879703182957,0.965948480245356,125.0,72.0,69.0,284.0,353.0,53.0,937.0,935.0,53.0,27.0,26.0,0.5094339622641509,146.99447933041407,5307.534135020597,8.0,4.0,4.0,0.5,226.61650877037263,52.20920582044232,17.0,8.0,9.0,0.4705882352941176,2003.212280342172,30161.289896682178,16.0,8.0,8.0,0.5,623.7416472905422,10866.053714313022,76.0,38.0,38.0,0.5,126.40838449890768,4776.19967909979,,,,,135223.0,135276.0,135348.0,135356.0,135374.0,135391.0,135401.0,135417.0,135631.0,135701.0,0.030440982046265972,-0.2038459794623024,0.06506485001830695,-0.09833495184085284,0.027710359698607228
138,138,136120.47606589049,3574.8028190277964,17.077930187167436,136219.02737369903,-1829.6587771443528,17.8357578060484,136254.7751490823,32550.83801839897,7.014356346110051,136279.90968194374,-7168.080083050551,9.68816071114423,136538.0555073962,4739.216602886948,30.744914642924723,0.9678742810776606,102.0,62.0,85.0,287.0,372.0,40.0,873.0,874.0,50.0,23.0,27.0,0.46,158.56194676562845,3520.3288797021264,59.0,49.0,10.0,0.8305084745762712,179.16163162395108,1345.080693696826,16.0,8.0,8.0,0.5,2116.0298603174538,30461.427237448897,17.0,8.0,9.0,0.4705882352941176,796.5815436791667,13764.147693816598,84.0,44.0,40.0,0.5238095238095238,110.21797114699902,4490.91592498144,,,,,136102.0,136142.0,136204.0,136229.0,136247.0,136263.0,136272.0,136289.0,136502.0,136576.0,0.04435543854940535,-0.09792078930891054,0.06500692421870655,-0.11112899611190755,0.023256580228862823
