Unnamed: 0,cycle,p_center,p_height,p_width,q_center,q_height,q_width,r_center,r_height,r_width,s_center,s_height,s_width,t_center,t_height,t_width,r_squared,pr_interval,pr_segment,qrs_duration,st_segment,qt_interval,p_duration,pp_interval,rr_interval,fwhm_p,rise_time_p,decay_time_p,rise_decay_symmetry_p,sharpness_deriv_p,sharpness_diff_p,fwhm_q,rise_time_q,decay_time_q,rise_decay_symmetry_q,sharpness_deriv_q,sharpness_diff_q,fwhm_r,rise_time_r,decay_time_r,rise_decay_symmetry_r,sharpness_deriv_r,sharpness_diff_r,fwhm_s,rise_time_s,decay_time_s,rise_decay_symmetry_s,sharpness_deriv_s,sharpness_diff_s,fwhm_t,rise_time_t,decay_time_t,rise_decay_symmetry_t,sharpness_deriv_t,sharpness_diff_t,Average_Heart_Rate,SDNN,RMSSD,NN50,p_on,p_off,q_on,q_off,r_on,r_off,s_on,s_off,t_on,t_off,sharpness_deriv_p_norm,sharpness_deriv_q_norm,sharpness_deriv_r_norm,sharpness_deriv_s_norm,sharpness_deriv_t_norm
0,0,0.0,0.0,0.0,0.0,0.0,0.0,0.0,0.0,0.0,0.0,0.0,0.0,0.0,0.0,0.0,0.0,0.0,0.0,0.0,0.0,0.0,0.0,0.0,0.0,0.0,0.0,0.0,0.0,0.0,0.0,0.0,0.0,0.0,0.0,0.0,0.0,0.0,0.0,0.0,0.0,0.0,0.0,0.0,0.0,0.0,0.0,0.0,0.0,0.0,0.0,0.0,0.0,0.0,0.0,69.66798357625866,380.1082473609244,612.6764947176341,393.0,,,,,,,,,,,,,,,
1,1,1831.661838843398,2204.321619790266,8.186475220579318,1982.027373698992,-3654.8880863588706,17.8357578060484,2016.7198686269835,27823.202282774735,9.662997497404785,2039.452034599136,-11772.713910894618,15.2081320842661,2299.6574601968323,9367.938393421842,27.706415814046498,0.9098733978788768,147.0,131.0,85.0,277.0,362.0,16.0,,,19.0,12.0,7.0,0.631578947368421,384.32761883530327,1479.7532214217986,24.0,13.0,11.0,0.5416666666666666,503.95199649043633,529.4439595727702,17.0,10.0,7.0,0.5882352941176471,1582.338256662072,21183.705585555923,20.0,4.0,16.0,0.2,1040.268449015388,20151.74077599264,73.0,40.0,33.0,0.547945205479452,311.9605663704246,9635.367737993714,0.0,0.0,0.0,0.0,1822.0,1838.0,1969.0,1992.0,2007.0,2024.0,2036.0,2054.0,2261.0,2331.0,0.17435188013619843,-0.13788438512558976,0.05687117681783498,-0.08836267124887069,0.033300877233509885
2,2,2700.244101882894,4365.699073859578,19.534481590225763,2848.7260172998144,-1827.308568504968,4.8163000588510005,2880.4680770358577,29505.759296064734,9.35091999656585,2902.4520345991364,-12197.639216370326,10.17504583164972,3159.802124031574,11256.223572861329,34.42023859037169,0.9635085122105176,168.0,129.0,67.0,288.0,355.0,39.0,865.0,864.0,40.0,22.0,18.0,0.55,353.76207294477564,4906.728273784085,12.0,7.0,5.0,0.5833333333333334,476.959360318693,2482.943001963642,18.0,10.0,8.0,0.5555555555555556,1745.648797330674,25677.68344683857,19.0,5.0,14.0,0.2631578947368421,1280.6723370515365,20787.2317674094,85.0,42.0,43.0,0.4941176470588235,206.6632486799396,12195.38291161894,0.0,0.0,0.0,0.0,2679.0,2718.0,2847.0,2854.0,2870.0,2888.0,2899.0,2914.0,3121.0,3202.0,0.08103217078405399,-0.2610174157443602,0.0591629850909648,-0.10499345933537363,0.018359909728357136
3,3,3617.1062603033743,3065.565759187973,12.260103872187456,3765.87669549928,-2521.032695269661,7.530328593675072,3800.0312686951456,30360.45484799889,9.190675343970538,3821.452034599139,-12740.112991591615,11.784982492811244,4080.608761568629,10837.454461788067,31.462645120744774,0.9405323503866831,150.0,123.0,80.0,285.0,365.0,27.0,925.0,920.0,32.0,14.0,18.0,0.4375,219.29692896548855,2624.6004168794066,28.0,20.0,8.0,0.7142857142857143,405.3160121053645,1630.2295467739148,17.0,10.0,7.0,0.5882352941176471,1803.852556889208,25327.49265148989,21.0,5.0,16.0,0.238095238095238,1303.0635000257596,22541.799725672205,82.0,42.0,40.0,0.5121951219512195,250.49736334396195,10687.42644828786,0.0,0.0,0.0,0.0,3604.0,3631.0,3754.0,3773.0,3790.0,3807.0,3818.0,3834.0,4044.0,4119.0,0.07153554879983307,-0.1607738022858169,0.05941454322474036,-0.10228037230798286,0.02311404068429483
4,4,4563.193853662565,3796.994365885186,15.344100391138385,4713.301356399425,-2402.0028983395177,5.971117907168978,4745.581498084498,28841.204985660625,9.467043312600827,4767.027373698993,-12158.002087954628,11.093341920377204,5025.052260763998,11217.60000105555,34.65382881050964,0.9444144555254186,158.0,124.0,75.0,287.0,362.0,34.0,946.0,945.0,43.0,24.0,19.0,0.5581395348837209,234.50386213499203,3413.0628160146753,20.0,13.0,7.0,0.65,463.7651200785912,2114.977651477033,18.0,11.0,7.0,0.6111111111111112,1706.636083966307,23494.155225107403,20.0,5.0,15.0,0.25,1213.0415362888748,20450.132456383253,84.0,42.0,42.0,0.5,247.9683074075268,12306.002766325497,0.0,0.0,0.0,0.0,4547.0,4581.0,4705.0,4719.0,4735.0,4753.0,4763.0,4780.0,4983.0,5067.0,0.0617603924414364,-0.1930743382529587,0.059173536085431196,-0.09977309820424186,0.0221052905598518
5,5,5415.104084783644,3442.774651289094,13.895904476688974,5563.876695499281,-2349.336164758634,12.73982699597303,5596.953497760333,25897.279151060186,9.742481669657584,5619.452034599137,-11122.947645188193,12.577189757774113,5877.721845169415,10045.50337124198,31.579744007087033,0.9466583480429692,150.0,119.0,83.0,282.0,365.0,31.0,847.0,852.0,40.0,21.0,19.0,0.525,241.35398952298456,3104.5041574587276,21.0,13.0,8.0,0.6190476190476191,450.5898531805387,1615.2129726948044,17.0,10.0,7.0,0.5882352941176471,1553.96668895053,22401.19250189388,22.0,5.0,17.0,0.2272727272727272,988.9122200360412,18377.74203927099,81.0,40.0,41.0,0.4938271604938271,208.1573634682025,10067.601924852814,0.0,0.0,0.0,0.0,5402.0,5433.0,5552.0,5571.0,5587.0,5604.0,5616.0,5635.0,5840.0,5917.0,0.07010449825190077,-0.1917945417687091,0.060005017511150914,-0.0889073878239323,0.020721446778277957
6,6,6226.821948101295,3203.0734495653346,13.437239852741888,6378.726017299715,-2352.6874951253803,5.805010427699083,6411.207969576029,28167.13198571303,9.394279917126436,6433.452034601083,-11399.23372709014,10.375774836589995,6689.616014301322,10812.739175631494,33.81157986748878,0.9411769711831304,150.0,119.0,82.0,285.0,367.0,31.0,811.0,814.0,33.0,14.0,19.0,0.4242424242424242,206.3877939826616,3270.4628205915296,19.0,15.0,4.0,0.7894736842105263,454.0930589983354,1677.6605535512892,18.0,10.0,8.0,0.5555555555555556,1691.9693203345785,24968.174252435812,18.0,4.0,14.0,0.2222222222222222,1156.826951524579,19798.73749140625,85.0,43.0,42.0,0.5058823529411764,219.7882472022843,11017.562195860097,0.0,0.0,0.0,0.0,6214.0,6245.0,6364.0,6383.0,6401.0,6419.0,6430.0,6446.0,6653.0,6731.0,0.06443429950401823,-0.19301035940352787,0.060068924347455095,-0.10148286974548068,0.020326787101053706
7,7,7097.7533909985605,3445.13234686867,13.380085022002032,7244.301356399425,-2260.35981699846,10.191861584163378,7276.918366835217,29141.01753680183,9.443499332611598,7298.452034599137,-12257.365666881842,11.907110476908718,7557.436744762213,11041.177655510914,32.234279575108204,0.9397653873301506,158.0,130.0,71.0,284.0,355.0,28.0,879.0,865.0,32.0,18.0,14.0,0.5625,371.3975946795149,2441.8996155626587,8.0,2.0,6.0,0.25,547.9985081105431,822.157838564189,17.0,10.0,7.0,0.5882352941176471,1739.3282733891888,23406.721613903606,20.0,4.0,16.0,0.2,1220.7913819500604,20974.165498561015,79.0,38.0,41.0,0.4810126582278481,374.67757742559365,10325.595222591048,0.0,0.0,0.0,0.0,7084.0,7112.0,7242.0,7250.0,7267.0,7284.0,7295.0,7313.0,7520.0,7597.0,0.10780357829129074,-0.2424386170686012,0.059686600551700456,-0.09959655403350777,0.03393456650329172
8,8,7973.150955751431,4235.358725082071,15.279115092988226,8121.726017299569,-2877.9308100103917,5.92457849890872,8152.87349802802,28583.915302069898,9.44125903996392,8174.602712798963,-12125.393274653045,12.19129277521827,8434.414970011978,10928.414631804006,32.20540131420183,0.9447495155966392,152.0,119.0,79.0,282.0,361.0,33.0,867.0,876.0,38.0,21.0,17.0,0.5526315789473685,355.4380878585312,4530.160399839356,17.0,13.0,4.0,0.7647058823529411,580.4038990783628,1531.9926665386563,17.0,10.0,7.0,0.5882352941176471,1694.9893029138325,24037.16370031501,20.0,5.0,15.0,0.25,1118.992896880772,19484.01959623708,77.0,40.0,37.0,0.5194805194805194,362.3669786387198,11713.88354342792,0.0,0.0,0.0,0.0,7957.0,7990.0,8109.0,8126.0,8143.0,8160.0,8170.0,8188.0,8402.0,8470.0,0.08392160167062206,-0.2016740281105879,0.05929870995633304,-0.09228508070083943,0.03315823848631758
9,9,9600.70796884949,4171.10433858014,16.100413552934015,9746.876695499284,-2301.7751976129503,12.739826999014968,9780.251010244963,28176.075806717567,9.51388084367177,9803.027373698991,-12032.33363422506,11.266552844433676,10061.22172784228,10455.949278697895,32.237837024780085,0.9496269377470076,162.0,119.0,78.0,283.0,361.0,43.0,1625.0,1628.0,46.0,26.0,20.0,0.5652173913043478,260.7643025925157,2932.593966463946,101.0,93.0,8.0,0.9207920792079208,403.8573854518675,1387.5027105197437,18.0,10.0,8.0,0.5555555555555556,1664.169258910773,23773.68207325015,19.0,5.0,14.0,0.2631578947368421,1070.1860248720286,19152.796361662346,81.0,40.0,41.0,0.4938271604938271,233.84084126516825,10283.34748717962,0.0,0.0,0.0,0.0,9577.0,9620.0,9739.0,9754.0,9770.0,9788.0,9799.0,9817.0,10028.0,10100.0,0.0625168495979846,-0.1754547472188799,0.05906320206996362,-0.08894251584147947,0.022364381753608605
10,10,10437.88491154111,4260.9561212463,16.16441430649172,10586.301356399426,-2052.092243168643,6.588859072857633,10619.845224506937,28997.707328924233,9.223205552040314,10642.027373698991,-11489.24087546759,10.991251009478956,10897.341336346604,11318.911331248104,36.85507558387293,0.9416817830836032,164.0,130.0,71.0,285.0,356.0,34.0,839.0,840.0,34.0,18.0,16.0,0.5294117647058824,264.0315700750531,4220.133746017209,24.0,16.0,8.0,0.6666666666666666,383.98045164898974,1467.50726100954,18.0,11.0,7.0,0.6111111111111112,1717.4696836768094,24337.446563713664,18.0,4.0,14.0,0.2222222222222222,1136.451777229428,19036.56257090738,88.0,43.0,45.0,0.4886363636363636,255.61266226396577,12832.47854473286,0.0,0.0,0.0,0.0,10420.0,10454.0,10584.0,10593.0,10609.0,10627.0,10638.0,10655.0,10855.0,10940.0,0.061965334202461975,-0.18711656502150417,0.059227774947700484,-0.09891443564875008,0.022582795710952893
11,11,11307.821948101297,3321.080706727307,13.567951534137396,11465.150678199714,-3320.845090883711,5.095930801728113,11493.891569813146,29203.2465033846,9.233677027147415,11516.027373698991,-11524.49346834857,17.828948690487337,11777.423805783174,8986.13743813774,28.54725667555405,0.9268034580185726,148.0,117.0,88.0,282.0,370.0,31.0,871.0,874.0,31.0,13.0,18.0,0.4193548387096774,245.67420776066865,4046.195026452997,85.0,82.0,3.0,0.9647058823529412,513.7975168407443,2240.839562994207,17.0,10.0,7.0,0.5882352941176471,1581.5161909809644,21249.32151984106,24.0,5.0,19.0,0.2083333333333333,1067.974866054243,19168.156094601065,78.0,38.0,40.0,0.4871794871794871,232.90107054564365,8862.165032303843,0.0,0.0,0.0,0.0,11295.0,11326.0,11443.0,11468.0,11484.0,11501.0,11512.0,11531.0,11741.0,11813.0,0.0739741757142552,-0.15471890521217221,0.054155492294244406,-0.09267000488892473,0.02591781754385334
12,12,12136.794574402302,4012.8177258900455,16.175005507538945,12281.60271279885,-1932.2913285109637,20.38372320249713,12318.320135323618,28206.19204420899,9.604209751105724,12341.60271279885,-11901.924554289171,10.524508895324258,12596.78045718717,10827.453535236997,34.066667147481226,0.9460496174364886,161.0,121.0,79.0,283.0,362.0,40.0,826.0,825.0,52.0,24.0,28.0,0.4615384615384615,260.588026027484,2990.124042423886,115.0,103.0,12.0,0.8956521739130435,292.58869573865684,142.79941066757578,18.0,10.0,8.0,0.5555555555555556,1656.8032862853229,23908.05448101362,18.0,6.0,12.0,0.3333333333333333,1068.7660876880705,18774.50058122348,87.0,44.0,43.0,0.5057471264367817,242.23840368700215,10677.328730696594,0.0,0.0,0.0,0.0,12114.0,12154.0,12275.0,12293.0,12308.0,12326.0,12337.0,12354.0,12559.0,12637.0,0.0649389142063973,-0.1514205914095405,0.05873899190959671,-0.08979775353246652,0.022372610780425753
13,13,13006.423164733487,4249.417559588229,15.58269428740818,13120.178051898807,-2120.891314638883,22.931688607674374,13186.935777052371,28500.341428340776,9.345906192586776,13209.452034599148,-11574.18161609632,10.44976385822894,13468.14723525926,10781.192827317327,33.22727949948496,0.9514066226969382,129.0,90.0,107.0,283.0,390.0,39.0,871.0,868.0,40.0,22.0,18.0,0.55,261.68439585456207,4444.248964072114,60.0,46.0,14.0,0.7666666666666667,226.15783238025293,820.2220255424857,18.0,10.0,8.0,0.5555555555555556,1711.9375362233354,24920.89535388319,18.0,4.0,14.0,0.2222222222222222,1181.8652373622265,19826.757486927767,80.0,38.0,42.0,0.475,435.8242838127504,11260.406026149858,0.0,0.0,0.0,0.0,12985.0,13024.0,13114.0,13133.0,13177.0,13195.0,13206.0,13221.0,13432.0,13504.0,0.0615812384132755,-0.10663339079153146,0.06006726412480738,-0.10211220771917003,0.04042449576715308
14,14,13876.821948101297,3772.093515221805,14.335466891445662,13981.72601729957,-2511.589579437017,7.64389620259217,14062.054615593266,27579.96408333409,9.187712525478116,14085.60271279885,-11418.373158441062,11.569294505219151,14342.365528483244,10439.108264257851,34.36945938579975,0.9375840321789188,116.0,84.0,118.0,284.0,402.0,32.0,872.0,874.0,39.0,13.0,26.0,0.3333333333333333,353.843468570948,3861.390244548222,19.0,8.0,11.0,0.4210526315789473,331.69502889541207,2478.2219076151637,18.0,10.0,8.0,0.5555555555555556,1610.076452509501,23253.810784078025,18.0,5.0,13.0,0.2777777777777778,1040.7846050206429,17809.72270683543,80.0,39.0,41.0,0.4875,332.027354688203,10439.929762106834,0.0,0.0,0.0,0.0,13864.0,13896.0,13980.0,13988.0,14052.0,14070.0,14081.0,14098.0,14304.0,14382.0,0.09380559287383984,-0.13206577683355528,0.05837848256961406,-0.09114999050904551,0.03180610319226418
15,15,15527.178051898703,3580.0907963068485,14.018165765745431,15669.178051898703,-3574.7259714755273,22.93168860777651,15706.624720362464,32151.803249286873,9.377659315405324,15728.60271279885,-12919.66338595338,16.58546284186438,15989.761403481223,9981.205420154462,28.809930575741067,0.9287625815645584,98.0,71.0,132.0,283.0,415.0,27.0,1658.0,1645.0,39.0,25.0,14.0,0.6410256410256411,386.3039771207194,2307.8312453351973,83.0,70.0,13.0,0.8433734939759037,399.4193472968667,2051.901906800508,17.0,10.0,7.0,0.5882352941176471,1718.228922863538,22242.32403834699,20.0,5.0,15.0,0.25,1143.5991267585605,21779.16400342587,71.0,35.0,36.0,0.4929577464788732,365.54140184037374,11035.330021779411,0.0,0.0,0.0,0.0,15513.0,15540.0,15611.0,15682.0,15697.0,15714.0,15724.0,15743.0,15955.0,16026.0,0.10790340220399523,-0.11173425613152657,0.0534411370193256,-0.08851617047561111,0.03662297152027925
16,16,16386.981279958385,4851.657547160799,18.144902410913343,16538.150678199716,-2304.580995993695,4.742064655403109,16567.986106768545,29828.450698734672,9.597904465362976,16589.45203459914,-11942.094986525812,12.550359329161632,16849.73248278033,10881.638116396462,33.795332566571076,0.964586395417626,154.0,116.0,81.0,285.0,366.0,38.0,859.0,862.0,47.0,23.0,24.0,0.4893617021276595,236.7441391731883,4644.6475662665,23.0,20.0,3.0,0.8695652173913043,492.42284078228806,3652.4635444268056,18.0,11.0,7.0,0.6111111111111112,1708.556271008875,23928.455992253817,22.0,4.0,18.0,0.1818181818181818,1216.6446658915984,19662.054017621653,84.0,43.0,41.0,0.5119047619047619,250.69664884579737,11019.162527326514,0.0,0.0,0.0,0.0,16368.0,16406.0,16522.0,16541.0,16557.0,16575.0,16586.0,16603.0,16811.0,16888.0,0.0487965477513415,-0.21367131015933938,0.057279417166690196,-0.1018786626018576,0.023038502674339763
17,17,17207.475499105174,3084.4839776516933,12.86034270313229,17355.45203459914,-3581.758032855437,15.28779240518434,17388.373753155727,26713.920693288615,9.699749282499248,17411.45203459914,-11881.825571780057,15.28779240413273,17670.32691208797,9106.36713193041,29.442741124122417,0.9262341396292544,84.0,52.0,152.0,279.0,431.0,32.0,818.0,820.0,34.0,16.0,18.0,0.4705882352941176,252.75591959468923,2630.896024559306,108.0,98.0,10.0,0.9074074074074074,339.0864378584419,231.2170259625641,18.0,10.0,8.0,0.5555555555555556,1541.499796889088,21682.71790580987,22.0,5.0,17.0,0.2272727272727272,966.5190119285926,19428.954546173307,79.0,40.0,39.0,0.5063291139240507,232.33936772762016,8844.41459924385,0.0,0.0,0.0,0.0,17191.0,17223.0,17275.0,17364.0,17379.0,17395.0,17408.0,17427.0,17638.0,17706.0,0.08194431270384475,-0.0946703922342059,0.057703989413892424,-0.08134431919486554,0.025513946929829938
18,18,18005.72601729957,2694.7931075748847,7.64389620259217,18143.45203459914,-4244.102954063838,15.28779240518434,18177.21895103985,31035.57830085905,9.39747463783126,18199.027373698995,-12299.136655273698,17.835731710962886,18458.73868412402,9961.18749352834,30.74081597471416,0.9063818051515228,66.0,37.0,167.0,283.0,450.0,29.0,799.0,790.0,29.0,25.0,4.0,0.8620689655172413,221.535828291974,1568.0593176326204,114.0,104.0,10.0,0.912280701754386,371.9263946911961,1245.7993626862562,18.0,10.0,8.0,0.5555555555555556,1652.639622444593,21907.44120209134,22.0,5.0,17.0,0.2272727272727272,1142.9610327811158,21007.65871475241,79.0,41.0,38.0,0.5189873417721519,221.0612095492531,10431.115120859304,0.0,0.0,0.0,0.0,17981.0,18010.0,18047.0,18152.0,18168.0,18184.0,18195.0,18214.0,18420.0,18497.0,0.08220884477893739,-0.08763368813545556,0.05324984140536697,-0.0929301840297083,0.022192254657677494
19,19,18837.246609001435,4867.020089963442,17.705958780314848,18985.178051898707,-4094.166203216226,22.93168860777651,19021.750937453085,31386.06884602872,9.423658924062067,19044.602712798853,-12783.144227802455,16.9310685242963,19304.148952313673,10466.94718024352,30.81697554494778,0.9204048409448652,130.0,97.0,105.0,283.0,388.0,33.0,826.0,844.0,47.0,27.0,20.0,0.574468085106383,600.4989786618368,4199.820038392256,85.0,72.0,13.0,0.8470588235294118,465.6521969280459,1400.0056008075812,18.0,11.0,7.0,0.6111111111111112,1669.1169896877452,21056.470869260753,20.0,6.0,14.0,0.3,1122.175070050232,20868.668837376536,79.0,41.0,38.0,0.5189873417721519,501.52219604692857,10765.737703961342,0.0,0.0,0.0,0.0,18823.0,18856.0,18953.0,18998.0,19012.0,19029.0,19040.0,19058.0,19276.0,19341.0,0.12338124099798967,-0.11373553827938071,0.05318018633923116,-0.08778552835299933,0.047914849230686604
20,20,19716.246609001435,4842.684879246317,19.162561315623417,19874.756393559353,-1849.4504826997936,0.9463964097639784,19902.00709734079,28153.316789655517,9.8017484387115,19925.45203459914,-10169.260202344143,9.302167136062524,20182.22594114437,10626.320416372497,36.22655274947891,0.936796998655678,172.0,139.0,63.0,284.0,347.0,33.0,879.0,881.0,51.0,20.0,31.0,0.392156862745098,444.2662365436352,5670.821408229062,2.0,1.0,1.0,0.5,709.4467804768593,5190.463603711553,21.0,12.0,9.0,0.5714285714285714,1629.1570526862038,25735.403547212256,18.0,5.0,13.0,0.2777777777777778,1164.8347969253855,15993.323013354611,85.0,40.0,45.0,0.4705882352941176,624.5867066202011,11412.427069650825,0.0,0.0,0.0,0.0,19702.0,19735.0,19874.0,19876.0,19891.0,19910.0,19922.0,19937.0,20155.0,20221.0,0.09173965426649397,-0.3835986889690726,0.05786732216520973,-0.114544693886078,0.058777326689478465
21,21,20561.43805141591,4322.092622946415,15.562036374884167,20713.150678199716,-1682.2356731260973,4.788954218080467,20745.009558677142,27449.094068920727,9.482898522507272,20768.45203459914,-10057.359374170092,10.586543152697317,21023.684833895823,10730.33695353792,35.968139219333416,0.9287743817648404,165.0,138.0,70.0,283.0,353.0,27.0,852.0,841.0,40.0,21.0,19.0,0.525,527.1550966782241,4322.537679854536,5.0,2.0,3.0,0.4,686.4007197901968,1638.5109188192032,18.0,10.0,8.0,0.5555555555555556,1613.9771892065771,24298.295785460352,18.0,4.0,14.0,0.2222222222222222,1045.765109809249,17424.460961545607,71.0,30.0,41.0,0.4225352112676056,497.9497722308063,11995.948507766796,0.0,0.0,0.0,0.0,20547.0,20574.0,20712.0,20716.0,20735.0,20753.0,20765.0,20782.0,20994.0,21065.0,0.12196756124093822,-0.4080288694120122,0.05879892375151299,-0.10398008770523257,0.04640579083274978
22,22,21482.150678199716,3175.63846847243,5.095930801728113,21630.027373698995,-4903.873853447636,17.8357578060484,21664.465180221727,31810.298654501425,9.176614928176084,21687.753390998565,-13604.291967825804,20.076537063191903,21952.657460196835,10465.386836871136,29.16161134405452,0.8703956624813142,143.0,138.0,79.0,282.0,361.0,5.0,919.0,921.0,19.0,9.0,10.0,0.4736842105263157,598.3531162751229,3123.7661161076653,79.0,67.0,12.0,0.8481012658227848,611.6236199589715,2874.69909508055,17.0,9.0,8.0,0.5294117647058824,1642.796184522413,19978.465536519245,20.0,6.0,14.0,0.3,1088.581223579606,21146.54763378117,84.0,47.0,37.0,0.5595238095238095,556.1038772045983,10210.659431457008,0.0,0.0,0.0,0.0,21480.0,21485.0,21623.0,21640.0,21655.0,21672.0,21682.0,21702.0,21913.0,21984.0,0.18841978462458522,-0.12472254349058624,0.051643532252406046,-0.0800174846404432,0.05313744115462226
23,23,22418.178051898707,3257.2255696990837,13.435331817616728,22570.150678199716,-3386.6751174890333,5.095930801710122,22599.525806304264,27598.921656560586,9.244904629073451,22622.027373698995,-11387.024931724967,13.901248822049428,22894.2054255977,9236.09678873096,29.51074787448716,0.9086865445677392,150.0,131.0,73.0,282.0,355.0,19.0,939.0,935.0,27.0,14.0,13.0,0.5185185185185185,540.7623746856169,2657.028904626069,12.0,9.0,3.0,0.75,755.819912750947,1586.3369490954983,18.0,11.0,7.0,0.6111111111111112,1661.6365494456318,22361.034139434847,23.0,6.0,17.0,0.2608695652173913,1119.7832686147622,18786.980042323696,71.0,43.0,28.0,0.6056338028169014,642.0107424926933,9658.868136470428,0.0,0.0,0.0,0.0,22412.0,22431.0,22562.0,22573.0,22589.0,22606.0,22618.0,22635.0,22851.0,22917.0,0.1660193201588967,-0.22317461419545048,0.06020657510184429,-0.09833852787087306,0.06951104532338986
24,24,23281.882650611744,3498.521053537791,14.785322857369918,23428.72601729957,-2432.684013304813,7.643896202585638,23463.56807914372,28372.437946398062,9.1681826353882,23486.602712798853,-11652.347789222518,11.39322012416059,23748.808138396547,10757.45435588356,31.3572770776822,0.9397737442347374,157.0,137.0,72.0,284.0,356.0,20.0,858.0,864.0,44.0,24.0,20.0,0.5454545454545454,504.8726949226792,1802.0700923688391,12.0,3.0,9.0,0.25,600.2711104077265,445.3773387393479,18.0,11.0,7.0,0.6111111111111112,1712.64777407284,23659.00838876871,18.0,6.0,12.0,0.3333333333333333,1134.6802263592667,18676.00728532338,85.0,46.0,39.0,0.5411764705882353,274.6773005234027,9789.137590012466,0.0,0.0,0.0,0.0,23270.0,23290.0,23427.0,23438.0,23453.0,23471.0,23482.0,23499.0,23710.0,23783.0,0.14431032061737614,-0.24675260211549435,0.06036308114616087,-0.0973778200654768,0.02553367101884786
25,25,24223.246609001435,4123.354688188516,20.636315655294936,24348.849321800284,-1583.0644683864691,5.095930801727768,24410.696360633778,28332.10857505696,9.374786216008976,24433.45203459914,-11460.392650009464,10.4191213463425,24693.800810680703,11289.20739997259,34.84893440420514,0.9513061120660616,137.0,98.0,99.0,291.0,390.0,39.0,939.0,947.0,46.0,20.0,26.0,0.4347826086956521,287.82667060049533,5028.860783191354,12.0,3.0,9.0,0.25,263.98655526722405,1343.8782669468346,18.0,10.0,8.0,0.5555555555555556,1687.8131433452509,24807.222997226138,19.0,5.0,14.0,0.2631578947368421,1156.9161792383711,19775.347421280894,90.0,45.0,45.0,0.5,274.2567407318771,11175.448521708206,0.0,0.0,0.0,0.0,24209.0,24248.0,24346.0,24358.0,24401.0,24419.0,24430.0,24445.0,24655.0,24736.0,0.06980400483736804,-0.16675666755144286,0.05957245077167214,-0.10094908739775296,0.02429371088820132
26,26,25097.424660900146,1639.5775522489746,2.5479654008640567,25256.45203459914,-4304.751817836345,15.28779240518434,25290.500725553975,27283.0036800042,9.498548933764903,25313.027373698995,-11662.83950420112,15.433419811092298,25571.713507247932,8682.093103357694,29.2978141164328,0.8677080153610276,49.0,38.0,183.0,279.0,462.0,11.0,878.0,879.0,11.0,1.0,10.0,0.0909090909090909,272.2947397720425,2996.669336048405,124.0,112.0,12.0,0.9032258064516128,386.4533547172294,1323.206352621895,17.0,10.0,7.0,0.5882352941176471,1609.1632464591444,21162.698001128647,21.0,5.0,16.0,0.238095238095238,987.2398806636104,19081.79152524434,78.0,38.0,40.0,0.4871794871794871,265.2672561777898,8204.857141719234,0.0,0.0,0.0,0.0,25096.0,25107.0,25145.0,25265.0,25281.0,25298.0,25309.0,25328.0,25540.0,25607.0,0.16607615748248164,-0.08977366665274297,0.058980428450350765,-0.08464832944910136,0.030553376129449812
27,27,26026.246609001435,3648.7355939533,14.321197700792371,26171.45203459919,-2484.878114397935,7.49562382666618,26205.80451837751,28988.207518520077,9.275230755554311,26228.027373698995,-12797.760469849794,11.0556188696911,26491.16300678336,10312.355502286047,30.32470016303778,0.9554052283147866,151.0,119.0,78.0,288.0,366.0,32.0,925.0,916.0,40.0,20.0,20.0,0.5,313.04382017369755,2516.519679091888,25.0,15.0,10.0,0.6,401.58533736784995,31.69104157862671,18.0,11.0,7.0,0.6111111111111112,1747.108033665299,23358.312866099914,18.0,5.0,13.0,0.2777777777777778,1201.4792823400733,20343.92517443502,77.0,38.0,39.0,0.4935064935064935,317.0290821358177,10608.011655921808,0.0,0.0,0.0,0.0,26012.0,26044.0,26163.0,26180.0,26195.0,26213.0,26224.0,26241.0,26454.0,26529.0,0.08579515070713128,-0.16161168430796483,0.060269612481182254,-0.09388199483578667,0.030742644788141617
28,28,26921.219235302444,4850.874464614829,23.906983399377577,27024.577335505488,-4101.064648989773,0.2666841760877709,27100.179121196405,29026.00365143615,9.668064511377882,27123.30135639943,-10008.137354561284,9.974015569986358,27381.260172995684,12285.156738416572,41.188293713646786,0.9397096521709006,127.0,80.0,110.0,290.0,400.0,47.0,892.0,894.0,47.0,24.0,23.0,0.5106382978723404,280.5424953635826,5151.837099651159,2.0,1.0,1.0,0.5,536.010614391797,977.491638555535,19.0,10.0,9.0,0.5263157894736842,1683.6238941744275,27053.813302352937,21.0,5.0,16.0,0.238095238095238,1148.117155431193,17853.08999655911,99.0,50.0,49.0,0.5050505050505051,420.76931168218096,12432.244721489848,0.0,0.0,0.0,0.0,26897.0,26944.0,27024.0,27026.0,27090.0,27109.0,27121.0,27134.0,27344.0,27424.0,0.057833386002879864,-0.13070035716794517,0.05800398547428437,-0.11471836514193422,0.03425021923948312
29,29,27752.72601729957,2253.8663149226127,7.643896202592159,27900.876695499283,-2890.522988418498,12.73982700265197,27934.61610687162,26653.214359911715,9.392094077495084,27959.178051898707,-10709.49154795454,13.83253429111325,28223.657460196835,10258.694147237184,29.19817252889294,0.9020055374714736,150.0,137.0,78.0,283.0,361.0,13.0,840.0,835.0,13.0,9.0,4.0,0.6923076923076923,367.1158619858048,2676.439332487216,123.0,113.0,10.0,0.91869918699187,472.3833809880646,109.32022799602952,18.0,11.0,7.0,0.6111111111111112,1559.7000488078238,21238.255522282227,20.0,6.0,14.0,0.3,947.2188783782256,16960.353062258095,72.0,41.0,31.0,0.5694444444444444,403.0481152506596,10270.171162804512,0.0,0.0,0.0,0.0,27744.0,27757.0,27894.0,27908.0,27924.0,27942.0,27954.0,27972.0,28183.0,28255.0,0.16288271383052721,-0.16342488292975707,0.05851827204578075,-0.08844667126696035,0.039288442511877235
30,30,28612.849321800284,2613.058061178731,5.095930801728113,28758.178051898707,-3508.6848873823233,22.93168860777651,28796.253190475203,30008.821293090587,9.558556956058707,28818.602712798853,-12744.72619710478,13.511805591647098,29079.431571995596,10061.47241092611,29.946312148688815,0.9068763910972087,144.0,138.0,80.0,284.0,364.0,6.0,858.0,862.0,19.0,10.0,9.0,0.5263157894736842,407.428883058364,2118.655190917671,120.0,106.0,14.0,0.8833333333333333,468.14160825958294,1129.5162092002065,18.0,10.0,8.0,0.5555555555555556,1701.704944374069,23079.500147541425,19.0,6.0,13.0,0.3157894736842105,1159.7970276101794,20296.23677318376,77.0,37.0,40.0,0.4805194805194805,370.2748721315704,10329.009610714957,0.0,0.0,0.0,0.0,28608.0,28614.0,28752.0,28771.0,28786.0,28804.0,28814.0,28832.0,29042.0,29116.0,0.15592033300422567,-0.1334236682077321,0.056706823895341735,-0.09100211410376557,0.03680126098934345
31,31,29499.27398270043,3335.9282365437953,7.64389620259217,29649.17805189912,-2838.936943470725,22.931688606725395,29686.75418260405,27081.071996863644,9.756235685542633,29710.027373699,-11897.14751362516,11.685587664833948,29970.49126640219,10330.824345968043,32.63751990062753,0.9154810394336182,150.0,143.0,79.0,288.0,367.0,7.0,886.0,890.0,26.0,5.0,21.0,0.1923076923076923,454.1368985691895,3835.775563545619,25.0,12.0,13.0,0.48,428.0006815983661,1256.9106330413515,18.0,11.0,7.0,0.6111111111111112,1600.2022550147744,22842.772241197265,19.0,5.0,14.0,0.2631578947368421,1069.433460102774,17659.959483778162,79.0,38.0,41.0,0.4810126582278481,300.3155110014801,11454.349179168406,0.0,0.0,0.0,0.0,29494.0,29501.0,29644.0,29662.0,29676.0,29694.0,29706.0,29723.0,29932.0,30011.0,0.13613509235429483,-0.15076089751930752,0.05908932464712252,-0.08988990502790772,0.029069849698750174
32,32,30318.27398270043,2246.8697887104076,7.64389620259217,30477.72601729957,-3395.8103045298353,7.64389620259217,30507.32765133121,29294.037718472617,9.377374546696906,30529.027373698995,-11786.095653379562,16.310871432779244,30789.908363135182,9945.165658536138,30.6306054162302,0.913947636979308,62.0,45.0,168.0,286.0,454.0,17.0,819.0,820.0,17.0,4.0,13.0,0.2352941176470588,308.35237378861723,3065.4073368970417,120.0,116.0,4.0,0.9666666666666668,516.3435562207875,1960.0173583605165,17.0,10.0,7.0,0.5882352941176471,1631.9729719115828,22505.84991885847,24.0,6.0,18.0,0.25,1101.7145288181223,18818.40247427812,79.0,39.0,40.0,0.4936708860759494,277.47003381015463,9761.85224788046,0.0,0.0,0.0,0.0,30314.0,30331.0,30376.0,30482.0,30497.0,30514.0,30525.0,30544.0,30759.0,30830.0,0.13723642346252574,-0.15205312132188653,0.05571007273205195,-0.09347578377256892,0.02789999114514462
33,33,31191.821948101293,3655.942367769154,14.738967762931813,31342.30135639943,-2374.681969645712,10.191861603315932,31374.858570505727,30038.93172829289,9.510477079812324,31395.876695499283,-12605.819067810036,12.625863668042426,31658.560590008765,10591.360763735667,31.487332910731535,0.948683593803198,149.0,118.0,83.0,286.0,369.0,31.0,871.0,867.0,33.0,14.0,19.0,0.4242424242424242,320.7615698108777,3564.3961440512016,20.0,14.0,6.0,0.7,509.46396580336057,1423.2269594528084,17.0,10.0,7.0,0.5882352941176471,1759.3234167759165,23793.83134183093,21.0,5.0,16.0,0.238095238095238,1245.534651777061,20888.20603144435,79.0,41.0,38.0,0.5189873417721519,335.5689665466599,11415.370593120166,0.0,0.0,0.0,0.0,31179.0,31210.0,31328.0,31348.0,31365.0,31382.0,31393.0,31411.0,31624.0,31697.0,0.0877370422025021,-0.2145398719978362,0.05856810863612887,-0.09880632468838405,0.03168327224728598
34,34,32057.821948101293,3551.2174350703995,13.58234572335879,32208.027373698995,-2509.6352244970485,17.83575780604099,32242.55503529634,28801.35662866403,9.620705806590516,32265.027373698995,-12296.313218707284,11.615034672949754,32525.969900424392,10350.835483056446,32.056866537699115,0.938693962603948,154.0,123.0,79.0,289.0,368.0,31.0,866.0,869.0,31.0,13.0,18.0,0.4193548387096774,302.746831556788,3987.245992906837,20.0,10.0,10.0,0.5,398.48177923029186,452.64304529136894,18.0,11.0,7.0,0.6111111111111112,1697.007042709199,23834.643431428703,19.0,5.0,14.0,0.2631578947368421,1129.3584062949317,19449.107828762793,79.0,38.0,41.0,0.4810126582278481,302.8234281473173,11428.419325341029,0.0,0.0,0.0,0.0,32045.0,32076.0,32199.0,32218.0,32232.0,32250.0,32261.0,32278.0,32488.0,32567.0,0.08525156149746892,-0.15878075639863196,0.0589210801626019,-0.09184528616079458,0.029255940609143768
35,35,32924.905548731935,3050.7971459201244,12.08320003775379,33072.87669549929,-3173.8706465562927,12.739827004320285,33106.55290725281,28260.73154899715,9.37390339767926,33129.60271279886,-12085.659930854994,15.282115500828192,33391.4899256516,9561.583751693122,28.87379707855513,0.9246267996932772,150.0,130.0,79.0,282.0,361.0,20.0,871.0,863.0,20.0,10.0,10.0,0.5,308.0026245684755,3621.923968197052,104.0,95.0,9.0,0.9134615384615384,423.44719509976255,130.07030015766736,18.0,11.0,7.0,0.6111111111111112,1602.998977132837,20691.634152154696,20.0,5.0,15.0,0.25,966.4367461835808,18717.39482971912,72.0,36.0,36.0,0.5,300.5096325028181,9814.75965897351,0.0,0.0,0.0,0.0,32915.0,32935.0,33065.0,33080.0,33096.0,33114.0,33125.0,33144.0,33355.0,33426.0,0.100958080736496,-0.13341665185983886,0.05672177927714402,-0.07996557504619532,0.031428855334724774
36,36,33712.273982700426,4289.970714483841,7.643896202578149,33873.575339099865,-2938.3800300470284,2.5479653994822327,33901.16375190087,26688.177642305433,9.340211118678246,33924.02737369953,-10598.090135024946,12.97317932999452,34182.617406946185,10256.47414681735,33.2185163794036,0.930302922833877,157.0,150.0,73.0,283.0,356.0,7.0,786.0,795.0,28.0,6.0,22.0,0.2142857142857142,491.5561678145387,4300.12707972066,11.0,10.0,1.0,0.9090909090909092,665.8771704222396,3432.358202990321,18.0,11.0,7.0,0.6111111111111112,1544.03912527768,22739.071887373026,22.0,5.0,17.0,0.2272727272727272,1055.0900960271197,16474.34528639192,79.0,37.0,42.0,0.4683544303797468,348.2613531008792,11751.629847121632,0.0,0.0,0.0,0.0,33707.0,33714.0,33864.0,33875.0,33890.0,33908.0,33920.0,33937.0,34147.0,34220.0,0.11458263949330515,-0.22661369993437586,0.057854797954810806,-0.09955473888075554,0.033955270409270905
37,37,34545.03109295202,3903.7072701952543,15.264987940511688,34691.72601729971,-2576.337066752289,7.643896122676246,34726.18718050788,28996.130888169217,9.229433027416032,34748.60271279913,-12170.916167380854,11.239765574984933,35011.808138396555,10825.385201153293,31.555442699218236,0.9435840468468888,157.0,131.0,71.0,285.0,356.0,26.0,832.0,826.0,43.0,24.0,19.0,0.5581395348837209,416.9722691223595,2994.970188700265,18.0,9.0,9.0,0.5,534.4664080623895,115.6161667163733,17.0,10.0,7.0,0.5882352941176471,1720.454025956273,24017.96630493283,19.0,6.0,13.0,0.3157894736842105,1150.7588771508676,19398.980674895407,79.0,40.0,39.0,0.5063291139240507,413.9084586931445,9796.871098944895,0.0,0.0,0.0,0.0,34533.0,34559.0,34690.0,34700.0,34716.0,34733.0,34744.0,34761.0,34973.0,35046.0,0.10681443055577872,-0.20745205080487927,0.05933391708678759,-0.09454989758577129,0.038234986654243804
38,38,35412.927420495376,3780.793660201516,14.247338718954756,35531.849321800284,-2723.8335120580664,5.09593080172764,35596.65712262156,31206.343441717097,9.120907860892846,35617.45203459929,-11847.077644164056,12.796295365431464,35880.5752749698,10642.569008214728,31.112207403055184,0.9475595764314182,131.0,98.0,103.0,285.0,388.0,33.0,871.0,868.0,33.0,15.0,18.0,0.4545454545454545,355.75395677215914,4353.292490831374,13.0,4.0,9.0,0.3076923076923077,391.17361812183384,1769.572877830591,18.0,11.0,7.0,0.6111111111111112,1772.263611433696,23742.446599769224,20.0,4.0,16.0,0.2,1341.982920940005,22148.03123723887,66.0,30.0,36.0,0.4545454545454545,366.99375917711353,11766.322227944744,0.0,0.0,0.0,0.0,35398.0,35431.0,35529.0,35541.0,35586.0,35604.0,35614.0,35632.0,35851.0,35917.0,0.09409504689901471,-0.14361142719999506,0.05679177423473806,-0.11327543899411127,0.03448356866597157
39,39,36324.246609001435,4734.875428877694,20.55235633838789,36476.1506782004,-1242.851564815012,4.0204101845693145,36507.581065474566,29111.558327622533,9.574345855062257,36530.45203459914,-11383.243651059704,9.88557266611772,36790.476631565805,11698.324743545954,36.4511963946817,0.9542089416071649,164.0,132.0,69.0,286.0,355.0,32.0,906.0,912.0,40.0,14.0,26.0,0.35,380.0387080213461,5105.348730119074,5.0,2.0,3.0,0.4,499.14439611715255,3157.8453376949046,19.0,11.0,8.0,0.5789473684210527,1724.1856706490253,25629.391391170662,18.0,4.0,14.0,0.2222222222222222,1156.163132152971,19607.044067027084,87.0,41.0,46.0,0.4712643678160919,344.2372618636634,12577.27957015676,0.0,0.0,0.0,0.0,36310.0,36342.0,36474.0,36479.0,36497.0,36516.0,36527.0,36543.0,36750.0,36829.0,0.08026371838708048,-0.40161223612527375,0.05922684217879982,-0.10156710754806166,0.029426201563910372
40,40,37172.273982700426,3222.8349372540692,7.64389620259217,37324.178051898714,-3493.311719799957,22.93168860777651,37362.28406113037,28155.00745136787,9.62692232432278,37385.027373699,-11380.319630432345,15.831409537030956,37647.23410708741,8949.892167296595,28.921110244404755,0.9137379580118276,150.0,130.0,82.0,285.0,367.0,20.0,851.0,856.0,20.0,4.0,16.0,0.2,323.8870187464209,3968.629088703076,119.0,105.0,14.0,0.8823529411764706,297.49759045425134,1528.7890178456116,17.0,10.0,7.0,0.5882352941176471,1562.3723045875538,21760.142549362965,24.0,6.0,18.0,0.25,1023.2992804169328,18557.960654648043,79.0,39.0,40.0,0.4936708860759494,237.34130093472456,8236.030680150081,0.0,0.0,0.0,0.0,37168.0,37188.0,37318.0,37337.0,37353.0,37369.0,37381.0,37400.0,37614.0,37685.0,0.10049755108537461,-0.08516205088943149,0.05549180930909852,-0.08991832511281206,0.02651890061893515
41,41,37987.821948101286,3625.477753029504,13.949239644442525,38139.84932180018,-2125.2606930312163,5.095930801727795,38173.76662070435,28402.313582043716,9.501948967610852,38196.027373700774,-11681.926519357086,10.980497965173498,38455.155761666065,10951.459691632404,34.68385943845995,0.9473701822425824,162.0,130.0,72.0,289.0,361.0,32.0,813.0,811.0,32.0,13.0,19.0,0.40625,334.17288151350294,4127.906165849701,11.0,3.0,8.0,0.2727272727272727,439.6367343410281,1406.986695693257,18.0,11.0,7.0,0.6111111111111112,1679.4729886031314,24106.86770708191,19.0,5.0,14.0,0.2631578947368421,1145.213133964272,18157.210227223975,85.0,42.0,43.0,0.4941176470588235,298.09314584058643,11379.105812719812,0.0,0.0,0.0,0.0,37975.0,38007.0,38137.0,38148.0,38163.0,38181.0,38192.0,38209.0,38418.0,38498.0,0.0921734745811812,-0.20686249728450165,0.05913155573582972,-0.09803289997301735,0.02721948984283329
42,42,38852.178051898714,2999.510916949767,12.216741141587969,39003.726017299574,-3800.450832370726,7.64389620259217,39033.39006146655,30663.03000887106,8.998054491963378,39055.027373699,-12817.888022641866,15.143148608028795,39317.459339376,10197.616292073102,30.177509781423545,0.922798260678456,104.0,77.0,126.0,288.0,414.0,27.0,872.0,859.0,31.0,18.0,13.0,0.5806451612903226,295.2678816239605,2496.9281440857685,100.0,96.0,4.0,0.96,554.6718258621885,1923.6555563694749,17.0,10.0,7.0,0.5882352941176471,1746.6871866996123,23443.185265612497,21.0,5.0,16.0,0.238095238095238,1222.6089270097443,20997.06739299014,80.0,40.0,40.0,0.5,308.63192202557826,9561.426211894926,0.0,0.0,0.0,0.0,38838.0,38865.0,38942.0,39008.0,39023.0,39040.0,39051.0,39068.0,39280.0,39356.0,0.0984386754372014,-0.14594895456552545,0.05696394603515314,-0.09538302447720674,0.030265104430874365
43,43,39756.81456346216,3473.164772066198,13.665448375421818,39900.17805189874,-2331.6729510518626,22.931688607560243,39937.73791324161,27814.333586957255,9.777696921857766,39961.027373699,-12320.121821943778,10.993753013412302,40223.356191712526,10297.13073572252,32.85344804589752,0.939244606257047,150.0,124.0,79.0,290.0,369.0,26.0,898.0,905.0,32.0,13.0,19.0,0.40625,309.0937317223418,2800.2841958406025,99.0,86.0,13.0,0.8686868686868687,334.65503426779804,452.7119627994831,19.0,11.0,8.0,0.5789473684210527,1655.7016300650298,23382.06825350025,19.0,6.0,13.0,0.3157894736842105,1123.892773073116,18855.682959943973,89.0,45.0,44.0,0.5056179775280899,271.8716538310748,9454.630959635817,0.0,0.0,0.0,0.0,39744.0,39770.0,39894.0,39913.0,39928.0,39945.0,39957.0,39973.0,40184.0,40263.0,0.0889948367000339,-0.14352571792576171,0.05952692071117693,-0.09122416071173202,0.026402661169281385
44,44,41416.246609001435,3683.5971918814103,15.235930120635102,41540.726017299574,-2542.759323179853,7.643896202592162,41599.09437263671,29622.6115490574,9.364452515582736,41619.87669551696,-12332.189724197036,11.944803906099748,41881.91163875912,11237.60378195294,33.16890617346859,0.9395199332915674,130.0,110.0,103.0,285.0,388.0,20.0,1658.0,1660.0,32.0,14.0,18.0,0.4375,415.22766432392103,3497.592381952554,14.0,9.0,5.0,0.6428571428571429,354.8240574598038,2836.934625797563,17.0,10.0,7.0,0.5882352941176471,1719.8167159955349,23295.69223617491,21.0,5.0,16.0,0.238095238095238,1251.330821935412,20733.392396508392,79.0,40.0,39.0,0.5063291139240507,461.7861872467139,12442.286696288367,0.0,0.0,0.0,0.0,41402.0,41422.0,41532.0,41545.0,41589.0,41606.0,41617.0,41635.0,41847.0,41920.0,0.11272341754388243,-0.13954291868098545,0.05805756569259201,-0.10146866452112482,0.041092940826790915
45,45,42269.0366814954,3662.857559478385,15.095019415761998,42419.15067819971,-2680.8416602286425,5.095930801703213,42451.19668148341,29027.080895595624,9.37001222787764,42472.87669549929,-11922.333938492256,12.185954540563417,42734.01320696693,10697.326974027395,32.863681066605075,0.9421936378753708,157.0,131.0,70.0,286.0,356.0,26.0,858.0,852.0,32.0,15.0,17.0,0.46875,399.48401668523496,4042.689615866211,14.0,9.0,5.0,0.6428571428571429,584.791183905247,1412.9400416637477,18.0,10.0,8.0,0.5555555555555556,1661.5486982526138,23138.734285642466,18.0,3.0,15.0,0.1666666666666666,1140.0225819675486,20451.803497880945,84.0,40.0,44.0,0.4761904761904761,370.4869895635089,11504.961301771224,0.0,0.0,0.0,0.0,42260.0,42286.0,42417.0,42422.0,42441.0,42459.0,42470.0,42487.0,42700.0,42773.0,0.10906348668991761,-0.2181371591544767,0.057241329372004685,-0.09562075578900621,0.0346336043072287
46,46,43144.251248811895,4288.465937581712,16.23633713752812,43292.03593791626,-2317.860658647596,5.576876713750461,43325.27027188343,28973.927347852547,9.532089641887117,43347.027373699,-11875.419055786771,11.309543599297678,43609.416011288056,10941.084614539384,34.145161734945304,0.9494560957261804,168.0,129.0,72.0,290.0,362.0,39.0,873.0,875.0,39.0,24.0,15.0,0.6153846153846154,312.78332566119144,3592.7753760473806,12.0,4.0,8.0,0.3333333333333333,461.7437849776682,1343.2678536093931,19.0,11.0,8.0,0.5789473684210527,1675.858711634873,24476.280995339697,20.0,5.0,15.0,0.25,1173.963253020289,19591.76638832758,86.0,42.0,44.0,0.4883720930232558,315.05445963933295,11147.445037181777,0.0,0.0,0.0,0.0,43120.0,43159.0,43288.0,43300.0,43315.0,43333.0,43343.0,43360.0,43571.0,43650.0,0.0729359473093009,-0.19921119212018645,0.05784023310043546,-0.09885657487162346,0.028795541825959694
47,47,43975.273982700426,3228.220799059151,7.64389620259217,44135.726017299574,-3622.5590281856153,7.6438962025921615,44165.0133250457,26855.415204284232,9.395610889785692,44187.60271279886,-11269.54843850526,15.279620443862076,44450.65898973848,8590.508200370072,27.87708939524208,0.9137630090345688,144.0,118.0,88.0,285.0,373.0,26.0,831.0,840.0,26.0,4.0,22.0,0.1538461538461538,341.55895060785247,3859.8885797713074,26.0,22.0,4.0,0.8461538461538461,537.8067682328891,1542.5990628404872,17.0,10.0,7.0,0.5882352941176471,1560.025477562371,21363.983008469677,23.0,6.0,17.0,0.2608695652173913,963.7444102967258,18458.13815451745,71.0,34.0,37.0,0.4788732394366197,287.6702550220047,9250.399730534547,0.0,0.0,0.0,0.0,43971.0,43997.0,44115.0,44140.0,44155.0,44172.0,44183.0,44203.0,44417.0,44488.0,0.10580408586283756,-0.14846045683408876,0.05808979178670456,-0.08551757113921703,0.03348698916434445
48,48,44762.60271279886,3277.4336104618646,15.642830744651812,44905.87669549929,-3109.985899580636,12.739827004320285,44938.89023182061,28116.844568749853,9.50177564419619,44961.45203459914,-11838.84271253491,14.61778611154792,45220.78950357849,9809.952330389917,31.54115851793224,0.931930299883316,151.0,119.0,84.0,284.0,368.0,32.0,792.0,774.0,39.0,27.0,12.0,0.6923076923076923,351.69292241132786,2450.667539797478,88.0,80.0,8.0,0.9090909090909092,495.4638263538015,1180.6403026259725,17.0,10.0,7.0,0.5882352941176471,1624.161809366878,22377.954025645304,23.0,6.0,17.0,0.2608695652173913,1051.207057666528,20094.084432961536,79.0,39.0,40.0,0.4936708860759494,284.7220229305929,9398.339988476226,0.0,0.0,0.0,0.0,44742.0,44774.0,44893.0,44913.0,44929.0,44946.0,44958.0,44977.0,45184.0,45261.0,0.10730741312003765,-0.15931384975752202,0.05776472553296518,-0.08879305884801689,0.029023792709834306
49,49,45601.178051898714,4189.112851967888,16.678110966402535,45745.30135639943,-2533.8587933038934,6.734529204317252,45778.42301004948,29896.915048346134,9.309331361050557,45800.02737369904,-12325.276697800386,11.980358631300357,46060.915241441755,10866.018000772354,33.51465794830575,0.9507248831683812,157.0,118.0,81.0,288.0,369.0,39.0,839.0,839.0,44.0,30.0,14.0,0.6818181818181818,363.2216818827614,2950.414558710719,87.0,80.0,7.0,0.9195402298850576,462.1783042643496,2000.2156837774835,18.0,10.0,8.0,0.5555555555555556,1748.05291887964,25060.850887591827,21.0,5.0,16.0,0.238095238095238,1196.7554122589536,21071.793668297894,84.0,40.0,44.0,0.4761904761904761,302.5076004926689,11048.495931978872,0.0,0.0,0.0,0.0,45575.0,45614.0,45732.0,45751.0,45768.0,45786.0,45796.0,45813.0,46022.0,46101.0,0.08670611051027988,-0.18240097099559216,0.05846934093544011,-0.09709765075477218,0.027839784590009586
50,50,46481.92823930409,4840.836913833657,19.01258947031277,46632.15067819971,-1245.399160582169,3.4185323404616383,46662.54644637647,29595.81003926002,9.71096562073905,46684.45203459914,-11608.80951243569,10.479817053250912,46945.1370428514,11372.091071828903,36.337321143879,0.9473962247215632,176.0,131.0,66.0,294.0,360.0,45.0,878.0,884.0,51.0,28.0,23.0,0.5490196078431373,292.10822284530803,4619.089212331675,11.0,8.0,3.0,0.7272727272727273,518.3263093782691,3882.318179806606,17.0,10.0,7.0,0.5882352941176471,1777.3514885352013,26192.796106859336,20.0,4.0,16.0,0.2,1238.0364741038911,19920.379222171683,92.0,45.0,47.0,0.4891304347826087,262.1384288496198,11105.978822167264,0.0,0.0,0.0,0.0,46455.0,46500.0,46631.0,46635.0,46653.0,46670.0,46681.0,46697.0,46906.0,46991.0,0.060342504415001164,-0.41619291692470267,0.060054159226507864,-0.10664629071376104,0.023051031441261725
51,51,47362.84932180029,3404.928637602097,5.095930801728113,47506.86313150503,-6009.800409544229,89.17878903024199,47549.61362114541,27625.97044342866,10.366451091218964,47572.753390998565,-10837.815167493727,11.233312220679352,47838.45736687356,7108.3438020789545,22.98300159616213,0.8317965059170389,43.0,39.0,185.0,282.0,467.0,4.0,879.0,887.0,4.0,3.0,1.0,0.75,394.97421575593495,1536.774066542443,126.0,105.0,21.0,0.8333333333333334,444.81923677306366,3629.3254806815926,16.0,9.0,7.0,0.5625,1576.60890949998,19261.77688084385,23.0,7.0,16.0,0.3043478260869565,1037.3802547417868,20731.839126607465,59.0,26.0,33.0,0.4406779661016949,353.9272653241161,6794.778503193226,0.0,0.0,0.0,0.0,47360.0,47364.0,47403.0,47527.0,47541.0,47557.0,47567.0,47588.0,47812.0,47870.0,0.11600073240715361,-0.07401564219447977,0.05706981091319473,-0.09571857784152298,0.04979039776053096
52,52,48158.34514563506,4570.793312578966,17.981280943581382,48310.575339099865,-2014.0539310512463,2.547965400863935,48338.88917398304,27719.89398436042,9.61739068915797,48361.45203459914,-10997.200016049846,11.086937437903504,48620.68483389583,10730.564160997095,35.86412171086078,0.9480809778126028,170.0,138.0,65.0,288.0,353.0,32.0,799.0,790.0,51.0,26.0,25.0,0.5098039215686274,414.7434976737906,4260.577989058911,3.0,2.0,1.0,0.6666666666666666,648.7961848097162,4237.176910882537,19.0,11.0,8.0,0.5789473684210527,1654.74627478362,24367.202024741942,22.0,5.0,17.0,0.2272727272727272,1135.5567998720426,17351.793556867324,84.0,43.0,41.0,0.5119047619047619,403.5356534535311,11114.062897310943,0.0,0.0,0.0,0.0,48139.0,48171.0,48309.0,48312.0,48328.0,48346.0,48358.0,48374.0,48583.0,48662.0,0.09073774929450508,-0.32213446462730694,0.05969525986344785,-0.10325872023922053,0.03760619175273951
53,53,49001.273982700426,3685.145670006297,7.64389620259217,49145.753390998565,-3017.532329289955,25.47965400864057,49187.340472698,30132.33333987433,9.590076981389194,49209.60271279886,-12749.253955340637,13.16767894243251,49471.406172155024,9927.560868234385,30.80081004133529,0.9233829477824488,143.0,119.0,84.0,284.0,368.0,24.0,839.0,848.0,32.0,11.0,21.0,0.34375,443.3586144259486,2877.8361793213485,115.0,98.0,17.0,0.8521739130434782,334.62256284552024,2057.6727666000324,18.0,10.0,8.0,0.5555555555555556,1733.3750490072011,23779.637390590768,19.0,5.0,14.0,0.2631578947368421,1106.3605834083812,20642.719225716333,79.0,41.0,38.0,0.5189873417721519,399.38557275623447,10966.183379024307,0.0,0.0,0.0,0.0,48997.0,49021.0,49140.0,49160.0,49177.0,49195.0,49205.0,49224.0,49436.0,49508.0,0.12030965777946873,-0.11089278467623215,0.05752541728036088,-0.08677845678530303,0.04022997975607125
54,54,49873.81156463123,4718.945227841787,17.59997812466321,50020.30135639943,-2090.251937251346,7.199628815579942,50053.99731424267,28152.878278381337,9.250163647685326,50077.027373699,-11623.807215384768,11.569422200230305,50338.162738365194,10726.726451959652,33.82433284589594,0.9537510828817686,163.0,130.0,72.0,289.0,361.0,33.0,878.0,867.0,52.0,26.0,26.0,0.5,330.29235738941657,3801.281279238245,11.0,2.0,9.0,0.1818181818181818,444.5553417315256,308.44794288088485,19.0,11.0,8.0,0.5789473684210527,1657.2644499933026,23595.5199366558,19.0,5.0,14.0,0.2631578947368421,1067.51512534528,18787.401498212897,79.0,38.0,41.0,0.4810126582278481,316.3877361479178,11600.36646105976,0.0,0.0,0.0,0.0,49855.0,49888.0,50018.0,50029.0,50043.0,50061.0,50073.0,50090.0,50300.0,50379.0,0.06999283556856964,-0.21268026777485494,0.0588666080109443,-0.09183868121387657,0.02949527403023476
55,55,51491.753390998565,4438.116732268305,17.963756490984,51638.30135639965,-2301.8331767708532,5.340371042330809,51670.36185125592,28889.080022804657,9.2587996976492,51693.60271279904,-11748.939381427035,11.162541881880312,51953.49055840959,10963.214286794171,33.95115854458209,0.9577631278638528,169.0,130.0,71.0,289.0,360.0,39.0,1618.0,1616.0,46.0,26.0,20.0,0.5652173913043478,329.51247749017574,3068.932394598536,9.0,3.0,6.0,0.3333333333333333,497.23398103041194,1375.358753400001,18.0,10.0,8.0,0.5555555555555556,1686.012759898532,24387.985347969938,18.0,5.0,13.0,0.2777777777777778,1050.758025458496,19043.735019249812,85.0,41.0,44.0,0.4823529411764706,342.9133687348311,10997.72543361106,0.0,0.0,0.0,0.0,51467.0,51506.0,51636.0,51644.0,51660.0,51678.0,51689.0,51707.0,51917.0,51996.0,0.07424601410196868,-0.21601651503171093,0.05836159401987242,-0.08943428775533184,0.031278542931327195
56,56,52344.821948101286,3734.7410598725537,14.743382433196112,52494.87669549929,-2275.7025675189534,12.739827003978856,52528.595050366916,28976.620513948168,9.545071473149363,52550.45203459914,-12211.599027681308,12.005401754289185,52812.69589266097,10458.757469937147,32.41783353194723,0.9440987998421428,150.0,119.0,83.0,289.0,372.0,31.0,845.0,858.0,39.0,20.0,19.0,0.5128205128205128,303.27028643797246,3356.3940964880003,22.0,14.0,8.0,0.6363636363636364,452.3386395443704,1071.7735751970183,18.0,11.0,7.0,0.6111111111111112,1732.330729692768,23170.79667828241,20.0,4.0,16.0,0.2,1184.9094645673852,20723.659055285036,83.0,41.0,42.0,0.4939759036144578,328.4891005167688,11041.594353062774,0.0,0.0,0.0,0.0,52332.0,52363.0,52482.0,52502.0,52518.0,52536.0,52547.0,52565.0,52772.0,52854.0,0.08120249344631175,-0.19876878727501063,0.05978373940670184,-0.09703147490197041,0.03140804263422153
57,57,53996.246609001435,4256.816276438452,20.964031070216063,54142.17415604359,-1361.64607653375,0.6219346247154055,54174.86448469853,28930.297950174012,9.710774663298125,54198.60271279886,-10574.515613673471,8.85132820958481,54458.68483389583,11467.763492988614,38.94461160465738,0.92610984568491,159.0,127.0,69.0,290.0,359.0,32.0,1651.0,1648.0,52.0,26.0,26.0,0.5,451.6966990750441,3667.8550041649182,2.0,1.0,1.0,0.5,588.2907209604649,2398.206798706402,20.0,11.0,9.0,0.55,1671.910527885081,25545.421743005663,17.0,5.0,12.0,0.2941176470588235,1137.3039557542618,17279.410571521217,87.0,45.0,42.0,0.5172413793103449,336.5179448824843,11698.246099737768,0.0,0.0,0.0,0.0,53982.0,54014.0,54141.0,54143.0,54164.0,54183.0,54194.0,54210.0,54415.0,54500.0,0.10611139164619171,-0.4320437822271972,0.0577909889059758,-0.1075513997334933,0.029344688272323654
58,58,54820.821948101286,4474.859731755034,17.419701427949235,54972.55467502483,-1746.6400533254698,5.0959308009583975,55005.759611732414,28997.278527375725,9.296516435853093,55029.027373699,-11188.143414869171,10.08323750859618,55288.59046117096,10964.973492142642,34.14893020752977,0.9563361072270962,163.0,131.0,71.0,285.0,356.0,32.0,825.0,830.0,40.0,20.0,20.0,0.5,466.1947198375509,3867.2978111112975,6.0,2.0,4.0,0.3333333333333333,514.0461474742395,1376.8627367339027,19.0,11.0,8.0,0.5789473684210527,1722.9100129291198,24728.795794913196,17.0,4.0,13.0,0.2352941176470588,1113.2896783042763,18616.71589145736,84.0,41.0,43.0,0.4880952380952381,419.07590670490447,11452.865416407018,0.0,0.0,0.0,0.0,54808.0,54840.0,54971.0,54977.0,54995.0,55014.0,55025.0,55042.0,55260.0,55327.0,0.10418085655943231,-0.2943057137018785,0.059416265954150026,-0.09950620375715791,0.03821950933171055
59,59,55719.821948101286,3713.266769924529,13.612773749938022,55871.30135639943,-2511.145206034624,10.191861603325062,55903.83103658337,28107.464817882425,9.32005076512312,55927.178051898714,-12425.514089466677,11.902784365722958,56188.79927794448,10103.265563329747,30.934570345602204,0.9411914544957865,162.0,130.0,71.0,287.0,358.0,32.0,899.0,897.0,39.0,20.0,19.0,0.5128205128205128,327.76650609638165,3196.44150604927,22.0,15.0,7.0,0.6818181818181818,515.4390552821901,507.8329117926585,17.0,10.0,7.0,0.5882352941176471,1681.8025776480242,22512.716785990327,19.0,5.0,14.0,0.2631578947368421,1092.0135687440434,19852.143538024407,75.0,37.0,38.0,0.4933333333333333,326.6846305374159,10895.817892579877,0.0,0.0,0.0,0.0,55707.0,55739.0,55869.0,55877.0,55894.0,55911.0,55922.0,55940.0,56152.0,56227.0,0.0882690435147603,-0.20526055364839907,0.05983473033035815,-0.0878847797267207,0.03233455841476961
60,60,57462.84768380509,3582.8347475080127,14.338254319842552,57614.726017299574,-2336.6839125800666,5.261151601547258,57645.13356386901,29799.966506504497,9.442344111234958,57666.45203459914,-12810.713289695306,11.81911559868768,57928.05078472292,10567.625433402138,32.134443257686335,0.9504401607821285,155.0,123.0,80.0,287.0,367.0,32.0,1742.0,1742.0,39.0,21.0,18.0,0.5384615384615384,258.70788531731415,3113.578861071005,21.0,17.0,4.0,0.8095238095238095,517.7656021204156,3333.0860801179606,17.0,10.0,7.0,0.5882352941176471,1778.8532390724342,24359.384760532444,22.0,5.0,17.0,0.2272727272727272,1287.4372116126476,21042.11536408052,82.0,40.0,42.0,0.4878048780487805,215.20299741340057,10405.828675414126,0.0,0.0,0.0,0.0,57445.0,57477.0,57600.0,57619.0,57635.0,57652.0,57663.0,57680.0,57890.0,57967.0,0.07220759637246864,-0.22158136123285965,0.05969312880550253,-0.10049691867261112,0.02036436650500378
61,61,58381.178051898714,3480.08838709907,15.112245962916552,58524.87669549929,-2089.0268445606284,6.466558838284516,58559.18567244793,29313.491651061493,9.614678675254437,58580.45203459914,-12294.156139395112,10.96709024038496,58843.13335762918,10911.689147958308,34.11065377676011,0.9422856214767046,157.0,119.0,81.0,292.0,373.0,38.0,927.0,914.0,40.0,26.0,14.0,0.65,251.28070577383588,2710.012520502859,20.0,13.0,7.0,0.65,374.20693735640145,1961.3679132010957,19.0,11.0,8.0,0.5789473684210527,1715.7293046251866,24246.267329274968,20.0,4.0,16.0,0.2,1271.6692426900256,21003.2568201214,84.0,41.0,43.0,0.4880952380952381,269.6598145987836,11396.334268841149,0.0,0.0,0.0,0.0,58356.0,58394.0,58513.0,58532.0,58548.0,58567.0,58577.0,58594.0,58803.0,58886.0,0.0722052654482429,-0.17912978874864866,0.058530362914411015,-0.1034368872715971,0.02471293041272531
62,62,59248.40143320798,2092.5427038604507,8.239100082132449,59398.45203459914,-3989.600842128432,15.28779240518434,59430.4330272362,29148.747760308877,9.485849766969675,59453.60271279886,-11726.63537773113,20.383723206803833,59719.83980434774,7794.530442462837,25.940808969230016,0.8834135757428635,67.0,50.0,165.0,284.0,449.0,17.0,865.0,871.0,25.0,12.0,13.0,0.48,261.1325349477811,2467.240194593198,104.0,95.0,9.0,0.9134615384615384,386.69434347678833,836.4250402791399,17.0,9.0,8.0,0.5294117647058824,1539.8977373977314,20603.723909600063,22.0,6.0,16.0,0.2727272727272727,987.198373006212,19885.46302072661,71.0,35.0,36.0,0.4929577464788732,186.8511880315066,7892.640342443047,0.0,0.0,0.0,0.0,59237.0,59254.0,59304.0,59407.0,59421.0,59438.0,59449.0,59469.0,59688.0,59753.0,0.12479197412125823,-0.09692557195032295,0.05282894997961359,-0.08418428144196423,0.023972090353715683
63,63,60060.12330450071,2790.4709415358043,11.644905626924604,60209.02737369901,-2697.4101133206827,17.835757803818627,60244.813482442485,27589.85447516332,9.593633880752211,60268.178051898714,-12019.088901570713,11.650276107446466,60528.17836776609,10732.21286862671,32.56402849113753,0.9338746175840188,149.0,123.0,79.0,288.0,367.0,26.0,808.0,815.0,26.0,7.0,19.0,0.2692307692307692,281.97713234588787,3445.648711068599,119.0,107.0,12.0,0.8991596638655462,325.109267960145,610.0336223201251,17.0,10.0,7.0,0.5882352941176471,1644.7802997978497,23043.99107963464,19.0,5.0,14.0,0.2631578947368421,1034.832911714752,18853.502293704652,83.0,41.0,42.0,0.4939759036144578,206.52384694794495,10948.162282797854,0.0,0.0,0.0,0.0,60053.0,60079.0,60202.0,60219.0,60235.0,60252.0,60263.0,60281.0,60491.0,60569.0,0.10105001566176311,-0.12052645104081519,0.059615403237392874,-0.08609911451603583,0.019243361036163614
64,64,60978.693917240686,3941.3735454358257,16.084492514036118,61130.575339099865,-2109.9600271421787,2.5479654005217953,61159.02668590515,29023.42824978061,9.391716504986194,61181.027373699,-11777.317652416325,11.15904989537067,61448.10949479597,11385.785767329571,33.90372043319179,0.9469994502381588,158.0,131.0,71.0,295.0,366.0,27.0,923.0,914.0,45.0,27.0,18.0,0.6,384.9184102821519,3495.6210398215517,10.0,9.0,1.0,0.9,617.6624684594343,4010.174328874594,19.0,11.0,8.0,0.5789473684210527,1738.368830165077,24602.846249595757,20.0,5.0,15.0,0.25,1186.4428680698222,18935.53551743665,79.0,38.0,41.0,0.4810126582278481,363.7404425633343,12044.961193445262,0.0,0.0,0.0,0.0,60964.0,60991.0,61122.0,61132.0,61148.0,61167.0,61177.0,61193.0,61410.0,61488.0,0.09766098184930826,-0.29273657344875065,0.059895365054892076,-0.10073965083436487,0.031946889744496415
65,65,61936.374949371464,3093.032634377681,12.77429515989106,62088.15067819971,-3036.725739105611,5.0959308006711765,62118.097677635225,29504.50879093551,9.261596397677966,62139.60271279887,-12418.478112208046,13.138341745426995,62403.112945413515,10549.715016875512,32.71760297475704,0.9303938713614048,155.0,130.0,74.0,290.0,364.0,25.0,958.0,959.0,33.0,19.0,14.0,0.5757575757575758,350.89437047467544,2600.5349291818347,24.0,20.0,4.0,0.8333333333333334,567.2322993563505,2398.3941507597765,18.0,11.0,7.0,0.6111111111111112,1746.2992602493357,23481.973231600463,22.0,6.0,16.0,0.2727272727272727,1144.971689820676,20291.54932509298,86.0,41.0,45.0,0.4767441860465116,361.8567499342728,10951.18178636052,0.0,0.0,0.0,0.0,61924.0,61949.0,62079.0,62091.0,62108.0,62125.0,62135.0,62153.0,62369.0,62443.0,0.11344670811896412,-0.18679075691682784,0.05918753884781978,-0.09219903433216232,0.03430014453996532
66,66,62839.131798027585,3555.705972906132,14.343357348898175,62986.726017299574,-2435.968901409341,7.643896191995107,63017.81795545087,26981.041956843987,9.435072345293484,63040.45203459914,-11064.59954611672,12.805488886709051,63305.10949479597,10110.448834045794,32.63301864580258,0.9395877739079336,156.0,125.0,76.0,290.0,366.0,31.0,899.0,899.0,33.0,17.0,16.0,0.5151515151515151,333.2082054405713,3011.687749387871,14.0,9.0,5.0,0.6428571428571429,548.4241440616122,1597.5033016136188,17.0,10.0,7.0,0.5882352941176471,1638.5897953879278,23091.757175720493,22.0,5.0,17.0,0.2272727272727272,1004.7215904557996,19040.164301511497,84.0,43.0,41.0,0.5119047619047619,235.47189313567543,10228.815087981806,0.0,0.0,0.0,0.0,62823.0,62854.0,62979.0,62991.0,63008.0,63025.0,63037.0,63055.0,63263.0,63345.0,0.09371084335419197,-0.22513593820689537,0.060731153304191966,-0.0908050568182037,0.023289954481817903
67,67,64412.30595822422,4668.281986574883,15.755746972047389,64557.027373699,-2103.972436844968,17.835757806043258,64592.04348343554,29128.33946346357,9.643228320438356,64614.45203459914,-12101.833292326572,12.024054775054385,64872.93183756296,10633.24049160989,32.843220828524444,0.936556407953543,153.0,109.0,84.0,286.0,370.0,44.0,1578.0,1575.0,48.0,23.0,25.0,0.4791666666666667,219.45851419333783,4583.016771099926,84.0,74.0,10.0,0.8809523809523809,347.52415648276076,10.413935864039331,18.0,10.0,8.0,0.5555555555555556,1696.8289494181436,24398.410736413996,21.0,5.0,16.0,0.238095238095238,1160.484580257888,19601.36333357515,83.0,40.0,43.0,0.4819277108433735,268.14267563998317,11148.773951663648,0.0,0.0,0.0,0.0,64390.0,64434.0,64543.0,64567.0,64582.0,64600.0,64611.0,64627.0,64837.0,64913.0,0.04701055223837377,-0.16517524203116177,0.05825354210618563,-0.09589328758922157,0.025217399705344756
68,68,65181.15996869512,4587.909557825049,15.352970577295018,65317.63008649785,-3504.022506647703,38.21948101296085,65363.81497588796,30767.502893090812,9.602658074169222,65386.027373699,-12434.375565697845,13.129911252680516,65645.54264883796,10363.745471098902,31.56552856515792,0.9327667332795868,109.0,71.0,126.0,283.0,409.0,38.0,766.0,772.0,39.0,16.0,23.0,0.4102564102564102,259.4825811440582,4689.704065230181,117.0,95.0,22.0,0.811965811965812,224.76907108350125,2834.333260241505,18.0,11.0,7.0,0.6111111111111112,1723.827533563954,23079.15881368119,20.0,5.0,15.0,0.25,1133.5874241801348,20289.077612784225,79.0,41.0,38.0,0.5189873417721519,207.45437483384595,11143.374856878956,0.0,0.0,0.0,0.0,65165.0,65203.0,65274.0,65339.0,65354.0,65371.0,65382.0,65400.0,65612.0,65683.0,0.05655791115182072,-0.06414601237779655,0.05602754112200177,-0.09116560925723619,0.020017316655679008
69,69,66229.54678863975,3510.4234640573686,12.664888703577414,66343.84932180027,-2015.372296565968,5.095930801728113,66407.58024073644,29483.18132775199,9.361389043226945,66428.87669549938,-12208.956750176469,11.067995897831038,66701.38347749642,11055.323593284638,34.46850592251526,0.9458034534642652,129.0,99.0,101.0,295.0,396.0,30.0,1043.0,1043.0,31.0,18.0,13.0,0.5806451612903226,262.81399057563584,2843.8398777329244,53.0,44.0,9.0,0.8301886792452831,232.47241972647035,990.62090447208,18.0,11.0,7.0,0.6111111111111112,1755.094567856018,23609.84350631681,19.0,4.0,15.0,0.2105263157894736,1222.1595161060325,20265.53277387619,83.0,47.0,36.0,0.5662650602409639,225.18631016656624,11705.265205837975,0.0,0.0,0.0,0.0,66212.0,66242.0,66341.0,66352.0,66397.0,66415.0,66426.0,66442.0,66655.0,66737.0,0.07486674848961779,-0.11534961561324655,0.05952866986589331,-0.10010351753341802,0.02036903834306141
70,70,67167.17805189872,2957.905656974653,10.425355603452076,67282.84932180027,-3654.2719586199223,5.095930801728113,67346.50925460637,29319.259525145226,9.066118498877744,67367.45203459915,-11812.580716427074,13.478884836858835,67642.08212109699,10383.249758211325,29.50697342256819,0.9171839552603523,127.0,100.0,103.0,289.0,392.0,27.0,946.0,938.0,30.0,16.0,14.0,0.5333333333333333,223.27550155022527,2415.6603027572023,20.0,11.0,9.0,0.55,530.5729266172773,1610.059490343359,17.0,11.0,6.0,0.6470588235294118,1696.4238917792472,21272.042239666443,21.0,4.0,17.0,0.1904761904761904,1224.6335715016176,21423.439071611756,83.0,52.0,31.0,0.6265060240963856,344.39520475004156,9679.480823738795,0.0,0.0,0.0,0.0,67153.0,67180.0,67280.0,67291.0,67336.0,67353.0,67364.0,67383.0,67601.0,67672.0,0.07548432149069674,-0.1451925123869692,0.05786039344971637,-0.10367197489694951,0.03316834447497379
71,71,68029.3264132338,2422.9736981159435,8.533982663816738,68170.60271279886,-3786.2350823628512,20.383723206912453,68206.13903217064,27317.30538603863,9.792866093780257,68229.027373699,-11669.133082031534,15.255533634252911,68491.31398591396,9384.426862238137,29.01515835882173,0.9133152881180904,70.0,51.0,152.0,283.0,435.0,19.0,860.0,861.0,25.0,14.0,11.0,0.56,333.0013576446934,2056.110102673423,111.0,100.0,11.0,0.9009009009009008,426.5476234528387,840.5710950826092,17.0,10.0,7.0,0.5882352941176471,1504.8078113617737,20872.574910617157,21.0,5.0,16.0,0.238095238095238,1043.2069100778383,18688.95569944924,67.0,31.0,36.0,0.4626865671641791,374.3651098934495,9388.615496640126,0.0,0.0,0.0,0.0,68021.0,68040.0,68091.0,68182.0,68196.0,68213.0,68225.0,68243.0,68461.0,68526.0,0.1374349865636712,-0.11265745897284483,0.0550862462492678,-0.08939883560709391,0.03989216554074837
72,72,68871.23214593974,3136.775466377464,10.595497152020158,69011.30135639943,-2502.1469721257095,10.191861601788602,69045.21792356136,27700.15689333275,9.555083723217408,69068.027373699,-12004.063561936033,11.791840141287036,69330.25136968956,10310.616241899992,31.765801619547844,0.9445066013577494,150.0,130.0,72.0,286.0,358.0,20.0,838.0,839.0,31.0,17.0,14.0,0.5483870967741935,335.5435883350461,1877.5871865167856,11.0,2.0,9.0,0.1818181818181818,493.8541195580285,20.46235535225128,18.0,10.0,8.0,0.5555555555555556,1621.7033511869283,23270.29490761118,19.0,5.0,14.0,0.2631578947368421,1115.9227404728838,18932.807931810163,78.0,38.0,40.0,0.4871794871794871,361.49679227867693,10404.037259219334,0.0,0.0,0.0,0.0,68859.0,68879.0,69009.0,69020.0,69035.0,69053.0,69064.0,69081.0,69299.0,69367.0,0.10697086607941113,-0.19737214682416224,0.05854491573573946,-0.09296208194126775,0.035060638840347526
73,73,69752.30135639943,3381.87787102129,10.191861603385512,69897.57533909987,-2416.846386455151,2.547965400863188,69925.58792877568,29579.943900978004,9.32630737955814,69947.45203460036,-11839.87649082364,11.474305133344927,70210.5341557033,11008.33885892747,33.14034080984973,0.9473820948456132,150.0,130.0,72.0,289.0,361.0,20.0,885.0,881.0,30.0,19.0,11.0,0.6333333333333333,355.6675153140157,2505.450302151459,11.0,10.0,1.0,0.9090909090909092,575.791389743148,4500.407366870442,18.0,11.0,7.0,0.6111111111111112,1756.122510489726,24307.449454339963,20.0,4.0,16.0,0.2,1217.996810347029,19881.999429629,82.0,41.0,41.0,0.5,203.4316397194388,10954.02430737555,0.0,0.0,0.0,0.0,69738.0,69758.0,69888.0,69899.0,69915.0,69933.0,69944.0,69960.0,70172.0,70249.0,0.10516864561008171,-0.23824078889336267,0.05936868968949137,-0.10287242534084061,0.018479776315611977
74,74,70699.0273737823,3660.551015110197,12.038951248943764,70837.82206198141,-2170.4099688932024,7.643896202591476,70874.57221090632,29661.418413453197,9.31093931805006,70896.45203459915,-12009.175762466846,11.812676510857848,71160.1734384417,11190.696851385215,33.706115892313356,0.9510494643560842,150.0,125.0,76.0,292.0,368.0,25.0,948.0,948.0,33.0,16.0,17.0,0.4848484848484848,269.59135858166155,3444.003414527014,22.0,11.0,11.0,0.5,295.27519294351924,92.2942086311548,18.0,11.0,7.0,0.6111111111111112,1750.4418356864614,23873.76187524638,19.0,4.0,15.0,0.2105263157894736,1197.7165886690163,21254.234313422796,86.0,43.0,43.0,0.5,247.53800072103456,11181.640487894396,0.0,0.0,0.0,0.0,70684.0,70709.0,70834.0,70847.0,70864.0,70882.0,70893.0,70910.0,71122.0,71202.0,0.07364775343078937,-0.13604581492688886,0.05901409741391643,-0.09973345484811101,0.022119980909892454
75,75,71668.9051555214,3305.298371980945,11.992041168212811,71814.15067819973,-2319.877300945852,4.964780967031148,71843.81979418869,28541.299946003302,9.468465676607634,71866.027373699,-12193.648155480993,11.28242123251246,72130.3727820998,11278.017283095456,34.41301335033504,0.9491876574960616,147.0,119.0,80.0,295.0,375.0,28.0,963.0,970.0,29.0,17.0,12.0,0.5862068965517241,218.24168549843017,2738.3124486672077,20.0,16.0,4.0,0.8,478.7142402692943,3125.0777590002,18.0,11.0,7.0,0.6111111111111112,1735.282724831554,23925.01463443324,19.0,5.0,14.0,0.2631578947368421,1143.7520383710885,19670.504861001384,87.0,43.0,44.0,0.4942528735632184,228.7562709582228,12016.461271488744,0.0,0.0,0.0,0.0,71652.0,71680.0,71799.0,71817.0,71833.0,71851.0,71862.0,71879.0,72088.0,72174.0,0.06602783196472295,-0.20635325845643418,0.06079900803798355,-0.09379900287322764,0.02028337652054356
76,76,72588.5461758037,3906.711969325038,13.957259151382594,72726.84932180027,-2426.4324275034155,5.095930801728113,72760.34297679187,25393.888282377626,9.395363413804906,72784.38439879473,-10784.784738949038,11.289019907553682,73047.72493332541,10371.083353939175,32.64177470186503,0.9557012473418152,154.0,118.0,73.0,292.0,365.0,36.0,926.0,916.0,36.0,19.0,17.0,0.5277777777777778,221.5858290895921,4094.0112825729807,11.0,3.0,8.0,0.2727272727272727,395.7449124858545,922.4305335012434,18.0,10.0,8.0,0.5555555555555556,1483.3847273514757,22259.562405709752,20.0,5.0,15.0,0.25,984.355308128368,16535.06799909721,83.0,41.0,42.0,0.4939759036144578,223.47513450226705,10844.387690817208,0.0,0.0,0.0,0.0,72570.0,72606.0,72724.0,72735.0,72750.0,72768.0,72780.0,72797.0,73008.0,73089.0,0.056719264391501954,-0.16309743803294002,0.05841502927225553,-0.09127259671427546,0.021547906508473495
77,77,73428.51689044423,2484.4111881722492,6.874701354273795,73571.30135639943,-3729.391165538649,10.191861603427316,73602.59263094731,26545.48783830926,9.476239133711482,73625.58703353704,-11896.388465048389,15.287792392803135,73890.27619973719,9319.102884813734,29.46828678083644,0.9153625700878,134.0,118.0,86.0,286.0,372.0,16.0,840.0,842.0,17.0,9.0,8.0,0.5294117647058824,260.43969438853105,2396.0669090970946,107.0,100.0,7.0,0.9345794392523364,450.5135547694692,390.2483292062843,16.0,10.0,6.0,0.625,1616.6850590349834,21004.743353562895,21.0,6.0,15.0,0.2857142857142857,934.5896938313364,19236.755954819273,74.0,37.0,37.0,0.5,212.66450116344947,9602.689722214858,0.0,0.0,0.0,0.0,73421.0,73437.0,73555.0,73577.0,73593.0,73609.0,73621.0,73641.0,73853.0,73927.0,0.10482954497565813,-0.12080083176375518,0.06090244296440678,-0.07856079150215736,0.022820276135163638
78,78,74243.27398270041,3295.688596395142,7.64389620259217,74388.17805189872,-3046.299480946533,22.93168860777651,74426.29342518066,28549.115630028973,9.746860104428787,74448.60271279886,-12832.07159171386,12.564015829397247,74710.93002832533,10376.21270953458,32.52399567275647,0.9215403111196389,143.0,119.0,80.0,288.0,368.0,24.0,811.0,825.0,30.0,10.0,20.0,0.3333333333333333,362.7156688559753,3816.3408857990735,99.0,86.0,13.0,0.8686868686868687,385.4199008978432,995.0090992502004,18.0,10.0,8.0,0.5555555555555556,1650.6475066370065,22911.396380768565,22.0,6.0,16.0,0.2727272727272727,1130.854155600535,19690.155600132188,80.0,40.0,40.0,0.5,317.264581775268,9760.42813669111,0.0,0.0,0.0,0.0,74239.0,74263.0,74382.0,74401.0,74416.0,74434.0,74444.0,74462.0,74672.0,74750.0,0.11005762779065881,-0.126520686264926,0.05781781572599037,-0.08812717007679173,0.030576144751132302
79,79,75082.69864360057,2940.415894315259,10.191861603456228,75209.30135639943,-3436.265677578724,10.191861603456228,75269.09981778944,30849.104775124983,8.888517672329247,75291.027373699,-12286.148912666791,14.362699679065264,75554.25662450155,10487.625479967535,30.159225072626658,0.927617464988756,124.0,110.0,104.0,285.0,389.0,14.0,839.0,841.0,32.0,12.0,20.0,0.375,382.7551257300698,2334.160828005862,103.0,68.0,35.0,0.6601941747572816,370.2367516340746,2342.684570866343,17.0,10.0,7.0,0.5882352941176471,1763.6801309293876,23576.159919242207,19.0,4.0,15.0,0.2105263157894736,1159.9516277685284,21929.195631773782,82.0,41.0,41.0,0.5,339.4495732569172,11045.08147241462,0.0,0.0,0.0,0.0,75077.0,75091.0,75201.0,75215.0,75259.0,75276.0,75287.0,75305.0,75518.0,75590.0,0.1301704042853444,-0.10774392505498946,0.05717119325781933,-0.09441132742357045,0.032366675746125895
80,80,75977.34182103524,2836.7119654282187,11.343362221632312,76128.30135639943,-2386.3310924514412,10.191861602658788,76161.64373096218,29665.993615002895,9.271465427945566,76183.45203459915,-12069.085780065352,12.451645988994285,76446.72056639993,10678.156110627808,31.765223180466723,0.933198706559842,156.0,137.0,72.0,290.0,362.0,19.0,899.0,893.0,28.0,15.0,13.0,0.5357142857142857,375.3812147923163,2526.230715418085,117.0,108.0,9.0,0.9230769230769232,441.7572837476472,1151.10724721542,18.0,11.0,7.0,0.6111111111111112,1718.8183604073786,23082.831528626844,20.0,4.0,16.0,0.2,1179.0795942537914,21246.4613048548,79.0,38.0,41.0,0.4810126582278481,353.8850582519866,10922.814469128136,0.0,0.0,0.0,0.0,75970.0,75989.0,76126.0,76135.0,76151.0,76169.0,76180.0,76198.0,76409.0,76488.0,0.13232968992523367,-0.1851198625140641,0.05793901201199361,-0.09769419289415365,0.0331410268388725
81,81,76913.75339099858,3784.766578494907,15.374780649884569,77061.72601729959,-1912.3813540972797,4.828277887824287,77093.42333540804,29047.209748670197,9.35140255835195,77115.60271279886,-11883.603585504385,11.02905004190349,77379.34050354335,11058.31029719194,34.04142668154513,0.9483067024321024,163.0,130.0,71.0,290.0,361.0,33.0,938.0,932.0,39.0,25.0,14.0,0.6410256410256411,246.33693771009015,3024.992438566401,8.0,4.0,4.0,0.5,478.7882088347856,2624.863776362943,18.0,10.0,8.0,0.5555555555555556,1692.5773281929598,24509.912371787323,18.0,5.0,13.0,0.2777777777777778,1109.5058472794992,19389.011461314854,86.0,43.0,43.0,0.5,183.115904180491,11237.289269775458,0.0,0.0,0.0,0.0,76895.0,76928.0,77058.0,77066.0,77083.0,77101.0,77111.0,77129.0,77340.0,77419.0,0.06508642807981338,-0.2503623076061588,0.05826987661940394,-0.093364427658364,0.01655912153477824
82,82,77787.82194810128,2383.0036306978755,11.200696455868329,77936.87669549929,-3817.596029064236,12.739827004320285,77969.13245287204,27121.05694559625,9.592784407655529,77992.027373699,-11521.682689105648,15.783564739907996,78257.28581172325,9571.168866520822,28.900986614080377,0.9109008728708912,142.0,118.0,90.0,286.0,376.0,24.0,866.0,876.0,32.0,14.0,18.0,0.4375,241.0829581276249,2489.479645181855,108.0,100.0,8.0,0.925925925925926,454.3389967294337,753.7555823213852,17.0,10.0,7.0,0.5882352941176471,1549.9592060862642,21920.067561088457,22.0,6.0,16.0,0.2727272727272727,982.4733766822296,19140.551897731268,74.0,38.0,36.0,0.5135135135135135,222.5707367752552,10264.44835133452,0.0,0.0,0.0,0.0,77775.0,77799.0,77917.0,77944.0,77959.0,77976.0,77988.0,78007.0,78221.0,78293.0,0.10116768393551395,-0.11901180566787226,0.057149660840852184,-0.08527169192145947,0.023254290032828667
83,83,78603.69864360057,2144.872854023836,9.944345524628462,78755.87669549929,-3497.917438859107,12.739827004320285,78788.59898392438,28279.41184519615,9.590926282010146,78811.027373699,-11794.683390116315,15.670896934634298,79075.81734869549,9309.624054513024,29.4742646065875,0.9200785604069096,102.0,90.0,130.0,286.0,416.0,12.0,818.0,819.0,12.0,10.0,2.0,0.8333333333333334,277.8803136005985,2103.407343786843,102.0,94.0,8.0,0.9215686274509804,450.2719422320701,943.6631951538066,17.0,10.0,7.0,0.5882352941176471,1610.69906631391,21883.911427369225,22.0,6.0,16.0,0.2727272727272727,1034.832751921704,19547.872415179292,78.0,38.0,40.0,0.4871794871794871,240.04736868789436,9521.306467869374,0.0,0.0,0.0,0.0,78594.0,78606.0,78696.0,78763.0,78779.0,78796.0,78807.0,78826.0,79040.0,79112.0,0.12955561122389514,-0.1287257204043479,0.056956597086637105,-0.08773722173745425,0.025784861696055993
84,84,79469.972626301,2876.1778471017706,11.06511147904127,79622.30135639943,-2582.8822314850954,10.191861603113097,79654.36570495326,29292.792939382703,9.390775740077832,79676.027373699,-12737.972013264964,12.293510437178114,79941.73073367562,10259.980971421428,30.46114130949245,0.9331717672678888,149.0,125.0,81.0,292.0,373.0,24.0,865.0,866.0,27.0,12.0,15.0,0.4444444444444444,240.22446227981283,2494.854560520873,115.0,108.0,7.0,0.9391304347826088,439.2778702693208,1340.1554668263634,17.0,9.0,8.0,0.5294117647058824,1745.4248908711447,24438.375944460877,21.0,5.0,16.0,0.238095238095238,1190.6126573361214,21114.86219041818,78.0,38.0,40.0,0.4871794871794871,260.64187068289715,10907.226202115811,0.0,0.0,0.0,0.0,79460.0,79484.0,79609.0,79628.0,79645.0,79662.0,79672.0,79690.0,79905.0,79982.0,0.08352211686835675,-0.17007274467049413,0.05958547191054998,-0.09346956141026617,0.02540373821441772
85,85,80388.39728720114,3482.111081036003,14.465839573533897,80540.45203459915,-2699.3245107747,15.287792404943456,80574.88658144872,29292.76705152516,9.479370647330038,80596.45203459915,-12960.69172802511,11.74284876989372,80862.78120374295,11040.161359902557,32.2105282186042,0.9410410428831828,148.0,115.0,85.0,292.0,377.0,33.0,918.0,921.0,33.0,11.0,22.0,0.3333333333333333,249.66779155189323,3608.4438073389474,97.0,87.0,10.0,0.8969072164948454,333.7538704187619,123.0257264283914,18.0,11.0,7.0,0.6111111111111112,1715.479689593154,23259.41295301422,20.0,4.0,16.0,0.2,1248.6931030304354,21905.54171529248,80.0,40.0,40.0,0.5,333.9741558485493,10612.335692213768,0.0,0.0,0.0,0.0,80377.0,80410.0,80525.0,80549.0,80565.0,80582.0,80593.0,80610.0,80824.0,80902.0,0.07170012263871023,-0.1236434778725346,0.05856325169198503,-0.0963446341625707,0.030250840088400396
86,86,81341.39728720114,3920.4536976123313,17.04571163033123,81462.84932180027,-2260.6400782167907,5.095930801728105,81524.70893999407,28265.56404759999,9.305703264984825,81547.45203459915,-11310.004263025328,10.876067054751571,81811.60825440801,11301.411725177795,34.3429450913853,0.946002679354836,130.0,99.0,99.0,294.0,393.0,31.0,953.0,950.0,40.0,19.0,21.0,0.475,442.51302184430216,3845.416417729662,20.0,11.0,9.0,0.55,358.19259474689693,1008.1548924538664,18.0,10.0,8.0,0.5555555555555556,1685.4614031643732,24495.055313423974,22.0,6.0,16.0,0.2727272727272727,1146.359183249948,19936.996022548326,83.0,42.0,41.0,0.5060240963855421,321.9798761061666,11735.557501183332,0.0,0.0,0.0,0.0,81330.0,81361.0,81460.0,81471.0,81515.0,81533.0,81544.0,81559.0,81774.0,81853.0,0.11287291114133174,-0.15844742301014225,0.0596294982943206,-0.1013579797664291,0.02849023501982901
87,87,82212.56429416117,3089.301615237107,13.708548340526116,82358.027373699,-2349.2008222904115,17.835757806044505,82392.5998792366,26152.493605569092,9.587313676954482,82416.60271279886,-11038.234084509128,12.939512038132705,82679.68904938734,9762.557531868397,31.86331838321084,0.9369491657909768,150.0,130.0,79.0,289.0,368.0,20.0,873.0,868.0,28.0,12.0,16.0,0.4285714285714285,350.28934191674296,2079.3547768394637,98.0,87.0,11.0,0.8877551020408163,399.0433486876812,6.423026554752369,18.0,11.0,7.0,0.6111111111111112,1529.8817397805433,21227.456157470384,19.0,6.0,13.0,0.3157894736842105,979.6248213294446,17332.46563113106,80.0,40.0,40.0,0.5,387.6372482901032,8970.879641344509,0.0,0.0,0.0,0.0,82201.0,82221.0,82351.0,82368.0,82382.0,82400.0,82412.0,82430.0,82641.0,82719.0,0.113387873877073,-0.16986344670977258,0.05849850354058627,-0.0887483282044393,0.03970652639174928
88,88,83005.85739748855,2797.497131198082,11.631818740294657,83157.72601729959,-3658.5002055588216,7.64389620259217,83188.2532543958,27320.216315807585,9.27181146922719,83210.60271279886,-11613.91414991391,16.275453476050263,83477.80813839656,9074.064879396468,28.94052518022342,0.909299241758097,75.0,50.0,157.0,286.0,443.0,25.0,798.0,795.0,27.0,13.0,14.0,0.4814814814814814,336.94031846492396,2656.067771105292,113.0,108.0,5.0,0.9557522123893806,528.1478849646494,1110.0143876045008,16.0,9.0,7.0,0.5625,1612.8613205149668,21385.83363137711,22.0,6.0,16.0,0.2727272727272727,986.8687390591203,19616.343577207794,79.0,43.0,36.0,0.5443037974683544,203.85054769731843,8440.636522495846,0.0,0.0,0.0,0.0,82994.0,83019.0,83069.0,83162.0,83179.0,83195.0,83206.0,83226.0,83439.0,83512.0,0.12044349025681494,-0.14436185739778493,0.05903545205759439,-0.08497296659166674,0.02246518516306629
89,89,83786.72601729959,2522.068134847029,7.64389620259217,83923.027373699,-3774.779110926755,17.8357578060484,83958.09505221453,29580.19494474002,9.644121465583972,83980.60271279886,-12092.934441858555,16.39271400238204,84243.94610777704,9587.408405724307,29.337745257250596,0.900987824735857,56.0,30.0,174.0,286.0,460.0,26.0,779.0,770.0,28.0,23.0,5.0,0.8214285714285714,256.6546103230572,1462.8874697631663,120.0,109.0,11.0,0.9083333333333332,343.388249162519,981.183676086604,17.0,10.0,7.0,0.5882352941176471,1612.5906858316189,21592.7335829208,21.0,6.0,15.0,0.2857142857142857,1058.534101390593,19404.124820177774,78.0,39.0,39.0,0.5,222.85710616274457,9809.444201334063,0.0,0.0,0.0,0.0,83765.0,83791.0,83821.0,83933.0,83948.0,83965.0,83976.0,83995.0,84210.0,84281.0,0.10176355141913092,-0.09096909754759476,0.05451589108334702,-0.08753327047954355,0.023244770299936775
90,90,84610.027373699,4118.9914234815815,17.8357578060484,84741.73982698047,-2414.4981143330197,76.4389620259217,84784.6296985571,29861.73148589807,9.920027688778402,84806.45203459915,-11760.167359549749,10.369266778482682,85070.60362945685,10731.307288669002,32.506117991155634,0.9468526363711334,94.0,54.0,146.0,290.0,436.0,40.0,825.0,827.0,41.0,30.0,11.0,0.7317073170731707,232.7311214410196,2496.643510944901,100.0,83.0,17.0,0.83,204.65248144064708,2117.0264553262086,17.0,10.0,7.0,0.5882352941176471,1757.789624655622,24082.104129338662,22.0,5.0,17.0,0.2272727272727272,1255.1098569896924,20864.004787465776,80.0,40.0,40.0,0.5,210.11335323558427,11691.448769989143,0.0,0.0,0.0,0.0,84580.0,84620.0,84674.0,84759.0,84775.0,84792.0,84803.0,84820.0,85036.0,85110.0,0.05650196796095861,-0.08475984314329449,0.05886429008598252,-0.10672550981772301,0.01957947411099105
91,91,85501.17805189872,3097.606368418093,12.091671043626413,85643.17805189872,-3725.235204044887,22.931688607774465,85680.24829437325,31540.399943975932,9.569600580871288,85701.45203459915,-13295.581879474386,14.878315767331888,85968.35474002724,10445.436190117249,30.55978202031653,0.917572707452269,66.0,39.0,164.0,290.0,454.0,27.0,892.0,895.0,32.0,18.0,14.0,0.5625,261.0451444752541,2020.3526577298744,111.0,98.0,13.0,0.8828828828828829,319.1418232364667,1976.8625382634768,17.0,10.0,7.0,0.5882352941176471,1713.1496928336578,22761.522306683604,23.0,5.0,18.0,0.217391304347826,1275.78853861204,22945.838155173205,78.0,39.0,39.0,0.5,196.37820456696912,10730.96571618688,0.0,0.0,0.0,0.0,85487.0,85514.0,85553.0,85656.0,85670.0,85687.0,85698.0,85717.0,85929.0,86007.0,0.08427318174987045,-0.08567024785171691,0.05431604215154733,-0.09595582579064044,0.018800383343758168
92,92,86395.17805189872,3516.472972114703,13.473745795007709,86544.30135639943,-3254.4389495120613,10.191861603456225,86575.0400576448,28054.490755701143,9.48596739196523,86597.027373699,-12399.457838518589,14.934658447019698,86863.14835563191,9637.564829400157,30.483997788591346,0.9249998713100248,89.0,56.0,148.0,292.0,440.0,33.0,894.0,895.0,38.0,21.0,17.0,0.5526315789473685,258.027257673098,2737.897852698887,106.0,100.0,6.0,0.9433962264150944,475.8853841962113,1733.7722546890634,17.0,10.0,7.0,0.5882352941176471,1632.5480113139008,21845.015417225724,23.0,5.0,18.0,0.217391304347826,1058.9033245405944,19865.993498241827,82.0,41.0,41.0,0.5,214.94547374004787,10143.736707717086,0.0,0.0,0.0,0.0,86375.0,86408.0,86464.0,86550.0,86565.0,86582.0,86593.0,86612.0,86825.0,86904.0,0.07337672142491344,-0.14622655135920154,0.058192038683936534,-0.08539916328044111,0.02230288226797081
93,93,88000.90542219639,3563.440336446876,14.250382101423082,88150.72601729959,-2763.4321634088274,7.643896193386712,88182.74394617893,27886.250550526776,9.557816620809469,88204.45203459915,-11991.243040013847,12.161921964230508,88469.10949479598,10245.976540494356,32.84501386923125,0.9350626453919252,156.0,125.0,77.0,290.0,367.0,31.0,1603.0,1606.0,33.0,16.0,17.0,0.4848484848484848,389.90553308789106,3763.836424768096,14.0,9.0,5.0,0.6428571428571429,527.1951684930224,874.5507652564102,18.0,11.0,7.0,0.6111111111111112,1656.558353064287,21906.772221656705,21.0,5.0,16.0,0.238095238095238,1138.6784938956578,19948.74408967472,79.0,38.0,41.0,0.4810126582278481,339.8197143683848,10478.160675045669,0.0,0.0,0.0,0.0,87986.0,88017.0,88142.0,88155.0,88172.0,88190.0,88201.0,88219.0,88431.0,88509.0,0.10941828577847548,-0.1907755057184764,0.05940412641931866,-0.09495917062943149,0.03316616166602983
94,94,88883.17805189872,3981.434054797552,17.1749729767622,89029.15067819973,-2309.446519932468,5.095930801728113,89061.54236934183,30126.706759120352,9.382423540169857,89082.87669549929,-12322.170077777462,11.468085624316917,89347.68483389584,11240.662929409214,34.02437010162064,0.9439090077103232,165.0,132.0,69.0,292.0,361.0,33.0,885.0,879.0,50.0,31.0,19.0,0.62,397.51566196948994,2249.342340740096,15.0,9.0,6.0,0.6,523.3519905648179,1980.394924740295,18.0,11.0,7.0,0.6111111111111112,1729.894494767877,23425.617656977593,18.0,3.0,15.0,0.1666666666666666,1221.2605181561898,21443.322791687136,79.0,38.0,41.0,0.4810126582278481,313.69844846915873,11566.692021141467,0.0,0.0,0.0,0.0,88863.0,88896.0,89028.0,89033.0,89051.0,89069.0,89080.0,89097.0,89310.0,89389.0,0.09984233231001055,-0.2266136002924725,0.057420630425998376,-0.09911083116428364,0.02790746866436338
95,95,89817.5156317389,3406.5083781135336,12.645061197412051,89936.75339099871,-2874.330982949867,25.479654008588422,90000.62475430577,30290.812448830864,9.191818216536634,90022.02737369912,-12511.682987125254,12.999616061637596,90287.3284124247,11047.488344507095,33.09602733463873,0.9385826939219964,82.0,62.0,145.0,292.0,437.0,20.0,932.0,940.0,26.0,15.0,11.0,0.5769230769230769,393.73572389053606,3540.80783918391,97.0,58.0,39.0,0.5979381443298969,255.3970716275539,1834.6934128783205,18.0,11.0,7.0,0.6111111111111112,1722.5302527241115,22599.099076216276,21.0,5.0,16.0,0.238095238095238,1182.8038126504257,21385.832635604223,80.0,39.0,41.0,0.4875,272.86202763887906,11244.463440111678,0.0,0.0,0.0,0.0,89809.0,89829.0,89891.0,89951.0,89990.0,90008.0,90018.0,90036.0,90248.0,90328.0,0.11558337164829761,-0.08885444061332322,0.05686642626816027,-0.09453594803093653,0.024699010230189413
96,96,90718.9795650657,3839.457304334602,14.87874581977443,90864.87669549928,-2257.82717987227,12.73982700211186,90898.32045629367,27280.178445109468,9.718548329976892,90921.027373699,-11913.527831951304,11.815207304886878,91185.12631906768,10400.885146603228,34.350786587150665,0.9394083490085844,157.0,124.0,77.0,291.0,368.0,33.0,898.0,899.0,34.0,19.0,15.0,0.5588235294117647,247.2876388361483,2743.682432833018,16.0,8.0,8.0,0.5,408.88453064612986,1092.552037010002,18.0,10.0,8.0,0.5555555555555556,1583.8277381395314,23016.172168582132,19.0,4.0,15.0,0.2105263157894736,1034.9150051721683,19130.977445614648,83.0,38.0,45.0,0.4578313253012048,239.65061650165455,11005.963851127895,0.0,0.0,0.0,0.0,90701.0,90734.0,90858.0,90872.0,90888.0,90906.0,90917.0,90935.0,91147.0,91226.0,0.06440692505083202,-0.18109646933617893,0.058057821774383046,-0.08686889557571636,0.02304136745322304
97,97,92330.75339099858,4027.7505163156343,17.689909364026466,92476.6944716642,-2281.957388041342,5.095930801728113,92510.66743345484,28000.874344825024,9.391503750665448,92533.60271279886,-11313.71342234248,11.598415500817602,92795.05076040183,10899.519647637511,36.57584761541632,0.9477338592620276,170.0,130.0,72.0,290.0,362.0,40.0,1618.0,1612.0,54.0,26.0,28.0,0.4814814814814814,285.77127101136904,3168.5731076096627,10.0,2.0,8.0,0.2,401.57350917525207,1146.7218174957584,18.0,11.0,7.0,0.6111111111111112,1643.400287687916,23543.70449282193,18.0,5.0,13.0,0.2777777777777778,1037.9509798541942,17852.905403555407,93.0,47.0,46.0,0.5053763440860215,257.23958046499683,11444.801794260002,0.0,0.0,0.0,0.0,92305.0,92345.0,92475.0,92485.0,92500.0,92518.0,92529.0,92547.0,92756.0,92837.0,0.07095058888423332,-0.17597765465722923,0.05869103469590908,-0.09174273212581414,0.023601001583657306
98,98,93179.02261443505,4734.725940319127,17.199140645858204,93301.7260172996,-1674.4472319783297,7.64389620259217,93359.37440326063,29661.710963144193,9.340424327376905,93381.45203459916,-11831.628708044267,11.296065753003456,93644.8511130383,10975.240654405996,34.9333092444901,0.9542091897960728,137.0,97.0,101.0,295.0,396.0,40.0,839.0,848.0,47.0,23.0,24.0,0.4893617021276595,243.46759491542824,4876.095811837725,54.0,48.0,6.0,0.8888888888888888,198.9917784465034,1226.5971468397324,18.0,10.0,8.0,0.5555555555555556,1741.7958491464856,25510.608843723905,21.0,5.0,16.0,0.238095238095238,1207.859011749489,20183.43995503549,87.0,42.0,45.0,0.4827586206896552,223.39296959956783,11960.391593403345,0.0,0.0,0.0,0.0,93156.0,93196.0,93293.0,93306.0,93349.0,93367.0,93378.0,93394.0,93604.0,93689.0,0.05142168691162263,-0.11884028033024256,0.05872202892512618,-0.102087298507624,0.020354266173643037
99,99,94078.027373699,3318.661579388251,14.507676067123269,94219.17805189872,-3152.107907156139,22.931688607766883,94257.98539367564,28662.695742902924,9.886498045813738,94280.02737370016,-12412.379456898148,13.237408127096382,94547.38317796963,10292.752896924316,31.156815718429105,0.9315571235889546,155.0,125.0,82.0,287.0,369.0,30.0,907.0,899.0,32.0,21.0,11.0,0.65625,299.6156363282113,3622.434819407675,79.0,66.0,13.0,0.8354430379746836,353.81626426916404,1487.7255818459562,17.0,10.0,7.0,0.5882352941176471,1652.9505077234494,23422.00017435509,23.0,6.0,17.0,0.2608695652173913,1119.016356471789,19439.29040183264,79.0,38.0,41.0,0.4810126582278481,366.7982993950099,9885.259334110631,0.0,0.0,0.0,0.0,94058.0,94088.0,94213.0,94232.0,94248.0,94265.0,94276.0,94295.0,94514.0,94582.0,0.09028206979255814,-0.11224751013945469,0.05766905257446802,-0.09015325066056522,0.03563655934114737
100,100,95733.82194810128,3688.5520766174673,15.445353841085698,95880.84932180028,-2578.587439352246,5.095930801728113,95916.61380509163,27713.731488909943,8.83136979188663,95941.10857207482,-12044.774667750684,10.19186160345336,96203.6755949944,10925.034468080836,33.60494853205862,0.943368286680956,157.0,126.0,75.0,292.0,367.0,31.0,1649.0,1659.0,40.0,14.0,26.0,0.35,401.97882677227983,3140.8583543561685,20.0,11.0,9.0,0.55,419.2968241641403,11.86657575700906,18.0,10.0,8.0,0.5555555555555556,1737.3914689431083,23860.55506506688,18.0,6.0,12.0,0.3333333333333333,1047.966108589337,18719.56134724964,79.0,38.0,41.0,0.4810126582278481,351.0562764769409,11273.514482043722,0.0,0.0,0.0,0.0,95721.0,95752.0,95878.0,95890.0,95907.0,95924.0,95936.0,95953.0,96167.0,96245.0,0.10898011426231743,-0.16260717700132354,0.06269063657625286,-0.08700587080264911,0.03213319623865771
101,101,96608.1388832925,3076.3128379353675,12.212629828271483,96756.027373699,-3854.464629674619,17.8357578060484,96790.7859180222,30105.816405829813,9.507004008259662,96813.027373699,-13036.93436890582,14.171928620861577,97077.97825936116,10366.555387706803,31.66673455520993,0.924184502605312,84.0,64.0,144.0,291.0,435.0,20.0,879.0,874.0,34.0,17.0,17.0,0.5,363.18862717112967,2950.121747730894,98.0,87.0,11.0,0.8877551020408163,337.6227046305192,841.3307722432558,17.0,10.0,7.0,0.5882352941176471,1699.606453889218,22473.22984326969,20.0,5.0,15.0,0.25,1133.035506122931,20780.79032012703,83.0,40.0,43.0,0.4819277108433735,234.35723056221164,9944.308685570755,0.0,0.0,0.0,0.0,96599.0,96619.0,96683.0,96766.0,96781.0,96798.0,96809.0,96827.0,97039.0,97118.0,0.11805971833959501,-0.08759263271771679,0.056454421663187294,-0.08690965790433951,0.022607049477604158
102,102,97511.027373699,2937.004382045468,15.116216616398567,97649.30135639945,-2269.433202363467,8.455409317045579,97683.61744145308,28095.926890904,9.384518939296251,97706.027373699,-11399.783294098335,12.768296868432955,97976.38347749642,10653.692302777095,32.45712135094817,0.9310432442535734,161.0,126.0,73.0,292.0,365.0,35.0,905.0,892.0,47.0,25.0,22.0,0.5319148936170213,233.13113491960652,1707.5914971965833,23.0,13.0,10.0,0.5652173913043478,376.3254323358756,174.05756231185194,18.0,11.0,7.0,0.6111111111111112,1621.8567930223553,22565.077522875523,21.0,5.0,16.0,0.238095238095238,1044.5205992778783,18430.601958121075,87.0,47.0,40.0,0.5402298850574713,225.13306665436943,10306.325923098262,0.0,0.0,0.0,0.0,97486.0,97521.0,97647.0,97658.0,97673.0,97691.0,97702.0,97720.0,97931.0,98012.0,0.07937718320911835,-0.16582353335800196,0.05772569096296404,-0.09162635572367646,0.021131928748841757
103,103,99101.60271279886,3660.3756990083903,15.34009872853868,99244.87669549928,-2385.464687935643,12.739827004319396,99278.09694710598,27835.122548028765,9.62648551179222,99300.45203459916,-11946.467199307976,13.560892642639809,99564.3992991752,10187.012631131793,31.81190447185896,0.9399748767330472,151.0,119.0,84.0,290.0,374.0,32.0,1591.0,1595.0,40.0,27.0,13.0,0.675,258.37156557312034,3001.8648640451006,27.0,20.0,7.0,0.7407407407407407,448.1196718004228,1689.2499672085162,17.0,10.0,7.0,0.5882352941176471,1613.6848376419923,22714.84656608934,23.0,6.0,17.0,0.2608695652173913,1074.4224202032724,19645.98686364456,80.0,38.0,42.0,0.475,232.56934876775617,11036.887519928996,0.0,0.0,0.0,0.0,99081.0,99113.0,99232.0,99252.0,99268.0,99285.0,99297.0,99316.0,99526.0,99606.0,0.07058607826598624,-0.1878542466240492,0.05797297406747975,-0.0899364140275303,0.022829985314538417
104,104,99948.60271279886,3672.5739172062,14.759073050683485,100091.87669549928,-2866.6520136825498,12.739827004319922,100124.8822547936,29448.993677474453,9.513722459396924,100146.45203459916,-13115.32340607882,12.63205547414756,100411.42176979088,10847.602549027202,32.04163401912099,0.9389626202259992,152.0,118.0,83.0,291.0,374.0,34.0,847.0,846.0,40.0,28.0,12.0,0.7,284.5870633150143,3448.6263373823595,103.0,96.0,7.0,0.9320388349514565,433.030873367248,858.9426258824293,17.0,10.0,7.0,0.5882352941176471,1719.3554883579438,23039.89139958091,21.0,5.0,16.0,0.238095238095238,1242.174844723293,21655.652035156185,79.0,38.0,41.0,0.4810126582278481,230.8451732207803,11208.512094278129,0.0,0.0,0.0,0.0,99926.0,99960.0,100078.0,100099.0,100115.0,100132.0,100143.0,100161.0,100373.0,100452.0,0.07748981224903577,-0.15105805354133975,0.05838418477684959,-0.09471172050149808,0.0212807550956485
105,105,100879.25704531056,4121.044584758943,15.810787702508026,101031.15067819972,-2569.6684973659935,4.970771944118233,101060.81916744828,30010.487834899555,9.11969432597946,101082.027373699,-12705.848884244531,12.85982363018068,101350.47300236348,10677.434066887732,32.53265210659995,0.945195023037766,150.0,131.0,72.0,296.0,368.0,19.0,931.0,937.0,34.0,20.0,14.0,0.5882352941176471,449.60032590289825,3191.833923678876,18.0,14.0,4.0,0.7777777777777778,558.6796861348682,2977.722166705502,18.0,11.0,7.0,0.6111111111111112,1779.8769087648295,23406.151999221547,21.0,5.0,16.0,0.238095238095238,1274.2322559222566,20334.58530545159,79.0,38.0,41.0,0.4810126582278481,355.72914397790197,11189.67698710098,0.0,0.0,0.0,0.0,100873.0,100892.0,101023.0,101034.0,101051.0,101068.0,101078.0,101095.0,101313.0,101391.0,0.10909863182885154,-0.21741313586072905,0.05930849636822596,-0.10028706208699888,0.033315976642840577
106,106,101820.11116061595,3229.3098938361354,13.837366326879302,101969.7260172996,-2594.688099923945,7.643896076155112,102002.54640421434,29098.371225670297,9.241983752173628,102025.027373699,-11845.475046154414,12.72629883349857,102291.14799390984,10928.375143329518,32.935088940520465,0.9381532968649042,162.0,137.0,71.0,292.0,363.0,25.0,938.0,941.0,33.0,16.0,17.0,0.4848484848484848,349.1117214163643,2822.138383265355,16.0,9.0,7.0,0.5625,527.1518081509003,1240.432670180376,18.0,11.0,7.0,0.6111111111111112,1680.9050928792035,22558.470236119658,19.0,4.0,15.0,0.2105263157894736,1048.7522702651677,19889.886500981025,85.0,40.0,45.0,0.4705882352941176,327.8493939690714,10359.8849904523,0.0,0.0,0.0,0.0,101806.0,101831.0,101968.0,101976.0,101992.0,102010.0,102021.0,102039.0,102251.0,102331.0,0.10810722194321534,-0.20316577093268048,0.05776629488444788,-0.08853610903563053,0.029999829770593546
107,107,102720.84932180028,3194.1184021869503,5.095930801728113,102871.2739827004,-3168.8018615668266,7.64389620259217,102910.78023026822,27470.5393908907,9.109682107701689,102933.027373699,-10868.41956522547,15.104184797337066,103199.48446761422,10112.346512112232,30.61263762359008,0.9154963424351272,149.0,137.0,80.0,291.0,371.0,12.0,899.0,908.0,25.0,4.0,21.0,0.16,380.8884570701229,3140.992905175922,26.0,11.0,15.0,0.4230769230769231,422.0178031918191,1212.214603833594,18.0,11.0,7.0,0.6111111111111112,1557.495876499852,21562.700317079092,23.0,5.0,18.0,0.217391304347826,1038.1328690764394,17808.31360605642,75.0,36.0,39.0,0.48,333.40808660836865,11386.206653976458,0.0,0.0,0.0,0.0,102718.0,102730.0,102867.0,102885.0,102900.0,102918.0,102929.0,102947.0,103163.0,103238.0,0.11924681840514617,-0.13317898108755552,0.056696952846012255,-0.09551829158289428,0.03297039774191119
108,108,104372.75339099858,3829.777506015069,16.209301652393695,104485.72601737225,-2083.622467485174,7.64389620259217,104549.99774424997,28000.821530752935,9.413999207777332,104572.45203459916,-11268.805767396185,11.163100055883248,104834.13990261916,11295.771646051506,35.91453679834427,0.9349095153719996,130.0,97.0,101.0,293.0,394.0,33.0,1657.0,1640.0,40.0,26.0,14.0,0.65,283.8617095107331,2738.832949932126,20.0,9.0,11.0,0.45,263.6458416561551,1094.1987631682252,18.0,10.0,8.0,0.5555555555555556,1654.7826353331154,24391.885155502183,21.0,5.0,16.0,0.238095238095238,1123.487112787573,18971.647669200593,88.0,43.0,45.0,0.4886363636363636,227.37326805578823,11840.868991415562,0.0,0.0,0.0,0.0,104354.0,104387.0,104484.0,104497.0,104540.0,104558.0,104569.0,104585.0,104794.0,104878.0,0.0741196346432393,-0.1265324432666356,0.059097645885699795,-0.09969886214900751,0.020129060251963194
109,109,105219.82194810128,3427.8519493541567,14.30175632807505,105370.45203459916,-2714.3778192257305,15.28779240518434,105403.14405869808,29362.38878905832,9.405610898948714,105425.60271279886,-12512.739212896326,13.421391786717985,105691.10949479598,10664.41458287682,31.94597782625998,0.9322442373720404,149.0,118.0,84.0,291.0,375.0,31.0,839.0,853.0,35.0,14.0,21.0,0.4,279.74109146942504,3525.6287677294395,43.0,34.0,9.0,0.7906976744186046,433.24939660682446,968.897390347787,18.0,10.0,8.0,0.5555555555555556,1719.0379162577208,23247.7699337494,19.0,5.0,14.0,0.2631578947368421,1066.3540791345602,20676.310224758578,82.0,41.0,41.0,0.5,228.79521020954795,10750.932931205827,0.0,0.0,0.0,0.0,105207.0,105238.0,105356.0,105379.0,105393.0,105410.0,105421.0,105440.0,105653.0,105731.0,0.08160827702087052,-0.15961278254565453,0.058545574360704185,-0.08522147397074466,0.02145408061844389
110,110,106090.93907451544,3412.1097291951655,13.07345816782943,106236.027373699,-2741.32840489131,17.8357578060484,106271.44405457492,29885.40617889427,9.558704032792054,106293.60271279886,-12371.466687476915,14.08603510391484,106557.34387433136,10795.676568223476,32.85739060773274,0.9295356816905008,149.0,118.0,85.0,288.0,373.0,31.0,879.0,868.0,32.0,18.0,14.0,0.5625,251.610233237207,2933.139476384101,100.0,90.0,10.0,0.9,333.4254582916525,808.5528238854956,18.0,10.0,8.0,0.5555555555555556,1652.2774285822684,23288.675044064556,21.0,6.0,15.0,0.2857142857142857,1112.8342242005117,19595.57285091131,85.0,40.0,45.0,0.4705882352941176,247.88248340867557,10706.806182083614,0.0,0.0,0.0,0.0,106074.0,106105.0,106223.0,106246.0,106261.0,106279.0,106289.0,106308.0,106519.0,106596.0,0.07374036980239665,-0.12162915530176048,0.0552870996195174,-0.08995168093747398,0.02296127360264803
111,111,106990.95406590748,3360.8210558423375,14.104119777609966,107142.15067819972,-2929.464443121387,5.095930801228855,107170.9332893054,28690.40466282698,9.245998174882358,107193.02737369935,-11995.343968697023,13.062292961077414,107461.53415569616,10692.752178889714,31.97352043228439,0.933222426396228,145.0,114.0,86.0,293.0,379.0,31.0,892.0,900.0,32.0,16.0,16.0,0.5,240.07244550130108,3216.565008496784,84.0,81.0,3.0,0.9642857142857144,513.7339431097807,3132.3528388814875,18.0,11.0,7.0,0.6111111111111112,1663.317827707299,22961.798534768444,21.0,5.0,16.0,0.238095238095238,1135.5148596134238,18932.518737194037,84.0,44.0,40.0,0.5238095238095238,207.07607452158268,10579.570617636988,0.0,0.0,0.0,0.0,106976.0,107007.0,107121.0,107145.0,107160.0,107178.0,107189.0,107207.0,107423.0,107500.0,0.07143267716796979,-0.17536787118753686,0.05797470782496122,-0.09466296777955317,0.019366022054677835
112,112,107822.60271279886,2710.978392817279,11.61016519187487,107937.75339099858,-3895.170385752595,25.47965400864057,107999.74687033902,27374.264533186823,9.157558524837723,108023.027373699,-10644.949640030864,16.61512785447804,108287.2125236776,9432.985676672442,30.38950846525951,0.911990332494767,129.0,98.0,106.0,283.0,389.0,31.0,839.0,828.0,31.0,20.0,11.0,0.6451612903225806,330.43257086624845,1738.8256785700385,123.0,85.0,38.0,0.6910569105691057,317.73195967406957,1974.8424233591008,17.0,10.0,7.0,0.5882352941176471,1582.4193924077454,21509.5972381057,20.0,5.0,15.0,0.25,940.9579331173136,17367.85971272924,79.0,38.0,41.0,0.4810126582278481,344.08017917580327,8935.140158575872,0.0,0.0,0.0,0.0,107803.0,107834.0,107932.0,107952.0,107990.0,108007.0,108019.0,108038.0,108254.0,108321.0,0.12188683308643386,-0.08157074741486048,0.0578068276679843,-0.08839477545096075,0.03647627495361364
113,113,108591.84932180028,2100.3580803555797,5.095930801728113,108737.17805189872,-4571.291847617189,22.93168860777651,108776.03899814644,29073.509313274313,9.926340662628675,108798.027373699,-12233.751088520445,17.835757805145338,109062.47240397836,9035.527468684935,27.674821112853877,0.8624146853224671,149.0,138.0,83.0,285.0,368.0,11.0,765.0,777.0,19.0,10.0,9.0,0.5263157894736842,328.6834590928446,1981.560260388666,120.0,106.0,14.0,0.8833333333333333,390.477999630224,2091.5016081383037,16.0,9.0,7.0,0.5625,1563.84132827877,21819.980439568208,25.0,6.0,19.0,0.24,1096.1873906277565,19622.988984693573,73.0,35.0,38.0,0.4794520547945205,309.4448931096419,9551.526395754045,0.0,0.0,0.0,0.0,108582.0,108593.0,108731.0,108750.0,108767.0,108783.0,108794.0,108814.0,109029.0,109099.0,0.15648924922230414,-0.08541961717752998,0.05378921792439949,-0.08960353882435661,0.0342475737229627
114,114,109393.60271279886,3455.07645821787,13.616278058420072,109539.15067819972,-3146.1962477251604,5.095930801728099,109568.29528421376,29633.84248574181,9.192043689784487,109590.027373699,-12651.663716003197,13.572593434015792,109853.65416261034,10314.36848516197,31.02332372722636,0.9307643572484324,144.0,113.0,85.0,288.0,373.0,31.0,806.0,792.0,33.0,21.0,12.0,0.6363636363636364,389.3824986208557,2617.3207275475943,32.0,29.0,3.0,0.90625,562.1586801791005,2485.5245905242155,17.0,10.0,7.0,0.5882352941176471,1723.6052104785792,23264.002105450185,22.0,5.0,17.0,0.2272727272727272,1195.4697388796287,20282.490943317036,72.0,35.0,37.0,0.4861111111111111,358.92302960428185,11528.501291853476,0.0,0.0,0.0,0.0,109374.0,109405.0,109518.0,109542.0,109559.0,109575.0,109586.0,109603.0,109820.0,109891.0,0.11269866335221403,-0.17867883498544193,0.058163405954117633,-0.09449110928924462,0.03479835242658054
115,115,110215.75339099858,4251.724226138059,18.23597602256877,110354.60271279886,-2049.716346196826,20.3837232067878,110391.69610578794,28988.493163798328,9.482898212731186,110414.60271279886,-11797.215283834596,10.76748621002564,110677.04572611152,11290.477255920414,34.59453315857794,0.953515248644948,163.0,119.0,78.0,291.0,369.0,44.0,823.0,824.0,46.0,31.0,15.0,0.6739130434782609,281.3762982808816,3289.172164183679,99.0,87.0,12.0,0.8787878787878788,298.53325121079774,569.767202188315,18.0,10.0,8.0,0.5555555555555556,1726.825493055101,24518.337351996113,19.0,6.0,13.0,0.3157894736842105,1102.6032251585896,18742.517884873567,90.0,44.0,46.0,0.4888888888888889,225.84158891621524,11279.833263984274,0.0,0.0,0.0,0.0,110186.0,110230.0,110349.0,110366.0,110382.0,110399.0,110410.0,110427.0,110638.0,110718.0,0.06617933885530067,-0.14564612892155313,0.059569343025101106,-0.0934630078904686,0.02000283812606683
116,116,111069.75339099858,4235.859572925469,15.80891356065588,111214.45203459916,-2479.274926395495,15.287792405184154,111248.97279905724,29376.793243339067,9.719233284103726,111271.027373699,-12371.61732039693,12.154893455831097,111535.4498868651,11330.546184893825,33.909605599010945,0.94395958087567,163.0,123.0,78.0,291.0,369.0,40.0,854.0,857.0,48.0,29.0,19.0,0.6041666666666666,316.1568444366515,2482.258503192942,110.0,100.0,10.0,0.9090909090909092,342.6402780853343,240.37524759488883,19.0,11.0,8.0,0.5789473684210527,1681.29982760215,23538.22086875031,19.0,4.0,15.0,0.2105263157894736,1121.3538932492183,20026.913321072425,89.0,44.0,45.0,0.4943820224719101,222.8126239295825,11514.4720141602,0.0,0.0,0.0,0.0,111044.0,111084.0,111207.0,111223.0,111238.0,111256.0,111267.0,111285.0,111497.0,111576.0,0.07463817886160466,-0.13820180829379958,0.05723224497906592,-0.09063923205904989,0.01966477346225745
117,117,112002.17805189872,3828.516801604243,15.617685991786152,112145.87669549928,-2697.063186268131,12.739827004129868,112179.43393145464,28121.898858252174,9.519889271749506,112201.45203459916,-12274.970680971388,13.105320877956096,112468.0212128444,10499.415754153251,31.852101206027783,0.9376222197660212,90.0,51.0,150.0,292.0,442.0,39.0,932.0,930.0,39.0,26.0,13.0,0.6666666666666666,286.0395278236087,3121.6109595408107,101.0,93.0,8.0,0.9207920792079208,419.07514446546406,1337.7421495457218,18.0,10.0,8.0,0.5555555555555556,1639.874762111256,22466.10678008031,22.0,6.0,16.0,0.2727272727272727,1116.6717295171818,20551.14941801987,81.0,40.0,41.0,0.4938271604938271,225.2775705286988,10474.387133356924,0.0,0.0,0.0,0.0,111976.0,112015.0,112066.0,112153.0,112169.0,112187.0,112198.0,112216.0,112435.0,112508.0,0.0747128829900266,-0.15538202686505442,0.058313087973789014,-0.09097143761396041,0.021456200592836396
118,118,112821.45203459916,3157.103014834032,14.540098243796177,112963.60271279886,-3565.6038952234994,20.383723206912453,112998.85329474896,27123.891446358557,9.70949553969134,113022.60271279886,-11265.046682665024,15.0790475278263,113286.47593942544,9477.134945638954,30.451335746660916,0.9270176237761352,133.0,118.0,86.0,288.0,374.0,15.0,818.0,820.0,48.0,27.0,21.0,0.5625,297.8147712079345,2442.819366894831,118.0,106.0,12.0,0.8983050847457628,363.75350025304,356.2968078744143,17.0,10.0,7.0,0.5882352941176471,1523.4759100195784,20752.280765042415,21.0,6.0,15.0,0.2857142857142857,923.0098727353472,17670.165193106157,82.0,40.0,42.0,0.4878048780487805,237.51614256245168,9119.901113963257,0.0,0.0,0.0,0.0,112818.0,112833.0,112951.0,112975.0,112989.0,113006.0,113018.0,113037.0,113248.0,113325.0,0.09433166095899172,-0.10201736113770965,0.05616730597202373,-0.08193573437700007,0.025062019684730593
119,119,113598.75339099858,3756.1969083343106,15.191147446628555,113745.45203459916,-3114.4891370279547,7.725702660332015,113778.72936034408,26682.61753675252,9.319642811739252,113802.027373699,-11306.755901316816,11.79048044874393,114064.09498122805,10255.468571332784,32.42311440944963,0.9385296253041422,155.0,123.0,79.0,289.0,368.0,32.0,779.0,779.0,46.0,26.0,20.0,0.5652173913043478,289.1909154430198,2794.464899071955,19.0,10.0,9.0,0.5263157894736842,432.50281911878966,363.961796151078,18.0,11.0,7.0,0.6111111111111112,1594.2492134303511,22536.55683134919,19.0,5.0,14.0,0.2631578947368421,1031.956850300929,17758.27522538082,82.0,40.0,42.0,0.4878048780487805,215.5134368943717,10101.059501405369,0.0,0.0,0.0,0.0,113581.0,113613.0,113736.0,113754.0,113768.0,113786.0,113798.0,113815.0,114026.0,114104.0,0.07699035021336562,-0.1388679812611296,0.059748606418933196,-0.09126904828472901,0.02101448952774314
120,120,114438.17805189872,4014.306688507825,15.28643870484188,114583.30135639945,-2769.059153651004,10.191861603409173,114615.34268277278,29546.580233079894,9.307057742504584,114637.027373699,-12902.369524857051,13.345526023741266,114902.35754627292,10818.083224593538,32.40660369844967,0.9370263145189572,150.0,119.0,82.0,291.0,373.0,31.0,839.0,837.0,40.0,26.0,14.0,0.65,398.0319994142776,2472.9518284086516,20.0,14.0,6.0,0.7,510.3356178990929,632.5067340453196,18.0,10.0,8.0,0.5555555555555556,1738.3229185016182,23757.68276071617,22.0,6.0,16.0,0.2727272727272727,1204.7512355730976,22206.479543614652,80.0,39.0,41.0,0.4875,358.3596698212067,11523.46047850561,0.0,0.0,0.0,0.0,114420.0,114451.0,114570.0,114589.0,114605.0,114623.0,114633.0,114652.0,114871.0,114943.0,0.09915336079173158,-0.18429928346825505,0.058833303373478696,-0.0933744172535196,0.0331259856650503
121,121,115298.7260172996,3412.0427727103406,7.643896202592165,115440.30135639945,-3260.11902209181,10.191861603412848,115471.59083960432,29527.135270854465,9.554856223476474,115493.027373699,-13243.197110519088,13.48377298370762,115758.7016501039,10571.44474417626,31.70421374129399,0.9150929921866106,143.0,118.0,86.0,291.0,377.0,25.0,858.0,856.0,38.0,28.0,10.0,0.7368421052631579,313.9849660981144,2083.0346496254983,117.0,111.0,6.0,0.9487179487179488,581.137043175986,2422.2018476598687,16.0,10.0,6.0,0.625,1736.1366764456468,23178.251168346054,20.0,5.0,15.0,0.25,1215.0423952865615,20777.348863320927,79.0,37.0,42.0,0.4683544303797468,335.9845603699565,11509.339690271228,0.0,0.0,0.0,0.0,115278.0,115303.0,115421.0,115446.0,115462.0,115478.0,115489.0,115507.0,115722.0,115798.0,0.09202257621427819,-0.1782563885667915,0.0587980059873721,-0.09174841884075348,0.03178227465598287
122,122,116155.60271279886,3477.349539422564,12.77568642115972,116298.60271279886,-4107.74225615622,20.38372320687816,116333.0201447452,29376.09954750947,9.67596799705209,116354.90957611291,-13379.001316594062,15.28779240518434,116623.25684623363,10118.535118510124,29.05763300560442,0.9130175409361148,136.0,118.0,86.0,289.0,375.0,18.0,859.0,862.0,31.0,19.0,12.0,0.6129032258064516,414.43211932171624,2452.537201508713,111.0,100.0,11.0,0.9009009009009008,495.1648996050328,167.04108392305398,17.0,10.0,7.0,0.5882352941176471,1638.3247314809512,20957.38686673354,22.0,5.0,17.0,0.2272727272727272,1114.1249764367124,21175.713796428565,73.0,35.0,38.0,0.4794520547945205,338.0515496634879,11011.364609145858,0.0,0.0,0.0,0.0,116149.0,116167.0,116285.0,116310.0,116323.0,116340.0,116351.0,116371.0,116589.0,116660.0,0.11918046046948026,-0.12054429628902243,0.055770669241888844,-0.0832741510425637,0.033409139337282186
123,123,117727.82194810128,3308.6896326753185,13.39832323247508,117878.027373699,-2965.675612949077,17.8357578060484,117913.31744368312,28525.132726734755,9.675027625901384,117935.45203459916,-12290.0335076776,15.106953052960993,118198.18471346244,10158.486097672252,32.11855666509491,0.925452494857139,69.0,38.0,167.0,287.0,454.0,31.0,1565.0,1580.0,34.0,13.0,21.0,0.3823529411764705,259.87916503731054,4347.0675163645765,104.0,94.0,10.0,0.903846153846154,321.8049774550787,1179.8306153296453,17.0,10.0,7.0,0.5882352941176471,1592.6270025929864,22180.89546174533,24.0,5.0,19.0,0.2083333333333333,1086.07232250341,19549.21627828867,88.0,44.0,44.0,0.5,216.16535268839925,9537.709569719456,0.0,0.0,0.0,0.0,117715.0,117746.0,117784.0,117888.0,117903.0,117920.0,117932.0,117951.0,118159.0,118238.0,0.07854443719073739,-0.10850983703341542,0.055832413396636735,-0.08837016773184055,0.021279288135062968
124,124,118558.2623096861,4743.045625919447,18.052890359106076,118703.7260172996,-1923.3933709581231,7.186097177616481,118738.59260423316,28359.498296956812,9.48792509707678,118761.027373699,-12254.753727571157,10.604224392747154,119023.7455955382,11281.489559324003,34.96571336781209,0.9599112836616815,169.0,125.0,71.0,294.0,365.0,44.0,839.0,826.0,51.0,25.0,26.0,0.4901960784313725,248.82680629296047,3990.732754935872,17.0,9.0,8.0,0.5294117647058824,351.0736508103763,557.4447896448106,18.0,11.0,7.0,0.6111111111111112,1699.2282553822,23898.651899364468,18.0,5.0,13.0,0.2777777777777778,1167.3710663352076,19441.01759035529,85.0,40.0,45.0,0.4705882352941176,248.90073021410407,11183.22072098542,0.0,0.0,0.0,0.0,118533.0,118577.0,118702.0,118712.0,118728.0,118746.0,118757.0,118773.0,118985.0,119067.0,0.052461398417335485,-0.18252826286673315,0.05991743004722125,-0.09525863124518096,0.022062754116400424
125,125,119465.5721094022,2646.725005041526,10.537198997459097,119612.60271279886,-4580.113735749542,20.383723206912453,119647.54303498167,31120.4615576627,9.64729604273542,119668.45203459916,-13787.047555182417,15.28779240518434,119937.18566936185,10099.151121552211,28.897573770751823,0.8937298284012888,58.0,32.0,172.0,289.0,461.0,26.0,902.0,907.0,26.0,11.0,15.0,0.4230769230769231,235.0569744386904,2543.379664328345,117.0,106.0,11.0,0.905982905982906,437.9023480743273,664.9177503526944,17.0,10.0,7.0,0.5882352941176471,1746.4695805390245,19340.807375753742,24.0,6.0,18.0,0.25,1424.4017385993343,25593.320839759806,72.0,34.0,38.0,0.4722222222222222,435.3013902994661,10982.309321138306,0.0,0.0,0.0,0.0,119455.0,119481.0,119513.0,119624.0,119638.0,119655.0,119665.0,119685.0,119903.0,119974.0,0.08881050127646428,-0.09560949210853253,0.05611965546536042,-0.10331448650613492,0.043102770228926085
126,126,120416.1919323002,3367.107821045524,13.534104523815667,120566.30135639945,-2940.2145286157124,10.19186160345019,120599.17950185246,29606.335705099264,9.55185872220444,120619.87669549928,-12947.611403818892,12.739827004314709,120888.099960446,10898.942524925502,31.72592802897109,0.9245408751688876,150.0,130.0,83.0,292.0,375.0,20.0,947.0,952.0,31.0,14.0,17.0,0.4516129032258064,442.7144340244394,2912.5470822257657,20.0,14.0,6.0,0.7,566.2554334709431,710.8036809180744,17.0,10.0,7.0,0.5882352941176471,1738.9489593144858,23418.683363449192,22.0,5.0,17.0,0.2272727272727272,1235.5895049291114,21431.108411562054,79.0,40.0,39.0,0.5063291139240507,479.64015512746033,11296.809800300316,0.0,0.0,0.0,0.0,120402.0,120422.0,120552.0,120572.0,120589.0,120606.0,120617.0,120635.0,120855.0,120927.0,0.13148210795547727,-0.19258983586396425,0.058735703622214114,-0.09542991880067353,0.04400795343498142
127,127,121367.72394846808,5249.48798544374,25.238535602485506,121519.6937971228,-569.6666146307314,0.0361725775485711,121546.45203459916,28326.334328877376,9.655598464098013,121570.47437426374,-9072.747849997522,9.58156068389824,121837.68483389584,12217.069523141048,39.68776671250895,0.929380412558609,172.0,139.0,63.0,297.0,360.0,33.0,958.0,950.0,58.0,27.0,31.0,0.4655172413793103,521.6881903949273,5260.59448693979,2.0,1.0,1.0,0.5,784.3466331579627,5735.138205871061,21.0,11.0,10.0,0.5238095238095238,1576.245146452941,24552.215556906493,18.0,5.0,13.0,0.2777777777777778,1117.9571996553889,15425.591368977945,86.0,45.0,41.0,0.5232558139534884,522.5534260548402,12616.617587319794,0.0,0.0,0.0,0.0,121347.0,121380.0,121519.0,121563.0,121535.0,121555.0,121567.0,121582.0,121800.0,121879.0,0.09937887120448928,-1.3768520271569558,0.05564592750167581,-0.12322145596228536,0.042772403403700206
128,128,122979.7260172996,3591.369369097188,7.64389620259217,123116.30135639945,-2887.6654757594274,10.191861603456228,123152.8958731256,25738.488676246852,9.446854751556604,123176.36124001094,-10995.340941371993,12.739827004303717,123438.18780937127,10177.181844720586,33.45973643900169,0.8945103886263701,136.0,125.0,74.0,288.0,362.0,11.0,1611.0,1604.0,11.0,2.0,9.0,0.1818181818181818,586.5796173693992,3056.2023528607324,20.0,9.0,11.0,0.45,512.3494616166319,1497.7393491684084,17.0,10.0,7.0,0.5882352941176471,1604.2472615549918,23537.029721066097,22.0,6.0,16.0,0.2727272727272727,1092.6355841255863,18129.42737422013,79.0,40.0,39.0,0.5063291139240507,580.6536227550623,11520.200953409148,0.0,0.0,0.0,0.0,122978.0,122989.0,123114.0,123127.0,123143.0,123160.0,123173.0,123188.0,123404.0,123476.0,0.1633303503718571,-0.1774268750717702,0.06232872806690842,-0.09937259698917966,0.057054460813852556
129,129,123804.56277256476,3425.7650036545297,13.941482780142389,123955.15067819972,-3711.703412298332,5.095930801728113,123984.94843881432,29527.998809969773,8.986413231717636,124006.60271279886,-12584.076933346823,13.826741873449784,124272.27954578304,10899.89265668184,31.865880566613583,0.9201875108734736,155.0,130.0,73.0,289.0,362.0,25.0,825.0,833.0,32.0,15.0,17.0,0.46875,464.45712450472126,3639.9336634603537,26.0,22.0,4.0,0.8461538461538461,694.144693739634,1368.406201846068,16.0,9.0,7.0,0.5625,1777.6900763257347,23113.47861075247,22.0,6.0,16.0,0.2727272727272727,1181.2068025685062,21134.189528467527,78.0,36.0,42.0,0.4615384615384615,295.679363823665,11356.57564160476,0.0,0.0,0.0,0.0,123791.0,123816.0,123946.0,123958.0,123976.0,123992.0,124002.0,124019.0,124236.0,124308.0,0.1355776371144106,-0.18701512934456452,0.060203540638369274,-0.09386519240345712,0.027126814284946923
130,130,124742.30083571242,3897.114676475729,14.416506634878434,124892.7260172996,-2597.158064509165,6.029632068343183,124924.16685971495,29182.119769334153,9.327804275558204,124946.027373699,-12515.731754481743,11.798430759419569,125213.34944154658,11261.19087610606,32.95344066682295,0.9331832924466718,161.0,125.0,75.0,294.0,369.0,36.0,931.0,939.0,39.0,20.0,19.0,0.5128205128205128,316.8321207666915,3396.0811737181953,21.0,16.0,5.0,0.7619047619047619,511.21491996123285,2336.5315262483387,18.0,10.0,8.0,0.5555555555555556,1748.888612253412,24777.12531762067,20.0,5.0,15.0,0.25,1197.736239588476,21056.322994536913,85.0,44.0,41.0,0.5176470588235295,344.1986341353534,11441.880143691662,0.0,0.0,0.0,0.0,124723.0,124759.0,124884.0,124897.0,124914.0,124932.0,124942.0,124959.0,125174.0,125253.0,0.08129915259594356,-0.19683627536849477,0.05993014304914274,-0.09569845879443527,0.030565029748822782
131,131,125714.02669448528,4311.182995581323,17.1217402371777,125831.7260172996,-1890.5320182874177,7.64389620259217,125894.68254563025,28803.827192445795,9.350796192368662,125916.60271279886,-11508.511225116124,11.421098262177985,126183.21835732026,12102.207130811305,36.79143851138836,0.9406573381271623,136.0,98.0,99.0,298.0,397.0,38.0,973.0,970.0,40.0,21.0,19.0,0.525,295.3907048120652,3674.78052176589,13.0,3.0,10.0,0.2307692307692307,333.92194423974877,1665.7994936244488,18.0,11.0,7.0,0.6111111111111112,1687.6841098744871,24075.40297911001,19.0,5.0,14.0,0.2631578947368421,1104.9324896117066,18871.714269417935,89.0,42.0,47.0,0.4719101123595505,284.62383371177054,13043.76529603862,0.0,0.0,0.0,0.0,125694.0,125732.0,125830.0,125837.0,125884.0,125902.0,125912.0,125929.0,126145.0,126227.0,0.06851731998266396,-0.17662855799831398,0.05859235644619844,-0.0960100284040482,0.02351834096337186
132,132,126602.82109933236,2979.7222698524374,13.929804984204935,126750.30135639945,-2821.8300092403933,6.530626748792531,126781.8925024718,24571.33191276401,9.046551903128488,126807.38180883852,-10289.220252093308,11.259341355429296,127071.2072507165,10099.513838869174,30.658120182875457,0.9370022552799452,155.0,130.0,78.0,290.0,368.0,25.0,892.0,887.0,26.0,17.0,9.0,0.6538461538461539,289.4404650318441,2541.3061798744793,21.0,14.0,7.0,0.6666666666666666,451.51178690978696,1005.8771824729844,18.0,10.0,8.0,0.5555555555555556,1531.397640977705,22735.684893307847,18.0,5.0,13.0,0.2777777777777778,881.9298880984261,15889.709395078477,85.0,45.0,40.0,0.5294117647058824,320.74777096425765,9390.844800122291,0.0,0.0,0.0,0.0,126587.0,126612.0,126742.0,126756.0,126772.0,126790.0,126802.0,126820.0,127032.0,127110.0,0.09713672578155341,-0.16000672805635416,0.0623245677692463,-0.08571396728717129,0.031758733745165225
133,133,128195.75339099858,5528.4117606900945,19.630610651991113,128342.30135639945,-2648.962551767967,7.371103458890449,128376.15158997696,29357.456313419585,9.312041425091708,128398.027373699,-12160.313565776563,12.331353121040843,128669.65746019685,11409.468152231651,33.69710978089305,0.9417251143236178,169.0,130.0,71.0,290.0,361.0,39.0,1598.0,1595.0,52.0,26.0,26.0,0.5,459.6513462330627,4726.471337339744,11.0,2.0,9.0,0.1818181818181818,531.0628314972081,45.119030516948555,18.0,11.0,7.0,0.6111111111111112,1680.5507882400432,23464.520862047968,20.0,5.0,15.0,0.25,1176.2230927081089,20134.388049257417,86.0,48.0,38.0,0.5581395348837209,431.9624456824512,11841.732069272872,0.0,0.0,0.0,0.0,128171.0,128210.0,128340.0,128351.0,128365.0,128383.0,128394.0,128411.0,128629.0,128701.0,0.08314347160271685,-0.20047955420991773,0.057244427797099255,-0.09672637850543739,0.037859998373189804
134,134,128999.06039545887,4904.4710309442535,15.406317694950571,129145.17805189872,-3818.9237131768023,22.93168860777651,129183.0236696479,32016.65381153471,9.493027389006416,129204.60271279886,-12840.780859948838,16.45641592676018,129470.6550544325,10879.98984258726,31.54764485040476,0.9241895120464558,138.0,99.0,100.0,289.0,389.0,39.0,799.0,807.0,39.0,18.0,21.0,0.4615384615384615,409.0211043055677,5259.414160627667,107.0,94.0,13.0,0.8785046728971962,373.222208270081,2222.3026890848687,17.0,10.0,7.0,0.5882352941176471,1746.3321841005263,23270.785628605227,24.0,6.0,18.0,0.25,1211.4761111684436,21274.15408590956,74.0,37.0,37.0,0.5,401.5194784573885,12128.775675828552,0.0,0.0,0.0,0.0,128981.0,129020.0,129119.0,129158.0,129174.0,129190.0,129200.0,129219.0,129435.0,129508.0,0.08339759817621335,-0.09772968414695384,0.054544494074248676,-0.09434598443674948,0.036904398282223694
