Unnamed: 0,cycle,p_center,p_height,p_width,q_center,q_height,q_width,r_center,r_height,r_width,s_center,s_height,s_width,t_center,t_height,t_width,r_squared,pr_interval,pr_segment,qrs_duration,st_segment,qt_interval,p_duration,pp_interval,rr_interval,fwhm_p,rise_time_p,decay_time_p,rise_decay_symmetry_p,sharpness_deriv_p,sharpness_diff_p,fwhm_q,rise_time_q,decay_time_q,rise_decay_symmetry_q,sharpness_deriv_q,sharpness_diff_q,fwhm_r,rise_time_r,decay_time_r,rise_decay_symmetry_r,sharpness_deriv_r,sharpness_diff_r,fwhm_s,rise_time_s,decay_time_s,rise_decay_symmetry_s,sharpness_deriv_s,sharpness_diff_s,fwhm_t,rise_time_t,decay_time_t,rise_decay_symmetry_t,sharpness_deriv_t,sharpness_diff_t,Average_Heart_Rate,SDNN,RMSSD,NN50,p_on,p_off,q_on,q_off,r_on,r_off,s_on,s_off,t_on,t_off,sharpness_deriv_p_norm,sharpness_deriv_q_norm,sharpness_deriv_r_norm,sharpness_deriv_s_norm,sharpness_deriv_t_norm
0,0,,,,,,,,,,,,,,,,,,,,,,,,,,,,,,,,,,,,,,,,,,,,,,,,,,,,,,,49.25498785762931,519.3060985214445,815.2642289239501,212.0,,,,,,,,,,,,,,,
1,1,3275.4666807326944,1052.617160021314,11.760339976660184,3369.0059946261163,-6473.881708282113,9.176626339578922,3401.6891980338455,54904.67010824676,10.655462514120297,3430.4520345991364,-4195.055632597555,12.564910910138192,3671.54252710263,10342.419548160498,42.36653417913845,0.9945427534410918,96.0,69.0,93.0,271.0,364.0,27.0,,,27.0,13.0,14.0,0.4814814814814814,40.43566568037436,1076.0196023264252,18.0,11.0,7.0,0.6111111111111112,759.8564091001572,1074.3924250082428,25.0,13.0,12.0,0.52,2351.945336192277,52308.305717301155,26.0,4.0,22.0,0.1538461538461538,905.4288271279364,15318.458973711106,102.0,51.0,51.0,0.5,50.571287911374625,10820.071889312116,,,,,3262.0,3289.0,3358.0,3376.0,3389.0,3414.0,3427.0,3451.0,3622.0,3722.0,0.03841440859614677,-0.117372612497393,0.04283689040577645,-0.21583237659408583,0.0048896960402625735
2,2,4534.563188544615,1159.0498511901749,14.979485206754916,4628.44659811578,-6643.8353453578,8.622016701238518,4660.91239712856,54625.39301480762,10.59783464125994,4689.027373698993,-4049.084198352406,16.413781809533475,4932.124320912807,10238.854486809798,38.33370476588626,0.993754347894512,96.0,66.0,98.0,264.0,362.0,30.0,1260.0,1259.0,30.0,14.0,16.0,0.4666666666666667,42.78211522121748,1296.1306204616149,18.0,11.0,7.0,0.6111111111111112,751.5397005812679,367.3383569955786,25.0,13.0,12.0,0.52,2324.022493116123,51668.46527853929,31.0,4.0,27.0,0.1290322580645161,884.8310027882245,15417.91765916524,95.0,47.0,48.0,0.4947368421052631,54.60216547402785,10587.568799880357,,,,,4521.0,4551.0,4617.0,4635.0,4648.0,4673.0,4685.0,4715.0,4886.0,4979.0,0.036911367683871835,-0.11311835130086206,0.04254472809900218,-0.21852620480163562,0.005332839288259158
3,3,5773.216893931915,1148.2623744093164,18.62371455897292,5869.495426075586,-6843.0044333881815,9.128769014795912,5901.710918036535,53122.090636896384,10.609441036050995,5928.452034599151,-5239.083626499108,15.287792405065613,6170.313698070837,10726.329926930874,40.48921556214094,0.987411031346624,100.0,65.0,98.0,265.0,363.0,35.0,1240.0,1241.0,38.0,17.0,21.0,0.4473684210526316,37.880760870109064,1310.6280497766966,18.0,11.0,7.0,0.6111111111111112,749.2752089254558,162.76178698231206,25.0,13.0,12.0,0.52,2292.1865543489344,49037.17040670583,33.0,3.0,30.0,0.0909090909090909,1066.8390356122493,18405.264662422374,102.0,50.0,52.0,0.4901960784313725,54.266289236870946,11105.702719605915,,,,,5758.0,5793.0,5858.0,5876.0,5889.0,5914.0,5925.0,5956.0,6121.0,6221.0,0.03298963870482607,-0.10949506407881525,0.043149404077799554,-0.20363084685577715,0.005059166518887618
4,4,7934.189593321172,1422.2709892985088,17.39222085868579,8029.3454198524605,-6547.201467124783,8.432465150875165,8061.609415514635,52900.261955742666,10.721985547288218,8090.027373698993,-5052.676602112744,17.687912907027773,8330.18392514177,9932.201687231382,39.05380207692995,0.992786891286728,103.0,63.0,98.0,261.0,359.0,40.0,2159.0,2160.0,40.0,19.0,21.0,0.475,37.73010252905817,1597.4563369617465,17.0,11.0,6.0,0.6470588235294118,768.1779655364464,805.7620315597751,26.0,14.0,12.0,0.5384615384615384,2223.112099187104,48293.698129059325,31.0,4.0,27.0,0.1290322580645161,855.9787215605368,15795.815280413226,96.0,48.0,48.0,0.5,59.015161371007466,10395.055280451075,,,,,7915.0,7955.0,8018.0,8035.0,8048.0,8074.0,8086.0,8116.0,8284.0,8377.0,0.026528068710497555,-0.11732920842495372,0.04202459528550162,-0.1694109457159033,0.005941800542258022
5,5,9207.636578989192,960.7561991771158,8.886363684316041,9299.708435395523,-6717.400488322651,9.1656402920495,9332.244076009169,54904.52496033831,10.652820590593246,9361.027373698991,-4348.498281294859,16.025081014829507,9604.23848383011,10131.485335563752,36.818191393585984,0.9940280051408688,92.0,69.0,96.0,265.0,361.0,23.0,1272.0,1270.0,24.0,12.0,12.0,0.5,47.37365204503103,902.5583557222186,18.0,12.0,6.0,0.6666666666666666,799.9114523492714,1469.561070183077,26.0,13.0,13.0,0.5,2334.0340926471777,53089.94325158616,28.0,4.0,24.0,0.1428571428571428,842.8260945330893,14923.34158577959,91.0,45.0,46.0,0.4945054945054945,57.23127296824884,10550.24969255564,,,,,9196.0,9219.0,9288.0,9306.0,9319.0,9345.0,9357.0,9384.0,9560.0,9649.0,0.049308713371411385,-0.11908050647565468,0.04251077837998283,-0.19382003625447441,0.0056488531614761785
6,6,10502.494698866947,755.0936596253027,7.377611322864167,10595.51208458949,-6787.901497624225,9.580411376465854,10628.017610201065,54163.1787257365,10.612267210407834,10656.027373698991,-4572.330789201631,16.044297634719445,10895.916689569416,10771.975257870245,38.864309886950394,0.983517326105016,92.0,72.0,96.0,264.0,360.0,20.0,1299.0,1296.0,21.0,11.0,10.0,0.5238095238095238,42.716450541516096,723.0176903842785,18.0,12.0,6.0,0.6666666666666666,802.926104282231,1419.7089446084474,25.0,13.0,12.0,0.52,2327.561008749065,51533.72129478989,29.0,4.0,25.0,0.1379310344827586,901.8953538747264,15918.505270155843,97.0,48.0,49.0,0.4948453608247423,59.35124842779193,11119.916006794589,,,,,10492.0,10512.0,10584.0,10602.0,10615.0,10640.0,10652.0,10680.0,10850.0,10944.0,0.05657106240663326,-0.11828782497260107,0.04297312424248629,-0.19725067923884948,0.0055097832112479634
7,7,11830.69612338334,970.3514217993312,9.17540369805743,11924.629643970133,-7059.273941852058,9.75291833860298,11956.926549182115,53080.98872778812,10.579735649504585,11984.027373699966,-5273.065672111361,17.835757805925436,12226.66585317257,11107.89300807979,38.86351866462529,0.9878320664057798,95.0,70.0,100.0,262.0,362.0,25.0,1325.0,1329.0,25.0,13.0,12.0,0.52,44.13927869938933,968.230855631645,19.0,12.0,7.0,0.631578947368421,803.7276304085773,883.1519878759805,25.0,13.0,12.0,0.52,2284.2100723151098,49154.40049087687,34.0,4.0,30.0,0.1176470588235294,969.8175333992382,17465.464744894864,96.0,48.0,48.0,0.5,56.46181187781694,11413.773725387857,,,,,11818.0,11843.0,11913.0,11932.0,11944.0,11969.0,11980.0,12013.0,12180.0,12275.0,0.0454879311842935,-0.1138541494534653,0.043032545682769395,-0.1839191077267427,0.005083035264810984
8,8,14150.169511839036,1263.4377178185591,19.897964052816356,14248.28911716968,-6614.02112620461,8.674862268689798,14280.853873652197,53933.06128817229,10.687114816030988,14309.027373698991,-4584.2130630986285,14.363106011820715,14551.714144489746,10358.559435350817,42.14427511668895,0.9951376700708192,106.0,64.0,94.0,270.0,364.0,42.0,2324.0,2324.0,45.0,21.0,24.0,0.4666666666666667,29.798189061912232,1433.7540225500263,18.0,11.0,7.0,0.6111111111111112,757.4086377131025,656.718595513571,25.0,13.0,12.0,0.52,2297.5395838435884,51075.91410709241,27.0,4.0,23.0,0.1481481481481481,907.1939343849282,15753.889836756918,100.0,50.0,50.0,0.5,55.10216283381312,10910.278811810138,,,,,14131.0,14173.0,14237.0,14255.0,14268.0,14293.0,14305.0,14331.0,14504.0,14601.0,0.02358500830049742,-0.11451560605276354,0.04259983633355236,-0.1978952378299198,0.0053194812635592075
9,9,15417.552899351726,1428.4263255353703,20.595838579762574,15513.001930596474,-6312.3198427877805,8.320179153067507,15545.106036119903,53889.575711184974,10.579483331313003,15573.45203459914,-3857.785294111593,11.551911883915846,15815.32847444812,10656.803364689744,44.324745526859,0.9945958019062758,100.0,63.0,93.0,271.0,364.0,37.0,1267.0,1264.0,39.0,17.0,22.0,0.4358974358974359,42.49402357522224,1737.3660944162286,17.0,11.0,6.0,0.6470588235294118,792.5938212225896,1808.1035422258956,26.0,13.0,13.0,0.5,2313.282839231292,52644.878313170106,25.0,3.0,22.0,0.12,916.3764659964088,15265.73051017723,104.0,51.0,53.0,0.4903846153846153,58.692031523271666,11384.38569961228,,,,,15402.0,15439.0,15502.0,15519.0,15532.0,15558.0,15570.0,15595.0,15767.0,15866.0,0.029748838155370456,-0.125563000760834,0.042926350944551266,-0.23753951973302873,0.005507470628363273
10,10,16683.73467994151,530.2286847059812,6.027311783415221,16776.163901142252,-7096.242031908271,11.569801583544267,16808.645739322765,53612.00792090237,10.641200875431798,16836.027373698995,-5197.389840408465,17.8357578060484,17080.17346286138,9956.168218182547,37.709206895007945,0.9913334283202944,89.0,71.0,101.0,262.0,363.0,18.0,1262.0,1264.0,18.0,9.0,9.0,0.5,37.91234096920316,426.30269726467895,19.0,12.0,7.0,0.631578947368421,746.1902412388374,434.1963720845242,25.0,13.0,12.0,0.52,2309.0960423671845,49199.98941808675,34.0,4.0,30.0,0.1176470588235294,960.037102623104,17191.961121361528,93.0,46.0,47.0,0.4946236559139785,52.789373259715646,10272.503188004546,,,,,16675.0,16693.0,16764.0,16783.0,16796.0,16821.0,16832.0,16865.0,17035.0,17127.0,0.07150186714290278,-0.105152873574998,0.04307050102980584,-0.18471523824498307,0.00530217771565054
11,11,17936.66531655662,216.24218030471295,2.916219212209123,18032.397287201147,-6875.921960563114,18.55091086767619,18062.2020994625,54262.952980663846,10.80123780565942,18091.213229561698,-5741.866637661518,15.28779240518434,18334.22392229798,10074.76907280494,37.19347265486116,0.9832299512204442,85.0,75.0,104.0,260.0,364.0,10.0,1253.0,1254.0,10.0,5.0,5.0,0.5,46.64852132936214,222.04231526782837,21.0,15.0,6.0,0.7142857142857143,912.5124549067529,2567.0719605222803,25.0,12.0,13.0,0.48,2295.1465042174505,51388.18708815069,35.0,5.0,30.0,0.1428571428571428,849.4233663091545,15924.636062152416,95.0,47.0,48.0,0.4947368421052631,54.10295406730947,10386.52697644,,,,,17932.0,17942.0,18017.0,18037.0,18050.0,18075.0,18086.0,18121.0,18288.0,18381.0,0.2157235062263449,-0.13271128732124546,0.042296749036774814,-0.14793505664825018,0.005370143342873321
12,12,20261.73091469831,463.41171164139774,6.247451197289017,20353.179095146872,-7044.609229968781,10.070409551079672,20385.522496621015,52421.59719587043,10.712816860977195,20413.602712798853,-5195.975810689576,20.383723206849673,20654.92131144542,9637.404101434971,40.28576283816327,0.989749369796385,89.0,70.0,100.0,263.0,363.0,19.0,2326.0,2323.0,19.0,10.0,9.0,0.5263157894736842,31.393986966249,439.6874079528015,19.0,12.0,7.0,0.631578947368421,757.877071015287,28.59269384754134,26.0,14.0,12.0,0.5384615384615384,2207.358373639628,47151.655795507984,33.0,5.0,28.0,0.1515151515151515,828.4430908577481,15718.43735770023,99.0,49.0,50.0,0.494949494949495,51.422989893615096,10062.573705959756,,,,,20252.0,20271.0,20341.0,20360.0,20372.0,20398.0,20409.0,20441.0,20609.0,20704.0,0.06774534647614308,-0.10758255657264408,0.042107804639983676,-0.1594393663560575,0.005335771889648003
13,13,21512.506781997123,1290.9790424908226,38.808463467779774,21613.519700253357,-5661.517170964394,7.6843074007919165,21645.59435255676,55047.88096314291,10.601254376686436,21673.876695499283,-3250.5357400869025,9.578819658480096,21917.584230124456,10515.053053032549,44.08298547413045,0.9960778959166288,102.0,53.0,90.0,275.0,365.0,49.0,1259.0,1260.0,72.0,30.0,42.0,0.4166666666666667,38.915107975913344,1881.2054830554816,16.0,11.0,5.0,0.6875,829.5531298087631,3504.93293785656,26.0,14.0,12.0,0.5384615384615384,2338.0457130407294,52657.88985986321,23.0,3.0,20.0,0.1304347826086956,880.3121038242449,14069.611438237942,101.0,50.0,51.0,0.495049504950495,53.81058716123365,11177.566110899574,,,,,21501.0,21550.0,21603.0,21619.0,21632.0,21658.0,21671.0,21693.0,21869.0,21968.0,0.0301438727470202,-0.14652488100949368,0.042472946680838786,-0.2708206198036481,0.00511748128039303
14,14,22763.538983948787,1213.1897868807707,10.447107283731148,22855.20823943868,-6610.234048294232,8.95928806838428,22887.671079857417,53965.96636790059,10.573300514966288,22915.45203459914,-4253.56107541523,14.796675021230634,23156.58430566296,10918.668332706791,43.73717493691706,0.992309861326958,94.0,67.0,96.0,268.0,364.0,27.0,1242.0,1242.0,27.0,14.0,13.0,0.5185185185185185,47.83581919884841,1170.990895863273,18.0,11.0,7.0,0.6111111111111112,752.9964162249637,636.1648706136634,25.0,13.0,12.0,0.52,2319.7751426212317,50514.6677295883,30.0,3.0,27.0,0.1,970.651000136938,16438.893234692147,103.0,51.0,52.0,0.4951456310679611,54.400073677743784,11559.330241625315,,,,,22750.0,22777.0,22844.0,22862.0,22875.0,22900.0,22912.0,22940.0,23108.0,23208.0,0.039429790553907454,-0.1139137299411167,0.0429858909003259,-0.2281972641105626,0.004982299307946626
15,15,23982.423478229943,1771.56220975571,19.44357323974994,24072.85148804158,-6373.245023715585,7.996506900446334,24104.54777513088,53477.568547693016,10.56989540488444,24131.876695499283,-3944.951187144856,10.802507204232825,24370.771747057523,11162.931192734864,47.652406271332794,0.991053887215927,99.0,56.0,92.0,272.0,364.0,43.0,1218.0,1217.0,43.0,19.0,24.0,0.4418604651162791,45.712786948827095,1936.6671985070593,17.0,11.0,6.0,0.6470588235294118,840.6290238881712,2407.200564567742,26.0,14.0,12.0,0.5384615384615384,2305.554361258182,50565.47573753804,26.0,3.0,23.0,0.1153846153846153,961.120067614804,15692.869343641352,110.0,54.0,56.0,0.4909090909090909,57.82675730560659,11929.59662486033,,,,,23963.0,24006.0,24062.0,24079.0,24091.0,24117.0,24129.0,24154.0,24319.0,24426.0,0.025803658882027444,-0.13189968701345905,0.04311255024996161,-0.24363294297448868,0.005180248476604586
16,16,27390.68309856621,804.187734315838,9.371543988136072,27485.210679852767,-7045.159199003515,10.0357672263634,27518.036996670133,54791.34008440305,10.670844525109278,27546.027373698995,-4811.8208221502255,17.77676105305132,27788.88273088684,9264.662588385065,38.97498331007767,0.9912349115786218,94.0,69.0,97.0,267.0,364.0,25.0,3411.0,3413.0,25.0,12.0,13.0,0.48,35.373286100459694,718.4023970806106,19.0,12.0,7.0,0.631578947368421,740.6919788969259,188.2961425002195,26.0,13.0,13.0,0.5,2330.244113537716,51773.97670669863,29.0,4.0,25.0,0.1379310344827586,930.3783579904228,16468.8852953413,98.0,49.0,49.0,0.5,45.95254384563141,9530.7367034551,,,,,27379.0,27404.0,27473.0,27492.0,27505.0,27531.0,27542.0,27570.0,27742.0,27837.0,0.04398635367219755,-0.1051348816931903,0.04252942362694731,-0.1933526605370711,0.004959980291483174
17,17,28634.02818362809,945.500230677935,7.599421474644879,28726.536891132135,-7122.556036007777,10.048547763163402,28759.11100647307,54034.16261504074,10.59236713235426,28787.027373698995,-4737.530279262825,17.83575780604286,29030.00732848234,9877.129110253489,40.59573170554301,0.9907027134713848,92.0,70.0,99.0,265.0,364.0,22.0,1242.0,1241.0,22.0,11.0,11.0,0.5,50.91981174496938,894.9526405941256,19.0,12.0,7.0,0.631578947368421,803.5145849165249,727.5078984828006,26.0,13.0,13.0,0.5,2319.458744017548,51228.10676475222,32.0,4.0,28.0,0.125,901.5933475047916,16217.439041803767,100.0,50.0,50.0,0.5,54.05012967724894,10282.824686876387,,,,,28623.0,28645.0,28715.0,28734.0,28746.0,28772.0,28783.0,28814.0,28982.0,29079.0,0.053854890874494306,-0.11281267298626944,0.04292578309285971,-0.19030872508641408,0.005472251002686527
18,18,29930.430158843956,1739.9093544188795,28.704117496845665,30020.022664205815,-5713.443506634278,7.220450507448906,30051.544161731203,53776.025806852595,10.538509793362769,30079.30135639943,-3378.8208524397064,9.01563766673376,30317.02170194378,10817.927019514927,48.721597289278805,0.9892424137934298,103.0,52.0,87.0,276.0,363.0,51.0,1294.0,1293.0,51.0,23.0,28.0,0.4509803921568627,41.53474603376548,2001.11961969471,15.0,10.0,5.0,0.6666666666666666,828.7671416512904,3005.4065415484856,26.0,14.0,12.0,0.5384615384615384,2297.445801018648,51179.80340996685,24.0,3.0,21.0,0.125,962.5640113911172,15195.154484006976,113.0,55.0,58.0,0.4867256637168141,62.99415834644745,11598.895151841798,,,,,29907.0,29958.0,30010.0,30025.0,30038.0,30064.0,30077.0,30097.0,30267.0,30373.0,0.023871787302182684,-0.14505562900708674,0.042722491417837134,-0.2848816357623961,0.005823126578022717
19,19,33423.385344004746,1412.677244197146,24.842723364801056,33519.26743814993,-6109.70630085279,7.998582515554244,33551.276526913665,54725.98601032036,10.590067647342927,33580.45203459914,-3505.1164491385284,9.818479923367704,33819.1967723271,9843.684751606084,46.525571061652926,0.9901855785437854,100.0,58.0,89.0,275.0,364.0,42.0,3500.0,3499.0,45.0,16.0,29.0,0.3555555555555555,39.64577185498139,1812.0814075752087,17.0,11.0,6.0,0.6470588235294118,785.4309561686022,1848.8263446040712,26.0,13.0,13.0,0.5,2326.19050765978,54467.3984150295,21.0,3.0,18.0,0.1428571428571428,864.1887431814883,13965.509366589424,108.0,53.0,55.0,0.4907407407407407,59.69648683107783,10617.127989276898,,,,,33408.0,33450.0,33508.0,33525.0,33538.0,33564.0,33577.0,33597.0,33770.0,33872.0,0.028064281503672777,-0.12855461743864383,0.042506141547108925,-0.2465506512326815,0.006064445209029862
20,20,34712.44601327035,531.774144748454,5.986986764370069,34804.57628655909,-7332.5568653556,11.444012403164756,34836.90598786821,53373.02906623957,10.707303811308009,34865.027373699,-5301.790405700148,17.8357578060484,35108.67567199738,9653.363829677732,37.08638899631287,0.9866275154922342,89.0,70.0,101.0,262.0,363.0,19.0,1284.0,1286.0,19.0,9.0,10.0,0.4736842105263157,38.47306246368843,524.9425075118046,20.0,13.0,7.0,0.65,814.322051269943,586.8932174289557,25.0,13.0,12.0,0.52,2293.7786760877066,49956.20216809756,33.0,4.0,29.0,0.1212121212121212,882.2786373171577,16283.083704141478,93.0,46.0,47.0,0.4946236559139785,59.9018267710243,10085.615171410473,,,,,34703.0,34722.0,34792.0,34812.0,34824.0,34849.0,34861.0,34893.0,35064.0,35155.0,0.07234850141480159,-0.11105567487889528,0.042976363084826434,-0.1664114515671136,0.0062052801311461665
21,21,35997.21847945421,1177.7057829755224,11.022769057086052,36087.68710975611,-6720.631155439143,9.259124191991155,36120.17382199885,53102.40163702713,10.58902504218721,36147.45203459914,-4105.103605651062,14.668680289689046,36391.10961010963,10553.38125566761,42.59392112246274,0.9938151421506078,93.0,65.0,97.0,269.0,366.0,28.0,1283.0,1283.0,29.0,15.0,14.0,0.5172413793103449,42.51538150490099,1115.8532875575306,18.0,12.0,6.0,0.6666666666666666,786.2457363678083,1155.1216409669446,26.0,13.0,13.0,0.5,2282.857501822867,51250.19838751051,31.0,3.0,28.0,0.0967741935483871,1003.6490118787004,16694.686564981865,102.0,50.0,52.0,0.4901960784313725,54.3906320678896,11113.39321891818,,,,,35983.0,36011.0,36076.0,36094.0,36107.0,36133.0,36144.0,36173.0,36343.0,36442.0,0.03610017214782127,-0.11698986571097324,0.042989722337361876,-0.24448810755886477,0.005153858346459296
22,22,38382.956960145704,829.1491427155701,10.496679441968626,38477.761243547466,-6805.42657300484,9.902042329225903,38510.54514454408,54137.54958356437,10.676181748108744,38539.027373699,-4762.435941751078,17.56847846497391,38781.163156713825,9757.46444381982,39.87437677842411,0.9896141542865916,96.0,69.0,98.0,266.0,364.0,27.0,2389.0,2391.0,28.0,13.0,15.0,0.4642857142857143,32.46706935120172,805.8961382225584,19.0,12.0,7.0,0.631578947368421,770.9777407041472,684.3461566447563,26.0,14.0,12.0,0.5384615384615384,2298.6288699406946,49734.05828981691,30.0,4.0,26.0,0.1333333333333333,864.5101907685896,15651.075661830131,98.0,48.0,50.0,0.4897959183673469,56.05581136930814,10255.58164367883,,,,,38370.0,38397.0,38466.0,38485.0,38497.0,38523.0,38535.0,38564.0,38735.0,38830.0,0.03915709210633433,-0.11328867227256452,0.042459048989512006,-0.18152689114191464,0.0057449157711061665
23,23,39679.27408141096,1013.4070391101787,10.308407327047822,39771.82419340403,-6991.236066075979,9.67060022952188,39804.46232196747,53731.900661052015,10.570193736496062,39832.027373699,-4337.04172403784,17.835757805978968,40074.56106820632,10151.980673728172,42.141342971281006,0.9917508532563568,94.0,67.0,100.0,266.0,366.0,27.0,1295.0,1294.0,27.0,13.0,14.0,0.4814814814814814,41.20710380556536,1009.1416081700156,19.0,12.0,7.0,0.631578947368421,771.2574353437899,351.2570171274906,26.0,13.0,13.0,0.5,2295.7616344999724,51988.8882034561,33.0,4.0,29.0,0.1212121212121212,925.4201941250068,16193.090825780217,103.0,51.0,52.0,0.4951456310679611,52.7250627034579,10650.568064084771,,,,,39666.0,39693.0,39760.0,39779.0,39791.0,39817.0,39828.0,39860.0,40026.0,40126.0,0.04066194748533346,-0.11031775040270941,0.042726231647414493,-0.21337590297919223,0.00519357398304575
24,24,40943.291403441646,1323.6185527574094,16.804063556294775,41036.656266694496,-6541.175164198542,8.636990602397,41068.83214613612,53054.141747542984,10.59497977023963,41095.87669549929,-4171.525493993502,11.442969352827609,41336.66155844952,10830.24087717442,45.04307855700358,0.9903201752546748,99.0,61.0,94.0,270.0,364.0,38.0,1264.0,1264.0,38.0,17.0,21.0,0.4473684210526316,39.57948715179654,1437.1789044640054,18.0,12.0,6.0,0.6666666666666666,813.7739935579559,1882.0496540636875,25.0,13.0,12.0,0.52,2295.0764147191444,50835.329386898346,27.0,3.0,24.0,0.1111111111111111,982.0337670711826,16182.302924076055,106.0,52.0,54.0,0.490566037735849,60.02332717759309,11504.27716474442,,,,,40926.0,40964.0,41025.0,41043.0,41056.0,41081.0,41093.0,41119.0,41288.0,41389.0,0.029902487441977255,-0.12440791954509044,0.04325913753614594,-0.23541358394793316,0.005542196878011915
25,25,42209.62670795704,1012.6222077728142,9.390275902371643,42299.81555217011,-7183.9332067099895,9.633488883810436,42331.69195482046,51441.06445115274,10.55999458469479,42359.85847099491,-5266.841829133364,15.28779240518434,42600.09976374752,10468.245100154449,42.45015942893434,0.9879457312350476,91.0,67.0,100.0,264.0,364.0,24.0,1266.0,1263.0,24.0,13.0,11.0,0.5416666666666666,44.12872823096563,996.7897230155806,19.0,12.0,7.0,0.631578947368421,811.0648945068198,838.9608011618066,25.0,13.0,12.0,0.52,2244.231603301801,47800.551398930875,33.0,5.0,28.0,0.1515151515151515,833.4901587600299,15477.327853039247,104.0,51.0,53.0,0.4903846153846153,53.252724838477725,10953.35044588762,,,,,42197.0,42221.0,42288.0,42307.0,42319.0,42344.0,42355.0,42388.0,42551.0,42652.0,0.04357866921368772,-0.112899837897889,0.04362723880709879,-0.1582523618137925,0.005087072792907001
26,26,44660.39264676043,1117.7176951065344,13.775547009140045,44752.02255887448,-6331.125409667181,8.669049395915996,44784.527349087744,55032.08064793556,10.67741321550895,44812.45203459914,-4065.4239953287088,13.07908492390542,45055.80647453032,9987.48377250654,41.22835362487465,0.9936898208577102,95.0,65.0,94.0,271.0,365.0,30.0,2450.0,2453.0,32.0,15.0,17.0,0.46875,38.84809164001843,1159.3292725020997,17.0,11.0,6.0,0.6470588235294118,774.3273045476292,1577.2379653418016,26.0,14.0,12.0,0.5384615384615384,2344.7240682899587,51683.50728654454,28.0,3.0,25.0,0.1071428571428571,982.4537538042767,16341.815896637672,101.0,50.0,51.0,0.495049504950495,52.48271705569065,10430.29772589704,,,,,44646.0,44676.0,44741.0,44758.0,44771.0,44797.0,44809.0,44835.0,45008.0,45106.0,0.034756622186531326,-0.12230484383791958,0.04260649498771799,-0.24166083413025183,0.005254848793863838
27,27,45956.55169235584,1044.4635068905889,10.156720459758386,46049.92420837144,-6827.34907983837,8.859295536682033,46082.39280821139,54251.24793301887,10.564082619003011,46110.45203459914,-4370.3133045832255,15.287792405184314,46352.81675068017,10519.506029222028,40.517019639203504,0.9933316954085012,95.0,69.0,97.0,266.0,363.0,26.0,1298.0,1297.0,26.0,13.0,13.0,0.5,43.25001410125444,1005.7606001968352,19.0,12.0,7.0,0.631578947368421,786.107119313407,914.7089884153124,26.0,13.0,13.0,0.5,2326.848329642344,52842.45687537106,31.0,4.0,27.0,0.1290322580645161,945.350799450176,16273.873986570288,99.0,49.0,50.0,0.494949494949495,48.568163077726304,10797.325544576686,,,,,45944.0,45970.0,46039.0,46057.0,46069.0,46095.0,46107.0,46136.0,46306.0,46402.0,0.04140883220516869,-0.11514090024118369,0.04289022682971606,-0.21631190570679906,0.004616962331007683
28,28,47241.25363490784,813.2162279961079,7.862240287984343,47331.4493855516,-6928.946165412006,9.358607033566727,47364.02273184896,53910.155638557226,10.581898468820247,47391.45203459914,-4367.804297504575,15.287792405129764,47632.80926097284,10862.843714128916,42.31086198072578,0.9914299178938356,90.0,67.0,97.0,267.0,364.0,23.0,1282.0,1282.0,23.0,11.0,12.0,0.4782608695652174,42.228602984943926,754.9964616558791,18.0,11.0,7.0,0.6111111111111112,737.6003766224045,276.7933502519277,26.0,13.0,13.0,0.5,2318.1106682561967,51363.733268966935,31.0,3.0,28.0,0.0967741935483871,1007.6097674632322,17037.355665471176,101.0,49.0,52.0,0.4851485148514851,54.00592638958484,11420.625119204064,,,,,47230.0,47253.0,47320.0,47338.0,47351.0,47377.0,47388.0,47417.0,47585.0,47684.0,0.05192789018610931,-0.1064520287809951,0.042999517267174325,-0.23069022759076052,0.004971619569500135
29,29,48522.728603496165,818.3093259878785,8.116148446293877,48614.12507130161,-6824.925547282588,8.897252100380042,48646.74827266358,53520.0429632923,10.560151440130156,48674.45203459914,-4362.18172687656,14.67976641583708,48916.09265212447,10959.604987799468,43.28814193148389,0.9892282949678576,91.0,68.0,96.0,269.0,365.0,23.0,1282.0,1283.0,24.0,12.0,12.0,0.5,42.42914066481364,780.2053972602348,18.0,11.0,7.0,0.6111111111111112,755.0877798012541,296.2149540503933,25.0,13.0,12.0,0.52,2306.031356795635,50254.30319141489,30.0,3.0,27.0,0.1,974.792001664416,16592.062633671725,104.0,51.0,53.0,0.4903846153846153,54.26113493545848,11531.03105834812,,,,,48512.0,48535.0,48603.0,48621.0,48634.0,48659.0,48671.0,48699.0,48866.0,48968.0,0.05184975817499376,-0.11063677904909891,0.043087247862959845,-0.2234643264993899,0.004951011920216418
30,30,50836.52366602058,814.9373208023851,8.418770789970372,50928.269083644394,-7191.695117698658,9.83696495818842,50961.056699599954,54218.49665309814,10.66584197898178,50989.60271279886,-4641.206508842068,18.261317089807463,51231.04672348619,9962.329342437317,41.14520659659725,0.9941630074255832,90.0,69.0,99.0,265.0,364.0,21.0,2316.0,2314.0,21.0,11.0,10.0,0.5238095238095238,41.07464336732599,805.5995180188197,19.0,12.0,7.0,0.631578947368421,747.4399687694655,432.0343992619064,26.0,13.0,13.0,0.5,2299.868628416918,51285.2076481726,31.0,5.0,26.0,0.1612903225806451,805.0034185582821,14839.20184793772,99.0,49.0,50.0,0.494949494949495,55.06583926245555,10521.1158727222,,,,,50826.0,50847.0,50916.0,50935.0,50948.0,50974.0,50985.0,51015.0,51184.0,51280.0,0.05040221170247057,-0.10393098658062222,0.04241852449602177,-0.17344701577588756,0.005527406028215436
31,31,52114.64598147161,1104.4193325032336,15.580212873232536,52207.10117680887,-6474.157464048127,8.375610299651903,52239.48352750787,54198.07582794175,10.57487212017064,52268.60271279886,-3796.288298688278,15.707863063076983,52510.184091889954,10007.159589976893,42.155414998484225,0.9937850538604668,97.0,66.0,98.0,266.0,364.0,31.0,1276.0,1279.0,32.0,17.0,15.0,0.53125,39.03033326557214,1134.450607097534,17.0,11.0,6.0,0.6470588235294118,775.6440803507843,1138.3102730025917,26.0,13.0,13.0,0.5,2305.862126654311,53246.01397526123,30.0,5.0,25.0,0.1666666666666666,725.1027155393027,13061.797077564706,102.0,50.0,52.0,0.4901960784313725,58.38030682092588,10618.418911305476,,,,,52099.0,52130.0,52196.0,52213.0,52226.0,52252.0,52264.0,52294.0,52462.0,52560.0,0.035340139489506685,-0.11980618090586163,0.04254509207992079,-0.1910030689159845,0.005833853881914627
32,32,53396.86949124757,1036.416477443462,9.514865429870293,53490.36700807883,-6821.709489931706,9.125862811307613,53522.77808363686,53624.930501314535,10.605657843808904,53550.45203459914,-4258.0358253254135,15.253242816895376,53790.6518154553,10740.778705572762,44.31457091142502,0.993013129374106,95.0,70.0,97.0,267.0,364.0,25.0,1284.0,1283.0,25.0,13.0,12.0,0.52,46.933056583862815,993.7471525197976,18.0,11.0,7.0,0.6111111111111112,751.3578698205813,244.00490092508744,25.0,13.0,12.0,0.52,2302.2874608265633,50479.00614175158,30.0,3.0,27.0,0.1,973.753439853567,16494.82089905015,105.0,52.0,53.0,0.4952380952380952,50.66694824164042,11323.858718266,,,,,53384.0,53409.0,53479.0,53497.0,53510.0,53535.0,53547.0,53576.0,53741.0,53843.0,0.045283973774358555,-0.11014216757977234,0.04293315514451112,-0.22868606085040383,0.004717250921048425
33,33,54684.38036636793,1121.5894003949047,12.262274289246546,54777.594143991715,-7406.368880058484,9.345662446128737,54809.59589779861,52013.58449688513,10.59646912446347,54837.027373699,-4659.457039116284,17.773801923093302,55079.71220759482,10583.005879330682,44.4499591541949,0.9839700957781696,96.0,67.0,99.0,266.0,365.0,29.0,1287.0,1287.0,29.0,14.0,15.0,0.4827586206896552,40.89102266334364,1161.1072837836043,18.0,12.0,6.0,0.6666666666666666,841.6065108604591,894.6590715035582,25.0,13.0,12.0,0.52,2227.6382099435195,47670.98886601837,33.0,4.0,29.0,0.1212121212121212,918.7298220210852,16336.77023718328,106.0,54.0,52.0,0.5094339622641509,55.00767887996505,11169.190169417256,,,,,54670.0,54699.0,54766.0,54784.0,54797.0,54822.0,54833.0,54865.0,55029.0,55131.0,0.036458103695475516,-0.1136328104216453,0.042828007942365964,-0.19717529624338634,0.0051977367779223035
34,34,57114.21161313095,782.362444786543,7.421458613970779,57207.74191701779,-6953.817514731422,11.646510256829078,57240.44266693066,54500.16640267395,10.712693038440724,57269.027373699,-4477.27736461141,17.8357578055381,57514.87112602734,9929.648457689776,39.7789631504039,0.9914416235080998,91.0,71.0,98.0,270.0,368.0,20.0,2430.0,2431.0,20.0,10.0,10.0,0.5,45.74376155433128,769.5973960346784,20.0,13.0,7.0,0.65,774.9213217059773,348.5660391238566,26.0,13.0,13.0,0.5,2315.4414997771646,53116.88969725397,29.0,4.0,25.0,0.1379310344827586,865.8104587734709,15349.16763355827,98.0,49.0,49.0,0.5,54.69730613234005,10376.619999880826,,,,,57104.0,57124.0,57195.0,57215.0,57227.0,57253.0,57265.0,57293.0,57468.0,57563.0,0.05846875940832237,-0.11143825964146072,0.04248503541566364,-0.1933787854236759,0.005508483645257456
35,35,58414.701336047096,1004.229045791097,10.525860303874856,58505.83201968938,-6812.757896451721,9.20955768312158,58538.36163669684,53598.056147272226,10.629000525847548,58566.45203459914,-4294.898337701217,15.287792405151796,58810.73928975304,10325.628993192098,41.06825969520295,0.9944144354506332,93.0,67.0,98.0,268.0,366.0,26.0,1302.0,1297.0,26.0,14.0,12.0,0.5384615384615384,42.503305488608106,1018.6355108275252,19.0,12.0,7.0,0.631578947368421,785.9596119932866,923.462583403502,26.0,13.0,13.0,0.5,2293.3775752570477,52245.28957767224,30.0,3.0,27.0,0.1,927.4198235334418,15994.525735500754,99.0,50.0,49.0,0.5050505050505051,52.37056021674313,10832.988514695662,,,,,58401.0,58427.0,58494.0,58513.0,58525.0,58551.0,58563.0,58592.0,58762.0,58860.0,0.04232431402651322,-0.11536585094307208,0.04278844682268883,-0.2159352214212898,0.005071900244650677
36,36,,,,,,,,,,,,,,,,,,,,,,,,,,,,,,,,,,,,,,,,,,,,,,,,,,,,,,,,,,,,59467.0,59795.0,59814.0,59827.0,59852.0,59863.0,59897.0,60067.0,60159.0,,,,,
37,37,60996.83299511316,1109.9590280460409,9.73341905508846,61088.625640334336,-6958.968137110629,9.469633371805246,61121.29499875896,52950.220952619864,10.56924902289334,61148.45203459914,-4400.656941528924,14.86363998980556,61391.25029575779,10507.803968085282,41.4594420725105,0.9893958103207366,93.0,67.0,97.0,268.0,365.0,26.0,2579.0,2583.0,26.0,13.0,13.0,0.5,47.69017897310934,1023.147873464416,19.0,12.0,7.0,0.631578947368421,782.9741465154781,641.2619252487207,26.0,13.0,13.0,0.5,2279.711960340666,51200.193824718546,31.0,3.0,28.0,0.0967741935483871,1019.9630249578048,17137.579093592944,103.0,51.0,52.0,0.4951456310679611,59.39588057300953,10939.273251353205,,,,,60984.0,61010.0,61077.0,61096.0,61108.0,61134.0,61145.0,61174.0,61342.0,61442.0,0.042965711137160245,-0.1125129661594585,0.04305387058498895,-0.23177517323207616,0.005652549357925695
38,38,62263.68210932384,1524.8376614293404,18.20870245891959,62354.18849334418,-6265.144480534161,7.905317024085116,62386.165447537634,53162.11978510461,10.546499448183791,62413.45203459914,-4107.507496611885,13.376417269186195,62654.14067862986,10729.697881486742,44.584071071257725,0.991362001851566,98.0,54.0,95.0,269.0,364.0,44.0,1267.0,1265.0,44.0,19.0,25.0,0.4318181818181818,39.845764563238966,1611.0338797005156,17.0,11.0,6.0,0.6470588235294118,787.2351889893403,1546.9717881646088,26.0,13.0,13.0,0.5,2283.9588810904083,51332.79332184006,30.0,3.0,27.0,0.1,1014.1125661670692,16709.513120920954,106.0,52.0,54.0,0.490566037735849,54.08641656040048,11229.883388395843,,,,,62245.0,62289.0,62343.0,62360.0,62373.0,62399.0,62410.0,62438.0,62604.0,62707.0,0.02613115190628795,-0.12565315794955478,0.042962148430551225,-0.24689244438471974,0.0050408144905666336
39,39,64625.36697089655,885.7661291981656,9.999721091059742,64717.07058286701,-7123.225434097353,9.545730621768834,64749.95746645386,54511.85677177381,10.60045359676891,64778.60271279886,-4396.854334862534,20.383723202962535,65020.79503408307,9491.152419492531,38.38869414088364,0.9891788247290132,93.0,68.0,98.0,265.0,363.0,25.0,2363.0,2364.0,25.0,12.0,13.0,0.48,43.30164247867199,917.1793644543454,18.0,11.0,7.0,0.6111111111111112,754.2840158188112,378.0806919521092,25.0,13.0,12.0,0.52,2307.66258852218,51014.02439261828,31.0,5.0,26.0,0.1612903225806451,790.6520862593555,14511.756877169437,97.0,48.0,49.0,0.4948453608247423,54.932293121668955,9799.351309096368,,,,,64613.0,64638.0,64706.0,64724.0,64737.0,64762.0,64774.0,64804.0,64975.0,65069.0,0.048886089737785,-0.10589079663381357,0.0423332229937375,-0.17982221516648786,0.0057877369041984105
40,40,65903.65982487208,276.09541191890565,3.916917803013818,66000.972626301,-6911.525272200472,17.320950369125352,66030.40578824388,54829.33260914134,10.909462325076266,66058.45203459915,-5340.3300932851,15.28779240518434,66300.82173615288,9667.033444309229,38.2458104523837,0.9879508122587032,88.0,75.0,102.0,261.0,363.0,13.0,1277.0,1281.0,13.0,6.0,7.0,0.4615384615384615,44.8102615054852,198.60536904366313,21.0,16.0,5.0,0.7619047619047619,993.9464303303,4685.019048772147,25.0,12.0,13.0,0.48,2309.176284379977,52906.36617307862,36.0,4.0,32.0,0.1111111111111111,975.7854520511198,17220.536828581928,97.0,48.0,49.0,0.4948453608247423,49.17504325380742,9916.552434492838,,,,,65898.0,65911.0,65986.0,66005.0,66018.0,66043.0,66055.0,66088.0,66254.0,66349.0,0.16229991362061028,-0.14380999724158575,0.042115710231989636,-0.1827200631807511,0.005086880431013269
41,41,67154.09273885273,753.9802341879323,7.235912802802055,67246.16875105698,-7066.057661974814,9.955961767445055,67278.62621711094,53302.15935383656,10.60701463630496,67305.45203459915,-4973.944973751041,15.287792405174748,67548.52407968596,10477.674279471265,40.37468065793416,0.9901874126142498,90.0,70.0,99.0,265.0,364.0,20.0,1251.0,1248.0,20.0,10.0,10.0,0.5,47.52271599198102,731.1398259122693,19.0,12.0,7.0,0.631578947368421,758.4973220190045,32.53039806258266,25.0,13.0,12.0,0.52,2308.3666711890696,49283.60968626264,33.0,3.0,30.0,0.0909090909090909,1066.8172986754305,18061.8247926274,100.0,50.0,50.0,0.5,56.45894769349446,10919.823168556317,,,,,67144.0,67164.0,67234.0,67253.0,67266.0,67291.0,67302.0,67333.0,67502.0,67598.0,0.06302912707408695,-0.10734377757780998,0.04330718866125859,-0.21448112198774547,0.00538849998459234
42,42,68423.18170640897,1016.354845171287,8.441883799165312,68515.17664534779,-7149.278691250075,9.719152655892492,68547.74699499953,53215.04945490367,10.597149406167372,68574.45203459915,-4578.445444977964,15.287792398540113,68818.44266078566,10808.641868464974,42.67885360088917,0.9887791719313028,92.0,69.0,98.0,268.0,366.0,23.0,1270.0,1269.0,23.0,11.0,12.0,0.4782608695652174,51.262917545896514,998.7129579803876,18.0,11.0,7.0,0.6111111111111112,757.2094351399154,252.9977158927541,25.0,13.0,12.0,0.52,2294.851786421457,49655.72236722881,34.0,3.0,31.0,0.088235294117647,1070.872511827856,17832.209251273496,102.0,49.0,53.0,0.4803921568627451,56.80235897560851,11327.30250448796,,,,,68412.0,68435.0,68504.0,68522.0,68535.0,68560.0,68571.0,68602.0,68771.0,68870.0,0.050438011674217124,-0.10591410236485198,0.04312411263220184,-0.23389434791725688,0.005255272555688395
43,43,70750.05779077843,1396.4857256293558,29.395535046368284,70849.30426917404,-6093.412325739702,7.878826708105096,70881.4291044094,54639.675804762584,10.6388336668772,70910.45203459915,-3615.6069645430944,10.47218209372639,71150.92147002948,9997.51251347417,42.85962639462906,0.9913116314114936,112.0,56.0,90.0,273.0,363.0,56.0,2336.0,2334.0,67.0,32.0,35.0,0.4776119402985074,29.534601678708395,1693.0027172268951,16.0,10.0,6.0,0.625,781.1129119492931,1799.8667144802516,26.0,13.0,13.0,0.5,2309.239141451611,54558.80120722811,23.0,3.0,20.0,0.1304347826086956,878.5354767363193,14373.00115145144,101.0,49.0,52.0,0.4851485148514851,50.93682388344411,10524.398589348497,,,,,70727.0,70783.0,70839.0,70855.0,70868.0,70894.0,70907.0,70929.0,71104.0,71202.0,0.021149232775292424,-0.12818973510946033,0.04226304617368044,-0.24298423068430508,0.005094949750229759
44,44,72032.33331650308,715.1970930062902,7.395977045514829,72122.92991176584,-7075.136067563545,9.679115720913488,72155.87715142626,53762.9346236449,10.548332606479262,72184.60271279886,-4265.281000194962,16.941971973054606,72426.55806839908,9759.956209498016,38.53993320376715,0.9899062476805086,89.0,68.0,98.0,266.0,364.0,21.0,1274.0,1274.0,21.0,10.0,11.0,0.4761904761904761,43.4360222067941,728.2688657288288,19.0,12.0,7.0,0.631578947368421,743.7327508806526,198.81147187277293,25.0,13.0,12.0,0.52,2310.6723975231857,50710.75347056803,30.0,5.0,25.0,0.1666666666666666,769.1044120965676,13934.455482937172,95.0,47.0,48.0,0.4947368421052631,48.916159718338655,10073.65051474372,,,,,72022.0,72043.0,72111.0,72130.0,72143.0,72168.0,72180.0,72209.0,72381.0,72475.0,0.0607329400965729,-0.10511921520355591,0.042978911283368705,-0.18031740747242972,0.005011924097644549
45,45,73339.96971885084,1083.1781220099458,10.287418039229983,73429.75902673905,-6714.058209153526,9.05186366407708,73462.3477360172,53759.54152133508,10.586518371149344,73490.45203459915,-4259.834033415345,15.287792405139472,73733.5133238087,11018.209872287483,43.38621719928166,0.9925944291604862,92.0,64.0,98.0,269.0,367.0,28.0,1306.0,1306.0,28.0,14.0,14.0,0.5,45.12830959019167,1038.5578425362005,18.0,12.0,6.0,0.6666666666666666,781.6230282745443,1053.2055095789174,26.0,13.0,13.0,0.5,2300.498565620214,52217.11640358085,31.0,4.0,27.0,0.1290322580645161,931.940713372776,16028.525632008945,104.0,52.0,52.0,0.5,50.95898909928298,11501.174683645177,,,,,73326.0,73354.0,73418.0,73436.0,73449.0,73475.0,73487.0,73516.0,73683.0,73785.0,0.04166287028254555,-0.11641588498725382,0.04279237695334948,-0.21877394895255753,0.004624978983877661
46,46,75707.64332411603,1687.2322901190648,31.32624648850601,75804.99304104083,-5886.073839926407,7.612064947954023,75836.89845580676,53775.92629796692,10.693750764401717,75866.027373699,-3613.056245860811,11.639810423715575,76106.16951452322,9500.69327014569,44.70757226155179,0.991776185648924,118.0,52.0,93.0,271.0,364.0,66.0,2374.0,2375.0,67.0,32.0,35.0,0.4776119402985074,37.89069258847176,2116.777063580561,17.0,11.0,6.0,0.6470588235294118,811.4947542547602,2718.8255905646556,26.0,13.0,13.0,0.5,2268.9240544452614,52015.817688445415,26.0,4.0,22.0,0.1538461538461538,801.5197661464216,13477.602518095588,103.0,50.0,53.0,0.4854368932038835,55.482412491532465,10134.9373357988,,,,,75676.0,75742.0,75794.0,75810.0,75824.0,75850.0,75862.0,75887.0,76058.0,76158.0,0.022457306448182,-0.13786690013132866,0.04219218915678708,-0.22183982523512014,0.005839827780344882
47,47,77015.33784948233,601.4226222563042,5.888408682959806,77107.4956388205,-6990.671348737968,10.355037858213269,77140.29517794709,53837.76378638307,10.6230197862052,77169.60271279886,-4397.292699321026,16.4401329469878,77413.81212944143,9907.717050618652,40.779198734152715,0.9938247800764396,89.0,72.0,98.0,269.0,367.0,17.0,1301.0,1303.0,17.0,8.0,9.0,0.4705882352941176,49.48155617568238,535.3970575895696,19.0,11.0,8.0,0.5789473684210527,713.5665643123026,769.04365951409,26.0,13.0,13.0,0.5,2306.906690018663,52287.488014175266,29.0,5.0,24.0,0.1724137931034483,725.0028895854564,13436.883241405416,99.0,49.0,50.0,0.494949494949495,55.73768344737455,10425.750225446918,,,,,77007.0,77024.0,77096.0,77115.0,77127.0,77153.0,77165.0,77194.0,77365.0,77463.0,0.08227418514795268,-0.102074111156881,0.04284922938426611,-0.16487483075607,0.005625683814203617
48,48,78279.39341148642,1258.1092408686811,14.663248645221662,78372.76236630409,-6814.561092216181,8.951554007681752,78405.09574180855,53019.258802755256,10.599400485341684,78432.87669549929,-4086.2947865381407,12.739827004320285,78675.66864279138,10765.313637976098,43.72653081056134,0.992030808260876,97.0,66.0,96.0,271.0,367.0,31.0,1266.0,1265.0,32.0,16.0,16.0,0.5,43.445824446585064,1347.697807877993,18.0,12.0,6.0,0.6666666666666666,801.9004913011952,1132.311145951384,26.0,13.0,13.0,0.5,2285.1642984041305,51460.80735386345,29.0,4.0,25.0,0.1379310344827586,897.2486787428104,15155.86553514252,104.0,51.0,53.0,0.4903846153846153,52.45485520161965,11329.20448132878,,,,,78264.0,78295.0,78361.0,78379.0,78392.0,78418.0,78430.0,78457.0,78626.0,78728.0,0.03453263280745575,-0.11767456193431924,0.04310064587861378,-0.21957512260219203,0.004872580304263321
49,49,79542.90308249486,1521.1753796650828,22.30326728417484,79639.82036753542,-7038.55599947232,8.52337254346354,79671.48131716947,51812.21205631694,10.5208121155788,79699.027373699,-4714.758702226768,17.8357578060484,79939.84851310744,10647.006799735656,44.14530626805786,0.9862601484953706,105.0,60.0,99.0,265.0,364.0,45.0,1268.0,1266.0,47.0,20.0,27.0,0.425531914893617,39.485195202559446,1825.014657608065,17.0,11.0,6.0,0.6470588235294118,836.477846196644,1327.0272339320995,26.0,13.0,13.0,0.5,2221.2314082080065,49796.79476022221,34.0,4.0,30.0,0.1176470588235294,905.1042927773576,16118.637401128726,107.0,53.0,54.0,0.4953271028037383,54.56861080629163,11173.930836616111,,,,,79524.0,79569.0,79629.0,79646.0,79658.0,79684.0,79695.0,79728.0,79889.0,79993.0,0.0259570301560185,-0.11884225205558564,0.04287080825257285,-0.19197255892435794,0.005125253682344456
50,50,81901.66127066649,1404.5174054386898,18.309570330601016,81995.9354165557,-6466.965098330577,8.682985425996591,82028.42038887533,54237.58430264579,10.650738496170828,82057.45203459915,-3886.173084710073,13.247008781997703,82300.31886205365,9878.687989086422,39.741648801103864,0.9904719885410512,98.0,64.0,94.0,270.0,364.0,34.0,2354.0,2358.0,34.0,15.0,19.0,0.4411764705882353,46.20748177787209,1663.6738139599229,18.0,12.0,6.0,0.6666666666666666,781.3190473454514,1441.38050927348,26.0,13.0,13.0,0.5,2306.3968226594084,53712.726460202844,27.0,4.0,23.0,0.1481481481481481,856.3191732556456,14564.257450177627,97.0,47.0,50.0,0.4845360824742268,58.57071075108767,10403.14061734048,,,,,81887.0,81921.0,81985.0,82002.0,82015.0,82041.0,82054.0,82079.0,82255.0,82349.0,0.03289918772024014,-0.12081695748553614,0.042523959212300295,-0.22035024034950598,0.005928996929126037
51,51,83161.30783064496,993.3537885942764,8.353008448091298,83253.43595745337,-6652.152991314259,9.261628267996922,83285.94934244207,53220.06761387934,10.582278584023134,83314.027373699,-4209.363795972902,15.253086808756938,83556.56136900428,10473.202762578674,40.925539451436094,0.9934577409273236,93.0,69.0,97.0,267.0,364.0,24.0,1262.0,1257.0,24.0,12.0,12.0,0.5,52.05394590531376,948.1719267226752,18.0,11.0,7.0,0.6111111111111112,725.2187458233464,56.55339196145678,25.0,13.0,12.0,0.52,2287.391294951073,50633.90702209354,29.0,4.0,25.0,0.1379310344827586,879.0150228176626,15256.080173336184,99.0,49.0,50.0,0.494949494949495,54.122202691263254,10931.423896117609,,,,,83149.0,83173.0,83242.0,83260.0,83273.0,83298.0,83310.0,83339.0,83510.0,83606.0,0.05240222215186475,-0.10902015434255152,0.04297986450424089,-0.20882372382701067,0.005167684033068169
52,52,84405.81170330473,1136.0751928005595,13.585091394535151,84496.8868752197,-7230.314635127889,9.18582500068256,84528.5127713407,51075.62313158355,10.584320337717685,84556.027373699,-4655.428794908673,17.633667532984507,84795.68668310635,11031.170280556027,43.610672788085495,0.98835768239177,96.0,63.0,100.0,263.0,363.0,33.0,1240.0,1242.0,34.0,18.0,16.0,0.5294117647058824,37.91494589919033,1083.8089474595708,18.0,12.0,6.0,0.6666666666666666,825.8877745693678,1007.3725002885704,26.0,14.0,12.0,0.5384615384615384,2190.886034460761,46539.957066936586,34.0,4.0,30.0,0.1176470588235294,895.7889262305767,15965.590851738134,105.0,52.0,53.0,0.4952380952380952,54.24604272444419,11387.491196121224,,,,,84389.0,84422.0,84485.0,84503.0,84515.0,84541.0,84552.0,84585.0,84746.0,84848.0,0.033373623629370436,-0.11422570334033044,0.04289494479228363,-0.19241813497614665,0.00491752382973005
53,53,85521.28414181693,1142.8867305719746,14.485620875649312,85613.12252788464,-6711.402322372534,8.902679685351098,85644.96258599557,50797.01545164986,10.697734836037164,85673.60271279886,-4829.572193771701,17.633907100983993,85912.43360052502,9886.231873926115,40.41291475063608,0.9870226650152634,98.0,61.0,98.0,262.0,360.0,37.0,1114.0,1117.0,37.0,17.0,20.0,0.4594594594594595,36.66123799328732,1181.9588953260609,17.0,11.0,6.0,0.6470588235294118,786.8573337096637,1142.3876515609495,25.0,13.0,12.0,0.52,2152.3185603011784,47612.403262520005,31.0,5.0,26.0,0.1612903225806451,761.7999014466828,14267.619041675913,99.0,48.0,51.0,0.4848484848484848,57.34966600044342,10411.486764119742,,,,,85504.0,85541.0,85602.0,85619.0,85632.0,85657.0,85669.0,85700.0,85866.0,85962.0,0.03207775277515005,-0.11724186629173847,0.042370964930997186,-0.15773651803551317,0.0058009630698322035
54,54,86805.27383211128,1001.6586920051265,9.5437524627158,86896.22689009282,-6453.782734259759,8.97366958519932,86928.82617876139,54316.03379409575,10.64046278553557,86957.45203459915,-4048.2028654920423,12.553750606572734,87199.81657287484,10653.582070885031,43.52829003498886,0.9936058522172576,93.0,67.0,94.0,271.0,365.0,26.0,1290.0,1284.0,26.0,13.0,13.0,0.5,46.68392590472409,970.3940110594727,18.0,11.0,7.0,0.6111111111111112,744.0523179374475,755.5462698526126,26.0,13.0,13.0,0.5,2327.8879014537533,52167.68186738006,26.0,3.0,23.0,0.1153846153846153,904.6440218026434,15267.1342257104,101.0,50.0,51.0,0.495049504950495,56.488358993655005,11411.904321451995,,,,,86792.0,86818.0,86885.0,86903.0,86916.0,86942.0,86954.0,86979.0,87152.0,87250.0,0.04660661987694823,-0.11528933473196465,0.04285820850392797,-0.22346805529783834,0.005302287870671307
55,55,88087.00747622919,883.9721506587393,8.22923749249415,88180.69656805057,-6829.3471839282565,9.937648109044448,88213.36434790787,53683.24274686145,10.664173378743596,88240.452034601,-5056.711672469147,15.287792402915288,88484.87616430722,10327.300657233836,39.37984322981135,0.9934190199085194,93.0,71.0,98.0,266.0,364.0,22.0,1280.0,1284.0,22.0,11.0,11.0,0.5,48.68067547440592,867.6091605332475,19.0,12.0,7.0,0.631578947368421,779.4288686176563,849.3789284901877,26.0,13.0,13.0,0.5,2305.794580070103,51775.17211350995,33.0,3.0,30.0,0.0909090909090909,1044.1957120651562,17889.358425869883,96.0,48.0,48.0,0.5,53.58904415126647,10705.491617098627,,,,,88076.0,88098.0,88169.0,88188.0,88200.0,88226.0,88237.0,88267.0,88439.0,88533.0,0.05507037233936488,-0.1141293373474867,0.04295184981546052,-0.20649698454238438,0.005189065945681519
56,56,89366.3403913495,591.0959684575038,5.579251857652396,89458.15468623729,-7147.992569757359,10.09487926943367,89490.6075699499,52895.09622981214,10.625522612648826,89517.45203460768,-5224.081218877616,15.287792403119877,89759.47253848785,10818.217269238816,41.519656935488754,0.9886319820387948,88.0,71.0,101.0,264.0,365.0,17.0,1279.0,1278.0,17.0,8.0,9.0,0.4705882352941176,50.35734319175569,572.2754299548885,19.0,12.0,7.0,0.631578947368421,764.0034985934975,189.45943190404975,25.0,13.0,12.0,0.52,2293.0530932566703,48711.421685048816,35.0,3.0,32.0,0.0857142857142857,1055.187981416629,18133.954341212837,103.0,50.0,53.0,0.4854368932038835,57.62734730896354,11186.880649435769,,,,,89358.0,89375.0,89446.0,89465.0,89478.0,89503.0,89514.0,89547.0,89711.0,89811.0,0.08519317653809387,-0.10688364476285848,0.04335095796582152,-0.20198537067219147,0.00532688019428346
57,57,90556.95360667194,1145.0576051711291,15.212209637941593,90647.5525249798,-6454.147397388153,8.217131558306475,90678.82607774844,50672.15222763831,10.654848813493755,90706.45203459916,-4192.808886406207,14.392050586880192,90944.82393921731,10305.624023936709,45.59096713991045,0.9855513894313632,95.0,64.0,95.0,267.0,362.0,31.0,1188.0,1188.0,34.0,17.0,17.0,0.5,44.25422236081865,1187.7030443788017,17.0,12.0,5.0,0.7058823529411765,872.0090754712412,3115.766692992779,25.0,13.0,12.0,0.52,2163.528565532887,47907.620206006126,30.0,3.0,27.0,0.1,933.7158889854742,15862.265145131623,109.0,54.0,55.0,0.4954128440366973,60.900405413032665,10965.30813073683,,,,,90542.0,90573.0,90637.0,90653.0,90666.0,90691.0,90703.0,90732.0,90895.0,90999.0,0.03864803147104975,-0.1351083298506823,0.042696599027677085,-0.22269459788943358,0.0059094340402464
58,58,91799.9966104203,721.6739948166904,6.352077253869293,91890.06816373293,-6932.608619669357,10.10484504275369,91922.91955945296,54137.840922510215,10.678926997108745,91950.45203459916,-4711.13197623175,15.287792398781242,92193.6540137454,10564.178526303618,41.00357593830721,0.9922462805094296,88.0,69.0,98.0,268.0,366.0,19.0,1243.0,1244.0,20.0,10.0,10.0,0.5,49.83493061431296,672.955784280268,19.0,12.0,7.0,0.631578947368421,746.8408145758681,72.96722737675691,25.0,13.0,12.0,0.52,2324.1493183988123,51298.95222664658,32.0,3.0,29.0,0.09375,1011.772824689009,17190.66418098038,99.0,49.0,50.0,0.494949494949495,48.90921684558149,10928.050705687274,,,,,91790.0,91809.0,91878.0,91897.0,91910.0,91935.0,91947.0,91976.0,92146.0,92244.0,0.06905462989139761,-0.10772868562879984,0.042930218102444566,-0.21476214841645902,0.004629722673069471
59,59,93044.50765918664,1317.992128567045,14.573653478899574,93135.90958617278,-6630.433614085444,8.609697471042129,93168.2266425603,53540.76919742977,10.58060881235883,93195.87669549928,-4220.2507922332925,12.739827004320285,93438.81668902509,10466.774014227563,40.38968438498416,0.9903215335504512,97.0,63.0,96.0,267.0,363.0,34.0,1246.0,1245.0,34.0,17.0,17.0,0.5,41.30103620581166,1295.4083261005126,17.0,11.0,6.0,0.6470588235294118,790.8796279405332,1213.526169891115,26.0,13.0,13.0,0.5,2308.8362020017407,52199.15427703618,29.0,4.0,25.0,0.1379310344827586,916.2126554109336,15590.56244918533,99.0,49.0,50.0,0.494949494949495,64.57309315676315,11038.039484481787,,,,,93028.0,93062.0,93125.0,93142.0,93155.0,93181.0,93193.0,93221.0,93392.0,93488.0,0.03133632994509247,-0.11928022720270032,0.04312295539662468,-0.2170991015740294,0.006169340531188355
60,60,94294.52381884684,1385.0078497749078,13.64927670419542,94386.15070320986,-6644.568087039254,8.794178616534033,94418.44439171744,53029.93288376678,10.562081900693226,94445.87669549928,-4052.4793642380937,11.593192915914653,94686.72544383437,11083.74742993318,43.75197558965526,0.9862570294462504,96.0,65.0,93.0,272.0,365.0,31.0,1249.0,1251.0,32.0,17.0,15.0,0.53125,48.25500279709293,1372.72821806525,18.0,11.0,7.0,0.6111111111111112,768.9939087889272,766.7781484567467,26.0,13.0,13.0,0.5,2290.3740106507253,52602.17593726022,27.0,3.0,24.0,0.1111111111111111,941.9413302543836,15560.64945944265,104.0,51.0,53.0,0.4903846153846153,51.04854192659186,11634.889271020202,,,,,94279.0,94310.0,94375.0,94393.0,94405.0,94431.0,94443.0,94468.0,94637.0,94740.0,0.03484095978584913,-0.11573271561305987,0.04319021137874835,-0.23243581165810032,0.004605711403052028
61,61,96664.74198907745,1089.6854929394583,15.77326392989485,96758.51564772776,-6758.023733915455,8.87082393670479,96791.0739387217,54296.412414926206,10.654972412769066,96819.60271279886,-4554.6907899614735,16.05643404115571,97061.56781352026,10262.587756211398,41.25721654602344,0.991632620805054,98.0,66.0,97.0,268.0,365.0,32.0,2373.0,2372.0,33.0,16.0,17.0,0.4848484848484848,35.94842610631254,1188.4693609321705,18.0,12.0,6.0,0.6666666666666666,818.4855468632463,1724.540794561327,26.0,13.0,13.0,0.5,2308.6179391116652,51769.13980577508,30.0,5.0,25.0,0.1666666666666666,819.0459019100468,14662.547402200364,100.0,50.0,50.0,0.5,55.17857018565525,10700.42009933275,,,,,96649.0,96681.0,96747.0,96765.0,96778.0,96804.0,96815.0,96844.0,97014.0,97112.0,0.032989726246002056,-0.12111315069161992,0.04251879334990871,-0.17982469934407444,0.0053766721899414305
62,62,97966.54559523331,715.0433631072003,7.429393198055026,98059.84848879228,-7176.374183146487,10.2503890152478,98092.6372350232,53079.1924501864,10.581373672551532,98123.114244894,-5142.879128771332,15.28779240518434,98363.77195683842,9625.077837606415,37.63630317990439,0.9891541956802816,92.0,71.0,102.0,261.0,363.0,21.0,1300.0,1302.0,21.0,11.0,10.0,0.5238095238095238,45.438357759550385,647.669748490397,19.0,12.0,7.0,0.631578947368421,760.3542458646477,186.9089837478832,25.0,13.0,12.0,0.52,2308.2138227914747,49747.0527591509,33.0,6.0,27.0,0.1818181818181818,655.0306053644507,13034.652033655357,94.0,47.0,47.0,0.5,54.79942728687214,9987.674235537428,,,,,97956.0,97977.0,98048.0,98067.0,98080.0,98105.0,98117.0,98150.0,98319.0,98411.0,0.0635462967757638,-0.10595242478441527,0.04348622720584305,-0.12736651765738502,0.005693400948173504
63,63,99222.77224036788,894.0245906290663,9.98495522557328,99316.98335948342,-7124.090688517757,9.518154362090211,99349.6540874442,53888.68562609064,10.576722346872884,99377.027373699,-4695.057770164927,17.8357578060484,99620.29179235776,10566.1543062065,41.5761776560131,0.990142607812363,94.0,69.0,99.0,267.0,366.0,25.0,1260.0,1257.0,26.0,13.0,13.0,0.5,40.60697118536307,843.3244463689455,19.0,12.0,7.0,0.631578947368421,765.7239499273211,27.969616524042067,25.0,13.0,12.0,0.52,2306.308578471448,49503.280339380784,33.0,4.0,29.0,0.1212121212121212,961.0989843709588,16865.258755165774,102.0,50.0,52.0,0.4901960784313725,56.309735855535294,10929.500671741098,,,,,99211.0,99236.0,99305.0,99324.0,99337.0,99362.0,99373.0,99404.0,99572.0,99671.0,0.04542041864507398,-0.10748374542192107,0.04279764020362059,-0.20470440012012833,0.005329255491040792
64,64,100484.48723321968,1044.5825945347929,10.836926813707912,100577.69395960264,-7369.184667694042,10.010263035136912,100610.24372662368,52803.50405796543,10.60254778852975,100637.45203459916,-5091.92282097706,15.287792405183724,100880.45437776051,10557.89453602221,40.61098531172229,0.987697842785285,95.0,67.0,97.0,267.0,364.0,28.0,1262.0,1260.0,28.0,13.0,15.0,0.4642857142857143,46.064785039302784,1052.1110214995051,19.0,12.0,7.0,0.631578947368421,796.1798730883728,189.18896372867948,26.0,13.0,13.0,0.5,2286.8586723823123,50613.51871935436,31.0,3.0,28.0,0.0967741935483871,1020.2998935919466,17612.3589802852,100.0,49.0,51.0,0.49,63.407284930665085,11073.552883558852,,,,,100471.0,100499.0,100566.0,100585.0,100597.0,100623.0,100634.0,100663.0,100833.0,100930.0,0.044098748419044674,-0.10804178603078929,0.04330884310010746,-0.2003761505159984,0.006005675157516245
65,65,101721.95550227052,1312.1443886904851,11.970537955616877,101814.7806485356,-7140.393420251305,9.631759449535496,101846.70505913932,51494.40498705367,10.61281767750254,101873.45203460196,-5441.447344561281,15.287792405177324,102115.11631903784,10942.30854536791,43.24256147333268,0.9886505717949612,96.0,66.0,99.0,265.0,364.0,30.0,1232.0,1237.0,32.0,16.0,16.0,0.5,50.00808097878392,1245.5052224672154,18.0,12.0,6.0,0.6666666666666666,823.8229245436454,945.1489857432624,25.0,13.0,12.0,0.52,2237.452086983179,47514.33775325021,34.0,3.0,31.0,0.088235294117647,1044.5021394994983,18141.476827620136,105.0,52.0,53.0,0.4952380952380952,52.863969966352066,11329.065933961148,,,,,101707.0,101737.0,101803.0,101821.0,101834.0,101859.0,101870.0,101902.0,102064.0,102167.0,0.03811172109548995,-0.1153750047171282,0.0434503920871734,-0.19195299951647546,0.004831153293399901
66,66,102881.39104959302,996.926989406629,11.173846778579154,102975.72856861253,-7057.400325360069,9.609270000423829,103008.4275603866,53314.9892939336,10.655024931805546,103036.027373699,-5075.348625342148,17.835757805984343,103280.0281625417,10220.408281389806,38.834035636163584,0.989887365651232,96.0,68.0,99.0,265.0,364.0,28.0,1163.0,1161.0,29.0,14.0,15.0,0.4827586206896552,44.5988962415138,992.1096286204504,19.0,12.0,7.0,0.631578947368421,782.9653851381879,426.90591082819583,26.0,13.0,13.0,0.5,2263.8617722942927,50984.314907211345,32.0,4.0,28.0,0.125,936.862447078771,16853.080049451473,96.0,47.0,49.0,0.4895833333333333,56.72902893373466,10645.170731895185,,,,,102868.0,102896.0,102964.0,102983.0,102995.0,103021.0,103032.0,103063.0,103234.0,103328.0,0.04473637158530442,-0.11094246451128462,0.04246201307128246,-0.1845907574507975,0.005550563869061056
67,67,104145.78197843488,848.8443259281162,8.201464368669166,104235.17927211814,-6828.204855199596,9.2933560831417,104267.72842126724,53092.021382783445,10.593758313137544,104295.45203459916,-4730.364498397808,15.287792405108622,104538.00327905352,10435.09649281755,41.80286450983667,0.99093802435796,90.0,67.0,98.0,266.0,364.0,23.0,1260.0,1260.0,23.0,12.0,11.0,0.5217391304347826,43.941188211006946,832.1276114379381,18.0,11.0,7.0,0.6111111111111112,750.6308793699136,195.58237666103832,25.0,13.0,12.0,0.52,2290.786048245093,49567.95270101743,31.0,4.0,27.0,0.1290322580645161,965.7381712975276,16753.747116257146,102.0,51.0,51.0,0.5,56.280101362878426,10878.781592768237,,,,,104134.0,104157.0,104224.0,104242.0,104255.0,104280.0,104292.0,104322.0,104490.0,104588.0,0.051765897313340914,-0.10993092551965795,0.04314746337738694,-0.20415724234879293,0.0053933474790210005
68,68,106477.57094902966,1180.6741962454755,15.816921053705148,106570.18649656116,-6596.343456627687,8.738778850237253,106602.22573994724,52311.72685514995,10.673240451144034,106630.45203459916,-4393.12179571792,13.93171943294459,106870.5706734499,10322.758189940796,42.39858821729605,0.9882710759369788,97.0,62.0,95.0,267.0,362.0,35.0,2334.0,2334.0,36.0,17.0,19.0,0.4722222222222222,42.62309485343652,1271.406920308433,17.0,11.0,6.0,0.6470588235294118,782.0406016854425,1183.620741616579,26.0,13.0,13.0,0.5,2234.714381859505,50786.79359057377,28.0,3.0,25.0,0.1071428571428571,911.236643308352,15727.98612105922,101.0,50.0,51.0,0.495049504950495,58.52772896310229,10985.272533276811,,,,,106462.0,106497.0,106559.0,106576.0,106589.0,106615.0,106627.0,106654.0,106823.0,106921.0,0.03610064062463401,-0.11855668323329736,0.04271918585382167,-0.20742348736985985,0.0056697762251309665
69,69,107754.4706609529,1667.2587907782795,24.56037886462814,107848.15506243848,-6037.881981294307,7.848761981824796,107880.08434136333,54364.745376275634,10.60277252150528,107908.45203459916,-3596.257188842397,11.116182419494258,108149.22558404684,10988.620240876777,44.73829637263742,0.9905757524774548,101.0,57.0,92.0,272.0,364.0,44.0,1277.0,1278.0,44.0,18.0,26.0,0.4090909090909091,48.47123445977357,2044.7259865707983,17.0,11.0,6.0,0.6470588235294118,795.57957735719,2165.441649129719,26.0,13.0,13.0,0.5,2315.799657331339,53140.65402170426,26.0,3.0,23.0,0.1153846153846153,922.8241582964488,15071.85642351029,106.0,52.0,54.0,0.490566037735849,66.92965491949253,11731.132366840744,,,,,107736.0,107780.0,107837.0,107854.0,107867.0,107893.0,107905.0,107929.0,108100.0,108201.0,0.029072411990190863,-0.13176467837926276,0.04259745247224015,-0.25660683033448384,0.006090815175368391
70,70,109029.0179468308,1003.0365289214542,10.12597474265444,109120.6490518184,-6903.855882439205,9.69575841544622,109153.00314576608,53121.74690039353,10.6507670391814,109180.44206346,-5156.988863913001,12.739827004320285,109422.76103783696,10525.539156368352,40.80864912061355,0.9876013292473752,93.0,67.0,99.0,265.0,364.0,26.0,1275.0,1273.0,26.0,13.0,13.0,0.5,46.972315423164,995.5966299161388,18.0,12.0,6.0,0.6666666666666666,806.4034801163086,1260.6471443017797,25.0,13.0,12.0,0.52,2312.0724157943964,50988.33920842358,33.0,3.0,30.0,0.0909090909090909,1011.8180871523095,17346.673161719125,101.0,50.0,51.0,0.495049504950495,59.87871947043859,10944.511207545,,,,,109016.0,109042.0,109109.0,109127.0,109140.0,109165.0,109177.0,109208.0,109375.0,109473.0,0.04683011442631349,-0.11680479631208608,0.04352402830670594,-0.19620327168683585,0.005688898077416745
71,71,110252.75375211444,839.5319172818897,8.852102313059326,110344.50765611135,-7452.0499664345825,9.580213353566084,110375.91221898614,50651.53894310642,10.582015572405652,110404.47818181234,-5592.977382670532,17.835757806048246,110644.4230804637,10133.362464000931,38.84774727857541,0.981070927042532,91.0,69.0,100.0,260.0,360.0,22.0,1223.0,1223.0,23.0,12.0,11.0,0.5217391304347826,44.31370091762992,790.8883007823603,18.0,12.0,6.0,0.6666666666666666,875.1299919581603,1498.1187626387657,25.0,13.0,12.0,0.52,2199.44644806454,47045.797824074674,35.0,5.0,30.0,0.1428571428571428,847.433342680274,16113.543137491322,99.0,49.0,50.0,0.494949494949495,58.36260952017808,10473.102688972916,,,,,110242.0,110264.0,110333.0,110351.0,110363.0,110388.0,110399.0,110433.0,110597.0,110693.0,0.052783819179980866,-0.11743479926998723,0.043423092248688344,-0.15151739131039396,0.005759451487846504
72,72,111457.05390677524,1107.2711093661974,12.223961775351595,111550.14579714445,-6569.449047459076,9.265576849725072,111582.97613354152,53991.43216292147,10.634197759371393,111612.027373699,-4162.635866398175,15.07610895936017,111856.47482476525,10340.695607473368,39.74357166863388,0.9930693006261692,95.0,66.0,96.0,269.0,365.0,29.0,1207.0,1207.0,29.0,13.0,16.0,0.4482758620689655,43.65715933505359,1126.7693373831512,18.0,11.0,7.0,0.6111111111111112,728.8859377730071,435.1029757243596,26.0,13.0,13.0,0.5,2305.0944156379715,51703.991894634295,28.0,4.0,24.0,0.1428571428571428,802.355130443403,14192.901002040682,96.0,47.0,49.0,0.4895833333333333,64.93372109273683,11007.58110951118,,,,,111444.0,111473.0,111539.0,111557.0,111570.0,111596.0,111608.0,111635.0,111811.0,111904.0,0.0394277056140686,-0.11095084724873919,0.042693707562382305,-0.19275169776924567,0.006279434532992955
73,73,112733.84932180028,239.73425962713256,3.2923399264630637,112829.972626301,-6685.6086615575605,17.8357578047274,112859.4309236233,54383.689104800666,10.84688800621628,112889.37635704964,-5419.757058668008,15.28779240518434,113133.53041509868,9656.486751551129,36.24206283599826,0.988565935345648,84.0,75.0,103.0,261.0,364.0,9.0,1274.0,1277.0,11.0,5.0,6.0,0.4545454545454545,47.41476035687729,250.51468613864657,21.0,16.0,5.0,0.7619047619047619,977.0584255064152,4488.781209535212,25.0,12.0,13.0,0.48,2291.04709954834,52646.031480243415,36.0,6.0,30.0,0.1666666666666666,775.7177507068892,14732.931722197372,92.0,46.0,46.0,0.5,57.06568746293433,9853.395269745177,,,,,112731.0,112740.0,112815.0,112834.0,112847.0,112872.0,112884.0,112918.0,113089.0,113179.0,0.19778049424651778,-0.14614352633658156,0.042127467578254085,-0.14312777165283758,0.0059095703159089226
74,74,113991.30182860966,1344.416121817826,11.481231692966524,114085.11302204212,-6913.775796840663,9.241420470665371,114117.6897934949,53042.71970853793,10.603203426321974,114144.45203459916,-4968.517527126572,15.2877924051814,114389.88919934642,10237.88091194838,39.6265354869215,0.9915163766714576,97.0,69.0,98.0,266.0,364.0,28.0,1259.0,1258.0,28.0,14.0,14.0,0.5,57.888107806300674,1396.7938064288007,18.0,11.0,7.0,0.6111111111111112,757.7047142124298,148.6238613235946,25.0,13.0,12.0,0.52,2286.4113686486653,49061.63711152608,34.0,3.0,31.0,0.088235294117647,1065.4187694559623,18118.496410562253,97.0,48.0,49.0,0.4948453608247423,55.045559754324735,10660.316375938908,,,,,113977.0,114005.0,114074.0,114092.0,114105.0,114130.0,114141.0,114172.0,114343.0,114438.0,0.043058177350646765,-0.10959347489380153,0.04310509304975622,-0.214433936005882,0.00537665560165702
75,75,115254.01478281892,1273.9979860804326,14.247576901529976,115347.19131142068,-6687.982777793574,8.655619560234868,115379.64109213736,52868.07801746708,10.528515498672917,115407.45203459916,-4018.06405463565,14.056839846349078,115649.79089699204,10845.810228374869,44.28924049060815,0.9877937899098576,97.0,66.0,96.0,270.0,366.0,31.0,1263.0,1262.0,33.0,15.0,18.0,0.4545454545454545,49.03866834543089,1343.5891026097988,18.0,11.0,7.0,0.6111111111111112,754.8252758870741,381.47220275767313,25.0,13.0,12.0,0.52,2281.95705782259,49581.39506838863,29.0,3.0,26.0,0.1034482758620689,951.4490732990108,15950.310881052908,105.0,51.0,54.0,0.4857142857142857,58.588378142685784,11394.776629701078,,,,,115239.0,115270.0,115336.0,115354.0,115367.0,115392.0,115404.0,115432.0,115601.0,115702.0,0.03849195122851229,-0.11286292159623319,0.04316323088326862,-0.23679290831646196,0.0054019364998113785
76,76,116496.75872300212,1241.506589747212,13.648624648159378,116587.60850841168,-7119.020561780577,8.963055938922274,116619.24816847467,50715.095939261504,10.517707436964397,116647.35376894684,-5171.209151387099,15.28779240518434,116888.25275506808,10664.15144804427,43.67438749613958,0.990114602559952,95.0,63.0,100.0,265.0,365.0,32.0,1243.0,1239.0,32.0,16.0,16.0,0.5,44.723378074910315,1260.6877556207096,18.0,12.0,6.0,0.6666666666666666,843.261620299829,1431.6095663625647,26.0,13.0,13.0,0.5,2216.5321410834936,48596.94740660741,34.0,5.0,29.0,0.1470588235294117,878.5823093413438,15992.795074007674,107.0,53.0,54.0,0.4953271028037383,54.305662682864934,11040.0986129721,,,,,116481.0,116513.0,116576.0,116594.0,116606.0,116632.0,116643.0,116676.0,116837.0,116941.0,0.03602347216217081,-0.11845191525741516,0.043705569318810006,-0.1698988154647888,0.005092356663110239
77,77,118831.57983360572,697.6263357709134,6.941667205239079,118921.5722833864,-7003.386043346437,10.06301195145593,118954.58775398807,54679.83597655581,10.653083876966088,118983.027373699,-4668.304936457329,17.83575780576917,119227.4083654886,9685.95359288178,39.82091396179253,0.9929698104477668,87.0,68.0,99.0,267.0,366.0,19.0,2333.0,2336.0,21.0,11.0,10.0,0.5238095238095238,48.53854384360314,621.2895597413816,19.0,12.0,7.0,0.631578947368421,775.7320627327495,498.7687536945359,26.0,14.0,12.0,0.5384615384615384,2325.2449806504887,50348.481282099936,30.0,4.0,26.0,0.1333333333333333,867.5121387814966,15716.206055273044,99.0,49.0,50.0,0.494949494949495,52.44833178919264,9986.55011512158,,,,,118823.0,118842.0,118910.0,118929.0,118941.0,118967.0,118979.0,119009.0,119179.0,119276.0,0.06957670798073516,-0.11076528666725909,0.04252472486653849,-0.18583022115942407,0.005414885719433654
78,78,120059.46647039174,1043.1123853460078,10.561806807453571,120151.7945611669,-6810.488818815453,9.272757676340705,120184.2818399103,54049.77547878161,10.630928092842847,120211.45203459916,-4517.62890975872,15.28779240516143,120455.30368604916,9928.30775596156,38.156878090920586,0.988964779694034,94.0,68.0,97.0,266.0,363.0,26.0,1230.0,1229.0,27.0,13.0,14.0,0.4814814814814814,50.102287875389834,1029.9042556559402,18.0,12.0,6.0,0.6666666666666666,788.1091495349011,1092.201775998553,26.0,13.0,13.0,0.5,2314.4856404790585,52145.02230196071,31.0,3.0,28.0,0.0967741935483871,1035.2562317518473,17492.145354817163,96.0,47.0,49.0,0.4895833333333333,52.577726309212935,10248.84283134158,,,,,120046.0,120072.0,120140.0,120158.0,120171.0,120197.0,120208.0,120237.0,120410.0,120503.0,0.04803153387807829,-0.11571990946634823,0.04282137381657874,-0.22915920108345927,0.0052957389719957134
79,79,122324.8761581675,1106.261850653746,16.32304390043604,122422.53455806704,-6321.115956706304,8.571490001311531,122454.9384437659,53296.94579203582,10.64587047358883,122484.60271279886,-4119.293107912378,11.97609097110615,122719.8029965477,10040.103089918875,45.52674829686982,0.9882189675693078,103.0,67.0,93.0,269.0,362.0,36.0,2266.0,2271.0,36.0,17.0,19.0,0.4722222222222222,41.049671772637126,1168.4175017557068,18.0,12.0,6.0,0.6666666666666666,804.2332088325095,2201.4638857449618,26.0,13.0,13.0,0.5,2272.857113497466,51605.22634545725,24.0,5.0,19.0,0.2083333333333333,714.0870268344457,12560.718909491268,107.0,52.0,55.0,0.4859813084112149,65.82398803513765,10801.051606143104,,,,,122308.0,122344.0,122411.0,122429.0,122442.0,122468.0,122480.0,122504.0,122671.0,122773.0,0.037106650426731065,-0.12722962437973773,0.04264516624209824,-0.17335183686317937,0.006556106789504042
80,80,123653.61699364874,579.6456917963212,5.919325853889453,123745.81435142028,-6864.273928323226,10.635517999801174,123778.51969873992,53821.6521087072,10.656531696969806,123806.45203459916,-4670.248625224274,15.287792405115727,124050.88073479716,10215.533720502746,39.541001772110214,0.9921763491555916,89.0,72.0,98.0,267.0,365.0,17.0,1325.0,1324.0,18.0,9.0,9.0,0.5,50.68791110692746,501.8697229032425,19.0,12.0,7.0,0.631578947368421,762.4800048029249,489.0692154510448,25.0,13.0,12.0,0.52,2324.640451089069,49993.362126417145,31.0,4.0,27.0,0.1290322580645161,952.0983495353876,16603.39910141881,97.0,48.0,49.0,0.4948453608247423,58.34084626099811,10609.07867912242,,,,,123645.0,123662.0,123734.0,123753.0,123766.0,123791.0,123803.0,123832.0,124004.0,124099.0,0.08744636909116962,-0.11107948382665726,0.04319154763948599,-0.2038645960716205,0.0057109934592949425
81,81,124919.08946793505,1343.3877263950442,16.264996099613093,125011.41731342816,-6594.0219055838315,8.420761266250192,125043.73079525972,53441.85117970934,10.57288658686366,125071.45203459916,-3873.321992667165,13.838943255033069,125313.42121705777,10631.495590325369,41.953705827721635,0.990585738409396,97.0,64.0,96.0,268.0,364.0,33.0,1266.0,1265.0,34.0,16.0,18.0,0.4705882352941176,48.82368217349504,1437.3139335095273,18.0,11.0,7.0,0.6111111111111112,752.2732903186256,526.6491683822574,25.0,13.0,12.0,0.52,2293.2437053597537,50513.06779289501,30.0,3.0,27.0,0.1,966.5639388430242,16001.674265840084,101.0,49.0,52.0,0.4851485148514851,58.18035140559562,11202.816679570144,,,,,124903.0,124936.0,125000.0,125018.0,125031.0,125056.0,125068.0,125096.0,125265.0,125364.0,0.03634370123695597,-0.11408413576569999,0.04291100803466266,-0.24954391622304795,0.005472452197463128
82,82,126126.49657375216,761.4807422640821,8.160942470013817,126216.17000566352,-7190.46235154839,9.372267622943903,126247.81166332004,50583.15591743119,10.595948199777824,126276.5980688576,-4889.444900332471,15.287792405184096,126515.61419185447,10174.371248478346,41.29625340773215,0.9837435146230749,89.0,68.0,100.0,262.0,362.0,21.0,1209.0,1204.0,22.0,11.0,11.0,0.5,47.64449231137831,830.3983292967054,18.0,11.0,7.0,0.6111111111111112,803.5701923537449,489.4448860069888,25.0,13.0,12.0,0.52,2195.941148954101,47631.31019662281,33.0,5.0,28.0,0.1515151515151515,734.1628045281344,13816.480162120188,103.0,51.0,52.0,0.4951456310679611,56.17851862255059,10505.917532210631,,,,,126116.0,126137.0,126205.0,126223.0,126235.0,126260.0,126272.0,126305.0,126468.0,126567.0,0.06256821698434385,-0.11175501004893025,0.04341249787851552,-0.15015258776680623,0.005521571530127969
83,83,127360.8495535948,743.378360536915,7.700046785574184,127451.51109717596,-6764.358039664947,9.427771101183936,127484.203820668,53448.20015283856,10.655884315606585,127511.45203459916,-4534.187536034575,14.62863287025258,127756.08741353896,10096.23213132169,40.26260156782126,0.9892420976215414,90.0,70.0,95.0,271.0,366.0,20.0,1233.0,1236.0,23.0,12.0,11.0,0.5217391304347826,48.2059748814744,670.8671527483026,18.0,12.0,6.0,0.6666666666666666,794.7945381777114,1268.228456551507,26.0,13.0,13.0,0.5,2290.302762570095,51517.45709745339,30.0,3.0,27.0,0.1,1029.2339822250367,17198.682908642128,100.0,50.0,50.0,0.5,60.092899267281915,10585.852472718349,,,,,127350.0,127370.0,127440.0,127458.0,127471.0,127497.0,127508.0,127535.0,127708.0,127806.0,0.06484715918641616,-0.11749740825621337,0.04285088657842224,-0.22699413600460933,0.005952012442429371
84,84,128622.544373214,897.8457140954099,9.50843391266386,128713.75983117725,-7047.008776357608,9.29384085142806,128746.29747614432,52831.759278008125,10.616763413196267,128773.45203459966,-5102.543590348182,15.2877924049946,129017.95030236704,10240.255818328164,39.556722550032305,0.9892331116378846,92.0,67.0,99.0,266.0,365.0,25.0,1260.0,1262.0,25.0,13.0,12.0,0.52,49.68551112654888,831.0338169553033,19.0,12.0,7.0,0.631578947368421,788.5396740060928,603.4555603067865,26.0,13.0,13.0,0.5,2276.3333729970336,50675.67668191511,33.0,3.0,30.0,0.0909090909090909,1021.2011817641657,17721.66995141258,99.0,49.0,50.0,0.494949494949495,60.017584762217545,10602.92564133734,,,,,128610.0,128635.0,128702.0,128721.0,128733.0,128759.0,128770.0,128801.0,128971.0,129067.0,0.05533858473290995,-0.1118970756289686,0.043086457920483934,-0.20013570951080928,0.005860945842270578
85,85,129860.51861294544,1383.127783936612,13.836822902722254,129953.06683533352,-6811.677231460457,8.775025489709305,129985.52801116236,53152.92280301187,10.57470095497637,130012.45203459916,-4428.989779642244,15.2877924033381,130257.07864727946,10899.34088145778,41.91161265548831,0.9927269792164152,97.0,65.0,96.0,269.0,365.0,32.0,1239.0,1240.0,32.0,16.0,16.0,0.5,54.55757474193363,1407.493974430486,18.0,11.0,7.0,0.6111111111111112,771.6515226091892,560.2756074285662,26.0,14.0,12.0,0.5384615384615384,2280.9942045647563,48901.65444346927,31.0,3.0,28.0,0.0967741935483871,1044.5265234961405,17442.481766846275,101.0,50.0,51.0,0.495049504950495,58.44285785428352,11418.576307539137,,,,,129845.0,129877.0,129942.0,129960.0,129972.0,129998.0,130009.0,130038.0,130208.0,130307.0,0.039445071797092876,-0.11328362991793482,0.04291380575661411,-0.23583854907439258,0.005362054319606418
86,86,131099.956536162,920.7233660138224,8.601706414260049,131191.16531764384,-6772.279970360215,8.831910026358441,131223.32190930675,52211.23222948945,10.60419177844806,131249.87669549932,-4692.241077177222,12.73982700431988,131493.18910320225,10809.143695312554,44.16038256096215,0.9910243958402938,91.0,69.0,97.0,268.0,365.0,22.0,1240.0,1237.0,23.0,12.0,11.0,0.5217391304347826,50.82891585281332,896.3430123251505,18.0,11.0,7.0,0.6111111111111112,773.4718243624018,732.5256457128708,26.0,13.0,13.0,0.5,2260.429142738313,50804.451511715735,31.0,3.0,28.0,0.0967741935483871,1013.6995936196944,16985.3278856271,106.0,52.0,54.0,0.490566037735849,66.08866545372857,11494.593112347104,,,,,131089.0,131111.0,131180.0,131198.0,131210.0,131236.0,131247.0,131277.0,131443.0,131545.0,0.055205415360394194,-0.11421143658378038,0.04329392443378494,-0.2160374066350231,0.006114144405572875
87,87,133315.7555731897,1294.8469564098975,16.272263282094436,133410.04230720314,-6465.4487297793685,8.81328129465546,133442.6509505449,53959.73772215848,10.689627014369233,133471.02737369903,-4411.951007693369,13.452690312982613,133711.63979012953,9764.89714044882,42.30492302717732,0.9925986037847628,100.0,65.0,94.0,269.0,363.0,35.0,2217.0,2220.0,35.0,17.0,18.0,0.4857142857142857,49.78722541877751,1424.1128497380064,17.0,11.0,6.0,0.6470588235294118,762.674860035795,1148.0636155314423,26.0,14.0,12.0,0.5384615384615384,2302.7882945853944,50873.77049843247,28.0,4.0,24.0,0.1428571428571428,889.4075197569233,15289.47396162638,99.0,49.0,50.0,0.494949494949495,64.75588299847446,10432.938508237115,,,,,133299.0,133334.0,133399.0,133416.0,133429.0,133455.0,133467.0,133493.0,133665.0,133762.0,0.038450277982517676,-0.11796162832797237,0.04267604684149082,-0.20159052496412877,0.00663149668317941
88,88,134543.57469504807,834.7310103437298,8.53865092485937,134634.96476384316,-6879.653921269156,10.246580326086423,134667.98227031738,53609.00316751173,10.658992572558828,134695.45203459918,-4380.895352378531,15.287792405055216,134936.5539886177,9598.990757361606,39.6007278270044,0.9865166535916626,91.0,68.0,98.0,265.0,363.0,23.0,1228.0,1225.0,23.0,12.0,11.0,0.5217391304347826,49.72315351885865,808.6610101597719,19.0,12.0,7.0,0.631578947368421,734.1354183104476,73.97196541824496,26.0,13.0,13.0,0.5,2298.783594190215,51085.92001827189,30.0,3.0,27.0,0.1,999.61475109727,16852.94217475401,99.0,49.0,50.0,0.494949494949495,49.180232358308,9840.458535257763,,,,,134532.0,134555.0,134623.0,134642.0,134655.0,134681.0,134692.0,134721.0,134890.0,134986.0,0.0595678762412138,-0.1067110972022579,0.04288055099639178,-0.22817590257081727,0.0051234794991953676
89,89,135760.47128592088,473.5929314071573,5.511911716487175,135852.93499994063,-7079.445172079483,11.187835315397477,135885.43458637816,52905.72912844355,10.729150334746985,135912.45203459918,-5288.598775896227,15.28779240518434,136155.999774308,10525.186080005047,38.39923206597677,0.9851942297249802,89.0,73.0,99.0,264.0,363.0,16.0,1217.0,1218.0,18.0,8.0,10.0,0.4444444444444444,50.50327232476603,433.63758447581574,19.0,12.0,7.0,0.631578947368421,770.8761912682523,154.69551416706872,26.0,13.0,13.0,0.5,2278.828937296584,51303.23518069512,33.0,3.0,30.0,0.0909090909090909,1045.8319210074171,18040.0695597343,97.0,48.0,49.0,0.4948453608247423,55.99914976840628,10733.507636316266,,,,,135752.0,135768.0,135841.0,135860.0,135872.0,135898.0,135909.0,135940.0,136110.0,136204.0,0.10663856864313576,-0.10888935114696549,0.04307338684935398,-0.1977521769611245,0.005320490235777325
90,90,138092.2569899106,248.4925427434555,3.58921204098852,138185.82194810128,-7103.732189304184,15.643686573920254,138215.92514498942,55190.9393261763,10.996706380129746,138244.02737369903,-5624.9330828899465,17.8357578060484,138488.63239864752,9519.073195029116,37.12288709624534,0.9926305095077366,85.0,73.0,101.0,263.0,364.0,12.0,2331.0,2330.0,12.0,6.0,6.0,0.5,51.1911454670164,223.39476786039063,21.0,16.0,5.0,0.7619047619047619,966.7841235467802,4063.3631119674537,26.0,13.0,13.0,0.5,2304.8926879711053,51577.51602431234,34.0,4.0,30.0,0.1176470588235294,944.0244518278364,17152.819128095183,93.0,46.0,47.0,0.4946236559139785,54.09699106160736,9726.674546007502,,,,,138086.0,138098.0,138171.0,138191.0,138203.0,138229.0,138240.0,138272.0,138444.0,138535.0,0.20600676745404914,-0.13609523807815133,0.04176215726913578,-0.16782856576541189,0.005683010305021811
91,91,139379.8336283648,1198.6204620877809,11.74072431621396,139472.02218537618,-6911.177925969764,9.179328488632123,139504.5049834659,54106.80694199109,10.589028248313554,139532.02737369903,-4724.5863242306505,17.8357578060484,139776.78148590843,10025.17048450647,39.71115568977001,0.9925132765528448,96.0,66.0,98.0,266.0,364.0,30.0,1289.0,1289.0,30.0,15.0,15.0,0.5,51.21131987784092,1202.5869354892202,18.0,11.0,7.0,0.6111111111111112,774.0348475992946,521.8983723528627,26.0,14.0,12.0,0.5384615384615384,2309.499571753086,49239.904164097316,33.0,4.0,29.0,0.1212121212121212,946.3587011960766,16665.214373931216,98.0,49.0,49.0,0.5,57.83227759241654,10403.97661193872,,,,,139365.0,139395.0,139461.0,139479.0,139491.0,139517.0,139528.0,139559.0,139730.0,139825.0,0.04272521744592949,-0.1119975286254381,0.042684085465053284,-0.20030509260515655,0.005768707642607593
92,92,140616.4280419657,1026.910205080466,11.347100387863131,140710.83125330743,-6693.82004492009,8.897651923812164,140743.40222746832,52900.68943172284,10.579424987310608,140770.87669549932,-4144.18716451062,11.977356375120287,141012.32961563094,10300.374888949493,43.63825225700197,0.9916561819950444,96.0,68.0,94.0,272.0,366.0,28.0,1236.0,1239.0,29.0,14.0,15.0,0.4827586206896552,46.995046258680254,988.8031838917152,19.0,12.0,7.0,0.631578947368421,771.0091100904357,866.845636448903,26.0,13.0,13.0,0.5,2282.527509322588,52213.734265399755,27.0,3.0,24.0,0.1111111111111111,940.6709062480332,15605.776683691072,104.0,50.0,54.0,0.4807692307692308,52.78340275709167,10797.20451689183,,,,,140603.0,140631.0,140699.0,140718.0,140730.0,140756.0,140768.0,140793.0,140963.0,141065.0,0.04576354001175579,-0.11518222852070112,0.043147405711386234,-0.22698562321306628,0.005124415696143163
93,93,141863.44940131216,1205.7288706179754,13.073167670015945,141955.7876863168,-6607.29672213814,8.754511705463258,141988.12729676891,52858.51899998974,10.617630068509015,142014.87669549932,-4406.371354614663,12.739827004320285,142258.359475538,10368.143150344937,44.05911719631524,0.9904921929378934,95.0,67.0,97.0,270.0,367.0,28.0,1246.0,1244.0,28.0,14.0,14.0,0.5,51.9571457347527,1283.9501454118429,18.0,12.0,6.0,0.6666666666666666,793.05856391514,1403.146128767863,26.0,13.0,13.0,0.5,2278.6015086148486,51039.377194968096,30.0,3.0,27.0,0.1,1005.541390944834,16689.52321268331,106.0,52.0,54.0,0.490566037735849,58.26509596883825,10952.888954522596,,,,,141849.0,141877.0,141944.0,141962.0,141975.0,142001.0,142012.0,142041.0,142208.0,142311.0,0.04309189818779322,-0.1200276901834831,0.0431075548790024,-0.22820169023923964,0.005619626882456753
94,94,143086.16716356802,1037.9478956863882,10.080860996701317,143175.79902661114,-6953.691741945713,9.084481235097632,143207.54619138842,50673.0802462121,10.551800157825888,143235.02737369903,-4574.198249539721,16.170317531856263,143474.83210766406,10231.412862399247,44.92017468131413,0.9849380945943044,91.0,65.0,98.0,267.0,365.0,26.0,1223.0,1220.0,26.0,13.0,13.0,0.5,44.1393825547692,1056.8896150806431,18.0,12.0,6.0,0.6666666666666666,813.4978318761174,1171.309983200004,25.0,13.0,12.0,0.52,2186.9226008120895,46528.60722405907,32.0,4.0,28.0,0.125,902.2401956063836,15794.944769451678,109.0,54.0,55.0,0.4954128440366973,60.3344373088196,10725.950447729356,,,,,143073.0,143099.0,143164.0,143182.0,143195.0,143220.0,143231.0,143262.0,143425.0,143529.0,0.04252562458887217,-0.11698790542712388,0.043157483030165034,-0.19724553820927454,0.005896980028100566
95,95,145404.210783948,952.3503006817892,8.544414096549518,145495.84817230736,-6717.892876828648,9.764801957043485,145528.71314996306,53878.88608444044,10.667865423156783,145557.02737369903,-4437.031640217359,14.255305029913597,145799.0866458194,9746.76357521054,44.12686139071686,0.9926518256708357,91.0,69.0,96.0,271.0,367.0,22.0,2319.0,2321.0,23.0,12.0,11.0,0.5217391304347826,51.29343851337106,963.0353212920982,19.0,12.0,7.0,0.631578947368421,754.3825050765452,601.515740066322,25.0,13.0,12.0,0.52,2311.971575140716,50887.607535223455,27.0,4.0,23.0,0.1481481481481481,883.2906658262807,15298.934249987557,104.0,51.0,53.0,0.4903846153846153,57.57620955375975,10384.527713896714,,,,,145393.0,145415.0,145484.0,145503.0,145516.0,145541.0,145553.0,145580.0,145750.0,145851.0,0.05385984387955776,-0.11229451241751127,0.04291053032383283,-0.19907242892300187,0.005907213108174325
96,96,146637.72286935954,751.4306569327206,7.566371147062446,146728.78484431258,-6971.740135505293,9.739006410574657,146761.54547123244,53592.7601060361,10.610972359867874,146789.02737369903,-4882.195368162135,17.835757806010868,147034.27864921596,9622.503826069962,38.86006764931373,0.9911267247016512,90.0,68.0,100.0,266.0,366.0,22.0,1233.0,1233.0,22.0,11.0,11.0,0.5,50.38810373164481,701.6579906988813,19.0,12.0,7.0,0.631578947368421,763.8632759145689,326.4226222580337,26.0,14.0,12.0,0.5384615384615384,2290.3191956743844,48838.567307820704,33.0,4.0,29.0,0.1212121212121212,945.9698354078976,16732.84753688667,97.0,48.0,49.0,0.4948453608247423,51.50576910909458,9875.007592360684,,,,,146627.0,146649.0,146717.0,146736.0,146748.0,146774.0,146785.0,146817.0,146988.0,147083.0,0.06705622570328044,-0.10956565521201919,0.04273560815197552,-0.19375911123442005,0.005352636906160696
97,97,147879.96191698333,1578.7125376918673,21.33186183917016,147972.3464562084,-6317.909001841264,7.981830779761155,148004.35532121913,52923.086076756794,10.534348932576352,148032.45203459918,-3663.7615889157305,10.83543498125488,148271.38229694954,11050.752407335429,48.97660808802868,0.9905661977775552,101.0,57.0,92.0,274.0,366.0,44.0,1242.0,1243.0,44.0,19.0,25.0,0.4318181818181818,50.175493889462345,1781.9769721906716,17.0,11.0,6.0,0.6470588235294118,770.9362797533237,1242.9497385414577,26.0,13.0,13.0,0.5,2271.680137195281,52428.14510115849,26.0,3.0,23.0,0.1153846153846153,933.7854025029142,15188.13769169388,114.0,56.0,58.0,0.4912280701754385,64.62499196984535,11802.330199445509,,,,,147861.0,147905.0,147962.0,147978.0,147991.0,148017.0,148029.0,148054.0,148218.0,148328.0,0.03178253969074108,-0.12202396070102392,0.042924181214613194,-0.25487067862929985,0.005848017364586654
98,98,149080.30234622367,1036.9631225393778,10.666426081584191,149170.057639479,-7055.509418907209,9.26886792049169,149202.46944153123,52479.57732741261,10.553273886723405,149229.45203459918,-4462.820654250286,15.287792403281491,149469.6376163781,10626.841412135616,44.61195252029795,0.9858947383948522,92.0,66.0,97.0,268.0,365.0,26.0,1199.0,1197.0,27.0,14.0,13.0,0.5185185185185185,52.94577282596535,1023.7447912690524,18.0,11.0,7.0,0.6111111111111112,770.3217631862996,218.8217516452337,26.0,13.0,13.0,0.5,2261.948249821266,51085.242592295646,31.0,3.0,28.0,0.0967741935483871,1031.431875816434,17332.99298980091,108.0,53.0,55.0,0.4907407407407407,57.92777513739814,11157.07170040652,,,,,149067.0,149093.0,149159.0,149177.0,149189.0,149215.0,149226.0,149256.0,149419.0,149524.0,0.051058491546264975,-0.10918017643375362,0.04310149519134449,-0.2311165865099514,0.005451081171800109
99,99,151307.4903240091,1074.1038907378684,14.406706221178244,151401.55469177983,-6607.6017635877,9.11222862357942,151434.31211186337,52939.00363801029,10.668294204959931,151463.60271279886,-4267.982808522178,13.774949241013877,151704.76142273188,9471.1960751235,41.967116888138,0.9893464409145148,97.0,64.0,95.0,270.0,365.0,33.0,2229.0,2232.0,34.0,15.0,19.0,0.4411764705882353,46.79492402931581,1198.7565993442458,18.0,12.0,6.0,0.6666666666666666,781.2284029592748,1348.2508682769371,26.0,13.0,13.0,0.5,2253.6438335644852,51886.85205421105,27.0,5.0,22.0,0.1851851851851851,739.9151876061335,13178.734415049428,103.0,51.0,52.0,0.4951456310679611,59.26244791977096,9967.987357896864,,,,,151293.0,151326.0,151390.0,151408.0,151421.0,151447.0,151459.0,151485.0,151657.0,151755.0,0.04356647846901428,-0.11823176258356932,0.04257057516561127,-0.17336414432801683,0.006257123962983546
100,100,152547.86504369872,850.9214658221724,8.56108110838833,152639.28970545312,-7089.061861228957,9.49668675722129,152671.96602429316,53687.84171296395,10.609074039911684,152700.02737369903,-4589.103593080483,17.835757806024755,152945.45638074123,9598.469340690735,38.54483836280862,0.9900901759598212,92.0,69.0,100.0,265.0,365.0,23.0,1238.0,1238.0,23.0,12.0,11.0,0.5217391304347826,52.02090983925514,791.8507819093024,18.0,11.0,7.0,0.6111111111111112,741.6138226399526,338.74483528563997,25.0,13.0,12.0,0.52,2292.86163230254,50489.55687660456,33.0,4.0,29.0,0.1212121212121212,880.6220565200848,15743.68984345801,96.0,47.0,49.0,0.4895833333333333,56.96819242564513,9939.076962146411,,,,,152536.0,152559.0,152628.0,152646.0,152659.0,152684.0,152696.0,152728.0,152899.0,152993.0,0.06113479554660405,-0.10461381733681001,0.042707278950811035,-0.19189413327864283,0.005935133030444782
101,101,153783.24762282876,1072.004659193338,10.521256977417233,153874.59311098928,-6823.073322822373,9.090117264913571,153907.29234038378,53029.75000457026,10.572112456459127,153935.45203459918,-3999.0876390260887,15.28779238788064,154177.4816686783,10235.784185939832,43.323504666539726,0.9921446590637548,93.0,66.0,98.0,268.0,366.0,27.0,1236.0,1235.0,27.0,13.0,14.0,0.4814814814814814,49.81490406334037,1063.3306387434031,18.0,12.0,6.0,0.6666666666666666,786.1511953001158,851.1347779741764,26.0,13.0,13.0,0.5,2269.709412165982,51466.14057997126,31.0,4.0,27.0,0.1290322580645161,909.905121676309,15495.009411176448,103.0,50.0,53.0,0.4854368932038835,58.70886679452057,10806.566802212825,,,,,153770.0,153797.0,153863.0,153881.0,153894.0,153920.0,153932.0,153961.0,154128.0,154229.0,0.04646892495861453,-0.11521951444820812,0.042800680975685755,-0.22752817737645312,0.0057356491430490255
102,102,155005.9551246426,1043.4269915902505,10.072929756633664,155096.23256534184,-6845.398744587954,8.902069350995268,155128.66712980223,52309.632013089366,10.554892855600157,155156.02737369903,-4381.348252834788,14.502821363091678,155397.45394562802,10965.784831525734,45.79823189389756,0.9906656771906376,92.0,67.0,97.0,269.0,366.0,25.0,1223.0,1222.0,27.0,14.0,13.0,0.5185185185185185,55.86461270755274,1020.1068087158528,18.0,11.0,7.0,0.6111111111111112,752.300092328015,157.42350154899577,25.0,13.0,12.0,0.52,2258.1007261199434,48813.72492006009,30.0,4.0,26.0,0.1333333333333333,945.4618451207728,16087.980490149475,108.0,53.0,55.0,0.4907407407407407,61.52506450656953,11615.13491112812,,,,,154993.0,155018.0,155085.0,155103.0,155116.0,155141.0,155152.0,155182.0,155347.0,155451.0,0.05353955107334481,-0.10989865169253896,0.04316797192446129,-0.21579244345825443,0.005610639407194093
103,103,157204.93270639697,1203.5007805341024,12.724013472032428,157296.4834235127,-6681.0259642348865,9.218788883810328,157329.2214139407,53672.29929303514,10.666944725432542,157358.02737369903,-4558.446684887876,15.29661452006428,157599.76132114197,9585.988090488678,39.28606566631441,0.9921440859481996,95.0,65.0,95.0,268.0,363.0,30.0,2198.0,2200.0,31.0,16.0,15.0,0.5161290322580645,50.65188446321403,1206.0982829255577,18.0,11.0,7.0,0.6111111111111112,724.475364933127,9.013498559163509,26.0,13.0,13.0,0.5,2286.351430441605,51871.0045104872,27.0,4.0,23.0,0.1481481481481481,836.653129604824,14854.978670797842,98.0,49.0,49.0,0.5,58.46152317296037,9895.282227147429,,,,,157190.0,157220.0,157285.0,157303.0,157316.0,157342.0,157354.0,157380.0,157553.0,157648.0,0.042087122237457295,-0.10843774127078912,0.042598350742508555,-0.18353908413111192,0.006098643417986982
104,104,158435.8918200483,1624.6310740400831,18.076545941137073,158527.98286063032,-6037.557561116196,8.026785377168803,158560.1463665663,53675.61513557346,10.622962893488804,158587.87669549932,-4089.7760152020055,12.739827004315607,158826.14757702118,10576.462656611688,46.59860563511608,0.9906057235878144,98.0,61.0,94.0,270.0,364.0,37.0,1232.0,1231.0,38.0,18.0,20.0,0.4736842105263157,52.99823569123601,1761.693812180395,17.0,11.0,6.0,0.6470588235294118,782.8220360359708,2034.0429106996953,26.0,13.0,13.0,0.5,2296.7722632107334,52075.170356013754,27.0,3.0,24.0,0.1111111111111111,916.1304401628016,15481.76349002494,109.0,53.0,56.0,0.4862385321100917,55.8376915620284,11090.605117091443,,,,,158419.0,158456.0,158517.0,158534.0,158547.0,158573.0,158585.0,158611.0,158776.0,158881.0,0.03262170503697286,-0.12965872840328602,0.04278986384058317,-0.22400504007003702,0.0052794297464968075
105,105,159696.93164306445,1725.9923992897138,22.465066681020293,159787.8563041858,-6041.599930070301,7.77002731626132,159819.7674829633,53748.95554684264,10.557702099647944,159847.87669549932,-3584.40602209178,10.362670614700304,160086.30210766813,11101.795857943653,47.492819427200544,0.9913253182735264,100.0,55.0,91.0,273.0,364.0,45.0,1262.0,1260.0,45.0,20.0,25.0,0.4444444444444444,49.71220762721031,1934.9089524912135,17.0,11.0,6.0,0.6470588235294118,816.1312205199312,2515.318542166277,26.0,13.0,13.0,0.5,2302.8009513856,51654.18145393966,24.0,3.0,21.0,0.125,881.2150233122518,14369.634833990556,110.0,53.0,57.0,0.4818181818181818,64.9763920427434,11866.330292795712,,,,,159677.0,159722.0,159777.0,159794.0,159807.0,159833.0,159845.0,159868.0,160036.0,160141.0,0.02880210112609305,-0.1350852803837401,0.04284364092207691,-0.2458468761298404,0.005852782097074045
106,106,160936.9256805326,938.485235091248,9.476554731441697,161028.61231734022,-7155.334167064817,9.48374963052003,161060.54856682275,51283.58081259949,10.595212857588518,161087.45203463157,-5187.752778638903,15.287792405183636,161328.00831418697,10626.964994296844,42.84612646028908,0.9902114316341064,92.0,69.0,100.0,263.0,363.0,23.0,1239.0,1240.0,25.0,12.0,13.0,0.48,47.86016607713356,901.7978005396816,18.0,12.0,6.0,0.6666666666666666,830.3082882320806,1194.0993488799786,25.0,13.0,12.0,0.52,2226.890494722635,46945.988038597665,35.0,3.0,32.0,0.0857142857142857,1018.294644232212,17654.31789815951,104.0,51.0,53.0,0.4903846153846153,52.808017809161235,10950.841941128823,,,,,160925.0,160948.0,161017.0,161035.0,161048.0,161073.0,161084.0,161117.0,161279.0,161380.0,0.05099724991675566,-0.11604046279961241,0.04342306951732058,-0.19628819793131688,0.004969247366251948
107,107,163291.97519194326,1105.682144764014,16.20393505500769,163387.47021134186,-6666.185273962385,9.495634913787391,163420.3221615324,53760.94790649777,10.658051290912232,163449.43856825767,-4908.295439866968,12.739827004320285,163691.86431601155,9689.600740606027,37.69997701937477,0.9914300768891868,99.0,65.0,100.0,263.0,363.0,34.0,2361.0,2360.0,34.0,15.0,19.0,0.4411764705882353,47.28370869593813,1285.9164554610888,18.0,11.0,7.0,0.6111111111111112,713.5278751774662,146.08102345479483,26.0,13.0,13.0,0.5,2316.576955457065,52891.92488995186,32.0,4.0,28.0,0.125,850.2473149666312,15210.30491160057,95.0,47.0,48.0,0.4947368421052631,54.90517996950954,9932.335546725062,,,,,163277.0,163311.0,163376.0,163394.0,163407.0,163433.0,163445.0,163476.0,163647.0,163739.0,0.042764287114385756,-0.10703691029477565,0.043090329424364075,-0.1732265967652664,0.005666402717649597
108,108,164526.14856224912,883.4519323968887,9.02653353295593,164618.08408940618,-6860.442884591626,9.302984533107088,164651.04407958515,53978.30613179146,10.583302171541373,164679.02737369903,-4459.083523153537,17.835757806048395,164922.21653061156,10007.317664829803,38.88283199494508,0.9897066351336992,92.0,68.0,99.0,265.0,364.0,24.0,1229.0,1231.0,24.0,12.0,12.0,0.5,47.14007432199532,881.9384593868824,19.0,12.0,7.0,0.631578947368421,733.75229745853,145.7743599985406,26.0,13.0,13.0,0.5,2299.8007450092964,50926.55208515171,31.0,4.0,27.0,0.1290322580645161,898.2431380571977,15904.95528073882,96.0,47.0,49.0,0.4895833333333333,58.059618647137114,10403.756854453077,,,,,164514.0,164538.0,164606.0,164625.0,164638.0,164664.0,164675.0,164705.0,164876.0,164970.0,0.053358957735368626,-0.10695407130442239,0.0426060191550692,-0.20144120050524317,0.005801716363135411
109,109,165776.93802673614,1157.3982359177294,13.811406793213166,165867.5110303394,-6739.350580035359,8.711437511567722,165899.8348666361,53297.532516842715,10.657590421813069,165926.87669549932,-4370.7196982807745,12.739827004320285,166167.69712047133,10578.986505326,43.84727895687055,0.9926932625465198,95.0,64.0,97.0,267.0,364.0,31.0,1250.0,1249.0,31.0,16.0,15.0,0.5161290322580645,48.46347428242351,1138.7601629932306,18.0,12.0,6.0,0.6666666666666666,835.7897803683809,1888.1482818409625,25.0,13.0,12.0,0.52,2291.824299561714,50774.919814430395,30.0,3.0,27.0,0.1,977.299040877261,16365.500350659191,105.0,52.0,53.0,0.4952380952380952,52.93900861170757,11001.306845839765,,,,,165761.0,165792.0,165856.0,165874.0,165887.0,165912.0,165924.0,165953.0,166118.0,166220.0,0.041872773586867994,-0.12401636781507155,0.04300057040797278,-0.2236013993900552,0.0050041663806882995
110,110,167027.861651316,801.4282230076112,8.449972726189072,167119.61661479485,-6885.950247224843,9.27788590974492,167152.22033219764,52933.95647728268,10.604117462632178,167179.45203459918,-4564.884864524749,15.287792405053656,167422.55406875364,10401.915368262982,42.6082331325385,0.992567960110614,92.0,69.0,97.0,269.0,366.0,23.0,1251.0,1252.0,25.0,12.0,13.0,0.48,47.5886649860412,745.2204925793476,18.0,12.0,6.0,0.6666666666666666,792.5867130180569,917.4513585462814,26.0,13.0,13.0,0.5,2272.4927907669903,50836.39178297739,31.0,3.0,28.0,0.0967741935483871,1014.5205402979648,17220.82781723983,103.0,51.0,52.0,0.4951456310679611,56.2819254774214,10923.30711795795,,,,,167016.0,167039.0,167108.0,167126.0,167139.0,167165.0,167176.0,167205.0,167374.0,167474.0,0.0593798216981301,-0.11510200982609234,0.04293071861617337,-0.2222444969383881,0.005410727109849571
111,111,168253.78076489083,1225.4120129320445,21.125750175936364,168354.09570801683,-7183.093483896559,9.138575104324472,168386.12727907434,51334.63028668152,10.595989331945134,168413.45203459918,-4906.82773266947,15.28779240518434,168656.40729378018,10491.225395127176,44.7634455063511,0.99372428028949,100.0,65.0,98.0,268.0,366.0,35.0,1234.0,1234.0,43.0,17.0,26.0,0.3953488372093023,40.924737259387534,1526.01522109326,18.0,11.0,7.0,0.6111111111111112,789.9338309699804,361.36426532443966,26.0,13.0,13.0,0.5,2219.133480311699,48856.83512535135,32.0,3.0,29.0,0.09375,984.9681607999064,17065.67406897243,106.0,52.0,54.0,0.490566037735849,54.63086090287834,11067.336413901154,,,,,168243.0,168278.0,168343.0,168361.0,168373.0,168399.0,168410.0,168441.0,168606.0,168709.0,0.0333967162289089,-0.10997125858669334,0.043228780803890206,-0.20073420434999711,0.005207290744916466
112,112,169505.65990101662,1052.4207767327598,10.315391666600023,169595.19671622256,-7069.908449386234,8.993339297918139,169627.99908283088,53958.48198537996,10.557195990970246,169656.02737369903,-4370.588849357678,17.8357577924275,169899.21180597204,10138.421362059848,41.646382326101914,0.991106140331712,91.0,65.0,98.0,268.0,366.0,26.0,1244.0,1242.0,26.0,13.0,13.0,0.5,48.7437157125918,1044.3913108412787,18.0,11.0,7.0,0.6111111111111112,747.7392593217337,328.4235328907612,25.0,13.0,12.0,0.52,2297.6172796202004,50761.932967011424,31.0,4.0,27.0,0.1290322580645161,894.0385156434302,15744.845305603762,104.0,52.0,52.0,0.5,56.573896696665905,10571.70472511931,,,,,169493.0,169519.0,169584.0,169602.0,169615.0,169640.0,169652.0,169682.0,169849.0,169950.0,0.046315805227559896,-0.10576364102517449,0.0425812067923397,-0.20455790889019962,0.005580148494160796
113,113,170775.5251383893,889.9101332260781,9.164021659857864,170867.05440237297,-6802.197163446116,8.972793187423054,170899.5977346218,53197.249003106896,10.53654480908982,170927.02737369903,-4363.806413910425,16.926128617351633,171170.3703813011,10294.415607289458,42.99280389155041,0.9917188268115964,93.0,69.0,98.0,268.0,366.0,24.0,1271.0,1272.0,24.0,13.0,11.0,0.5416666666666666,46.53878265245898,871.0923869050888,18.0,11.0,7.0,0.6111111111111112,757.4569636899597,396.6609051287528,25.0,13.0,12.0,0.52,2278.2435307493706,48910.44751593249,32.0,4.0,28.0,0.125,942.6152667628088,16267.144186380066,106.0,52.0,54.0,0.490566037735849,52.03683098873644,10657.587893398708,,,,,170763.0,170787.0,170856.0,170874.0,170887.0,170912.0,170923.0,170954.0,171120.0,171222.0,0.052296047561283344,-0.11135474986823497,0.042826341087982084,-0.21600758084915303,0.005054860127454855
114,114,173174.33408759526,652.9596674555273,9.248451603370908,173268.80538832606,-6840.618457172421,9.685237115210109,173301.84336194012,54476.307694143026,10.645362361448337,173330.60271279886,-4357.35016548978,20.383723206531027,173573.59360504936,9500.421710128872,38.67731963773701,0.992142123993852,95.0,70.0,100.0,264.0,364.0,25.0,2398.0,2402.0,25.0,12.0,13.0,0.48,39.833390791917886,679.5881277554213,19.0,12.0,7.0,0.631578947368421,750.8622674951287,237.2153006823401,25.0,13.0,12.0,0.52,2294.2035196673446,50677.53369976538,31.0,5.0,26.0,0.1612903225806451,784.8660378408205,14451.796140178812,96.0,48.0,48.0,0.5,55.82100971755708,9840.334574970597,,,,,173162.0,173187.0,173257.0,173276.0,173289.0,173314.0,173326.0,173357.0,173528.0,173621.0,0.0610043663908704,-0.10976526058222792,0.04211378518067229,-0.18012461886973433,0.005875634937135846
115,115,174476.68615886584,758.3594182840603,7.400637857092165,174568.1567231435,-6727.691857122845,9.166107724222606,174600.6921746431,53614.0454245792,10.590615181618023,174628.45203459918,-4176.898817642167,14.448120146089558,174871.96171806747,10045.891939477258,40.665761386894616,0.9940038229033704,90.0,70.0,96.0,269.0,365.0,20.0,1300.0,1299.0,22.0,12.0,10.0,0.5454545454545454,49.44307559248734,738.788537642019,18.0,11.0,7.0,0.6111111111111112,754.54858935443,390.31089924886874,25.0,13.0,12.0,0.52,2304.417415031798,50422.16081860357,29.0,3.0,26.0,0.1034482758620689,965.7583248341753,16254.073291347402,101.0,50.0,51.0,0.495049504950495,52.335443459360675,10250.4452890131,,,,,174467.0,174487.0,174557.0,174575.0,174588.0,174613.0,174625.0,174653.0,174823.0,174922.0,0.06519741747832733,-0.11215564050478363,0.04298159925785688,-0.23121420149203895,0.00520963631449175
116,116,175761.50751854488,817.3911757645832,7.902788118598533,175856.15400402286,-6885.388900600097,9.54758488871715,175888.72796340796,52972.38947228405,10.64846014929979,175915.87669549932,-4390.5080232421515,12.739827004320285,176157.8521165472,10498.455089411664,42.35861688597529,0.9842766022971216,95.0,72.0,96.0,269.0,365.0,23.0,1289.0,1288.0,23.0,12.0,11.0,0.5217391304347826,47.06524755352158,719.0201567434003,18.0,11.0,7.0,0.6111111111111112,751.6534989315364,200.35625923063844,25.0,13.0,12.0,0.52,2288.932876620013,50239.197032768345,29.0,3.0,26.0,0.1034482758620689,969.8392232145948,16232.990073757306,104.0,51.0,53.0,0.4903846153846153,54.568752466621966,10897.457467212114,,,,,175750.0,175773.0,175845.0,175863.0,175876.0,175901.0,175913.0,175941.0,176110.0,176210.0,0.05757983319246994,-0.10916645519703701,0.043209923120753634,-0.22089453386271715,0.005197788817676413
117,117,179296.77341175155,832.4068794087189,8.409937131514026,179388.48476020238,-6642.866011370324,9.380686434637283,179421.3871232737,54337.26953053582,10.710392905189035,179449.45203459918,-4697.881866632325,15.287792403386998,179695.63459326583,9311.27489479116,40.220980093497374,0.9926692524487606,91.0,68.0,96.0,271.0,367.0,23.0,3532.0,3532.0,23.0,11.0,12.0,0.4782608695652174,49.524301379813785,741.7375605423302,18.0,11.0,7.0,0.6111111111111112,716.2016284231114,56.73532249152413,26.0,13.0,13.0,0.5,2307.5564051976485,52855.82375526645,30.0,4.0,26.0,0.1333333333333333,966.8752450592536,16619.332752158403,98.0,49.0,49.0,0.5,54.18135397588733,9761.107026164227,,,,,179286.0,179309.0,179377.0,179395.0,179408.0,179434.0,179446.0,179473.0,179649.0,179744.0,0.059495305246626794,-0.10781515496432086,0.04246728672851099,-0.2058108893556231,0.005818897475167126
118,118,180578.96234966523,1493.089827450195,19.942129471363984,180673.998630947,-6263.445939608151,8.408266065638694,180706.6643657929,53707.76720875,10.634745826893464,180734.4520345992,-3988.972739142146,12.352706349358302,180979.0524097424,10132.09499455423,43.90652559012077,0.993960870216314,99.0,64.0,94.0,273.0,367.0,35.0,1285.0,1286.0,38.0,17.0,21.0,0.4473684210526316,56.38691801341511,1780.1048596094647,17.0,11.0,6.0,0.6470588235294118,755.1093454994523,1246.668154293966,26.0,14.0,12.0,0.5384615384615384,2297.8048901747397,50845.239413639574,28.0,3.0,25.0,0.1071428571428571,976.1839128670832,16086.299840114752,103.0,51.0,52.0,0.4951456310679611,58.32361697795471,10688.4370774433,,,,,180564.0,180599.0,180663.0,180680.0,180693.0,180719.0,180731.0,180757.0,180930.0,181030.0,0.037765254961055594,-0.12055813250089181,0.04278347452508478,-0.24472062776669107,0.005756323545061739
119,119,181875.48234167675,1189.8500940840524,12.741176234051958,181967.43236119347,-6455.152969592136,8.56412573226672,181999.94734129592,53248.63446630362,10.583481422807798,182027.4520345992,-4125.502558904347,12.712549451131892,182270.32370061649,10435.75701743495,44.046906595175514,0.9910882052880589,96.0,66.0,95.0,272.0,367.0,30.0,1296.0,1293.0,31.0,15.0,16.0,0.4838709677419355,51.12540033348666,1193.2851066708288,18.0,11.0,7.0,0.6111111111111112,734.1142797530844,358.90367126694537,26.0,13.0,13.0,0.5,2294.6624403637375,51071.300912829014,28.0,3.0,25.0,0.1071428571428571,993.5266106220984,16441.57827064295,105.0,51.0,54.0,0.4857142857142857,57.6570482094486,11012.760493401103,,,,,181860.0,181890.0,181956.0,181974.0,181987.0,182013.0,182024.0,182051.0,182220.0,182323.0,0.04296793401764029,-0.11372531111365262,0.04309335747972706,-0.24082559553325295,0.005524951195502286
120,120,183981.39367121956,204.00663284260744,0.2662473591930995,184308.57862361317,-7350.702945006354,10.896361248683204,184340.62859542965,50711.35899805317,10.836749738783364,184368.6027127989,-5856.351241548031,20.383723206912453,184611.32723101575,9210.38759998878,39.70696905046795,0.9868129839934454,316.0,314.0,102.0,263.0,365.0,2.0,2105.0,2341.0,2.0,1.0,1.0,0.5,43.733463161047425,1391.1656141251724,19.0,13.0,6.0,0.6842105263157895,819.4580226840966,691.3712350928249,25.0,13.0,12.0,0.52,2130.74428081826,45551.69528611507,36.0,5.0,31.0,0.1388888888888889,829.8190668917603,16039.697279860547,100.0,49.0,51.0,0.49,57.11282974387886,9596.981331567613,,,,,183980.0,183982.0,184296.0,184315.0,184328.0,184353.0,184364.0,184398.0,184564.0,184661.0,0.214372751276122,-0.11148022560764606,0.04201710076237673,-0.14169557676195854,0.006200914904379099
121,121,185484.69388443857,756.2350709492456,8.392907474505519,185577.5798091644,-6586.10936757295,9.207653854136636,185610.33188414303,54974.52691991994,10.634884652211689,185639.02737369903,-4335.896111552931,15.58972228125608,185882.4870224125,9576.532365635549,42.2184360872886,0.9945158816843336,93.0,69.0,97.0,270.0,367.0,24.0,1505.0,1269.0,24.0,12.0,12.0,0.5,41.129887301387015,679.9864165334295,18.0,12.0,6.0,0.6666666666666666,789.412991835378,1480.2940820263552,26.0,13.0,13.0,0.5,2338.9205015839852,53486.09104227024,28.0,4.0,24.0,0.1428571428571428,853.6161375834351,15000.296160654736,102.0,51.0,51.0,0.5,60.98813879790547,10103.935785161237,,,,,185473.0,185497.0,185566.0,185584.0,185597.0,185623.0,185635.0,185663.0,185834.0,185933.0,0.05438770149837104,-0.11986029198392813,0.0425455321332921,-0.19687190735704843,0.006368499209249838
122,122,186748.58348306717,1213.0851025766913,14.138003166759486,186842.05129976163,-6510.411333445066,8.494846615709712,186874.6845538441,54290.193377203104,10.607002150170704,186902.4520345992,-4251.976961908761,15.28779240518434,187146.09649413085,10220.0732411443,44.06187218334597,0.9955644462241184,98.0,67.0,97.0,270.0,367.0,31.0,1261.0,1265.0,32.0,16.0,16.0,0.5,55.64017387837225,1208.3915636303743,18.0,11.0,7.0,0.6111111111111112,764.6958100125036,958.3747206671565,26.0,14.0,12.0,0.5384615384615384,2314.890140488704,50692.09191009578,30.0,3.0,27.0,0.1,973.1960329276354,16530.053847395462,105.0,52.0,53.0,0.4952380952380952,54.15204286579295,10726.26184691949,,,,,186733.0,186764.0,186831.0,186849.0,186861.0,186887.0,186899.0,186928.0,187096.0,187198.0,0.04586666983230443,-0.1174573726369844,0.04263919497219447,-0.22888083393818687,0.0052985963591519
123,123,188007.84849496096,1323.6233061404537,13.682200213409518,188101.3623493044,-6696.942296517024,8.716952850522862,188133.98285294103,53440.28466316613,10.53770571783394,188162.02737369903,-4196.35632897279,15.959384910039836,188405.6926329742,10432.471449459454,43.5908435191157,0.9940173031680092,97.0,67.0,98.0,269.0,367.0,30.0,1261.0,1259.0,30.0,15.0,15.0,0.5,51.16538404544805,1410.645870987183,18.0,11.0,7.0,0.6111111111111112,733.8465506238498,51.132527628098615,25.0,13.0,12.0,0.52,2292.2206833983246,50657.62484494764,30.0,4.0,26.0,0.1333333333333333,887.9078622340746,15345.604175562225,104.0,52.0,52.0,0.5,56.96608707419764,10933.54071548206,,,,,187993.0,188023.0,188090.0,188108.0,188121.0,188146.0,188158.0,188188.0,188356.0,188457.0,0.03865554784966799,-0.10957934504012555,0.04289312262923338,-0.21159019697724818,0.005460459427104329
124,124,190220.17835153348,1460.9073517859713,25.60296540330223,190319.49702157293,-6092.369328175757,7.979428947688419,190351.88507485317,54032.71325375476,10.708972227220196,190381.02737369903,-4050.6148048623822,13.221630501652486,190622.24300762356,9632.669534625213,42.031888309467504,0.9914694897736752,111.0,59.0,94.0,270.0,364.0,52.0,2221.0,2218.0,65.0,33.0,32.0,0.5076923076923077,39.0926620879815,1693.0073362950689,16.0,10.0,6.0,0.625,747.7319577560155,1227.5833814752632,26.0,13.0,13.0,0.5,2280.259368984349,51773.45426951844,26.0,4.0,22.0,0.1538461538461538,810.1455650336059,14058.541951475938,101.0,50.0,51.0,0.495049504950495,61.75089172285037,10226.647694956317,,,,,190198.0,190250.0,190309.0,190325.0,190339.0,190365.0,190377.0,190403.0,190574.0,190673.0,0.026759165829503426,-0.12273253925987929,0.04220145966528698,-0.200005580402536,0.006410568897944963
125,125,191463.27217730385,920.3022922479332,7.936177026490117,191556.17058012905,-6987.476635318925,9.752755506410413,191588.9903189348,53846.50450712312,10.614980882670912,191617.02737369903,-4392.8981485755685,17.8357578060484,191860.42933843177,10107.505856439277,42.03552786899964,0.9924575353416788,92.0,69.0,100.0,267.0,367.0,23.0,1236.0,1237.0,23.0,11.0,12.0,0.4782608695652174,52.34644951213458,851.6134653821798,19.0,12.0,7.0,0.631578947368421,740.7283965303935,308.265157696555,25.0,13.0,12.0,0.52,2295.7720545525576,50815.16068842419,32.0,4.0,28.0,0.125,892.9913258187211,15699.9737235579,101.0,49.0,52.0,0.4851485148514851,59.525316396759685,10552.244614118492,,,,,191452.0,191475.0,191544.0,191563.0,191576.0,191601.0,191613.0,191644.0,191812.0,191911.0,0.0568796252634262,-0.10600799618939762,0.04263548907336891,-0.20328068068418123,0.00588921908552122
126,126,192709.156687704,339.6555986476312,4.0495925964523565,192804.3972872011,-6831.75531913879,16.16046103819242,192834.19137259008,54498.55640118276,10.911924579217256,192862.02737369903,-5395.6733699831875,17.8357578060484,193106.4646438107,9808.067075108283,38.92046649217399,0.9917495962442592,86.0,73.0,102.0,264.0,366.0,13.0,1245.0,1246.0,13.0,6.0,7.0,0.4615384615384615,52.00103162330412,335.6959026519489,20.0,15.0,5.0,0.75,920.0159792899666,3316.0348047547304,25.0,12.0,13.0,0.48,2281.960940256909,51480.86909725981,34.0,4.0,30.0,0.1176470588235294,945.939450369337,17098.121450700524,97.0,48.0,49.0,0.4948453608247423,57.678194463674664,10103.809455676372,,,,,192703.0,192716.0,192789.0,192809.0,192822.0,192847.0,192858.0,192891.0,193059.0,193155.0,0.1530992918425335,-0.13466758341192228,0.041871952046924024,-0.17531443908960792,0.005880689234890646
127,127,193975.67801332477,742.5548105804138,7.0160036488714255,194067.7613654596,-7012.682436405726,9.980735583219346,194100.54198744023,52852.86496728931,10.617558220668698,194128.4520345992,-4326.142325316066,14.658204439232131,194368.4700951055,10857.9535483682,45.3359433962217,0.9886498188643996,91.0,70.0,97.0,269.0,366.0,21.0,1265.0,1266.0,21.0,11.0,10.0,0.5238095238095238,49.57877346084686,683.1312155525086,19.0,12.0,7.0,0.631578947368421,769.3686118020871,249.2251066260219,26.0,14.0,12.0,0.5384615384615384,2276.439394510277,49221.57854675995,30.0,3.0,27.0,0.1,946.8991217093932,16127.983204867312,106.0,51.0,55.0,0.4811320754716981,58.40118583889252,11533.912444211675,,,,,193965.0,193986.0,194056.0,194075.0,194087.0,194113.0,194125.0,194153.0,194318.0,194422.0,0.06676783013781015,-0.10971102980622328,0.04307125821692292,-0.21887840262865443,0.005378654972019973
128,128,196330.3921061816,1345.232795324981,15.090000858591566,196424.2243687989,-6550.027384150431,8.753502585400431,196456.79623638047,53937.97633694075,10.675311224966622,196485.4520345992,-3950.6040703105423,13.699315548440683,196727.08142778825,9847.357805984211,41.735469882269314,0.992898385077806,98.0,66.0,95.0,269.0,364.0,32.0,2356.0,2356.0,33.0,15.0,18.0,0.4545454545454545,53.033898443915746,1446.3704626412036,18.0,11.0,7.0,0.6111111111111112,754.3526537264512,791.308901763648,26.0,13.0,13.0,0.5,2295.18446097147,51413.96152157428,27.0,3.0,24.0,0.1111111111111111,888.9776462752856,15049.079415105329,101.0,49.0,52.0,0.4851485148514851,55.68966676579621,10333.91013236978,,,,,196315.0,196347.0,196413.0,196431.0,196444.0,196470.0,196482.0,196508.0,196680.0,196777.0,0.039423584251158425,-0.11516786258814919,0.042552290924558776,-0.22502321934918837,0.005655290268010142
129,129,197565.72113211916,1319.81366902458,16.287266339171534,197656.4029889397,-6424.363698453825,8.32627193996323,197688.63465745424,53163.96326004892,10.638298019820311,197715.87669549932,-4275.524532780363,12.739827004177108,197956.5584524281,10320.501873103314,43.153475848781646,0.9907119122333627,97.0,60.0,94.0,270.0,364.0,37.0,1236.0,1232.0,39.0,20.0,19.0,0.5128205128205128,49.83033123166737,1336.0720104781997,18.0,11.0,7.0,0.6111111111111112,759.4796963029273,906.2280303159318,26.0,14.0,12.0,0.5384615384615384,2280.025163435089,49945.022798425794,28.0,3.0,25.0,0.1071428571428571,961.9808778101155,16071.563229420348,104.0,51.0,53.0,0.4903846153846153,51.41191345592973,10722.581779235135,,,,,197548.0,197585.0,197645.0,197663.0,197675.0,197701.0,197713.0,197739.0,197907.0,198009.0,0.03775558050440175,-0.11821866443920571,0.04288666652413511,-0.22499716009921752,0.004981532302214531
130,130,198778.80378889403,1356.815542112818,15.095510320282846,198871.07497512567,-6460.016100634925,8.432655821206437,198903.52313168737,52568.802470745584,10.594222506570745,198931.4520345992,-3812.021408061018,12.05726811216504,199173.42864181037,10681.054788875745,46.12639785025472,0.9929831906406404,96.0,64.0,95.0,272.0,367.0,32.0,1214.0,1215.0,32.0,15.0,17.0,0.46875,49.99108033950927,1460.6646168984605,17.0,11.0,6.0,0.6470588235294118,758.5709707572447,913.9430419911496,26.0,14.0,12.0,0.5384615384615384,2252.2338997712654,49396.56073215601,28.0,3.0,25.0,0.1071428571428571,939.052066344701,15482.11708210278,107.0,52.0,55.0,0.4859813084112149,54.50604884243948,11282.689548627124,,,,,198764.0,198796.0,198860.0,198877.0,198890.0,198916.0,198928.0,198955.0,199123.0,199227.0,0.03684441900014184,-0.11742555419988632,0.04284354586590836,-0.2463396623006766,0.0051030586322998
131,131,199981.1707447418,948.8354550277968,9.49393510645487,200072.8485211431,-6768.9339557119965,9.199112495518223,200105.54623248067,52725.63206125901,10.582970424815844,200133.02737369903,-4369.34554431251,15.46376080310818,200376.1869928064,10600.221451988804,42.45480821363181,0.990404794195538,92.0,68.0,98.0,269.0,367.0,24.0,1199.0,1202.0,24.0,12.0,12.0,0.5,49.09089458780725,941.7331422424384,19.0,12.0,7.0,0.631578947368421,761.5705824163691,535.8816564480157,26.0,14.0,12.0,0.5384615384615384,2263.585248103577,48683.52054706169,30.0,4.0,26.0,0.1333333333333333,936.874346089317,16111.754281951007,105.0,52.0,53.0,0.4952380952380952,54.784380799416674,10941.383857337554,,,,,199969.0,199993.0,200061.0,200080.0,200092.0,200118.0,200129.0,200159.0,200326.0,200428.0,0.051738048286116264,-0.11250967839237289,0.04293140090712695,-0.21441983395175224,0.005168229838173624
132,132,203059.7694543381,1955.715967597489,14.10588702114346,203153.33476846135,-6594.785303197978,9.740859565172704,203186.30640131328,51566.94219460795,10.853589151893273,203214.6027127989,-5492.311788678254,18.055953781503213,203455.13525943813,8864.165990205753,41.626490913015175,0.99141170362232,103.0,61.0,98.0,266.0,364.0,42.0,3077.0,3080.0,42.0,21.0,21.0,0.5,33.10333690960378,1730.6920544880286,18.0,11.0,7.0,0.6111111111111112,698.2563030694522,74.5014982328089,26.0,13.0,13.0,0.5,2151.3145065560875,48806.508027376665,31.0,5.0,26.0,0.1612903225806451,823.2985438695677,15592.031854007448,100.0,49.0,51.0,0.49,61.96232541427071,9445.358558723436,,,,,203039.0,203081.0,203142.0,203160.0,203173.0,203199.0,203210.0,203240.0,203406.0,203506.0,0.01692645427969266,-0.10588006598650757,0.04171886900792496,-0.1499001833010827,0.00699020364496045
133,133,204411.81752728557,1114.7507620724707,11.249962243576952,204504.22668857052,-6491.287195657393,9.157193993763478,204537.08784267397,55003.38446521519,10.66925121435794,204565.4520345992,-4270.391659397492,15.28779240518434,204811.66296816923,8916.182400788728,40.8565507925888,0.9927517761127856,94.0,67.0,97.0,271.0,368.0,27.0,1355.0,1351.0,27.0,13.0,14.0,0.4814814814814814,48.07669030128812,1137.6515478611757,18.0,11.0,7.0,0.6111111111111112,732.403370623905,595.5839378783089,26.0,13.0,13.0,0.5,2338.1264547944497,52853.739247577025,29.0,3.0,26.0,0.1034482758620689,928.4459088464854,15953.523474259,100.0,50.0,50.0,0.5,58.682028213100935,9398.43426501752,,,,,204399.0,204426.0,204493.0,204511.0,204524.0,204550.0,204562.0,204590.0,204764.0,204861.0,0.04312774831560296,-0.11282868074514953,0.042508774278664785,-0.2174146970344822,0.006581519486177168
134,134,205705.27844558295,1364.5687764170716,17.448842912457998,205800.91740172703,-6265.879791688928,8.31871735788202,205833.34886745177,54434.11465293365,10.59936510598305,205861.4520345992,-3911.289955267423,13.494415353301545,206103.6429359588,9876.622129930356,44.03911372592948,0.9922629949161096,102.0,67.0,95.0,271.0,366.0,35.0,1295.0,1296.0,35.0,17.0,18.0,0.4857142857142857,55.06537936405153,1565.628147223273,17.0,11.0,6.0,0.6470588235294118,783.0401334921701,1719.677432439997,26.0,13.0,13.0,0.5,2320.889053159101,53360.63775591448,28.0,3.0,25.0,0.1071428571428571,943.1671797457498,15857.651737205666,105.0,52.0,53.0,0.4952380952380952,57.006531491774574,10329.214318146644,,,,,205688.0,205723.0,205790.0,205807.0,205820.0,205846.0,205858.0,205885.0,206054.0,206156.0,0.04035368558603246,-0.12496890453129912,0.042636663936886865,-0.24113967272499578,0.005771865192556127
135,135,207017.93160978117,1056.547558766766,10.654223479659889,207110.20603713777,-6840.906349094712,9.37834036003956,207142.94998018892,53864.436391225005,10.566522428880448,207170.4520345992,-4228.780082339254,15.28779225868148,207413.77361803156,10089.313861400187,43.18430846166796,0.9924333698451308,95.0,69.0,98.0,269.0,367.0,26.0,1312.0,1310.0,28.0,14.0,14.0,0.5,52.77455471764233,985.3438327153876,18.0,11.0,7.0,0.6111111111111112,738.4796155931557,67.49881723411545,25.0,13.0,12.0,0.52,2316.594376517938,51145.950589565,31.0,3.0,28.0,0.0967741935483871,998.8611621495886,16825.810085127458,103.0,50.0,53.0,0.4854368932038835,51.748352485775406,10452.901254758748,,,,,207004.0,207030.0,207099.0,207117.0,207130.0,207155.0,207167.0,207197.0,207365.0,207466.0,0.0499500039347423,-0.10795055185792479,0.04300786440411603,-0.2362055114478888,0.005129025937408375
136,136,208303.68038990532,1236.7205413711022,13.932169655314334,208395.6976226598,-6860.73119003863,8.512730017564005,208427.91620736924,52062.1634962702,10.505126798565689,208455.4520345992,-4479.313021929412,15.287792405184277,208697.1352208992,10375.26428472856,43.896930511567795,0.9901747141537346,97.0,66.0,98.0,268.0,366.0,31.0,1283.0,1285.0,32.0,16.0,16.0,0.5,46.182372234629334,1269.321217603759,18.0,12.0,6.0,0.6666666666666666,805.8766829614362,1129.5402457687455,25.0,13.0,12.0,0.52,2247.4785763217087,48979.10854840931,33.0,4.0,29.0,0.1212121212121212,970.4647305322666,16631.710386734077,109.0,54.0,55.0,0.4954128440366973,59.392041574168616,10714.296687992235,,,,,208288.0,208319.0,208385.0,208402.0,208415.0,208440.0,208452.0,208483.0,208646.0,208751.0,0.037342609498042946,-0.11746221512533836,0.04316913522970902,-0.2166548142050252,0.005724388308988742
137,137,210643.4259805004,1122.8913105863849,10.784214882566308,210739.75307598905,-6842.970127671887,9.432502661378038,210772.74392551367,54690.95127357083,10.667675609615282,210801.02737369903,-4578.207784805576,17.49325347570855,211047.242520124,9080.245364689792,41.16939364906422,0.9931342053351372,98.0,72.0,97.0,272.0,369.0,26.0,2342.0,2345.0,27.0,13.0,14.0,0.4814814814814814,50.15896299477985,1149.0165153413873,19.0,12.0,7.0,0.631578947368421,766.8623848294327,624.3215500786596,25.0,13.0,12.0,0.52,2316.580807516372,50874.85337980082,29.0,4.0,25.0,0.1379310344827586,895.4321177495424,15851.74177577823,99.0,48.0,51.0,0.4848484848484848,64.0023414278854,9647.590757917227,,,,,210630.0,210656.0,210728.0,210747.0,210760.0,210785.0,210797.0,210825.0,211001.0,211097.0,0.04466947292395231,-0.112065721539301,0.04235766161624345,-0.19558573132511697,0.007048525547202755
138,138,211926.51501539888,861.9268947761664,7.572027792281252,212018.6255136573,-7132.164964095056,9.720845114767814,212051.6630667202,53872.09390282545,10.607543170234273,212080.02737369903,-4557.261522142456,17.8357578060484,212326.82943333112,9619.660997689438,39.45693830482043,0.9936160366053848,90.0,71.0,100.0,269.0,369.0,19.0,1283.0,1279.0,19.0,10.0,9.0,0.5263157894736842,54.872624619638,859.2623050702871,19.0,12.0,7.0,0.631578947368421,770.5675865459835,126.13047352998274,25.0,13.0,12.0,0.52,2299.7313274119074,49776.470014814615,32.0,4.0,28.0,0.125,855.5806803844782,15425.665781527265,98.0,49.0,49.0,0.5,50.54274910809957,9941.045804561085,,,,,211917.0,211936.0,212007.0,212026.0,212039.0,212064.0,212076.0,212107.0,212279.0,212376.0,0.06366273630884654,-0.10804118951611416,0.04268873104431704,-0.18774008825858504,0.005254109174973995
