Unnamed: 0,cycle,p_center,p_height,p_width,q_center,q_height,q_width,r_center,r_height,r_width,s_center,s_height,s_width,t_center,t_height,t_width,r_squared,pr_interval,pr_segment,qrs_duration,st_segment,qt_interval,p_duration,pp_interval,rr_interval,fwhm_p,rise_time_p,decay_time_p,rise_decay_symmetry_p,sharpness_deriv_p,sharpness_diff_p,fwhm_q,rise_time_q,decay_time_q,rise_decay_symmetry_q,sharpness_deriv_q,sharpness_diff_q,fwhm_r,rise_time_r,decay_time_r,rise_decay_symmetry_r,sharpness_deriv_r,sharpness_diff_r,fwhm_s,rise_time_s,decay_time_s,rise_decay_symmetry_s,sharpness_deriv_s,sharpness_diff_s,fwhm_t,rise_time_t,decay_time_t,rise_decay_symmetry_t,sharpness_deriv_t,sharpness_diff_t,Average_Heart_Rate,SDNN,RMSSD,NN50,p_on,p_off,q_on,q_off,r_on,r_off,s_on,s_off,t_on,t_off,sharpness_deriv_p_norm,sharpness_deriv_q_norm,sharpness_deriv_r_norm,sharpness_deriv_s_norm,sharpness_deriv_t_norm
0,0,0.0,0.0,0.0,0.0,0.0,0.0,0.0,0.0,0.0,0.0,0.0,0.0,0.0,0.0,0.0,0.0,0.0,0.0,0.0,0.0,0.0,0.0,0.0,0.0,0.0,0.0,0.0,0.0,0.0,0.0,0.0,0.0,0.0,0.0,0.0,0.0,0.0,0.0,0.0,0.0,0.0,0.0,0.0,0.0,0.0,0.0,0.0,0.0,0.0,0.0,0.0,0.0,0.0,0.0,53.68766296243154,293.1133634719262,408.6113538088956,528.0,,,,,,,,,,,,,,,
1,1,2347.285002370268,1995.397535357855,10.662385986753163,2458.12330450072,-3410.063960819184,7.72122135892866,2483.169486703674,42090.76613771477,9.344355672869952,2505.452034601478,-10904.593243615198,7.40983842322232,2787.037881667147,9637.796668685589,36.20858092916695,0.9852402420008024,113.0,86.0,69.0,314.0,383.0,27.0,,,27.0,13.0,14.0,0.4814814814814814,80.73689521353535,2022.4695432292544,14.0,11.0,3.0,0.7857142857142857,918.3867763795944,9465.044472410966,22.0,11.0,11.0,0.5,2285.6060069579166,39448.29664268556,16.0,4.0,12.0,0.25,1585.179950888973,24349.269483853743,88.0,44.0,44.0,0.5,75.68396401591703,10477.905376711646,0.0,0.0,0.0,0.0,2334.0,2361.0,2447.0,2461.0,2472.0,2494.0,2502.0,2516.0,2746.0,2830.0,0.04046155905422424,-0.2693165837742746,0.05430183901808182,-0.14536809539568288,0.007852828464603712
2,2,3491.8133220951936,1618.280262594615,10.751755461991609,3598.12330450072,-3401.196347598456,6.73373463976039,3624.018243610167,44803.94867691461,9.31615207728455,3646.644547271584,-10378.932636982026,7.353074488517882,3926.410851195392,9668.923878641725,38.6168507847403,0.9889534488908628,111.0,83.0,68.0,315.0,383.0,28.0,1144.0,1141.0,28.0,14.0,14.0,0.5,64.08076858435221,1614.2809549420374,12.0,9.0,3.0,0.75,901.3545718308386,8815.270056287136,23.0,12.0,11.0,0.5217391304347826,2383.296396030594,41808.08528457586,14.0,4.0,10.0,0.2857142857142857,1526.2909126602474,23546.705018336554,94.0,46.0,48.0,0.4893617021276595,76.51480012178241,10460.58624660646,0.0,0.0,0.0,0.0,3478.0,3506.0,3589.0,3601.0,3612.0,3635.0,3643.0,3657.0,3884.0,3972.0,0.03959806596269702,-0.26501103720967895,0.053193891753085504,-0.14705663540216024,0.007913476316718205
3,3,4504.419895144797,1215.197212046712,11.13103916643428,4624.452034610568,-3933.513697264413,15.28779240518434,4655.178927978454,44902.07477322235,9.471048697059086,4677.599860366781,-12194.117509446944,9.04648674222543,4958.215934205935,9467.889140183868,31.001852777044128,0.9821221710260538,85.0,58.0,114.0,307.0,421.0,27.0,1012.0,1031.0,27.0,14.0,13.0,0.5185185185185185,44.76980304951233,1186.103177389763,65.0,56.0,9.0,0.8615384615384616,444.2181790979193,1457.5141411209338,22.0,11.0,11.0,0.5,2394.966370103711,40549.434566568874,17.0,5.0,12.0,0.2941176470588235,1561.471442259255,25734.27216739094,80.0,41.0,39.0,0.5125,83.84029154695902,10113.654479010558,0.0,0.0,0.0,0.0,4490.0,4517.0,4575.0,4633.0,4644.0,4666.0,4673.0,4689.0,4919.0,4996.0,0.03684159460348679,-0.11293164668699479,0.05333754358121476,-0.12805120510357249,0.008855225310055842
4,4,5446.880327247303,2122.8466805384287,16.35045737094973,5575.546389145446,-4762.455255972122,15.287792405183694,5600.328589273118,46112.46709657348,9.68664865723125,5622.027373698993,-13400.23646978522,9.19075141205104,5902.066358022197,9203.280123844546,30.966765299941596,0.9834660843586532,139.0,85.0,75.0,306.0,381.0,54.0,946.0,945.0,54.0,27.0,27.0,0.5,16.471567419535056,1832.3570947319424,30.0,27.0,3.0,0.9,1085.729318591632,10955.213790723988,22.0,11.0,11.0,0.5,2447.7844335914383,41230.06099343806,17.0,4.0,13.0,0.2352941176470588,1713.4089467166236,27844.45169297957,77.0,39.0,38.0,0.5064935064935064,71.79911934685636,9674.436371521078,0.0,0.0,0.0,0.0,5420.0,5474.0,5559.0,5579.0,5589.0,5611.0,5618.0,5634.0,5865.0,5940.0,0.007759188438119934,-0.22797680193008146,0.05308292068747994,-0.127864082889881,0.007801470604033211
5,5,6847.152185293411,1846.53417570154,16.374383277914607,6960.698643600575,-3111.3598353271655,6.710084617019256,6986.36074011445,45262.027248976214,9.297598924082012,7008.505097606539,-10561.593502386748,6.585406098532055,7292.123870521521,7969.8397131441425,35.22064911817518,0.98456262996224,120.0,85.0,67.0,316.0,383.0,35.0,1398.0,1386.0,35.0,16.0,19.0,0.4571428571428571,55.61194701826616,2067.4521893822557,14.0,11.0,3.0,0.7857142857142857,953.4782154211122,10353.921578268126,22.0,11.0,11.0,0.5,2401.5893862951407,43352.62745437279,13.0,4.0,9.0,0.3076923076923077,1612.0880296889818,23662.667167613537,87.0,43.0,44.0,0.4942528735632184,56.2733592902175,8510.354616153534,0.0,0.0,0.0,0.0,6831.0,6866.0,6951.0,6963.0,6975.0,6997.0,7005.0,7018.0,7251.0,7334.0,0.03011693352338736,-0.30645064084040674,0.05305969556079622,-0.15263681842372329,0.007060789340268598
6,6,8099.205425597696,1722.7538954282277,31.94295058190622,8219.698643600574,-2876.756797219368,6.391653051235567,8245.147084456812,43292.21290299174,9.255589321439915,8267.324276331306,-10417.916573105646,6.7525340752625995,8552.476044391899,7793.269743318027,35.9839482992211,0.9922895676654276,124.0,88.0,67.0,319.0,386.0,36.0,1258.0,1259.0,64.0,40.0,24.0,0.625,55.16069685551274,2412.8021743166214,13.0,10.0,3.0,0.7692307692307693,926.930352795301,10250.400229003322,22.0,11.0,11.0,0.5,2319.814997951099,40731.45506868245,14.0,3.0,11.0,0.2142857142857142,1617.8912866173505,23955.109633622393,91.0,46.0,45.0,0.5054945054945055,57.36851013972919,8314.752684374644,0.0,0.0,0.0,0.0,8086.0,8122.0,8210.0,8222.0,8234.0,8256.0,8264.0,8277.0,8509.0,8596.0,0.03201890705451074,-0.3222136656429416,0.05358504087442447,-0.15529892903865394,0.007361288910719036
7,7,9349.2908548959,1247.7652471476974,8.24933451897022,9459.123304500716,-4100.480231101653,9.92489051716666,9484.3470360214,41500.50011944268,9.513836981726556,9506.05008777504,-12016.314366955516,8.231002227737743,9792.770182865172,7543.96656328628,29.595409011120942,0.985262540563834,108.0,86.0,70.0,314.0,384.0,22.0,1245.0,1239.0,23.0,11.0,12.0,0.4782608695652174,62.483747375483354,1174.731672658702,17.0,13.0,4.0,0.7647058823529411,912.6730191536216,8440.471395304005,22.0,11.0,11.0,0.5,2280.908648296868,38527.218392907176,16.0,4.0,12.0,0.25,1592.1296279513183,25233.209852186323,79.0,40.0,39.0,0.5063291139240507,44.68468063035646,7577.457168150622,0.0,0.0,0.0,0.0,9339.0,9361.0,9447.0,9462.0,9473.0,9495.0,9502.0,9517.0,9755.0,9831.0,0.05007652482573686,-0.2225771050500636,0.05496099183701834,-0.13249733481753975,0.005923234183966353
8,8,10559.164006429495,1134.8056647476874,7.199664826949235,10670.123304500716,-3899.6668322430432,12.739827004316094,10695.282981964952,41590.66696817317,9.659151265868564,10717.027373698991,-12466.760255497637,8.926458149568637,11001.58098593094,7622.188555483785,32.448277531439125,0.983408074491118,107.0,86.0,73.0,312.0,385.0,21.0,1208.0,1211.0,21.0,10.0,11.0,0.4761904761904761,63.92925352732759,1087.1466040660198,19.0,16.0,3.0,0.8421052631578947,897.7692149221901,8791.815355414396,22.0,11.0,11.0,0.5,2243.556382957766,37511.20793238896,17.0,4.0,13.0,0.2352941176470588,1577.229360387045,25577.591211225837,85.0,44.0,41.0,0.5176470588235295,56.13142338872403,7930.324341265834,0.0,0.0,0.0,0.0,10549.0,10570.0,10656.0,10673.0,10684.0,10706.0,10713.0,10729.0,10961.0,11041.0,0.05633497920680684,-0.23021690147971016,0.053943746193698315,-0.12651477433293168,0.0073642134381916155
9,9,11768.94530832102,1909.723090715537,13.618760087383688,11877.123304500716,-2881.8691575631747,6.860563493002075,11903.409463716467,43272.04942335457,9.441535926369175,11925.984954120831,-10545.47992900801,7.673650073187418,12209.855804394056,9323.97849475243,35.882316981075604,0.9885781480026822,113.0,82.0,69.0,315.0,384.0,31.0,1214.0,1208.0,33.0,15.0,18.0,0.4545454545454545,61.30962979912236,2018.4702975843209,12.0,9.0,3.0,0.75,821.6778510001983,8557.333934937331,22.0,11.0,11.0,0.5,2274.8270680528503,40970.88546282363,15.0,4.0,11.0,0.2666666666666666,1523.9340655510744,23749.22370765554,86.0,43.0,43.0,0.5,75.35891683524605,10054.46162823344,0.0,0.0,0.0,0.0,11755.0,11786.0,11868.0,11880.0,11892.0,11914.0,11922.0,11937.0,12169.0,12252.0,0.03210393700384636,-0.285119762930176,0.0525703565781447,-0.1445106411287274,0.008082270554105025
10,10,12691.639171699033,1864.34198080648,15.254139433318237,12820.069896057705,-4887.363512533185,15.28779240518434,12845.69018476402,45253.98385595346,9.702714193055138,12867.45203459914,-12544.627297005709,9.560242243205618,13148.016194545273,9189.597805962152,30.595553940396258,0.9792844240628832,136.0,87.0,76.0,306.0,382.0,49.0,918.0,942.0,49.0,24.0,25.0,0.4897959183673469,18.64587726682222,1646.6769798835337,21.0,17.0,4.0,0.8095238095238095,953.4995927192944,7996.009010642387,22.0,12.0,10.0,0.5454545454545454,2386.8258296765844,38662.616563599135,18.0,4.0,14.0,0.2222222222222222,1672.696683864532,27100.93576775324,78.0,39.0,39.0,0.5,67.82432257361106,9648.571773093452,0.0,0.0,0.0,0.0,12668.0,12717.0,12804.0,12824.0,12834.0,12856.0,12864.0,12880.0,13111.0,13186.0,0.010001318137328194,-0.19509487892073799,0.05274288861007276,-0.13333968752214662,0.007380553970447659
11,11,13532.483523849583,3780.868689879084,21.634939347969375,13666.123304500716,-4120.767993436823,10.458756042883762,13691.26893634834,44617.54252112305,9.541193624887534,13713.45203459973,-12165.360855586372,8.056863135416917,13990.799118544704,10054.64579318414,34.33051348315865,0.990114469845662,148.0,91.0,71.0,305.0,376.0,57.0,839.0,846.0,57.0,26.0,31.0,0.4561403508771929,43.06160214549558,3693.232216737375,16.0,13.0,3.0,0.8125,975.7663078411252,9407.432786249925,22.0,11.0,11.0,0.5,2412.9185264895423,41709.40230610018,16.0,4.0,12.0,0.25,1686.6442380737735,26473.57927253006,81.0,41.0,40.0,0.5061728395061729,72.35371084072818,10806.740186194023,0.0,0.0,0.0,0.0,13506.0,13563.0,13654.0,13669.0,13680.0,13702.0,13710.0,13725.0,13952.0,14030.0,0.011389340830790061,-0.236792342931035,0.05408004094683626,-0.1386431736876314,0.007196047710579267
12,12,14478.098014181658,2065.680088764866,16.091631433716074,14607.54796540086,-4295.516581999239,12.563113521451426,14632.749879448564,45315.29992829104,9.502929874206457,14654.999869964486,-12312.46091469503,7.996166682673249,14937.657460196831,8481.343724748172,27.64326913783658,0.9841094317347594,140.0,90.0,71.0,303.0,374.0,50.0,947.0,942.0,50.0,23.0,27.0,0.46,27.595510704195604,1901.6978015645896,18.0,15.0,3.0,0.8333333333333334,1037.4217886123026,9992.23608794449,21.0,11.0,10.0,0.5238095238095238,2455.857322750507,40838.81672032991,15.0,4.0,11.0,0.2666666666666666,1666.0020550724946,26356.237133649454,70.0,38.0,32.0,0.5428571428571428,73.92170555625083,8763.99547077377,0.0,0.0,0.0,0.0,14455.0,14505.0,14595.0,14611.0,14622.0,14643.0,14651.0,14666.0,14902.0,14969.0,0.013359043762045367,-0.24151269557652622,0.05419488178687476,-0.1353102411138708,0.008715801169636678
13,13,15863.05660293188,815.2269030107383,5.763265198361751,15976.123304500716,-3925.744412928396,12.739827004320285,16000.593758955523,46403.68698173616,9.45397327524858,16023.139665969662,-11734.831508108437,7.483631974265712,16309.671533021066,8861.139368117381,31.823098640327512,0.9908457678578756,109.0,91.0,71.0,315.0,386.0,18.0,1386.0,1368.0,18.0,9.0,9.0,0.5,61.99918463292658,822.825618118329,18.0,15.0,3.0,0.8333333333333334,1044.0611812896873,10826.842872823649,22.0,12.0,10.0,0.5454545454545454,2489.70424926592,41994.166634014226,15.0,4.0,11.0,0.2666666666666666,1677.2157142308463,25936.53388038228,80.0,41.0,39.0,0.5125,66.15919139819125,9342.403834183988,0.0,0.0,0.0,0.0,15854.0,15872.0,15963.0,15979.0,15989.0,16011.0,16019.0,16034.0,16270.0,16349.0,0.07605144580478831,-0.2659524083767016,0.053653155841815604,-0.1429262715081966,0.0074662172266733344
14,14,17133.9126895734,1244.14259729305,9.009074206190125,17249.69864360057,-3404.779773765647,7.423578800394337,17275.27581122654,46632.392186947895,9.379862139073234,17297.48258552296,-11351.178390793735,7.1362495669943895,17582.15209255403,8394.246668532362,33.95745762978937,0.9927291118782312,116.0,93.0,69.0,317.0,386.0,23.0,1272.0,1274.0,23.0,11.0,12.0,0.4782608695652174,61.744859560511266,1179.2317802682385,15.0,12.0,3.0,0.8,995.6444256831376,10813.630613385789,22.0,11.0,11.0,0.5,2489.5469400847924,44216.64281614731,14.0,3.0,11.0,0.2142857142857142,1738.135719502305,26179.427495210744,89.0,45.0,44.0,0.5056179775280899,56.44740105078151,8702.79392496931,0.0,0.0,0.0,0.0,17123.0,17146.0,17239.0,17252.0,17264.0,17286.0,17294.0,17308.0,17539.0,17625.0,0.04962844266794898,-0.2924254993978557,0.053386644418846704,-0.1531238131991656,0.006724534467445033
15,15,18409.97940957175,1689.7952556291866,12.196557691293773,18522.123304500717,-2888.6667244642413,6.338854347674679,18547.536920781844,44610.28886038033,9.276097920269558,18569.728446616173,-10705.783540137996,7.008843844808365,18855.180225892454,8135.484816574097,35.13119476141748,0.992891710436879,117.0,87.0,67.0,318.0,385.0,30.0,1276.0,1273.0,30.0,14.0,16.0,0.4666666666666667,60.23818025070826,1755.1032062563222,13.0,10.0,3.0,0.7692307692307693,913.4418633067892,9980.773388156436,22.0,12.0,10.0,0.5454545454545454,2399.676155999112,40183.096050104585,14.0,4.0,10.0,0.2857142857142857,1597.359200826285,24129.77756266005,86.0,42.0,44.0,0.4883720930232558,48.02547020554424,8501.45268373426,0.0,0.0,0.0,0.0,18396.0,18426.0,18513.0,18525.0,18536.0,18558.0,18566.0,18580.0,18815.0,18898.0,0.03564821243877791,-0.31621573218219023,0.053791988738506755,-0.1492052585256824,0.00590320937084215
16,16,19669.816234028058,1393.5934930679118,10.438832316270206,19781.123304500717,-3583.7694887837097,7.595191129959167,19806.507909375705,42134.202872478345,9.321289510709306,19828.81597225244,-11125.848722028337,7.459126675339527,20112.674282471795,7426.9283376462945,35.9832579289206,0.9895480053920724,115.0,87.0,68.0,318.0,386.0,28.0,1260.0,1258.0,28.0,14.0,14.0,0.5,53.531318398881794,1360.615384512631,14.0,11.0,3.0,0.7857142857142857,899.70685996037,8730.073752733864,22.0,12.0,10.0,0.5454545454545454,2303.06729154033,37643.668457692096,15.0,4.0,11.0,0.2666666666666666,1542.2370544307937,23904.977816806415,89.0,45.0,44.0,0.5056179775280899,48.41330029395437,7884.181388412236,0.0,0.0,0.0,0.0,19656.0,19684.0,19771.0,19784.0,19795.0,19817.0,19825.0,19839.0,20069.0,20157.0,0.038412434232191935,-0.251050426869313,0.054660279168225856,-0.13861747476192818,0.006518616861906773
17,17,20873.982972413087,785.936390479148,5.600986803070169,20981.123304500717,-3744.302571306037,9.707443539340598,21006.84421369636,41920.41300437374,9.590266857281048,21028.595841257626,-11681.459948139363,8.515097735080225,21317.61084355587,7706.334269183436,30.444844152178387,0.982572897389912,105.0,87.0,70.0,316.0,386.0,18.0,1203.0,1201.0,18.0,9.0,9.0,0.5,63.011855107169474,722.9490764072525,16.0,12.0,4.0,0.75,874.992255480858,8282.234069828115,22.0,12.0,10.0,0.5454545454545454,2271.2755885450997,37426.32822395794,16.0,4.0,12.0,0.25,1535.296338157309,24538.812045894345,78.0,40.0,38.0,0.5128205128205128,63.155029941142615,8047.740689379193,0.0,0.0,0.0,0.0,20865.0,20883.0,20970.0,20984.0,20995.0,21017.0,21025.0,21040.0,21278.0,21356.0,0.08017424294191816,-0.23368631108667456,0.05418065867595645,-0.13143017610584307,0.008195210295210115
18,18,22094.48266784735,1160.4428008019172,7.544226186802045,22201.54796540086,-3482.9239018806484,15.287792405183174,22227.015857079772,41908.07463156581,9.454509969345096,22249.68349532311,-10775.112540454518,7.572095133451778,22534.694001245607,7780.669112084889,34.342450135989026,0.9892597116669136,104.0,83.0,72.0,317.0,389.0,21.0,1220.0,1220.0,21.0,10.0,11.0,0.4761904761904761,61.99901986983171,1097.691411285287,19.0,16.0,3.0,0.8421052631578947,912.0187023265348,8927.562314041937,22.0,11.0,11.0,0.5,2222.358757439317,38581.25275316891,15.0,4.0,11.0,0.2666666666666666,1469.9441802890244,23012.309430590532,85.0,43.0,42.0,0.5058823529411764,39.02091977735357,8031.266321044586,0.0,0.0,0.0,0.0,22084.0,22105.0,22188.0,22205.0,22216.0,22238.0,22246.0,22260.0,22492.0,22577.0,0.05342703649588558,-0.2618543292990349,0.05302936908882475,-0.13642030881535636,0.005015111067600408
19,19,23311.12384942927,1738.1335851969675,8.284705919425786,23417.123304500717,-3557.1047787084512,8.051081110425383,23442.43408652095,40901.95723252278,9.357122030255152,23464.783240009925,-10667.396685331318,7.53903012406777,23751.3211706771,7706.86203100704,34.081953506119696,0.9874055318211246,107.0,84.0,68.0,319.0,387.0,23.0,1217.0,1215.0,23.0,11.0,12.0,0.4782608695652174,87.86133491579537,1673.1240830886632,14.0,11.0,3.0,0.7857142857142857,880.2128748609664,8535.188539041397,22.0,11.0,11.0,0.5,2214.276696284496,38988.6340443925,15.0,4.0,11.0,0.2666666666666666,1481.996126939091,23025.56021781286,86.0,42.0,44.0,0.4883720930232558,47.438501160745155,7986.4481841473425,0.0,0.0,0.0,0.0,23300.0,23323.0,23407.0,23420.0,23431.0,23453.0,23461.0,23475.0,23712.0,23794.0,0.05054924182127164,-0.24745205149131502,0.054136203891089994,-0.13892762879784684,0.0061553588178801825
20,20,24451.901790540054,1717.035030753818,16.928562055779953,24574.54796540086,-3380.312433674888,15.28779240518434,24600.001158872925,42258.777275248256,9.544565782954573,24622.666947467515,-11060.011145253022,8.231864867388586,24908.260172995684,8357.628585613076,36.73589408058691,0.984864041406125,135.0,84.0,73.0,317.0,390.0,51.0,1147.0,1158.0,53.0,27.0,26.0,0.5094339622641509,17.737887871389102,1550.2527626933258,19.0,16.0,3.0,0.8421052631578947,922.3896827228648,9371.667286689975,22.0,11.0,11.0,0.5,2229.7650528805343,38395.69853029461,15.0,4.0,11.0,0.2666666666666666,1463.5196898666543,23503.338830432116,92.0,47.0,45.0,0.5108695652173914,40.0144014733407,8567.819501495018,0.0,0.0,0.0,0.0,24426.0,24477.0,24561.0,24578.0,24589.0,24611.0,24619.0,24634.0,24863.0,24951.0,0.010330533479914944,-0.27287113271955576,0.05276454257909986,-0.13232533590120293,0.004787769767876737
21,21,25620.90760295613,1199.1812653600052,14.557807528860858,25743.54796540086,-3393.743347763307,15.287792147290714,25768.739447932578,41409.12664390213,9.4637353536914,25791.322979549277,-11177.39225253311,7.906563976948601,26076.735559842607,7174.282260522313,32.64153670282882,0.985098207408528,133.0,83.0,73.0,315.0,388.0,50.0,1164.0,1169.0,50.0,25.0,25.0,0.5,10.301184154664927,1064.886929878426,21.0,18.0,3.0,0.8571428571428571,914.2498995350636,9461.29903980362,21.0,11.0,10.0,0.5238095238095238,2218.013771858349,37051.61290880214,16.0,4.0,12.0,0.25,1523.457116449826,24074.408453589946,85.0,44.0,41.0,0.5176470588235295,43.363709665375545,7352.562431288729,0.0,0.0,0.0,0.0,25596.0,25646.0,25729.0,25747.0,25758.0,25779.0,25787.0,25802.0,26035.0,26117.0,0.008590181027863554,-0.26939276363889225,0.05356340381027987,-0.13629808116509176,0.006044327235909243
22,22,26820.041683017967,852.2512109575526,5.541469257345963,26930.54796540086,-3810.598783533356,9.372840313360268,26956.043847513218,40917.84701785075,9.564260668759246,26978.027373698995,-11438.57112190604,8.937010919300617,27263.901709929512,7661.192589318103,31.894408308716656,0.9844050045875956,107.0,90.0,71.0,315.0,386.0,17.0,1198.0,1187.0,17.0,8.0,9.0,0.4705882352941176,67.10682586055975,699.8188306631719,16.0,13.0,3.0,0.8125,930.1654897122972,9295.40453648571,22.0,12.0,10.0,0.5454545454545454,2219.529773104937,36880.79651162167,16.0,4.0,12.0,0.25,1505.1572163004994,24441.683680599817,83.0,42.0,41.0,0.5060240963855421,58.3468296580713,7993.661077741739,0.0,0.0,0.0,0.0,26812.0,26829.0,26919.0,26934.0,26944.0,26966.0,26974.0,26990.0,27223.0,27305.0,0.07874066354820596,-0.24409956087001283,0.054243562036307744,-0.13158612210033546,0.00761589386741478
23,23,27955.802994814632,2179.8865823487877,15.239904306596364,28066.123304500717,-3359.910053988031,7.818309333429019,28091.89883474572,41977.63622801005,9.444868001544044,28114.464816537624,-10088.432975598853,7.43034231107458,28400.048119433293,8282.456877123619,35.67771341859675,0.9930686155432968,115.0,80.0,70.0,317.0,387.0,35.0,1139.0,1136.0,35.0,16.0,19.0,0.4571428571428571,64.73500686291948,2358.105916155282,14.0,11.0,3.0,0.7857142857142857,858.5792446031452,8528.3755589156,23.0,12.0,11.0,0.5217391304347826,2234.7052865316314,38942.0361374813,16.0,4.0,12.0,0.25,1521.1124289192956,23268.775408397498,84.0,42.0,42.0,0.5,69.65129573120973,9071.03639052404,0.0,0.0,0.0,0.0,27940.0,27975.0,28055.0,28069.0,28080.0,28103.0,28111.0,28125.0,28360.0,28442.0,0.029696502280026283,-0.2555363777027478,0.05323561513548252,-0.1507778693280164,0.008409496936058742
24,24,29081.904069198277,1132.957709411533,12.83531468058313,29197.54796540086,-3840.554180326325,15.287792405182,29223.09304305149,41633.734186910326,9.57514347607361,29245.3087876011,-11299.58468354238,8.550192992393336,29531.728812838257,7849.006910881975,31.45720867772212,0.985772436415604,128.0,84.0,74.0,315.0,389.0,44.0,1128.0,1131.0,45.0,27.0,18.0,0.6,24.118397678921816,978.4488144265528,21.0,18.0,3.0,0.8571428571428571,907.513574792055,8757.718641129852,22.0,11.0,11.0,0.5,2214.943998921762,37636.15614434559,16.0,4.0,12.0,0.25,1529.2879688183164,24462.019066420387,82.0,41.0,41.0,0.5,40.40994889887267,7883.289272470766,0.0,0.0,0.0,0.0,29055.0,29099.0,29183.0,29201.0,29212.0,29234.0,29241.0,29257.0,29492.0,29572.0,0.021287994669676683,-0.23629755815993858,0.053200704721272446,-0.13534019272811804,0.005148415507552648
25,25,30223.262055184907,2555.177521281601,21.51931494586021,30350.123304500717,-3244.0011763995067,6.73684851941312,30375.40280888107,41096.575473912795,9.373850063167833,30397.76476252392,-10634.051215433548,7.57060092121646,30685.30053863625,8262.69119023656,37.62162026371777,0.991179919241476,144.0,87.0,68.0,322.0,390.0,57.0,1141.0,1152.0,57.0,27.0,30.0,0.4736842105263157,32.599440192985305,2622.929117204148,13.0,10.0,3.0,0.7692307692307693,890.0439679082615,9051.82197693802,22.0,11.0,11.0,0.5,2205.945827465781,38896.223446239,15.0,4.0,11.0,0.2666666666666666,1481.7264092199964,23012.31765089612,90.0,44.0,46.0,0.4888888888888889,56.71667758176011,8886.195766499926,0.0,0.0,0.0,0.0,30196.0,30253.0,30340.0,30353.0,30364.0,30386.0,30394.0,30408.0,30643.0,30730.0,0.012758189958024677,-0.2743661051615631,0.05367712034463959,-0.13933790417235514,0.006864189436097796
26,26,31312.67295046693,2886.1855486127456,18.26634720515092,31439.123304500717,-3887.427349219599,8.678161894408221,31464.43427449644,41695.826737804025,9.53210361305437,31486.68822202798,-11046.58439542177,8.264121078721129,31770.96498205193,8763.565013486463,34.52885626667905,0.987234376444466,141.0,89.0,70.0,315.0,385.0,52.0,1084.0,1089.0,52.0,26.0,26.0,0.5,39.64750415846716,2663.948271754479,15.0,12.0,3.0,0.8,913.779582631611,8791.605947268641,22.0,11.0,11.0,0.5,2243.749836555395,39400.070146320504,15.0,4.0,11.0,0.2666666666666666,1484.539981530378,23634.35881179204,84.0,41.0,43.0,0.4880952380952381,51.52601361923983,8996.272484828947,0.0,0.0,0.0,0.0,31287.0,31339.0,31428.0,31442.0,31453.0,31475.0,31483.0,31498.0,31732.0,31813.0,0.013736990741126765,-0.23506023406843918,0.05381233596025744,-0.1343890498990477,0.00587957224485072
27,27,32481.553345620407,1462.0449315445876,12.52580040063298,32593.54796540086,-3681.2734054254383,7.982340404663726,32618.92338707535,41439.07202898625,9.443881185251344,32641.25091361374,-10980.888397262632,7.662449290575013,32928.22792082434,8175.874116086067,36.74663991495888,0.9885521213076198,114.0,86.0,69.0,320.0,389.0,28.0,1171.0,1155.0,28.0,13.0,15.0,0.4642857142857143,57.443305245345435,1568.6500610550595,15.0,12.0,3.0,0.8,950.0735851989962,9675.726428917364,22.0,12.0,10.0,0.5454545454545454,2246.207762905148,38123.88939586941,16.0,4.0,12.0,0.25,1543.2975990942466,23977.17305917689,88.0,43.0,45.0,0.4886363636363636,56.24444736633477,8793.1537785581,0.0,0.0,0.0,0.0,32469.0,32497.0,32583.0,32597.0,32607.0,32629.0,32637.0,32652.0,32886.0,32972.0,0.03928969897297141,-0.2580828644237028,0.05420506910323537,-0.14054396541166625,0.00687931914896703
28,28,33604.63262181369,2093.666065060349,15.723141957006186,33717.12330450071,-3334.0695056315203,7.526147484635167,33742.14611802774,41106.74990963733,9.395455076935471,33764.509426845645,-10860.967742801096,7.357984912275323,34052.48114853352,7862.332500705505,31.479837460358393,0.9924955086381768,117.0,83.0,68.0,317.0,385.0,34.0,1125.0,1123.0,34.0,15.0,19.0,0.4411764705882353,62.270002433729395,2372.273073837715,14.0,11.0,3.0,0.7857142857142857,904.866440470862,9393.187789773168,22.0,11.0,11.0,0.5,2222.144519279921,38487.501015954425,14.0,4.0,10.0,0.2857142857142857,1482.2580879010786,22785.19814351011,79.0,39.0,40.0,0.4936708860759494,54.84944462397325,8185.689973090831,0.0,0.0,0.0,0.0,33590.0,33624.0,33707.0,33720.0,33731.0,33753.0,33761.0,33775.0,34013.0,34092.0,0.029742088995426543,-0.27139999299428746,0.05405789862163117,-0.13647569194591835,0.006976230605746003
29,29,34700.113487438895,1969.69172161278,12.513646545681391,34811.12330450071,-3485.457840732052,7.370435165714371,34836.709374685015,42083.77899727792,9.412914572104771,34859.13655905051,-10815.061195924176,7.749725653623737,35143.17917359128,8779.933261530616,35.98452432187728,0.9915096972487888,115.0,86.0,69.0,317.0,386.0,29.0,1094.0,1095.0,29.0,14.0,15.0,0.4827586206896552,70.91931924029294,2036.9808392649331,13.0,10.0,3.0,0.7692307692307693,885.9604401456405,8688.10120995745,22.0,12.0,10.0,0.5454545454545454,2267.43702494499,38059.15810161366,15.0,4.0,11.0,0.2666666666666666,1531.029781665164,23920.848760860397,89.0,44.0,45.0,0.4943820224719101,54.32727589614763,9192.277839030445,0.0,0.0,0.0,0.0,34686.0,34715.0,34801.0,34814.0,34825.0,34847.0,34855.0,34870.0,35101.0,35187.0,0.03600528877799432,-0.25418767938950654,0.05387912110011919,-0.14156459717880804,0.006187663878287464
30,30,35813.97120243299,1644.7421338427075,9.9035889423354,35923.12330450071,-2958.7183365005667,6.970602001024939,35948.81652460304,41738.804074101026,9.309246964477326,35971.14548079578,-10592.723649383215,7.236348990389728,36254.835512095546,8406.50298930798,38.79585782880628,0.9897882384906472,111.0,86.0,68.0,318.0,386.0,25.0,1112.0,1112.0,25.0,12.0,13.0,0.48,71.05232349632509,1637.6377599857376,13.0,10.0,3.0,0.7692307692307693,840.7598365716996,8730.25721148496,22.0,12.0,10.0,0.5454545454545454,2253.424804781502,38162.28751785814,15.0,4.0,11.0,0.2666666666666666,1542.3898060641436,23562.98126947141,91.0,46.0,45.0,0.5054945054945055,51.37314446950119,9008.175676779516,0.0,0.0,0.0,0.0,35802.0,35827.0,35913.0,35926.0,35937.0,35959.0,35967.0,35981.0,36211.0,36299.0,0.043199673696156474,-0.2841635265511995,0.05398872475552683,-0.14560842490721945,0.006111119514837668
31,31,36959.432702394464,1658.7244099018562,48.41134261641708,37064.273982700426,-1575.189905993902,4.421441218380865,37090.80371973073,42753.12365755904,9.23286065659777,37112.990324458064,-8666.850556583377,5.97491722892691,37394.56152939511,8687.723800529893,47.871687099884895,0.9750936500771692,124.0,85.0,62.0,321.0,383.0,39.0,1141.0,1142.0,40.0,23.0,17.0,0.575,60.81473097653576,2169.0430961872717,6.0,4.0,2.0,0.6666666666666666,729.8360762132132,8384.805543950271,23.0,12.0,11.0,0.5217391304347826,2220.1436933049417,39643.836271494394,13.0,3.0,10.0,0.2307692307692307,1523.8065719700146,21254.13774643619,108.0,59.0,49.0,0.5462962962962963,59.88839599999522,9734.107967853191,0.0,0.0,0.0,0.0,36936.0,36975.0,37060.0,37066.0,37079.0,37102.0,37110.0,37122.0,37341.0,37443.0,0.036663553398924215,-0.46333211851856465,0.05192939143085058,-0.1758201046644937,0.00689345073289996
32,32,38066.985176239185,1111.3900826451252,8.160993755882478,38176.12330450071,-3608.912625269973,7.696236376438589,38201.72451841628,42675.14789878516,9.414074112683917,38224.04263924822,-10865.16120166036,7.738053194018763,38506.95792697726,8705.309472971929,34.002469892175725,0.9864683119171236,111.0,87.0,69.0,314.0,383.0,24.0,1113.0,1111.0,24.0,12.0,12.0,0.5,53.25807151623279,1017.880644818222,14.0,11.0,3.0,0.7857142857142857,897.0251559103947,8690.567736066214,22.0,12.0,10.0,0.5454545454545454,2303.5636950598914,38684.73205420661,15.0,4.0,11.0,0.2666666666666666,1546.0923664110749,24118.583214103695,86.0,43.0,43.0,0.5,64.62278070098789,9200.98721621588,0.0,0.0,0.0,0.0,38055.0,38079.0,38166.0,38179.0,38190.0,38212.0,38220.0,38235.0,38465.0,38549.0,0.047920232821834954,-0.24855829138930474,0.05397904420913483,-0.1422981525736414,0.007423375458578171
33,33,39206.34006181548,1639.8612773775408,11.568923839498868,39320.12330450071,-3901.2520362674904,10.671734212700803,39345.35590484115,41614.489994289885,9.5129859880382,39367.45203459914,-11831.36555686102,7.997472804155664,39653.15375355493,7682.2573962464,31.30683305569346,0.9864283928690843,114.0,86.0,71.0,314.0,385.0,28.0,1139.0,1143.0,28.0,13.0,15.0,0.4642857142857143,63.45457002940123,1710.8104866867695,18.0,14.0,4.0,0.7777777777777778,899.5084352357331,8558.441473935407,22.0,11.0,11.0,0.5,2265.1416951881724,38942.77390261825,16.0,4.0,12.0,0.25,1607.294684702158,25229.16469733096,80.0,40.0,40.0,0.5,60.19835281088169,8154.685704345957,0.0,0.0,0.0,0.0,39193.0,39221.0,39307.0,39323.0,39334.0,39356.0,39364.0,39378.0,39614.0,39692.0,0.038695084093257885,-0.2305691677629561,0.05443156207126371,-0.13585031051382623,0.007836023932274774
34,34,40360.397009656896,1932.301522994868,9.762593378971696,40470.54796540086,-3508.3868967863405,8.557266094482806,40495.95249117289,41675.387550576575,9.407552571425022,40518.19992087808,-11118.018816640282,7.301630457570601,40801.67569319592,8437.035344260179,32.76651010026527,0.9842993901699482,111.0,86.0,70.0,315.0,385.0,25.0,1154.0,1151.0,26.0,12.0,14.0,0.4615384615384615,82.60093097612041,1929.1962876102784,16.0,13.0,3.0,0.8125,935.301775960006,9703.907444687917,22.0,11.0,11.0,0.5,2265.159072691061,38536.07383846627,15.0,4.0,11.0,0.2666666666666666,1576.4686517183145,24061.458769605186,87.0,45.0,42.0,0.5172413793103449,48.41603572088692,8668.315755520609,0.0,0.0,0.0,0.0,40348.0,40373.0,40459.0,40474.0,40485.0,40507.0,40514.0,40529.0,40758.0,40844.0,0.04274743356207549,-0.26659026027509575,0.05435244171255997,-0.14179402623053866,0.005738512847860114
35,35,41422.18276109252,1529.2994689058366,14.207148997079832,41535.54796540086,-3835.7296728533806,9.02394430834826,41561.31050186314,43379.760882963354,9.493482133826664,41583.604165097335,-11175.384824785808,7.693223237870161,41866.46394641821,9030.72299839602,32.35896557178652,0.9911982346757732,115.0,84.0,70.0,313.0,383.0,31.0,1065.0,1065.0,33.0,14.0,19.0,0.4242424242424242,49.62044176163872,1683.3825182936866,16.0,13.0,3.0,0.8125,951.7116940167074,9449.026038296335,22.0,11.0,11.0,0.5,2328.0103455857675,41020.95828741592,15.0,4.0,11.0,0.2666666666666666,1544.1153475917718,24068.12072705722,81.0,39.0,42.0,0.4814814814814814,65.14822972269563,9442.615397536249,0.0,0.0,0.0,0.0,41409.0,41440.0,41524.0,41539.0,41550.0,41572.0,41580.0,41594.0,41828.0,41907.0,0.032446517356826465,-0.24811750962333423,0.05366581784225678,-0.13817111193943757,0.007214065776822836
36,36,42581.91875472403,1390.683307441653,9.673656143077732,42696.12330450071,-3175.739720162194,6.9091843217625035,42721.598279914426,42519.18844915811,9.318605547900232,42743.85266123093,-10695.530543403182,7.069724121997155,43028.97910206585,7920.572414522827,34.69574111554445,0.9894510263162178,116.0,91.0,68.0,317.0,385.0,25.0,1157.0,1161.0,25.0,12.0,13.0,0.48,60.532507131639896,1363.6879687023095,13.0,10.0,3.0,0.7692307692307693,887.5183775917392,9093.00032796452,22.0,12.0,10.0,0.5454545454545454,2296.864056832798,38416.192577245325,14.0,4.0,10.0,0.2857142857142857,1556.0353599677007,23513.753319753727,89.0,46.0,43.0,0.5168539325842697,59.11867419100951,8480.427844078484,0.0,0.0,0.0,0.0,42570.0,42595.0,42686.0,42699.0,42710.0,42732.0,42740.0,42754.0,42986.0,43071.0,0.043527168844068105,-0.279468236000906,0.05401947075211113,-0.14548463525518485,0.007463939611562923
37,37,43741.40435662461,486.8462324794624,3.904198695212529,43854.96068876402,-4444.519438463029,15.28779240518434,43880.16136986031,42894.08131192951,9.605150930403584,43902.17442767043,-12112.615506055974,8.830967518131338,44187.402253716646,8525.755451210354,30.78526787076457,0.9808367116025524,104.0,91.0,75.0,313.0,388.0,13.0,1159.0,1158.0,13.0,6.0,7.0,0.4615384615384615,63.30632313627156,392.0012045063496,22.0,18.0,4.0,0.8181818181818182,937.7527430114376,8439.977194418445,22.0,11.0,11.0,0.5,2290.5051835875247,38516.59667021796,17.0,4.0,13.0,0.2352941176470588,1583.437087993356,25624.24611230079,80.0,39.0,41.0,0.4875,51.79237382664957,8696.535320718538,0.0,0.0,0.0,0.0,43735.0,43748.0,43839.0,43859.0,43869.0,43891.0,43898.0,43914.0,44149.0,44227.0,0.13003350732295568,-0.2109908069916608,0.05339909641450928,-0.1307262735452703,0.00607481344298902
38,38,44835.767096158605,1322.86055063603,9.264603670101373,44948.54796540086,-3999.4952745814394,15.28779240518059,44974.08815248686,43738.202228009344,9.56390571283064,44996.45203459914,-11487.598399310076,8.208830001753983,45281.42781173341,8264.907800157405,31.605950693298695,0.9832418729511824,108.0,85.0,75.0,313.0,388.0,23.0,1096.0,1094.0,24.0,11.0,13.0,0.4583333333333333,61.263590754646366,1251.484825725972,22.0,19.0,3.0,0.8636363636363636,947.2180065046156,9245.179377253166,22.0,11.0,11.0,0.5,2317.893022562466,39937.817999365536,16.0,4.0,12.0,0.25,1604.683400153148,25361.030426151276,80.0,40.0,40.0,0.5,58.49020411107637,8638.663103070514,0.0,0.0,0.0,0.0,44825.0,44848.0,44933.0,44952.0,44963.0,44985.0,44993.0,45008.0,45242.0,45321.0,0.04631145038317976,-0.2368343857097681,0.05299470267385885,-0.13968832686991586,0.007076933648305481
39,39,45987.37544267564,1440.822587627374,9.47054200163296,46096.12330450071,-3022.998228137446,6.9046155873372435,46121.94356836685,42288.33974823187,9.231532888264391,46144.28074473888,-10468.035120940089,6.982736389557637,46430.67477977995,8662.230051621189,37.529203434203815,0.992171341099447,112.0,87.0,67.0,318.0,385.0,25.0,1148.0,1148.0,25.0,12.0,13.0,0.48,63.532816015613776,1450.0289013085155,13.0,10.0,3.0,0.7692307692307693,837.1614150954317,8440.763068970396,22.0,11.0,11.0,0.5,2285.6666230251867,39185.05035375753,15.0,4.0,11.0,0.2666666666666666,1571.2589746431404,23670.975243398432,89.0,46.0,43.0,0.5168539325842697,61.63903314561991,9366.78926379785,0.0,0.0,0.0,0.0,45975.0,46000.0,46087.0,46099.0,46111.0,46133.0,46140.0,46154.0,46387.0,46472.0,0.04409482233356314,-0.2769308322126376,0.05404957103147454,-0.15010065943512352,0.007115838851922871
40,40,47113.876202979016,1602.4713820824209,29.92457068229459,47229.12330450071,-3016.2909849093408,6.354662107737067,47254.768297210816,43871.908151815784,9.304826054516305,47277.26981162261,-9988.329259811571,7.084333367367763,47560.50668799852,9037.772795084164,36.08921876302092,0.9896354451698268,120.0,82.0,67.0,317.0,384.0,38.0,1133.0,1133.0,40.0,15.0,25.0,0.375,50.358635529872195,2280.901361239861,12.0,9.0,3.0,0.75,891.4888246808423,9313.093854544382,23.0,12.0,11.0,0.5217391304347826,2331.283949144454,40355.62911375828,15.0,4.0,11.0,0.2666666666666666,1561.0818603505809,23625.87836897294,88.0,44.0,44.0,0.5,56.96986801047151,9473.93374728364,0.0,0.0,0.0,0.0,47100.0,47138.0,47220.0,47232.0,47243.0,47266.0,47274.0,47287.0,47519.0,47604.0,0.031425606780216477,-0.2955579647789311,0.05313842154020752,-0.1562905887205435,0.006303529564436343
41,41,48206.29933413733,1579.7872271842857,10.289177251566237,48317.12330450071,-3530.26718842914,11.243648388289383,48342.599999271304,42933.67056285765,9.509998420017595,48364.840397415435,-11675.060212493854,7.790342461083383,48646.68483389583,8196.991049329408,33.61009408967419,0.9850979713309654,111.0,84.0,72.0,312.0,384.0,27.0,1089.0,1088.0,28.0,13.0,15.0,0.4642857142857143,62.51384471271426,1559.4940283000717,17.0,14.0,3.0,0.8235294117647058,884.1810256350094,8841.869977228394,22.0,12.0,10.0,0.5454545454545454,2325.83935840799,38387.06490053602,15.0,4.0,11.0,0.2666666666666666,1578.4086462879056,24755.95611865018,84.0,42.0,42.0,0.5,49.19554908412565,8526.341793301628,0.0,0.0,0.0,0.0,48193.0,48220.0,48304.0,48320.0,48331.0,48353.0,48361.0,48376.0,48607.0,48688.0,0.03957105339061073,-0.25045725392486307,0.05417285146870477,-0.1351949041426613,0.0060016594855438225
42,42,49358.916597866446,1498.9648281476768,9.159610886458395,49473.54796540086,-3401.0338996015153,15.287792405184264,49498.389450292154,42543.260702349195,9.401494974297066,49520.816052568254,-11427.762131032709,7.927969217508618,49808.590229032656,8367.667596153937,31.45376770391239,0.9888127629096978,114.0,89.0,71.0,316.0,387.0,25.0,1152.0,1155.0,25.0,12.0,13.0,0.48,68.351430213155,1429.6604221538903,19.0,16.0,3.0,0.8421052631578947,971.8594423790216,10169.340032936192,22.0,11.0,11.0,0.5,2271.6478207340356,39567.44477015633,15.0,4.0,11.0,0.2666666666666666,1528.811261409532,24295.936107499107,80.0,40.0,40.0,0.5,61.722455033620825,8702.823601414413,0.0,0.0,0.0,0.0,49347.0,49372.0,49461.0,49477.0,49487.0,49509.0,49517.0,49532.0,49770.0,49848.0,0.04559908873753846,-0.2857541180324284,0.05339618504156165,-0.13378045884049006,0.007376303411238581
43,43,50484.3287301011,1198.37572115722,12.323668260556149,50597.12330450071,-3598.094267892227,10.03536624141702,50622.58410383842,43548.59380640874,9.609147166524874,50644.554612653475,-11338.002245127098,8.1771742652666,50931.95881659626,8869.508502251698,30.73929372570915,0.9836969211970128,110.0,85.0,71.0,313.0,384.0,25.0,1129.0,1124.0,27.0,10.0,17.0,0.3703703703703703,48.99904777231562,1315.433295408062,17.0,14.0,3.0,0.8235294117647058,911.4896381992444,9388.976157560972,22.0,12.0,10.0,0.5454545454545454,2336.35433257011,38754.30422921315,15.0,4.0,11.0,0.2666666666666666,1548.235794496398,24463.30025369338,79.0,41.0,38.0,0.5189873417721519,63.92098429564725,9257.933318437974,0.0,0.0,0.0,0.0,50475.0,50500.0,50585.0,50600.0,50611.0,50633.0,50641.0,50656.0,50893.0,50969.0,0.040887884248021436,-0.2533256691835363,0.053649363351573595,-0.1365527860220531,0.007206823724157845
44,44,0.0,0.0,0.0,0.0,0.0,0.0,0.0,0.0,0.0,0.0,0.0,0.0,0.0,0.0,0.0,0.0,0.0,0.0,0.0,0.0,0.0,0.0,0.0,0.0,0.0,0.0,0.0,0.0,0.0,0.0,0.0,0.0,0.0,0.0,0.0,0.0,0.0,0.0,0.0,0.0,0.0,0.0,0.0,0.0,0.0,0.0,0.0,0.0,0.0,0.0,0.0,0.0,0.0,0.0,0.0,0.0,0.0,0.0,51317.0,51391.0,51640.0,51722.0,51733.0,51754.0,51762.0,51777.0,51991.0,,,,,,
45,45,52771.77360923962,1353.0254658372576,8.703507979720586,52881.54796540086,-3920.3931977202415,15.287792395978974,52906.83151076729,42989.94967511832,9.63657497181266,52928.45203459914,-12485.068177973077,9.435266011229244,53216.606663153216,8804.731541275807,33.94551482581481,0.9831257346482996,107.0,83.0,74.0,315.0,389.0,24.0,2284.0,2285.0,24.0,12.0,12.0,0.5,62.64453875945779,1236.910520536676,22.0,19.0,3.0,0.8636363636363636,962.475433368854,9661.315722887652,22.0,12.0,10.0,0.5454545454545454,2289.8108924824387,36826.06491171294,18.0,4.0,14.0,0.2222222222222222,1629.999252283627,26423.654026404223,85.0,45.0,40.0,0.5294117647058824,62.554566969183846,9331.959457486282,0.0,0.0,0.0,0.0,52760.0,52784.0,52867.0,52885.0,52895.0,52917.0,52925.0,52941.0,53175.0,53256.0,0.04629960066619522,-0.2455048217940348,0.05326386538683792,-0.13055589517399446,0.00710465352361211
46,46,53864.66557859692,1789.9431914676854,12.42850021519391,53972.54796540086,-3863.6449930304393,9.831613153221848,53998.0727352685,44253.30581273849,9.532081057475445,54020.027373701465,-12019.891733881954,8.360189804668279,54304.708931238594,8928.185715188647,31.161315280339448,0.984387341048403,110.0,81.0,70.0,312.0,382.0,29.0,1091.0,1091.0,30.0,15.0,15.0,0.5,66.0204803024967,1833.543642157136,17.0,14.0,3.0,0.8235294117647058,982.1505282249562,10118.679494254631,21.0,11.0,10.0,0.5238095238095238,2398.319902942184,40463.72678916341,16.0,4.0,12.0,0.25,1634.5915357166894,26000.254852714832,78.0,40.0,38.0,0.5128205128205128,90.19152178113713,9747.20109380267,0.0,0.0,0.0,0.0,53851.0,53880.0,53961.0,53976.0,53987.0,54008.0,54016.0,54031.0,54267.0,54343.0,0.036884120466617945,-0.2542030983686752,0.05419527104010879,-0.13599053734478025,0.010101886839977257
47,47,54938.13069312362,692.3951515166326,4.591960800399404,55046.54796540086,-4425.370878106893,15.28779240518434,55071.624220118894,44499.52015826359,9.584744358097792,55093.78941154017,-12150.780937006824,8.356137636758383,55378.38686154389,8512.7879660269,32.832504374504886,0.9864624035746058,100.0,86.0,74.0,313.0,387.0,14.0,1074.0,1074.0,14.0,7.0,7.0,0.5,71.2395612399649,608.4188046224281,23.0,20.0,3.0,0.8695652173913043,1016.3665721597824,9908.706708158612,22.0,12.0,10.0,0.5454545454545454,2379.0297077467976,39058.506044969705,15.0,4.0,11.0,0.2666666666666666,1603.669246354558,25656.68473078967,82.0,41.0,41.0,0.5,49.93205271369018,8738.462208881541,0.0,0.0,0.0,0.0,54931.0,54945.0,55031.0,55050.0,55060.0,55082.0,55090.0,55105.0,55339.0,55418.0,0.10288859054532763,-0.229668111476923,0.0534619182248645,-0.13198075536613202,0.0058655346418776755
48,48,55884.38487631469,141.59016972044577,8.355595914926996,56200.452034606315,-4615.827743523935,15.28779240518434,56230.79332218656,42782.70159041654,9.444928951531352,56252.027373699,-13111.51685483905,10.08027422125535,56540.81612434865,7517.870187939001,31.093231715074527,0.9705661368341252,311.0,284.0,81.0,315.0,396.0,27.0,944.0,1158.0,29.0,14.0,15.0,0.4827586206896552,9.798222731402983,157.21621197448053,75.0,66.0,9.0,0.88,476.1660520798733,671.9294155431644,22.0,12.0,10.0,0.5454545454545454,2324.8044451672367,35527.69353640675,17.0,4.0,13.0,0.2352941176470588,1635.184055970403,27164.774095637324,77.0,39.0,38.0,0.5064935064935064,55.95290221120855,7855.474961317303,0.0,0.0,0.0,0.0,55872.0,55899.0,56183.0,56209.0,56219.0,56241.0,56248.0,56264.0,56503.0,56579.0,0.06920129236901472,-0.10315940683617154,0.05433982331045687,-0.12471356854236952,0.007442653412794277
49,49,57213.457132282514,2187.0886744350873,19.130097034461713,57326.69864360057,-2789.4714867285425,6.222879385409299,57352.33541239143,43359.91393654813,9.22276775249025,57374.79664486864,-10458.39453589177,6.930646661424942,57660.37306475171,9079.326164472124,34.95963622382764,0.9949749254231512,122.0,83.0,67.0,318.0,385.0,39.0,1336.0,1122.0,42.0,19.0,23.0,0.4523809523809524,56.14426869283884,2537.033613351021,13.0,10.0,3.0,0.7692307692307693,905.3756736231549,9956.562406502992,22.0,11.0,11.0,0.5,2314.679409944426,41192.33408126125,14.0,4.0,10.0,0.2857142857142857,1548.4820440707367,23369.82462999695,89.0,45.0,44.0,0.5056179775280899,47.59660908270489,9307.912199780072,0.0,0.0,0.0,0.0,57196.0,57235.0,57318.0,57329.0,57341.0,57363.0,57371.0,57385.0,57617.0,57703.0,0.02567077839554932,-0.32456889340172757,0.05338293367767456,-0.14806116165885305,0.005242306336449603
50,50,58280.14907393032,1523.906735966783,11.951300507140882,58388.12330450071,-3495.528015522294,7.784603900628377,58413.808516247685,44328.16640145574,9.377216159363972,58436.16111441312,-11042.4517819527,7.38021591141289,58719.560615658105,9430.279925961047,33.918826282346316,0.9923413282896072,110.0,83.0,69.0,315.0,384.0,27.0,1063.0,1062.0,27.0,12.0,15.0,0.4444444444444444,63.151472846214695,1630.6798280870962,14.0,11.0,3.0,0.7857142857142857,906.189744101884,9056.6475406838,22.0,12.0,10.0,0.5454545454545454,2385.9055096506795,40649.56566554174,15.0,4.0,11.0,0.2666666666666666,1616.465129647261,24827.594562769307,87.0,44.0,43.0,0.5057471264367817,59.35738679957961,9698.930528689962,0.0,0.0,0.0,0.0,58268.0,58295.0,58378.0,58391.0,58402.0,58424.0,58432.0,58447.0,58677.0,58762.0,0.04144051033815447,-0.2592425922715665,0.053823690518638875,-0.14638643315510247,0.006294339856887169
51,51,59392.205425597705,2395.99814144061,22.350124761539412,59507.12330450071,-3750.795014907098,9.276708311411776,59532.62245163181,42725.6930941488,9.41213638018265,59554.69242948697,-11277.63742233833,7.419106821629329,59844.21407702927,8173.648926771405,31.467624254980414,0.9938837624823624,119.0,80.0,70.0,317.0,387.0,39.0,1118.0,1119.0,62.0,38.0,24.0,0.6129032258064516,63.30011179855559,2916.6656518290697,16.0,12.0,4.0,0.75,895.7904916836923,8529.365751394103,22.0,12.0,10.0,0.5454545454545454,2333.354764906073,38591.06669080248,15.0,4.0,11.0,0.2666666666666666,1571.9387538662788,24198.51600286876,79.0,40.0,39.0,0.5063291139240507,60.8125926282064,8593.408579367268,0.0,0.0,0.0,0.0,59376.0,59415.0,59495.0,59510.0,59521.0,59543.0,59551.0,59565.0,59806.0,59882.0,0.026419098873130164,-0.23882683221116519,0.05461244969775859,-0.13938546656524356,0.007440078864780335
52,52,60512.36148103788,1867.6350630701104,10.754702579122853,60620.69864360057,-3166.056415751316,6.754216826174403,60646.1768226185,42625.09562582284,9.319211575845408,60668.45203459914,-11114.53208973866,7.5474062227492285,60951.95626707483,9157.618640755769,36.56193092058648,0.9903062073739124,112.0,84.0,68.0,317.0,385.0,28.0,1113.0,1113.0,28.0,13.0,15.0,0.4642857142857143,70.72403335833239,1875.6379158747236,14.0,11.0,3.0,0.7857142857142857,929.0323896493752,9882.493151871617,22.0,11.0,11.0,0.5,2305.7475087355733,39640.67673716723,16.0,4.0,12.0,0.25,1602.779823521585,24849.592981837577,92.0,47.0,45.0,0.5108695652173914,64.69308237628805,9711.191828832216,0.0,0.0,0.0,0.0,60499.0,60527.0,60611.0,60623.0,60635.0,60657.0,60665.0,60679.0,60908.0,60996.0,0.03786822958981759,-0.29343519749913005,0.054093661841282094,-0.14420578487522023,0.00706440013655657
53,53,61568.27293799815,2203.997528539479,18.13368620744231,61678.12330450071,-3226.160493225749,6.5621342185483735,61703.440046592186,44092.60062875444,9.39163499343357,61725.9092660251,-10808.532270390158,7.798086787180507,62007.62745092407,9443.45449119537,36.747313636792725,0.9919158912470508,118.0,79.0,68.0,313.0,381.0,39.0,1059.0,1057.0,40.0,18.0,22.0,0.45,54.295618031611475,2502.840178671392,13.0,10.0,3.0,0.7692307692307693,937.1058024055924,9929.727950476308,22.0,11.0,11.0,0.5,2343.503465401025,41859.38615560607,15.0,4.0,11.0,0.2666666666666666,1551.4552876767546,24286.97433286097,87.0,44.0,43.0,0.5057471264367817,53.74290069863685,9991.879349534169,0.0,0.0,0.0,0.0,61551.0,61590.0,61669.0,61681.0,61692.0,61714.0,61722.0,61737.0,61965.0,62050.0,0.02463506302912758,-0.2904709187200436,0.05314958591652538,-0.14353986728863707,0.0056910213046236615
54,54,62656.233936180346,2021.4909810500023,18.06219578985714,62766.12330450071,-2833.2037504715495,5.959468811178607,62791.80716937849,43763.40063761134,9.28097576858076,62814.19904173841,-10447.506887922864,7.038897854636908,63098.659635274875,8346.480898946253,34.82948949622024,0.9924166209783571,117.0,84.0,66.0,317.0,383.0,33.0,1088.0,1089.0,34.0,15.0,19.0,0.4411764705882353,69.49640094540646,2416.78040031153,12.0,9.0,3.0,0.75,880.9894233727372,9307.550717671988,23.0,12.0,11.0,0.5217391304347826,2336.75728045133,40118.89026015831,15.0,4.0,11.0,0.2666666666666666,1589.2465316878047,24038.15696433783,84.0,42.0,42.0,0.5,45.233091055432126,8679.15794586989,0.0,0.0,0.0,0.0,62641.0,62674.0,62758.0,62769.0,62780.0,62803.0,62810.0,62824.0,63058.0,63141.0,0.03437878357948877,-0.31095166495742077,0.05339524000433969,-0.15211729925011547,0.005419420664000181
55,55,63810.05474740069,1749.4264841160946,17.08773278301267,63928.12330450071,-3620.2407323795055,7.488248060835854,63953.07647181803,42298.50884880705,9.42317965884146,63975.26792096605,-11319.304434085374,7.472045243878428,64261.81017911557,9385.202400605604,37.08079801106919,0.9907336176405622,119.0,87.0,69.0,318.0,387.0,32.0,1157.0,1161.0,48.0,27.0,21.0,0.5625,52.85777526920787,2023.5727658196995,15.0,12.0,3.0,0.8,949.13678432021,9662.2566664695,22.0,11.0,11.0,0.5,2296.6958563010817,39307.756268012025,15.0,4.0,11.0,0.2666666666666666,1600.112284306898,24604.463843710797,88.0,45.0,43.0,0.5113636363636364,75.96807255927152,10282.576807801835,0.0,0.0,0.0,0.0,63798.0,63830.0,63917.0,63931.0,63942.0,63964.0,63971.0,63986.0,64218.0,64304.0,0.03021434495769309,-0.2621750470434498,0.05429732439293438,-0.14136136134730531,0.008094452236253264
56,56,64904.43804524744,1763.4513736895374,9.478686941467863,65012.12330450071,-3513.8204679110636,7.558029459678298,65037.98585300766,44230.07719629489,9.364997378151784,65060.45203459914,-10841.254966779876,7.616807761513309,65344.10626800652,8913.607688117503,32.77269303311654,0.9906618369483672,110.0,84.0,69.0,313.0,382.0,26.0,1089.0,1085.0,26.0,12.0,14.0,0.4615384615384615,75.7747067813457,1721.13231492539,14.0,10.0,4.0,0.7142857142857143,891.758277618582,8691.576265698544,23.0,12.0,11.0,0.5217391304347826,2374.7571239313634,40975.98528493099,16.0,4.0,12.0,0.25,1609.327546141933,24987.28022176605,82.0,41.0,41.0,0.5,62.21857475784727,9343.979149406478,0.0,0.0,0.0,0.0,64892.0,64918.0,65002.0,65015.0,65026.0,65049.0,65057.0,65071.0,65306.0,65384.0,0.042969547055220436,-0.2537859534265633,0.05369100111202823,-0.1484447650270459,0.0069801787261502685
57,57,66009.42986193587,1021.008098292356,6.996442622936173,66118.54796540085,-3874.616050232805,15.28779240514115,66143.69307112723,43039.326942905805,9.490420043950731,66166.05406754417,-11789.669020089912,8.186816840358096,66450.29301696182,8600.169795704121,35.53834027536685,0.990209498852247,106.0,85.0,72.0,315.0,387.0,21.0,1104.0,1106.0,21.0,10.0,11.0,0.4761904761904761,59.56925680513764,982.4050037854868,19.0,16.0,3.0,0.8421052631578947,974.6248287280728,9517.687836818814,22.0,12.0,10.0,0.5454545454545454,2309.9717273580727,38054.426071294074,16.0,4.0,12.0,0.25,1571.7303449102508,25109.04097116874,86.0,43.0,43.0,0.5,61.45259442100147,9206.953760041875,0.0,0.0,0.0,0.0,65999.0,66020.0,66105.0,66122.0,66132.0,66154.0,66162.0,66177.0,66409.0,66492.0,0.058343569365186906,-0.2515410084747656,0.05367118613221777,-0.13331420434551472,0.0071455094353715795
58,58,67132.31298683207,1245.5617405222392,9.01191104609732,67240.12330450071,-3772.0855318331232,8.881888467325663,67265.27397576597,42228.34148484971,9.521285871127947,67287.18015539361,-11946.976346122789,8.326897954811434,67570.7141462012,8943.169879298957,32.987210210514206,0.9840147191195648,108.0,84.0,70.0,312.0,382.0,24.0,1125.0,1121.0,25.0,11.0,14.0,0.44,55.28276144873448,1185.1643447649126,15.0,12.0,3.0,0.8,926.4567647853204,9268.66643496822,22.0,11.0,11.0,0.5,2301.734831374874,39010.54447500194,16.0,4.0,12.0,0.25,1600.7610188036183,25432.487989111884,82.0,41.0,41.0,0.5,54.31677915755187,9345.99090413834,0.0,0.0,0.0,0.0,67121.0,67145.0,67229.0,67243.0,67254.0,67276.0,67283.0,67299.0,67530.0,67611.0,0.044383798610862536,-0.24560863134380984,0.05450687264619826,-0.13398879954450743,0.006073548852435495
59,59,68191.6482817841,698.7472587238104,5.131046532125203,68298.12330450071,-4146.572273745505,12.739827004320285,68323.57105324916,43949.238625457845,9.643230053777684,68345.71189335451,-11823.831354163238,8.413380224784962,68629.76070547997,9318.741252847323,34.25273531666643,0.9906002643803608,101.0,84.0,73.0,313.0,386.0,17.0,1058.0,1059.0,17.0,9.0,8.0,0.5294117647058824,63.77975714586636,547.1321696650216,19.0,15.0,4.0,0.7894736842105263,925.0674362614288,8703.7973332673,22.0,12.0,10.0,0.5454545454545454,2351.2637160742147,38790.051208774305,16.0,4.0,12.0,0.25,1572.427443095157,25135.1450848171,84.0,43.0,41.0,0.5119047619047619,69.3393844967462,9861.201804977643,0.0,0.0,0.0,0.0,68183.0,68200.0,68284.0,68301.0,68312.0,68334.0,68342.0,68357.0,68589.0,68670.0,0.09127729139482206,-0.22309208068519598,0.05349953240628455,-0.13298797961470388,0.007440853073966368
60,60,69300.57109810674,1857.1886553381064,10.68663093072715,69410.12330450071,-3794.008964463887,7.641016923116441,69435.63553827578,42349.85665399784,9.36488240055087,69457.7266078953,-11167.07597679337,7.597487869147675,69740.57347009436,8583.829664000667,34.955867383710945,0.9880137416099752,112.0,86.0,68.0,315.0,383.0,26.0,1109.0,1112.0,26.0,13.0,13.0,0.5,77.53480706434668,1854.423103072877,15.0,11.0,4.0,0.7333333333333333,906.6108583687142,8468.182444997137,22.0,12.0,10.0,0.5454545454545454,2313.238774628362,38063.271344948735,15.0,4.0,11.0,0.2666666666666666,1550.052329827943,24087.785733965025,88.0,45.0,43.0,0.5113636363636364,56.123461126515394,8978.288194676617,0.0,0.0,0.0,0.0,69288.0,69314.0,69400.0,69413.0,69424.0,69446.0,69454.0,69468.0,69698.0,69783.0,0.04174848195496394,-0.23895854407840678,0.0546221158085075,-0.13880556853460588,0.006538277589767307
61,61,70476.12722539617,1719.799910699409,17.601622555738533,70594.12330450071,-3881.872338364198,9.034756415288614,70619.16955267395,42315.54662491248,9.42919218406768,70641.45203459915,-11180.022111591952,7.644595887114261,70928.75378633321,8826.019025926294,30.097377563145688,0.9885578122650626,119.0,85.0,70.0,315.0,385.0,34.0,1180.0,1183.0,36.0,14.0,22.0,0.3888888888888889,51.96824958148454,2061.140850312792,16.0,13.0,3.0,0.8125,934.510448808178,9140.465230003743,22.0,11.0,11.0,0.5,2302.1705426148155,39695.8464646687,16.0,4.0,12.0,0.25,1593.4988367908702,24690.843802014948,77.0,39.0,38.0,0.5064935064935064,59.85299989300481,9100.136735220503,0.0,0.0,0.0,0.0,70463.0,70497.0,70582.0,70597.0,70608.0,70630.0,70638.0,70652.0,70890.0,70967.0,0.030217613838780855,-0.2407370380454026,0.05440483997575151,-0.14253091996469833,0.006781426565837616
62,62,71566.43098789296,709.133708155485,5.393822187890439,71673.22591926724,-4618.554787912162,15.28779240518434,71700.18493898894,44357.04757728602,9.632501478979153,71722.18455193288,-12163.919223370063,8.969181928385437,72007.065288614,8170.114510650217,29.524538806843125,0.9840734639547,99.0,82.0,77.0,310.0,387.0,17.0,1086.0,1081.0,17.0,8.0,9.0,0.4705882352941176,60.57850629850294,627.51618744896,22.0,17.0,5.0,0.7727272727272727,787.3335048102389,5557.831147350311,22.0,11.0,11.0,0.5,2355.4522062742544,40027.921299326365,17.0,4.0,13.0,0.2352941176470588,1620.4622713316503,26187.366980733685,77.0,39.0,38.0,0.5064935064935064,64.77101869679379,8582.421793535215,0.0,0.0,0.0,0.0,71558.0,71575.0,71657.0,71678.0,71689.0,71711.0,71718.0,71734.0,71969.0,72044.0,0.08542607071390332,-0.1704718339318773,0.05310209617017915,-0.13321876293113813,0.007927798149262292
63,63,72700.20542559771,2146.9363673069515,25.82471749464183,72817.69864360057,-3014.201897048966,6.882405337167213,72843.07499903273,41830.585490357626,9.341858652588945,72865.33525334335,-10878.89366787109,7.270528214278793,73147.38675098214,8859.23212714959,36.79734499004291,0.9863329926089736,145.0,85.0,68.0,314.0,382.0,60.0,1140.0,1143.0,66.0,41.0,25.0,0.6212121212121212,50.761227838162974,2618.785157650256,14.0,11.0,3.0,0.7857142857142857,914.2349525198756,10010.224655257683,22.0,11.0,11.0,0.5,2257.3640549264765,38827.75583050201,15.0,4.0,11.0,0.2666666666666666,1576.4469260216729,24068.3645920169,86.0,42.0,44.0,0.4883720930232558,62.84141038510521,9552.439582299474,0.0,0.0,0.0,0.0,72663.0,72723.0,72808.0,72820.0,72832.0,72854.0,72862.0,72876.0,73107.0,73190.0,0.023643564202061675,-0.30330912916449,0.05396443842381364,-0.14490875397352518,0.007093324735506631
64,64,73849.2784652716,1460.1783440331255,9.898067897033537,73956.12330450071,-3726.7717081707415,10.114718659612512,73981.83055915951,42449.95797083756,9.64907838219887,74003.45203459915,-12335.49636832152,8.970949388100863,74291.3555657677,8656.637128484685,31.03098495505119,0.9873658639124492,106.0,80.0,72.0,315.0,387.0,26.0,1143.0,1139.0,26.0,12.0,14.0,0.4615384615384615,63.05648670074374,1467.6764877866965,17.0,14.0,3.0,0.8235294117647058,877.7938066122719,8636.072904282883,22.0,12.0,10.0,0.5454545454545454,2296.96413073938,37244.93053025562,17.0,4.0,13.0,0.2352941176470588,1633.869470858136,26183.980131604625,79.0,39.0,40.0,0.4936708860759494,75.9201981547262,9104.678492410902,0.0,0.0,0.0,0.0,73837.0,73863.0,73943.0,73959.0,73970.0,73992.0,74000.0,74015.0,74253.0,74330.0,0.04318409936595611,-0.2355373163018699,0.054109927089147115,-0.13245267333173844,0.008770172184405258
65,65,74945.24295168092,504.4149725991242,3.7732529716856513,75053.54796540085,-3902.0928277385688,15.287792405181374,75078.7044542983,43266.76296081188,9.516639571677231,75101.13183075457,-11346.723879348605,7.95287718488852,75385.76532928812,8615.50123705671,32.414112726343426,0.9826603436681338,100.0,88.0,73.0,314.0,387.0,12.0,1095.0,1097.0,12.0,6.0,6.0,0.5,64.94955887384268,385.6438974540704,21.0,18.0,3.0,0.8571428571428571,969.4580109888286,9720.554527330592,21.0,11.0,10.0,0.5238095238095238,2307.0946623996165,38666.89406917517,16.0,4.0,12.0,0.25,1564.2995580975075,24678.458467500423,82.0,41.0,41.0,0.5,54.75290864966125,8952.710144326706,0.0,0.0,0.0,0.0,74939.0,74951.0,75039.0,75057.0,75068.0,75089.0,75097.0,75112.0,75346.0,75426.0,0.12876215497564206,-0.2484456556485027,0.05332256227463163,-0.1378635432333541,0.006355162299108014
66,66,76105.89624380831,1911.0990813278495,14.440497568807032,76212.12330450071,-2655.042471221511,6.133405194747341,76237.84237960911,41605.958823206136,9.24943907882069,76260.26947751096,-10409.078288105917,7.317836585433637,76546.07417137022,8862.601350299245,35.58079863891642,0.9928835951779772,115.0,81.0,67.0,318.0,385.0,34.0,1159.0,1159.0,34.0,17.0,17.0,0.5,57.15259456742316,1934.4053202219163,12.0,9.0,3.0,0.75,825.7771556420058,8807.967842032022,22.0,12.0,10.0,0.5454545454545454,2241.179252384406,37971.22662379213,15.0,4.0,11.0,0.2666666666666666,1528.9707734881065,23513.5685429443,87.0,44.0,43.0,0.5057471264367817,50.93335743299155,9248.30035175412,0.0,0.0,0.0,0.0,76089.0,76123.0,76204.0,76215.0,76226.0,76248.0,76256.0,76271.0,76504.0,76589.0,0.029905615635434767,-0.31102220193942465,0.05386678533014281,-0.14688820000856434,0.005746998586512276
67,67,77247.55421311416,1313.7764194507542,7.579797471434673,77354.54796540085,-3694.689487655253,11.398941689400594,77380.05969693285,42860.19239934107,9.571076650976332,77402.45203459915,-11490.02825456131,8.316895099175506,77688.0817985875,9355.289830872143,33.60730868824143,0.990641610848184,106.0,83.0,72.0,316.0,388.0,23.0,1143.0,1142.0,23.0,12.0,11.0,0.5217391304347826,69.60651985834895,1123.5324540860554,17.0,14.0,3.0,0.8235294117647058,952.370159368302,9630.318916135611,22.0,11.0,11.0,0.5,2296.4770244206925,39328.1967617824,16.0,4.0,12.0,0.25,1586.0316107857575,25208.968899034782,84.0,42.0,42.0,0.5,58.01490032448525,9624.82899743508,0.0,0.0,0.0,0.0,77236.0,77259.0,77342.0,77358.0,77369.0,77391.0,77399.0,77414.0,77648.0,77730.0,0.05298201339878599,-0.25776730698219,0.053580651319148034,-0.13803548395593673,0.006201293746457541
68,68,78347.9862286133,2068.847170979805,21.16355161125894,78456.69864360057,-3002.013269904518,6.522329455074023,78482.3483932254,42801.02830943687,9.322669230234968,78504.77328324929,-10769.99352207396,7.259256007763238,78788.43636659464,9070.994519951342,35.165161813666764,0.990529907681677,116.0,78.0,68.0,316.0,384.0,38.0,1103.0,1102.0,38.0,17.0,21.0,0.4473684210526316,59.47149730874948,2489.174479994632,13.0,10.0,3.0,0.7692307692307693,910.8105664440884,9799.936922488669,22.0,11.0,11.0,0.5,2286.872299644853,40492.94772976276,14.0,4.0,10.0,0.2857142857142857,1537.5220400357198,23575.250627472946,87.0,43.0,44.0,0.4942528735632184,66.88011964587137,9674.77358638038,0.0,0.0,0.0,0.0,78331.0,78369.0,78447.0,78459.0,78471.0,78493.0,78501.0,78515.0,78748.0,78831.0,0.028746201335202448,-0.3033999135097286,0.053430312073615246,-0.14275979246268308,0.007372964397538863
69,69,79537.29014432225,1217.8484518663977,8.083790978953788,79644.54796540085,-3453.3100128051055,11.083586150646466,79670.14004265229,41354.12004877009,9.427610262010113,79692.45203459915,-11058.950000732702,7.636622948078623,79980.90772005961,7810.394482132154,32.10354105680398,0.986660948918365,106.0,83.0,71.0,317.0,388.0,23.0,1188.0,1188.0,23.0,11.0,12.0,0.4782608695652174,60.00949803193542,1157.7625007596284,17.0,14.0,3.0,0.8235294117647058,895.1183334199256,9077.531508632168,22.0,11.0,11.0,0.5,2241.0342297223074,38530.83376213368,16.0,4.0,12.0,0.25,1563.8362322994597,24270.037763835717,80.0,40.0,40.0,0.5,52.308354929653795,8110.962380469924,0.0,0.0,0.0,0.0,79526.0,79549.0,79632.0,79648.0,79659.0,79681.0,79689.0,79703.0,79942.0,80020.0,0.04927501278173705,-0.25920590103430236,0.0541913170218443,-0.1414091059454875,0.0066972743885497284
70,70,80694.18500010841,1723.3244409428366,12.117895898011575,80804.12330450071,-3497.6006456498253,8.752786345325859,80829.77476669947,41397.626125104434,9.50996709779,80851.73603109355,-11156.151145094696,8.22680177757104,81139.95881659626,9050.435312460026,33.80682407389017,0.9833645124301864,112.0,83.0,70.0,314.0,384.0,29.0,1158.0,1160.0,29.0,13.0,16.0,0.4482758620689655,60.58610422843791,1789.2150284028253,15.0,12.0,3.0,0.8,860.147872867372,8482.637096312676,22.0,12.0,10.0,0.5454545454545454,2243.9261003676174,37095.735403266764,16.0,4.0,12.0,0.25,1507.3446247695808,23913.913374893633,87.0,49.0,38.0,0.5632183908045977,48.34496784060711,9276.324448646614,0.0,0.0,0.0,0.0,80681.0,80710.0,80793.0,80807.0,80818.0,80840.0,80848.0,80863.0,81093.0,81177.0,0.0351565281551343,-0.24592512410963477,0.05420422160407046,-0.13511332046019767,0.005341728455210219
71,71,81765.06101191496,1161.5113171540254,6.682240745611039,81870.12330450071,-3949.8929336772458,9.992244019703264,81895.09477914895,43054.97983827624,9.545589486854244,81917.45203459915,-11631.657474824367,8.180082929271526,82201.72951710668,9011.670375731232,31.27560864723678,0.9872557822913666,103.0,83.0,71.0,311.0,382.0,20.0,1069.0,1065.0,20.0,10.0,10.0,0.5,72.8611234323493,1033.438913047479,16.0,13.0,3.0,0.8125,956.9132603344892,9516.135567161706,22.0,11.0,11.0,0.5,2327.248032428487,39800.84899204493,16.0,4.0,12.0,0.25,1604.8441889945332,25419.880296798285,79.0,40.0,39.0,0.5063291139240507,68.41242353009741,9537.61409776818,0.0,0.0,0.0,0.0,81755.0,81775.0,81858.0,81873.0,81884.0,81906.0,81914.0,81929.0,82164.0,82240.0,0.06272958546015385,-0.24226308824113577,0.05405293513480046,-0.1379720983417942,0.0075915363831254475
72,72,82847.31100040705,1965.5704116433149,18.579456192731772,82954.12330450071,-3176.208178077441,7.254768907627892,82979.58188682263,42863.11019771257,9.399088180292656,83001.77573579577,-10805.363730496923,7.205001796046576,83285.74997408925,8981.77313188499,37.31493507681792,0.989837864334641,112.0,77.0,68.0,318.0,386.0,35.0,1084.0,1085.0,36.0,15.0,21.0,0.4166666666666667,59.524740271049765,2331.9226129180634,14.0,11.0,3.0,0.7857142857142857,895.1310649427755,9380.434683474676,22.0,12.0,10.0,0.5454545454545454,2306.4410084664983,38652.28893401448,14.0,4.0,10.0,0.2857142857142857,1560.745912003195,23693.356343867817,90.0,45.0,45.0,0.5,51.46943066674485,9451.8843000579,0.0,0.0,0.0,0.0,82832.0,82867.0,82944.0,82957.0,82968.0,82990.0,82998.0,83012.0,83243.0,83330.0,0.0302836977594123,-0.28182380207981156,0.05380946454486599,-0.14444177456036628,0.0057304309417513695
73,73,83954.52133670088,2078.854057558638,21.63915134936976,84068.12330450071,-3336.345189959174,7.401915763893467,84093.43321022844,41650.10806629202,9.36869464252993,84115.6219485415,-11410.566283113583,7.789170676481719,84403.03009429645,9108.293170940471,32.50298023270905,0.989906246358518,120.0,80.0,68.0,315.0,383.0,40.0,1112.0,1113.0,55.0,31.0,24.0,0.5636363636363636,53.308849298056096,2502.7404019190603,14.0,11.0,3.0,0.7857142857142857,889.767077671634,9058.289678833798,22.0,11.0,11.0,0.5,2261.818133428552,39197.16505858565,15.0,4.0,11.0,0.2666666666666666,1523.3696275859993,23946.497533200694,78.0,39.0,39.0,0.5,86.43370613746926,9886.40657562478,0.0,0.0,0.0,0.0,83938.0,83978.0,84058.0,84071.0,84082.0,84104.0,84112.0,84126.0,84365.0,84441.0,0.025643382277955998,-0.26668915445242697,0.0543052164433415,-0.13350517316922503,0.00948956127293217
74,74,85036.22258762018,1914.0120637616249,18.879523367051767,85145.69864360057,-2480.0551364681746,5.899353803695341,85171.71838050014,44664.598465530784,9.314581344380985,85194.19829806038,-10011.012051294769,6.817066671757579,85474.83551209555,10661.682761161675,38.981792977782256,0.9909667622681814,115.0,82.0,67.0,315.0,382.0,33.0,1077.0,1079.0,33.0,14.0,19.0,0.4242424242424242,69.54749404585475,2388.861537194797,11.0,9.0,2.0,0.8181818181818182,886.814875731542,10152.019652344983,23.0,12.0,11.0,0.5217391304347826,2351.136358630362,40906.016956795385,15.0,4.0,11.0,0.2666666666666666,1591.3877126920077,23684.529382084827,93.0,47.0,46.0,0.5053763440860215,74.10363019336546,11507.15831417742,0.0,0.0,0.0,0.0,85022.0,85055.0,85137.0,85148.0,85160.0,85183.0,85191.0,85204.0,85431.0,85519.0,0.0363359747634884,-0.3575786935908399,0.052639818545437395,-0.15896371960577016,0.006950462872831838
75,75,86062.2672925109,1133.8297359396954,8.485748207652163,86169.12330450071,-3814.639134849989,8.025010987758762,86194.70007218364,44286.559360238585,9.501245242452752,86217.00652192201,-10838.5239142596,7.399110223506229,86496.24564772465,9816.357316364529,36.754762663889466,0.9880891590254984,107.0,84.0,70.0,312.0,382.0,23.0,1025.0,1023.0,23.0,11.0,12.0,0.4782608695652174,54.9524772410992,1125.6921907326005,14.0,11.0,3.0,0.7857142857142857,939.778857184565,9129.057933283404,22.0,12.0,10.0,0.5454545454545454,2365.392411414593,40490.06106728513,15.0,4.0,11.0,0.2666666666666666,1593.7649512887135,24368.285514957857,89.0,44.0,45.0,0.4943820224719101,63.28859880420335,10406.911599936117,0.0,0.0,0.0,0.0,86051.0,86074.0,86158.0,86172.0,86183.0,86205.0,86213.0,86228.0,86454.0,86540.0,0.048466251588961624,-0.2463611429450513,0.053411067501854585,-0.14704631035522206,0.0064472590763069515
76,76,87166.35610379743,2066.989846129462,37.71689283777654,87281.69864360057,-2856.2790266593047,6.936570082573643,87307.40989699155,43807.52978042503,9.31620816804798,87329.61695143516,-10635.826482725846,6.817009846222199,87608.98619029527,9130.299457358478,41.84255918238651,0.9844410492822836,148.0,80.0,68.0,316.0,384.0,68.0,1111.0,1112.0,75.0,47.0,28.0,0.6266666666666667,38.64575696064654,2499.149161119144,14.0,11.0,3.0,0.7857142857142857,908.7954885429964,10110.983000122342,22.0,11.0,11.0,0.5,2329.179189071818,41848.15562543581,14.0,4.0,10.0,0.2857142857142857,1576.734664471175,23498.372122355897,98.0,49.0,49.0,0.5,63.71061305338787,9844.243612952489,0.0,0.0,0.0,0.0,87124.0,87192.0,87272.0,87284.0,87296.0,87318.0,87326.0,87340.0,87564.0,87656.0,0.018696636092824827,-0.31817461811702646,0.05316846671671018,-0.14824749792900674,0.006977932470992603
77,77,88312.55137244194,1549.0857012260778,13.16529834862066,88422.12330450071,-3344.6100101134366,8.446723060671086,88448.01485047751,41600.75529500562,9.378740991895723,88470.21312017745,-10900.84120328156,7.234634746022799,88754.7651515705,8606.211438276716,34.515850760210654,0.988584688414376,110.0,84.0,70.0,316.0,386.0,26.0,1139.0,1141.0,26.0,12.0,14.0,0.4615384615384615,68.10760931875556,1735.1806135822867,16.0,12.0,4.0,0.75,831.2144785629549,8064.5489828658065,22.0,11.0,11.0,0.5,2255.92415946566,38631.192864889555,15.0,4.0,11.0,0.2666666666666666,1568.8109510606396,23882.96885394892,87.0,44.0,43.0,0.5057471264367817,50.01446561261394,8984.556805111235,0.0,0.0,0.0,0.0,88301.0,88327.0,88411.0,88425.0,88437.0,88459.0,88466.0,88481.0,88712.0,88797.0,0.0439663275342671,-0.24852358751828385,0.05422796157108463,-0.1439165034885903,0.005811438165482569
78,78,89382.72927769816,1981.1176416877845,10.399093406218276,89489.12330450071,-3662.9143006211434,7.878600494092271,89514.72360328675,43085.42943340317,9.455708740660295,89536.86969483111,-11071.821933903268,7.854912688160066,89819.14805040119,9188.292914753878,33.45715823073922,0.9888034983565208,108.0,82.0,70.0,312.0,382.0,26.0,1070.0,1067.0,26.0,13.0,13.0,0.5,84.71285124909285,1966.6109056195755,14.0,11.0,3.0,0.7857142857142857,905.6439575535164,8844.500884354093,22.0,12.0,10.0,0.5454545454545454,2324.977155191684,38895.97873279701,15.0,4.0,11.0,0.2666666666666666,1557.042466540495,24360.105171207033,85.0,43.0,42.0,0.5058823529411764,66.73648730986834,9696.281157272291,0.0,0.0,0.0,0.0,89370.0,89396.0,89478.0,89492.0,89503.0,89525.0,89533.0,89548.0,89778.0,89860.0,0.04276013168855685,-0.24724683222862753,0.05396202813262854,-0.14063109719753,0.0072632085120738635
79,79,90425.55710387325,968.6061517844298,6.076619677349999,90532.12330450072,-4124.670483785227,9.51616504623364,90557.15111338906,41704.109480870335,9.512324337179498,90579.08211421486,-11872.98993558466,8.002237998655524,90861.30059026903,8249.109565221866,32.1358082934922,0.9796423362572066,103.0,85.0,70.0,312.0,382.0,18.0,1043.0,1042.0,18.0,9.0,9.0,0.5,67.94867429764628,849.2873202770452,16.0,13.0,3.0,0.8125,938.575787692866,8828.454538308284,22.0,11.0,11.0,0.5,2287.9178088764743,38541.41755091712,16.0,4.0,12.0,0.25,1589.9182365458769,25023.623161347816,84.0,42.0,42.0,0.5,56.68461070457052,8600.526543098173,0.0,0.0,0.0,0.0,90417.0,90435.0,90520.0,90535.0,90546.0,90568.0,90575.0,90590.0,90821.0,90902.0,0.07015098362989619,-0.22755170173776676,0.054860728051894785,-0.13391051834220097,0.006871603565983905
80,80,91503.4363928334,2141.2328535783836,13.41340286957857,91612.12330450072,-3267.9886944991053,7.512833762633011,91637.74718397838,40833.34697528717,9.337496018531786,91659.99472578088,-10459.810028313828,7.323008422191756,91943.93950308328,8715.636520996657,34.644576046979566,0.99182501406458,113.0,83.0,68.0,315.0,383.0,30.0,1078.0,1081.0,30.0,14.0,16.0,0.4666666666666667,77.4296379151035,2320.7019942702755,14.0,11.0,3.0,0.7857142857142857,844.3522006303602,8315.454491140079,22.0,12.0,10.0,0.5454545454545454,2215.5507287230257,37188.27520466729,15.0,4.0,11.0,0.2666666666666666,1503.039473642168,23044.725402178658,83.0,41.0,42.0,0.4939759036144578,76.87619834212616,9580.089837280168,0.0,0.0,0.0,0.0,91489.0,91519.0,91602.0,91615.0,91626.0,91648.0,91656.0,91670.0,91904.0,91985.0,0.036161241308111214,-0.2583706002568582,0.05425836706611152,-0.14369663211602948,0.008820491556402717
81,81,92558.20542559771,1715.3768623244227,19.991574017676932,92672.12330450072,-3692.680893063041,8.602980815134343,92697.75495368558,42272.61498691893,9.462687918106612,92719.78123220844,-11410.132974719236,8.25134962450529,93003.68133337492,8722.084155963952,31.451658332817416,0.984993162912468,117.0,80.0,70.0,312.0,382.0,37.0,1061.0,1060.0,44.0,20.0,24.0,0.4545454545454545,45.0230494683255,2068.011006591183,16.0,12.0,4.0,0.75,881.775231469818,8501.210267991037,22.0,12.0,10.0,0.5454545454545454,2301.684132064029,37861.9443368709,16.0,4.0,12.0,0.25,1538.7454366364848,24488.262310439037,79.0,40.0,39.0,0.5063291139240507,49.51052360314837,8864.198378395964,0.0,0.0,0.0,0.0,92544.0,92581.0,92661.0,92675.0,92686.0,92708.0,92716.0,92731.0,92965.0,93043.0,0.02624673939423258,-0.23878998944270932,0.054448586461383446,-0.1348578005222019,0.005676455617467788
82,82,93632.09799377274,1724.655912195032,11.531374082389837,93741.54796540084,-4012.3915250008863,9.71267627182563,93766.92126862815,42113.56914698812,9.48415204937602,93789.09521072796,-11117.775985807306,7.530776990049093,94068.66171859992,9262.442405095097,34.06152503477963,0.9811877007446692,110.0,83.0,71.0,310.0,381.0,27.0,1067.0,1069.0,27.0,13.0,14.0,0.4814814814814814,67.7630760542784,1806.0323939856785,17.0,14.0,3.0,0.8235294117647058,961.2167684980408,9469.882308786036,22.0,11.0,11.0,0.5,2287.8139658825257,38927.23701410931,15.0,4.0,11.0,0.2666666666666666,1570.112718645384,24179.633042178233,85.0,42.0,43.0,0.4941176470588235,63.861483710395014,9743.885839009628,0.0,0.0,0.0,0.0,93619.0,93646.0,93729.0,93745.0,93756.0,93778.0,93785.0,93800.0,94029.0,94110.0,0.0392907800188583,-0.23956205731887753,0.05432486517344127,-0.14122543219522982,0.0068946699927943415
83,83,94618.8465390664,675.1243112565119,5.429801470078312,94728.54796540084,-4100.248657182442,15.28779240518434,94753.1119885356,41963.120820713986,9.437558233153975,94775.58887858418,-11643.023906913164,7.935929484510641,95056.89370168032,7915.032235875669,29.15638462841567,0.96621545490126,103.0,86.0,73.0,307.0,380.0,17.0,988.0,986.0,17.0,9.0,8.0,0.5294117647058824,55.88352216836092,571.7455404148377,22.0,19.0,3.0,0.8636363636363636,994.3325069140648,9945.597401439289,22.0,11.0,11.0,0.5,2257.910711094272,38335.890307724345,16.0,5.0,11.0,0.3125,1501.5842674677954,23918.586088678076,73.0,36.0,37.0,0.4931506849315068,74.44845083116755,8482.719254935062,0.0,0.0,0.0,0.0,94610.0,94627.0,94713.0,94732.0,94742.0,94764.0,94771.0,94786.0,95022.0,95093.0,0.08277515893977058,-0.24250541614647778,0.0538070254769925,-0.12896858062588143,0.009405956743135241
84,84,95720.57074771186,1644.3348775655547,11.713860366708357,95834.12330450072,-3653.402154083988,7.995911638698532,95858.97152109386,41725.95265103925,9.354908785859882,95881.45203459916,-10397.416917271586,7.59920463065748,96162.40382502398,9070.198224882037,31.66731545984959,0.983877132406153,115.0,88.0,69.0,311.0,380.0,27.0,1103.0,1106.0,27.0,13.0,14.0,0.4814814814814814,68.07184294418762,1726.6918635532616,15.0,12.0,3.0,0.8,937.8100813010558,9460.22628617867,22.0,11.0,11.0,0.5,2263.8080566594776,38790.985751668995,16.0,4.0,12.0,0.25,1527.7384998746925,23741.330947872884,80.0,39.0,41.0,0.4875,54.883347740449274,9306.930857620657,0.0,0.0,0.0,0.0,95708.0,95735.0,95823.0,95837.0,95848.0,95870.0,95878.0,95892.0,96125.0,96203.0,0.0413977979017074,-0.2566950042038806,0.05425419703636398,-0.1469344272746149,0.006050953505061138
85,85,96808.30206293202,1642.1594483507408,8.965645851049997,96921.54796540084,-3932.444977211859,9.418951927761867,96946.95176556987,42555.79889881493,9.504572971130916,96969.00768376664,-11423.504167545863,7.922612060896567,97251.44029086229,9151.745176103668,32.57718988461067,0.986115819509119,112.0,88.0,71.0,311.0,382.0,24.0,1085.0,1088.0,24.0,11.0,13.0,0.4583333333333333,76.03781741785187,1626.1688657397356,17.0,14.0,3.0,0.8235294117647058,965.5273974403076,9724.815116344143,21.0,11.0,10.0,0.5238095238095238,2313.5064701944116,39026.329026121464,16.0,4.0,12.0,0.25,1576.152380295027,24701.218439077755,81.0,40.0,41.0,0.4938271604938271,64.67132618336139,9693.988674502229,0.0,0.0,0.0,0.0,96797.0,96821.0,96909.0,96925.0,96936.0,96957.0,96965.0,96980.0,97212.0,97291.0,0.04630355322329901,-0.24552852056047728,0.05436407093884535,-0.13797450915042955,0.00706655669917757
86,86,97994.8489321358,1993.091712655346,16.63789366152102,98104.12330450072,-3044.6839238060775,7.558523543832527,98129.98230882113,42466.82045025441,9.320580555152006,98152.25287840582,-10539.582711481657,6.921362800514311,98440.53415569612,8436.665031244504,34.75008443532508,0.9864804039473908,115.0,82.0,68.0,317.0,385.0,33.0,1185.0,1183.0,33.0,16.0,17.0,0.4848484848484848,66.84036465610288,2154.8684345147367,14.0,11.0,3.0,0.7857142857142857,836.5453477342805,8573.179706368464,22.0,11.0,11.0,0.5,2282.754719181381,39523.014314061475,15.0,4.0,11.0,0.2666666666666666,1585.2533579005374,23695.542466248982,87.0,49.0,38.0,0.5632183908045977,45.771872333627165,8731.22376324502,0.0,0.0,0.0,0.0,97979.0,98012.0,98094.0,98107.0,98119.0,98141.0,98149.0,98162.0,98394.0,98479.0,0.03353602056126817,-0.27475605634904054,0.05375384111592243,-0.15040949924645378,0.005425351387558325
87,87,99146.35206902378,1055.9911592357307,6.9788022167775665,99253.12330450072,-3508.821371566786,9.634123687310748,99278.86454071057,42768.96653188144,9.48772767480386,99301.20860582864,-11469.95432165175,7.963934435254501,99587.01083039909,9618.34778968428,33.30731418227053,0.9886447169789048,106.0,85.0,70.0,316.0,386.0,21.0,1154.0,1149.0,21.0,10.0,11.0,0.4761904761904761,62.592005854865974,1005.5644814349924,16.0,12.0,4.0,0.75,867.6990420088199,8540.382847406883,22.0,12.0,10.0,0.5454545454545454,2312.1712394529177,38926.39026948316,16.0,4.0,12.0,0.25,1580.7764765365189,24892.683424719435,84.0,43.0,41.0,0.5119047619047619,75.21699750024746,10193.02413922231,0.0,0.0,0.0,0.0,99136.0,99157.0,99242.0,99256.0,99267.0,99289.0,99297.0,99312.0,99545.0,99628.0,0.0592732290487798,-0.24729074242424834,0.05406189176278896,-0.1378188990301817,0.00782015780100175
88,88,100260.62892314944,1653.220233989885,13.8462123711233,100366.12330450072,-3035.401967287544,6.602008809596654,100391.98779663656,42368.58704854513,9.29459123452983,100414.45918519888,-10409.878809763291,7.10320265096864,100698.15909207934,9119.226087681747,35.09001045902891,0.986760873301036,112.0,78.0,68.0,314.0,382.0,34.0,1114.0,1113.0,34.0,16.0,18.0,0.4705882352941176,47.52686701753785,1719.8805755816093,13.0,10.0,3.0,0.7692307692307693,847.2826632620959,8508.795003684532,23.0,12.0,11.0,0.5217391304347826,2269.4629375473614,39337.31221361193,15.0,4.0,11.0,0.2666666666666666,1568.3966401010305,23770.692875136585,83.0,41.0,42.0,0.4939759036144578,56.476602000075886,9616.441958670935,0.0,0.0,0.0,0.0,100245.0,100279.0,100357.0,100369.0,100380.0,100403.0,100411.0,100425.0,100659.0,100739.0,0.02874805548613231,-0.2791335949548829,0.053564753881149105,-0.1506642554407119,0.006193135410510821
89,89,101443.69914966804,2020.2392740955331,50.959308017278865,101549.69864360055,-2253.706543992167,5.327139925941849,101575.33535847554,42140.00403429515,9.25038401898155,101597.62732314714,-9270.617497555986,6.414374939927218,101881.4108511954,9105.39334904464,39.133316589132974,0.986589331307244,120.0,78.0,64.0,320.0,384.0,42.0,1182.0,1183.0,43.0,21.0,22.0,0.4883720930232558,72.31829304559396,2922.9746589315127,10.0,8.0,2.0,0.8,872.735070621781,10166.643082913428,22.0,11.0,11.0,0.5,2206.208483989417,40251.97116910522,14.0,4.0,10.0,0.2857142857142857,1481.540967093764,21438.43598911677,91.0,43.0,48.0,0.4725274725274725,51.30364672015906,9509.75429346624,0.0,0.0,0.0,0.0,101423.0,101465.0,101543.0,101552.0,101564.0,101586.0,101594.0,101607.0,101841.0,101927.0,0.03579689493858151,-0.3872443255526236,0.052354254218721,-0.15981038668506634,0.0056344239895514195
90,90,102608.05664340268,1206.7434297230795,7.929274980371653,102716.54796540063,-4276.139325942766,15.28779240492586,102741.80423535952,43428.073595484704,9.721454041102351,102764.027373699,-11583.886419013836,9.42166335354522,103050.10020477691,8707.082647816545,32.19107862919716,0.9860940220119828,103.0,80.0,76.0,314.0,390.0,23.0,1166.0,1167.0,23.0,11.0,12.0,0.4782608695652174,60.02942962429264,1105.093343284364,25.0,22.0,3.0,0.88,979.3602720333852,9806.224344547358,22.0,12.0,10.0,0.5454545454545454,2272.2713233424347,37928.701624656474,17.0,4.0,13.0,0.2352941176470588,1527.349853797671,25031.013569977215,81.0,41.0,40.0,0.5061728395061729,55.344604592478,9058.668374688152,0.0,0.0,0.0,0.0,102597.0,102620.0,102700.0,102720.0,102730.0,102752.0,102760.0,102776.0,103010.0,103090.0,0.04974498153105175,-0.2290290838027043,0.05232263683873574,-0.1318512456484961,0.0063562741771328694
91,91,103727.86431275908,1814.4598411839909,14.56701443753509,103836.54796540084,-3279.345138465977,12.02805359560872,103862.0221358563,42239.809965842505,9.453872138028752,103884.5410821854,-10650.593171669972,7.32522618670354,104168.48512979654,8737.249333174428,32.61300529212927,0.9913284085435126,109.0,78.0,71.0,315.0,386.0,31.0,1122.0,1120.0,32.0,14.0,18.0,0.4375,60.962422437401635,2018.215118606028,18.0,15.0,3.0,0.8333333333333334,915.6601951361962,9592.885050407776,22.0,11.0,11.0,0.5,2255.5792246059705,39389.73943727533,14.0,4.0,10.0,0.2857142857142857,1486.9482177407424,22849.625928977453,81.0,39.0,42.0,0.4814814814814814,42.99577905681293,8759.96100658811,0.0,0.0,0.0,0.0,103715.0,103746.0,103824.0,103840.0,103851.0,103873.0,103881.0,103895.0,104130.0,104210.0,0.033598110607739755,-0.2792204408117063,0.053399369609616124,-0.13961177502262953,0.004920974258290012
92,92,104878.69263972438,1932.033179122163,15.850287222965964,104986.12330450072,-3562.8901362513966,7.793829815614967,105011.75631294285,40533.468479660885,9.368388393530628,105033.9939064568,-10833.96874353492,7.714944427089325,105320.68759721692,9035.185799674598,34.92695577772487,0.9911516038468484,112.0,79.0,69.0,318.0,387.0,33.0,1151.0,1150.0,33.0,15.0,18.0,0.4545454545454545,63.12600419500258,2180.186461000737,15.0,11.0,4.0,0.7333333333333333,852.0538430879618,7964.380903741105,22.0,12.0,10.0,0.5454545454545454,2211.129477737314,36670.27310910461,15.0,4.0,11.0,0.2666666666666666,1499.2350981819366,23426.44331950603,86.0,43.0,43.0,0.5,73.48239170905872,9661.113985950986,0.0,0.0,0.0,0.0,104864.0,104897.0,104976.0,104989.0,105000.0,105022.0,105030.0,105045.0,105280.0,105363.0,0.03267335410030819,-0.23914681915632358,0.054550709837398376,-0.1383828155380818,0.008132914290672935
93,93,105965.57071309596,2171.005732526134,19.836216197244884,106073.12330450072,-3267.2814981345796,7.005646890269456,106098.94432618924,43085.9832103333,9.330350389012864,106121.48131528588,-10190.207947179926,7.196001371897958,106404.45945116974,9440.92855833069,34.55504294768597,0.9925560128799096,119.0,76.0,69.0,314.0,383.0,43.0,1087.0,1087.0,44.0,23.0,21.0,0.5227272727272727,52.99628326560306,2391.50268856118,13.0,10.0,3.0,0.7692307692307693,868.571138918489,8640.088763059985,23.0,12.0,11.0,0.5217391304347826,2297.4223687499393,40030.355250489425,15.0,4.0,11.0,0.2666666666666666,1565.5966920157516,23776.49413110868,87.0,44.0,43.0,0.5057471264367817,71.48304486017902,10110.303275421023,0.0,0.0,0.0,0.0,105944.0,105987.0,106063.0,106076.0,106087.0,106110.0,106118.0,106132.0,106363.0,106446.0,0.024410936586490614,-0.2658390895961645,0.05332180439133971,-0.15363736443170625,0.007571611671301365
94,94,107053.21421788608,1877.0243003617784,14.258744006795832,107159.12330450072,-2858.0414377121356,6.596572372584675,107184.8228286706,43096.8988122459,9.349826453796954,107207.17534979736,-10321.49762274443,7.047427554470072,107487.83551209555,9386.991931579762,38.81261341552109,0.9864536916177054,111.0,80.0,67.0,315.0,382.0,31.0,1086.0,1086.0,32.0,15.0,17.0,0.46875,63.246004672922254,2049.4148888172977,13.0,10.0,3.0,0.7692307692307693,864.2319051696126,9268.842955513532,23.0,12.0,11.0,0.5217391304347826,2295.6034346262477,39613.56051445794,15.0,4.0,11.0,0.2666666666666666,1567.828454942624,23635.870206328585,93.0,48.0,45.0,0.5161290322580645,57.85620503781619,10021.3609517475,0.0,0.0,0.0,0.0,107039.0,107070.0,107150.0,107162.0,107173.0,107196.0,107204.0,107217.0,107442.0,107532.0,0.03369482465449818,-0.30238606542438057,0.05326609333602344,-0.15189931851437533,0.006163444632691765
95,95,108214.48205856633,1469.8269608565586,16.226876010127814,108328.12330450072,-3228.344366498907,7.9309937575637806,108353.41630980218,41787.413154203285,9.342715123353848,108375.75635819291,-10603.722956841091,7.0237751763728555,108657.83551209555,8553.337816296093,37.45888869698812,0.9807317309643736,117.0,83.0,69.0,316.0,385.0,34.0,1165.0,1168.0,44.0,23.0,21.0,0.5227272727272727,42.17407611539245,1632.644434753856,14.0,11.0,3.0,0.7857142857142857,881.3966797833572,9121.132637141003,22.0,11.0,11.0,0.5,2244.0088124832996,40026.66461739521,14.0,4.0,10.0,0.2857142857142857,1524.111816278394,22960.209271839623,92.0,46.0,46.0,0.5,66.28057594076927,9263.098940346,0.0,0.0,0.0,0.0,108200.0,108234.0,108317.0,108331.0,108342.0,108364.0,108372.0,108386.0,108615.0,108702.0,0.028693225283345614,-0.2730181726986019,0.053700591711731284,-0.14373365114137568,0.0077490889947652245
96,96,109370.8954668228,2438.323019153199,12.289067124415128,109480.12330450072,-3108.060580411944,7.329087952394552,109505.63334066194,43340.78166538036,9.383921011667912,109527.99905519118,-10537.715599529452,7.3101867987603075,109812.9372496766,9975.500481209823,35.240038083626395,0.9938072989414104,114.0,83.0,68.0,317.0,385.0,31.0,1152.0,1153.0,31.0,15.0,16.0,0.4838709677419355,81.38420465250631,2422.722794685985,14.0,11.0,3.0,0.7857142857142857,890.9624485977783,9467.096924472544,22.0,12.0,10.0,0.5454545454545454,2321.1210014268445,39302.54426559995,15.0,4.0,11.0,0.2666666666666666,1555.8497515579743,23776.01619655404,86.0,43.0,43.0,0.5,77.94505574939545,10745.474187237449,0.0,0.0,0.0,0.0,109356.0,109387.0,109470.0,109483.0,109494.0,109516.0,109524.0,109538.0,109771.0,109855.0,0.03337712190436938,-0.2866618669574612,0.053555125501598966,-0.14764582862982645,0.007813648638102449
97,97,110528.2636521798,1886.838855146984,14.547406302759244,110635.54796540084,-3528.670091843286,7.815712147139861,110660.88847438368,41762.874678641194,9.363075756472693,110683.1923653127,-11151.970201175594,7.622320871598116,110966.08275022537,9185.873571912329,36.71338670594116,0.9827707577823735,109.0,79.0,69.0,317.0,386.0,30.0,1159.0,1155.0,31.0,13.0,18.0,0.4193548387096774,68.6355246198029,2204.8814328011067,15.0,12.0,3.0,0.8,946.3281214150132,9831.90735535604,22.0,12.0,10.0,0.5454545454545454,2276.9576869698863,38242.03874562075,15.0,4.0,11.0,0.2666666666666666,1558.5628242747446,24285.552566216116,91.0,45.0,46.0,0.4945054945054945,56.09937587126997,9606.904986661288,0.0,0.0,0.0,0.0,110516.0,110546.0,110625.0,110639.0,110649.0,110671.0,110679.0,110694.0,110923.0,111011.0,0.03637593344687414,-0.2681826571439768,0.054521095697811044,-0.13975672425222652,0.006107135639532988
98,98,111707.07702759485,2033.084541379712,24.5129581478286,111818.12330450072,-2593.3109168955143,5.925899977173306,111843.9909775968,42517.85769140253,9.276929813018564,111866.4924671156,-9811.81247106747,7.044592707567142,112149.11631895724,9157.44169055934,37.553911699986365,0.9923817713592455,114.0,83.0,67.0,317.0,384.0,31.0,1181.0,1183.0,33.0,12.0,21.0,0.3636363636363636,84.09220091013,2926.48277374239,12.0,9.0,3.0,0.75,832.1621986092593,8889.499916487996,23.0,12.0,11.0,0.5217391304347826,2255.101350824128,39528.48608278375,14.0,3.0,11.0,0.2142857142857142,1541.2945471204807,23232.18612890347,92.0,45.0,47.0,0.4891304347826087,68.68702827113215,9718.271087324298,0.0,0.0,0.0,0.0,111696.0,111727.0,111810.0,111821.0,111832.0,111855.0,111863.0,111877.0,112107.0,112194.0,0.04136188102294188,-0.32088794027268097,0.053038922308640414,-0.15708560998952692,0.00750067874764013
99,99,112846.31799797191,1503.5856765787132,11.724906940382018,112950.12330450072,-3762.6860355031463,9.166249642279798,112975.4195012428,42390.50152018554,9.491457310825222,112997.63032398296,-10811.267379961866,7.699340776545064,113281.03008824408,9889.207935884477,39.065444248592314,0.9922486476434256,106.0,78.0,69.0,318.0,387.0,28.0,1134.0,1131.0,28.0,13.0,15.0,0.4642857142857143,56.795038087227354,1578.2661294635082,15.0,12.0,3.0,0.8,914.4737965627008,8952.579164946259,22.0,11.0,11.0,0.5,2275.2604623019283,40409.73265119387,15.0,4.0,11.0,0.2666666666666666,1510.04127779778,23492.621017298767,93.0,47.0,46.0,0.5053763440860215,50.491284857427914,10327.778197784244,0.0,0.0,0.0,0.0,112833.0,112861.0,112939.0,112953.0,112964.0,112986.0,112994.0,113008.0,113236.0,113326.0,0.037773064064071056,-0.24303749713212983,0.053673827407267005,-0.13967291943926616,0.005105695540510651
100,100,113986.80411495447,1779.957814953207,11.600658006842842,114093.12330450072,-3326.753872585281,9.170658139453714,114118.37583591396,41155.01345314023,9.502189360790783,114140.4658286372,-11142.510527002723,7.634279174009049,114423.88626335523,8596.5255671206,38.02453839129572,0.988734206880588,107.0,79.0,70.0,317.0,387.0,28.0,1142.0,1143.0,29.0,14.0,15.0,0.4827586206896552,68.95675586028979,1796.8082364284255,16.0,13.0,3.0,0.8125,876.3426454005619,9118.680391862392,22.0,11.0,11.0,0.5,2219.350742114379,38832.22562774703,16.0,4.0,12.0,0.25,1579.3805257273411,24288.73399600062,92.0,47.0,45.0,0.5108695652173914,64.68542410721372,9269.987216913592,0.0,0.0,0.0,0.0,113974.0,114002.0,114081.0,114096.0,114107.0,114129.0,114137.0,114151.0,114380.0,114468.0,0.03874066861640908,-0.26342274750838124,0.0539266192839754,-0.14174368710712684,0.0075246009102349545
101,101,115104.31939626735,722.5353302016356,5.119570162491982,115207.60029364786,-4502.598870553359,15.28779240518434,115233.95863013156,43196.99325179893,9.684941062531207,115255.45203459916,-12319.71735343894,9.59668744629071,115540.64836987936,9055.719213759152,31.9106465712888,0.9822471182606632,97.0,81.0,75.0,314.0,389.0,16.0,1117.0,1116.0,16.0,8.0,8.0,0.5,64.29463540259715,614.4688298324077,20.0,16.0,4.0,0.8,889.6055804838403,7313.107392310617,22.0,12.0,10.0,0.5454545454545454,2287.171979422201,37350.00712550689,17.0,3.0,14.0,0.1764705882352941,1621.1886158412212,26284.95199930518,83.0,42.0,41.0,0.5060240963855421,53.99702235136992,9173.25397728405,0.0,0.0,0.0,0.0,115096.0,115112.0,115193.0,115212.0,115222.0,115244.0,115252.0,115268.0,115499.0,115582.0,0.08898476339510575,-0.19757602354981932,0.05294748099920015,-0.1315930040707209,0.005962753600987041
102,102,116168.054747398,1492.4872045188538,17.264196469242258,116278.54796540084,-3777.925547514076,12.380339879938443,116304.47153821796,42784.29271076902,9.588459934138374,116326.45203459916,-11798.370476366888,8.655716051215974,116613.81190479966,8594.019735825026,29.614667185539865,0.9843413503016408,108.0,78.0,72.0,311.0,383.0,30.0,1069.0,1070.0,33.0,12.0,21.0,0.3636363636363636,50.40778260177149,1840.7279231756431,18.0,15.0,3.0,0.8333333333333334,912.434526426356,8802.570651916185,22.0,11.0,11.0,0.5,2287.976291145772,39729.063864211865,17.0,4.0,13.0,0.2352941176470588,1610.947427062295,25673.03412971405,74.0,38.0,36.0,0.5135135135135135,65.52817423152486,8930.760994827515,0.0,0.0,0.0,0.0,116158.0,116188.0,116266.0,116282.0,116293.0,116315.0,116323.0,116338.0,116577.0,116649.0,0.03377434824844739,-0.2415173393310384,0.053477015656492946,-0.13653982389255837,0.007624857313087628
103,103,117363.04112073511,1372.8400749033008,7.386649597036935,117471.12330450072,-3287.914522647315,12.739827002280782,117496.10991722831,42048.156888536905,9.421925604185123,117518.66263495546,-10931.01724062632,7.647560252976713,117805.04855973036,8190.2326956889965,32.51337779711901,0.9863155546309444,107.0,86.0,70.0,316.0,386.0,21.0,1189.0,1192.0,21.0,11.0,10.0,0.5238095238095238,76.28488968660552,1323.2484869395637,16.0,13.0,3.0,0.8125,901.7164952892382,9096.401786676108,22.0,11.0,11.0,0.5,2255.7380885918656,39113.86683095628,15.0,4.0,11.0,0.2666666666666666,1488.968473936429,23341.986402642226,82.0,41.0,41.0,0.5,66.32203004104652,8684.601788885457,0.0,0.0,0.0,0.0,117352.0,117373.0,117459.0,117474.0,117485.0,117507.0,117515.0,117529.0,117766.0,117845.0,0.05556720777689916,-0.27425180584171854,0.05364653900458645,-0.13621499638684267,0.008097697892754099
104,104,118506.46636467296,1846.1055637814768,20.13463952703559,118619.69864360055,-2957.97410709991,6.0015544346285905,118645.2211857301,44065.46923994489,9.298347431608883,118667.90518485136,-10325.833606010154,6.9937280732698595,118951.66336440395,9930.23221424512,36.650739675546966,0.9893646906487508,127.0,81.0,67.0,316.0,383.0,46.0,1149.0,1149.0,48.0,24.0,24.0,0.5,38.15093552814829,2088.1301034011876,12.0,10.0,2.0,0.8333333333333334,950.0410275590422,10327.052247336102,22.0,11.0,11.0,0.5,2329.1378948595516,41698.64685363373,14.0,4.0,10.0,0.2857142857142857,1547.7285359603588,23370.01194708711,85.0,42.0,43.0,0.4941176470588235,62.745680530102135,10559.722719205736,0.0,0.0,0.0,0.0,118484.0,118530.0,118611.0,118622.0,118634.0,118656.0,118664.0,118678.0,118912.0,118994.0,0.020665630544984485,-0.32117962942227785,0.05285630528922661,-0.14988896732361667,0.006318651888129281
105,105,119609.21529037628,1677.5363515673648,19.25470817317389,119722.12330450072,-3415.0944906413533,7.457690190712851,119747.60355830254,43337.32038363806,9.4260791416242,119769.81319016288,-11028.39633870472,7.552688371577782,120052.536571381,9172.117250497808,32.39699426946347,0.9857800857744968,112.0,83.0,68.0,312.0,380.0,29.0,1102.0,1103.0,31.0,10.0,21.0,0.3225806451612903,68.22008775528747,2279.387126727292,14.0,11.0,3.0,0.7857142857142857,912.0447263428204,9302.12469626258,22.0,12.0,10.0,0.5454545454545454,2335.611741299604,38975.28876538294,15.0,4.0,11.0,0.2666666666666666,1566.0557922336022,24222.9120000119,82.0,42.0,40.0,0.5121951219512195,69.29391819988165,9723.502455121748,0.0,0.0,0.0,0.0,119600.0,119629.0,119712.0,119725.0,119736.0,119758.0,119766.0,119780.0,120013.0,120092.0,0.04066683126809604,-0.2670628086110551,0.0538937737872093,-0.14200213196341605,0.007554844351354185
106,106,120800.77648208632,1789.5994027133563,10.586468444367052,120910.69864360055,-3156.3805164026976,6.641694474158383,120935.9979421409,41918.01230635295,9.344606578189172,120958.24364383686,-11005.402987699845,7.69160359263214,121244.8885232752,8896.816616459188,34.19523908651324,0.9902942339696612,113.0,87.0,68.0,317.0,385.0,26.0,1187.0,1188.0,26.0,13.0,13.0,0.5,74.25015451502804,1795.5082374123815,13.0,10.0,3.0,0.7692307692307693,933.7051754717452,10029.714196038634,22.0,12.0,10.0,0.5454545454545454,2270.4543960342703,38441.547645478626,15.0,4.0,11.0,0.2666666666666666,1559.315437166007,24323.294891416885,84.0,42.0,42.0,0.5,58.411052459138254,9345.175010673827,0.0,0.0,0.0,0.0,120788.0,120814.0,120901.0,120913.0,120924.0,120946.0,120954.0,120969.0,121205.0,121286.0,0.041489818560763586,-0.2958151498590169,0.05416417122646266,-0.14168635523013298,0.006565387933373528
107,107,121946.64559468832,1902.4358306885133,37.52997846571136,122052.12330450072,-2493.67737127014,5.65992098207791,122078.03103339068,44316.40085362317,9.299348585214288,122100.68898140296,-10124.9196276464,6.991344194735584,122382.75402432145,9644.892612745372,38.86728258257626,0.988955126567775,117.0,74.0,67.0,316.0,383.0,43.0,1147.0,1142.0,43.0,20.0,23.0,0.4651162790697674,60.74037599054257,2614.323633734753,11.0,8.0,3.0,0.7272727272727273,856.2680808937293,9419.932585104025,23.0,12.0,11.0,0.5217391304347826,2332.0643740700257,41345.214435407135,14.0,4.0,10.0,0.2857142857142857,1522.631241575188,23042.44500564976,95.0,49.0,46.0,0.5157894736842106,70.49394330356841,10390.857562750787,0.0,0.0,0.0,0.0,121927.0,121970.0,122044.0,122055.0,122066.0,122089.0,122097.0,122111.0,122337.0,122427.0,0.031927687131796674,-0.34337564704996065,0.05262305442567011,-0.15038452625516127,0.007308940196017657
108,108,123098.40249258692,1508.0313193854338,9.80150172406204,123207.54796540084,-3892.226825707828,10.129127493300995,123232.66149103564,41853.532584075074,9.571684517005965,123254.52125233423,-11759.242677084634,8.233125145643376,123542.19675231044,8391.92935464402,31.263455809296513,0.9838413535710524,109.0,84.0,71.0,316.0,387.0,25.0,1151.0,1155.0,26.0,12.0,14.0,0.4615384615384615,65.14582189425771,1516.6177712175947,18.0,15.0,3.0,0.8333333333333334,976.5630975008525,10069.374561311704,22.0,12.0,10.0,0.5454545454545454,2282.479046304665,37171.06152293718,15.0,4.0,11.0,0.2666666666666666,1536.5482879145077,24399.647260216418,81.0,41.0,40.0,0.5061728395061729,61.7081364086787,8718.658887646528,0.0,0.0,0.0,0.0,123086.0,123111.0,123195.0,123211.0,123221.0,123243.0,123251.0,123266.0,123502.0,123582.0,0.04319924994714732,-0.2509008701781551,0.05453491988327718,-0.13066728275867598,0.0073532716734001045
109,109,124292.28403186104,1125.3466655523494,6.584610383323883,124400.54796540084,-3331.3082734471573,15.287792404977262,124426.09747467864,43223.970865440824,9.48075913063585,124448.90097589388,-11351.17785119663,7.84366257257686,124735.00594774068,8824.751232736106,33.66373819911869,0.9878839641482128,105.0,86.0,72.0,316.0,388.0,19.0,1194.0,1193.0,19.0,9.0,10.0,0.4736842105263157,70.86490605269078,973.7360994596596,17.0,14.0,3.0,0.8235294117647058,933.0320768121104,9297.635529669433,22.0,11.0,11.0,0.5,2283.982417617591,39764.938018116816,15.0,4.0,11.0,0.2666666666666666,1528.9733800210977,24194.498507348457,86.0,44.0,42.0,0.5116279069767442,73.40412586359598,9498.491919168482,0.0,0.0,0.0,0.0,124283.0,124302.0,124388.0,124404.0,124415.0,124437.0,124445.0,124460.0,124693.0,124776.0,0.0629716230757288,-0.2800797765397531,0.05284064309426324,-0.13469733274066487,0.008317982448196117
110,110,125403.85741874274,2084.7520767622595,22.21552704526627,125507.69864360055,-2420.0792406824985,5.5616907347612,125533.69206065193,43181.629431422225,9.279179949973248,125556.18685287276,-9843.173768026363,6.685876206899034,125838.811901243,9177.862631697077,37.04859369864717,0.9898221844132038,113.0,78.0,66.0,318.0,384.0,35.0,1112.0,1108.0,36.0,17.0,19.0,0.4722222222222222,66.81922358796842,2549.5190011907703,11.0,9.0,2.0,0.8181818181818182,866.514964492481,9706.776503447349,23.0,12.0,11.0,0.5217391304347826,2279.2277651062423,39477.37027466179,14.0,4.0,10.0,0.2857142857142857,1553.31495120286,22987.329677836504,92.0,46.0,46.0,0.5,53.38866447799383,9573.040882348438,0.0,0.0,0.0,0.0,125387.0,125422.0,125500.0,125510.0,125522.0,125545.0,125553.0,125566.0,125795.0,125884.0,0.03205140041963289,-0.3580523108194221,0.05278234738052065,-0.15780631205033702,0.00581711304913285
111,111,126578.43621525266,1529.6352792483433,9.5562783117563,126683.12330450072,-3486.86765845076,8.283132024995192,126708.24031166818,41023.19662805098,9.440059371850154,126730.37844449987,-11550.201717502568,7.665512657795567,127018.32692495172,8736.030555674799,34.53560085143317,0.9882558604504308,106.0,80.0,69.0,318.0,387.0,26.0,1174.0,1174.0,26.0,12.0,14.0,0.4615384615384615,63.84258182970866,1525.5716064111048,15.0,12.0,3.0,0.8,897.8871997078718,9101.846172416364,22.0,11.0,11.0,0.5,2237.852644986135,38244.462074690666,16.0,4.0,12.0,0.25,1585.8103895594372,24628.42158237965,84.0,42.0,42.0,0.5,57.558250622554866,9210.37488315612,0.0,0.0,0.0,0.0,126566.0,126592.0,126672.0,126686.0,126697.0,126719.0,126726.0,126741.0,126977.0,127059.0,0.041737126945111155,-0.2575053852507868,0.05455090848419961,-0.1372972029706099,0.006588604544791325
112,112,127715.45959476497,567.317985168898,4.9702357843562055,127818.54796540084,-4332.1788843629665,15.28779240518434,127843.81651834934,43494.845360823856,9.619813376529343,127866.12942586564,-11558.970224686598,8.524081975597216,128152.56779989925,8924.299069705323,29.45234391506109,0.9720407434521676,96.0,81.0,74.0,313.0,387.0,15.0,1136.0,1136.0,15.0,7.0,8.0,0.4666666666666667,55.269459676898705,463.9868990164828,19.0,16.0,3.0,0.8421052631578947,993.1371696218362,9272.552097729997,21.0,11.0,10.0,0.5238095238095238,2300.9365459877267,38695.58186458423,16.0,4.0,12.0,0.25,1563.0097089358185,25053.119580606428,77.0,39.0,38.0,0.5064935064935064,50.75338844507008,9004.412422360552,0.0,0.0,0.0,0.0,127708.0,127723.0,127804.0,127822.0,127833.0,127854.0,127862.0,127878.0,128116.0,128191.0,0.09742236474389979,-0.22924657456010705,0.05290136168779665,-0.13522049789501875,0.0056871008074302395
113,113,128849.63008649784,1846.0714368906345,22.757539974240675,128962.12330450072,-3058.862367317941,6.911779448153269,128987.29354241244,42669.30922161565,9.324707893018546,129009.57466184192,-10285.803831450336,6.966227199372395,129295.37937707404,8792.246712459295,36.897409047858886,0.9922632051000198,114.0,81.0,68.0,319.0,387.0,33.0,1141.0,1143.0,38.0,15.0,23.0,0.3947368421052631,59.42161017681003,2385.9213087244043,14.0,11.0,3.0,0.7857142857142857,907.3410838206288,9768.438985025978,22.0,11.0,11.0,0.5,2279.187553855638,40566.47674175922,14.0,4.0,10.0,0.2857142857142857,1514.5744112734365,22759.35029990563,90.0,45.0,45.0,0.5,58.68652552596232,9281.963971581115,0.0,0.0,0.0,0.0,128838.0,128871.0,128952.0,128965.0,128976.0,128998.0,129006.0,129020.0,129252.0,129339.0,0.032188142338031474,-0.2966269726663772,0.0534151500324977,-0.1472490080592832,0.006674804227547319
114,114,130030.78076469756,1861.3093581684063,43.31541181468315,130142.69864360055,-2568.564412683943,6.01839745055836,130168.65541097875,41724.9179652604,9.287256668394782,130191.13748388768,-10182.639614123436,6.92587534225274,130479.57117484514,9185.430498665924,40.92214550305668,0.9934404291650788,115.0,79.0,67.0,324.0,391.0,36.0,1182.0,1182.0,42.0,16.0,26.0,0.3809523809523809,62.79261575412629,2865.6824826809907,12.0,9.0,3.0,0.75,850.3236487109322,9262.743950624084,22.0,12.0,10.0,0.5454545454545454,2225.37310163505,37815.305784843345,15.0,4.0,11.0,0.2666666666666666,1524.8650532788304,22907.183337636274,94.0,48.0,46.0,0.5106382978723404,61.86301282845555,9989.388132897677,0.0,0.0,0.0,0.0,130019.0,130055.0,130134.0,130145.0,130157.0,130179.0,130187.0,130201.0,130434.0,130525.0,0.033735722371221744,-0.3310501556869319,0.053334391297973675,-0.14975145061245468,0.006734906201450267
115,115,131196.18152953393,1087.815937573844,7.472248991859692,131300.54796540082,-3889.3168300934535,11.009083672675548,131326.0596033836,42699.90317335569,9.587629120376116,131348.45203459918,-11494.075092444757,8.512375359261856,131630.89010473408,8551.538686142254,33.56637409826868,0.98324929826222,103.0,80.0,72.0,314.0,386.0,23.0,1160.0,1157.0,23.0,11.0,12.0,0.4782608695652174,58.10218939574447,952.0032047796816,17.0,14.0,3.0,0.8235294117647058,957.9996628326802,9510.098205512571,22.0,11.0,11.0,0.5,2291.2470458723446,39116.2466380242,17.0,4.0,13.0,0.2352941176470588,1574.2599976436986,25192.908315730972,87.0,43.0,44.0,0.4942528735632184,49.289396142514,8765.534880459938,0.0,0.0,0.0,0.0,131185.0,131208.0,131288.0,131304.0,131315.0,131337.0,131345.0,131360.0,131590.0,131674.0,0.05341178354614825,-0.24631566536832156,0.05365930308015451,-0.13696273819182592,0.005763804380887306
116,116,132382.2394848724,1898.8134609322292,16.70802303913426,132485.12330450068,-3280.391797882137,6.632096842944302,132510.55899874,42223.93551491779,9.352705015938469,132532.99770048377,-10382.724576011782,7.1457498074251635,132818.281294964,8992.44775086487,37.43256384914472,0.9914651410691848,111.0,74.0,67.0,321.0,388.0,37.0,1183.0,1185.0,37.0,17.0,20.0,0.4594594594594595,53.109067567787626,2055.005985424596,13.0,10.0,3.0,0.7692307692307693,898.3363796441671,9036.884865959351,22.0,12.0,10.0,0.5454545454545454,2262.933714194315,38121.12419738648,15.0,4.0,11.0,0.2666666666666666,1526.5808902619165,23185.96687140988,90.0,43.0,47.0,0.4777777777777778,53.70452728056986,9391.323252687567,0.0,0.0,0.0,0.0,132365.0,132402.0,132476.0,132488.0,132499.0,132521.0,132529.0,132543.0,132777.0,132864.0,0.027969607684218512,-0.2738503309952624,0.053593623772819954,-0.14703085679349762,0.005972181186752483
117,117,133584.48279488448,1472.8865895146446,10.64637161910101,133689.12330450068,-3706.712187324398,9.66523905809035,133714.20379324505,41287.84927922634,9.527157249903969,133736.45203459918,-11115.529022050854,7.8813484859562655,134022.90832605367,8307.157172908566,34.610305585605616,0.9904328073012888,107.0,78.0,70.0,319.0,389.0,29.0,1203.0,1203.0,29.0,14.0,15.0,0.4827586206896552,53.02462416358632,1475.056886538296,16.0,13.0,3.0,0.8125,906.863058972586,9071.818820019684,22.0,11.0,11.0,0.5,2231.770254280462,38592.97126609819,16.0,4.0,12.0,0.25,1557.3793068777716,24303.66059322452,87.0,43.0,44.0,0.4942528735632184,49.5426971839971,8688.490711571132,0.0,0.0,0.0,0.0,133570.0,133599.0,133677.0,133692.0,133703.0,133725.0,133733.0,133747.0,133981.0,134066.0,0.0360004799697846,-0.24465429554356188,0.05405392369041028,-0.14010842882855698,0.005963856967286779
118,118,134721.23479539496,1906.0599604540585,17.45614040778277,134822.69864360054,-2995.303853937102,5.812831594008666,134848.0412759071,43789.37546899068,9.243453774973831,134870.79054860727,-10102.920008276244,7.213445060744211,135156.14381220043,9303.558396938644,38.83973790758078,0.9938437343116722,109.0,79.0,66.0,321.0,387.0,30.0,1137.0,1134.0,30.0,15.0,15.0,0.5,77.41678484510679,2251.8528349888384,12.0,9.0,3.0,0.75,958.6518959675584,10404.516658260149,22.0,11.0,11.0,0.5,2328.684435923014,40920.098403038275,14.0,4.0,10.0,0.2857142857142857,1500.563420433875,23054.657989218424,93.0,46.0,47.0,0.4946236559139785,53.14752519028352,9872.209772196473,0.0,0.0,0.0,0.0,134706.0,134736.0,134815.0,134825.0,134837.0,134859.0,134867.0,134881.0,135111.0,135202.0,0.0406161329923035,-0.3200516350644969,0.053179210961162605,-0.14852769488470893,0.0057126018801335
119,119,135688.51299625906,172.95255501786414,7.872876576765734,135995.21244600907,-4427.176687879394,15.28779240518434,136024.692456921,42324.52476466122,9.52285515689322,136046.02737369903,-12540.585161247547,9.826610589700328,136335.4971314253,7329.47747575286,28.757892060908546,0.9728973232829984,302.0,281.0,77.0,316.0,393.0,21.0,969.0,1176.0,21.0,10.0,11.0,0.4761904761904761,10.100090919316065,147.84498582167123,22.0,14.0,8.0,0.6363636363636364,557.8950774757473,1909.6211473815583,22.0,12.0,10.0,0.5454545454545454,2281.4837704486417,35379.0118055292,17.0,4.0,13.0,0.2352941176470588,1595.3049404432788,26262.089049200134,79.0,40.0,39.0,0.5063291139240507,49.95855061755953,7357.467158424432,0.0,0.0,0.0,0.0,135679.0,135700.0,135981.0,136003.0,136013.0,136035.0,136042.0,136058.0,136296.0,136374.0,0.058398044008501834,-0.12601599547701303,0.05390453367484854,-0.12721136373867395,0.006816113533717893
120,120,137061.14982582344,2043.87586881206,24.12671740279069,137169.12330450068,-2911.441439053951,6.831086798123569,137194.90344200362,41400.08305646724,9.2579095484831,137217.2803749979,-10903.39751974675,7.543519119334353,137505.31728401428,9251.538135311486,34.69183312738997,0.9896205910813798,114.0,76.0,68.0,319.0,387.0,38.0,1375.0,1171.0,40.0,16.0,24.0,0.4,59.63312954699337,2659.1665338428843,12.0,9.0,3.0,0.75,822.7262143504976,8446.800710512854,22.0,12.0,10.0,0.5454545454545454,2252.312636779325,37758.44135795074,15.0,4.0,11.0,0.2666666666666666,1544.7695585978377,24039.176882655123,86.0,43.0,43.0,0.5,75.57829337019227,10008.041076680029,0.0,0.0,0.0,0.0,137046.0,137084.0,137160.0,137172.0,137183.0,137205.0,137213.0,137228.0,137464.0,137547.0,0.02917649278850447,-0.28258380996934485,0.054403577734549596,-0.14167781701072177,0.008169267884409758
121,121,138206.03413922398,889.3806511055504,6.689933327163166,138308.12330450068,-3672.10799908872,8.803619314279302,138333.55131740522,43484.38964133216,9.477148782899386,138355.8317237194,-10778.955079051942,7.388442572956508,138640.93618743002,9854.09097020344,34.584827404952335,0.9866043009976112,101.0,80.0,69.0,318.0,387.0,21.0,1141.0,1139.0,21.0,10.0,11.0,0.4761904761904761,55.01108654752644,769.3540854324,15.0,12.0,3.0,0.8,920.9199019089576,9134.979095471728,22.0,12.0,10.0,0.5454545454545454,2334.619429457324,39326.2554695984,15.0,4.0,11.0,0.2666666666666666,1561.7639876649062,23897.091999877757,84.0,41.0,43.0,0.4880952380952381,60.447562744591416,10292.563178560682,0.0,0.0,0.0,0.0,138196.0,138217.0,138297.0,138311.0,138322.0,138344.0,138352.0,138366.0,138601.0,138684.0,0.06185325313648835,-0.2507878042087802,0.053688678827361405,-0.14489011005343852,0.006134260676846933
122,122,139345.95280273815,1423.3707958906969,12.465043893972,139452.69864360054,-3311.4268112918157,6.555712691785323,139478.07288200012,42452.07355175223,9.32951055840608,139500.35387544252,-11198.147194814468,7.615854017490951,139785.72331427646,9530.390670577408,36.3319086894359,0.993274873738436,110.0,81.0,68.0,318.0,386.0,29.0,1142.0,1144.0,29.0,13.0,16.0,0.4482758620689655,54.53606292402601,1531.3584767777352,13.0,10.0,3.0,0.7692307692307693,947.1907462259734,9866.467922837704,22.0,11.0,11.0,0.5,2299.4740794042305,39149.15522633971,15.0,4.0,11.0,0.2666666666666666,1592.5442588006242,24761.260502773617,90.0,46.0,44.0,0.5111111111111111,55.3492601738683,9934.771122254197,0.0,0.0,0.0,0.0,139333.0,139362.0,139443.0,139455.0,139467.0,139489.0,139496.0,139511.0,139741.0,139829.0,0.03831472662040899,-0.2860370469297693,0.054166354833080195,-0.14221497816514544,0.005807659107275076
123,123,140558.33401535303,1608.266801474261,8.337515902957977,140665.12330450068,-3731.630711605312,9.61271721746898,140690.17525396353,41948.671644641014,9.570491668676295,140711.94736019976,-11750.835678518775,8.112622787058976,141002.06968201057,8883.234335097985,32.90440642880595,0.9856403968270376,106.0,83.0,70.0,319.0,389.0,23.0,1211.0,1212.0,23.0,11.0,12.0,0.4782608695652174,80.31326836337377,1590.6899634694294,16.0,13.0,3.0,0.8125,924.7986705213316,9418.702624785436,22.0,11.0,11.0,0.5,2281.880043078805,38660.18886091069,16.0,4.0,12.0,0.25,1582.1974908924758,24886.33834194042,82.0,41.0,41.0,0.5,65.73692995475952,9409.482927807345,0.0,0.0,0.0,0.0,140547.0,140570.0,140653.0,140668.0,140679.0,140701.0,140708.0,140723.0,140962.0,141042.0,0.04993777667346764,-0.24782695341348285,0.05439695593722853,-0.13464552940560873,0.007400112107256981
124,124,141725.33985193618,2126.611716804544,25.117872858253985,141826.69864360054,-2770.910509121231,6.2322005116907455,141852.70823463722,44367.26726819626,9.319269079608691,141875.29976150073,-10489.02164476823,7.145775534332561,142162.49865763052,9315.550505194882,33.78304745150648,0.9951210629512364,112.0,78.0,68.0,318.0,386.0,34.0,1163.0,1163.0,34.0,19.0,15.0,0.5588235294117647,77.68335513262046,2462.2895105806906,13.0,10.0,3.0,0.7692307692307693,896.6524383782672,9828.548378538904,22.0,12.0,10.0,0.5454545454545454,2353.45371577826,40407.71174201779,15.0,4.0,11.0,0.2666666666666666,1594.9003291233953,24239.81111150378,85.0,42.0,43.0,0.4941176470588235,58.3040271406493,9772.731176368776,0.0,0.0,0.0,0.0,141706.0,141740.0,141818.0,141829.0,141841.0,141863.0,141872.0,141886.0,142121.0,142204.0,0.03652916727523152,-0.3235948744741787,0.0530448202173877,-0.15205425092424213,0.006258784932585106
125,125,142915.46240966584,1022.3274641433362,5.880608648659355,143022.12330450068,-3956.6450995398186,12.739827004320285,143047.34073698468,42184.61647284322,9.553312653451307,143069.3774194174,-12038.843673857911,8.472300741671608,143356.33714898082,8216.908725351881,31.634147289435532,0.9843587221910256,102.0,85.0,72.0,315.0,387.0,17.0,1194.0,1194.0,17.0,8.0,9.0,0.4705882352941176,74.16624815444578,928.2044969641902,18.0,14.0,4.0,0.7777777777777778,905.089971981968,8497.614918481197,22.0,11.0,11.0,0.5,2279.5958984140157,38901.69828300831,17.0,4.0,13.0,0.2352941176470588,1602.6982983493886,25606.425295686036,83.0,42.0,41.0,0.5060240963855421,55.32784248882466,8522.920907706357,0.0,0.0,0.0,0.0,142907.0,142924.0,143009.0,143025.0,143036.0,143058.0,143065.0,143081.0,143316.0,143396.0,0.07254646945887706,-0.22875187165187885,0.0540385592904828,-0.13312726219957596,0.006733413299106021
126,126,144143.8299352979,1646.0781989415018,15.954402115942964,144256.54796540082,-3584.8167615548673,7.9768482223286385,144282.0210220186,41598.70580200715,9.4442192446127,144304.04475609443,-10952.326802364536,7.649191158384131,144594.109494796,9126.362333920377,33.55099208755189,0.9851314071805116,114.0,84.0,69.0,319.0,388.0,30.0,1233.0,1235.0,32.0,13.0,19.0,0.40625,59.00228518649783,1947.2958977713452,15.0,12.0,3.0,0.8,940.3531461340086,9639.943807343649,22.0,11.0,11.0,0.5,2255.929684203377,38377.43093983616,15.0,4.0,11.0,0.2666666666666666,1548.623744714562,23977.57706235885,86.0,45.0,41.0,0.5232558139534884,58.60923420973352,9547.886856653791,0.0,0.0,0.0,0.0,144132.0,144162.0,144246.0,144260.0,144271.0,144293.0,144300.0,144315.0,144550.0,144634.0,0.03584415687203609,-0.2623155404255984,0.05423076609500019,-0.14139678012349158,0.006421970996253112
127,127,145279.66688575037,1659.4479671132665,13.052743203402295,145383.12330450068,-3470.15251110263,7.6148460234691075,145408.98430638967,43966.51467402066,9.423397103532382,145431.45203459924,-10978.0112100985,7.662660501584011,145717.68483389585,9863.57945726822,35.70627602506767,0.984481716317729,107.0,78.0,69.0,317.0,386.0,29.0,1131.0,1127.0,29.0,14.0,15.0,0.4827586206896552,61.52894264447044,1732.5088644694488,14.0,11.0,3.0,0.7857142857142857,890.6690821905772,8796.7299701507,23.0,12.0,11.0,0.5217391304347826,2353.8852105567153,40649.92614947185,16.0,4.0,12.0,0.25,1608.269647191261,24966.108037098536,87.0,46.0,41.0,0.5287356321839081,68.16465797576829,10526.1398306367,0.0,0.0,0.0,0.0,145266.0,145295.0,145373.0,145386.0,145397.0,145420.0,145428.0,145442.0,145674.0,145759.0,0.03707795837160512,-0.2566656881335656,0.05353813528338649,-0.14649918062680048,0.006910742522131709
128,128,146378.55786827655,1470.2753814534492,8.565289049166356,146482.54796540082,-3583.5272107265837,15.28779239848916,146507.65783492857,45073.556915270165,9.522489137304426,146529.91003310872,-12151.949856675245,8.478553795860652,146820.0376307842,8582.130159826696,29.923616600619045,0.9832278615386356,103.0,80.0,71.0,316.0,387.0,23.0,1099.0,1099.0,23.0,12.0,11.0,0.5217391304347826,72.13356249501946,1404.0632333422918,18.0,15.0,3.0,0.8333333333333334,1018.1111325612478,10493.079316683632,22.0,12.0,10.0,0.5454545454545454,2400.869092632105,39462.12657597303,16.0,4.0,12.0,0.25,1624.0622077090509,26050.95738731161,77.0,39.0,38.0,0.5064935064935064,63.27294736233601,8904.822686210204,0.0,0.0,0.0,0.0,146367.0,146390.0,146470.0,146486.0,146496.0,146518.0,146526.0,146541.0,146782.0,146857.0,0.049061259819035676,-0.28410866520386185,0.05326557868830474,-0.1336462235989996,0.007372638981697024
129,129,147546.06338116576,1167.79497152383,7.633596387655198,147654.12330450068,-4175.139071452954,12.73982699553395,147678.9551816672,42177.31786533044,9.533207188975512,147700.94484582637,-12232.59240331192,8.48837148150076,147991.109494796,7692.367167807687,31.7882851629661,0.9830562576365056,106.0,84.0,71.0,319.0,390.0,22.0,1168.0,1171.0,22.0,11.0,11.0,0.5,62.85283565099648,1067.2542143349292,19.0,15.0,4.0,0.7894736842105263,947.6802266375188,8826.189250699204,21.0,11.0,10.0,0.5238095238095238,2301.367890929044,37840.12304167907,16.0,4.0,12.0,0.25,1579.7114467768022,25439.09263810512,83.0,42.0,41.0,0.5060240963855421,42.968749708800985,7749.458056649127,0.0,0.0,0.0,0.0,147535.0,147557.0,147641.0,147657.0,147668.0,147689.0,147697.0,147712.0,147951.0,148031.0,0.053821807066852835,-0.22698171496062877,0.05456411188300708,-0.1291395474232512,0.005585894273043003
130,130,148706.72863759674,2007.422430567368,19.19117623934553,148814.12330450068,-2535.0421603112036,5.504685754216284,148840.13911497232,43510.88371093646,9.346858784094588,148862.852186052,-10375.7286965293,7.3437891641596,149149.67989200432,10100.713403971817,39.1910266358781,0.9928055623179294,114.0,81.0,67.0,321.0,388.0,33.0,1162.0,1161.0,33.0,15.0,18.0,0.4545454545454545,69.53124040474991,2440.465706766119,11.0,8.0,3.0,0.7272727272727273,846.2186744947195,9046.997980320875,23.0,12.0,11.0,0.5217391304347826,2288.914367869635,40599.375025359725,15.0,4.0,11.0,0.2666666666666666,1514.1189761215585,23344.92069854153,92.0,46.0,46.0,0.5,72.1340128129652,11014.376056556564,0.0,0.0,0.0,0.0,148692.0,148725.0,148806.0,148817.0,148828.0,148851.0,148859.0,148873.0,149107.0,149194.0,0.034637074561878804,-0.333808521113841,0.05260555917631975,-0.1459289289848176,0.0071414770351369995
131,131,149813.0176661824,1102.1673387712365,8.701203076277869,149920.54796540082,-3772.158540669793,9.346972737437731,149946.02171111418,43141.30004642926,9.550477960863658,149967.87745594457,-11573.39429502748,8.326026986835428,150254.59631480454,8592.01302614042,31.27839558354875,0.9868310673342158,108.0,83.0,70.0,315.0,385.0,25.0,1105.0,1106.0,25.0,12.0,13.0,0.48,48.80450090875862,1026.8603047927731,16.0,13.0,3.0,0.8125,969.8924543024428,10005.114303030943,22.0,12.0,10.0,0.5454545454545454,2333.790042848115,39350.259932144574,16.0,4.0,12.0,0.25,1580.9188424875754,25086.447161945744,82.0,42.0,40.0,0.5121951219512195,66.56318096282439,9002.4941632609,0.0,0.0,0.0,0.0,149801.0,149826.0,149909.0,149924.0,149934.0,149956.0,149964.0,149979.0,150215.0,150294.0,0.04428048191227374,-0.2571186878402588,0.054096423620439295,-0.13659941087178018,0.0077470996331490604
132,132,150975.96308147933,1607.9432092649931,14.03600916471055,151086.12330450068,-3109.460154746754,6.976295452437241,151111.3843252055,42280.84552846174,9.33569887521379,151133.7344017392,-10779.117546073296,7.278518089745937,151421.05715504294,8910.895360981684,34.860135271048605,0.9885135507081884,114.0,83.0,68.0,320.0,388.0,31.0,1165.0,1165.0,31.0,14.0,17.0,0.4516129032258064,55.51986015541576,1754.2817156420656,13.0,10.0,3.0,0.7692307692307693,896.1842308524987,9479.777333492131,22.0,11.0,11.0,0.5,2270.085098631655,40164.92364048308,14.0,4.0,10.0,0.2857142857142857,1527.117914973181,23413.674225893876,89.0,45.0,44.0,0.5056179775280899,65.2738724617886,9466.462494837386,0.0,0.0,0.0,0.0,150962.0,150993.0,151076.0,151089.0,151100.0,151122.0,151130.0,151144.0,151379.0,151464.0,0.03452849568038814,-0.28821216103522873,0.0536906268135893,-0.14167374169970826,0.007325175509029611
133,133,152135.29329443094,1245.784962827316,11.626010775554718,152242.12330450068,-3930.220644621299,8.43715413771068,152267.27035188198,42906.35958348807,9.468663699822368,152289.4520345992,-10746.224694996909,7.530929253315336,152576.61580750305,9981.268920678389,36.66061393341509,0.9902966275891316,109.0,83.0,69.0,319.0,388.0,26.0,1155.0,1156.0,26.0,13.0,13.0,0.5,55.78610180553232,1360.5332875993615,15.0,12.0,3.0,0.8,949.505969879148,9234.575665622257,22.0,11.0,11.0,0.5,2308.560733919959,40649.99880299673,15.0,3.0,12.0,0.2,1596.339155273226,24433.547259465224,87.0,44.0,43.0,0.5057471264367817,66.64427327093442,10658.549854209836,0.0,0.0,0.0,0.0,152122.0,152148.0,152231.0,152245.0,152256.0,152278.0,152286.0,152300.0,152535.0,152619.0,0.04477988053325467,-0.2415910086825771,0.053804628412436495,-0.14854883464482455,0.00667693394502839
134,134,153226.9314428973,1838.8223959000888,48.41134261641662,153337.69864360054,-2918.0575610618994,6.224421723298332,153363.5388267329,43967.73073000076,9.302380376133016,153385.9816989339,-10121.546073105395,6.829870101712061,153670.76171896054,10023.255045553264,41.136475336210744,0.9919625063408865,114.0,75.0,67.0,320.0,387.0,39.0,1101.0,1097.0,47.0,18.0,29.0,0.3829787234042553,61.50007759309599,3065.9871936901263,12.0,9.0,3.0,0.75,915.2652460687644,9864.809423640543,22.0,12.0,10.0,0.5454545454545454,2332.5472723317785,39809.87240482225,14.0,4.0,10.0,0.2857142857142857,1566.8431600080585,23372.9985914388,91.0,45.0,46.0,0.4945054945054945,73.06951211401696,11078.577805501956,0.0,0.0,0.0,0.0,153215.0,153254.0,153329.0,153340.0,153352.0,153374.0,153382.0,153396.0,153627.0,153716.0,0.03344536031876651,-0.3136556517191161,0.053051345466419486,-0.15480274937160216,0.007289998287176545
135,135,154419.8770605984,2080.057248399949,20.662832649350975,154530.12330450068,-2573.8971856194185,6.303831836402991,154555.78652258238,42482.135319281624,9.262522016682064,154578.13359439495,-10093.729966213148,6.722969067439583,154864.50559524732,9533.591998904254,39.40739913780641,0.989572503974628,116.0,81.0,67.0,322.0,389.0,35.0,1189.0,1192.0,36.0,15.0,21.0,0.4166666666666667,67.14744841592227,2590.4647997540496,12.0,9.0,3.0,0.75,837.4039023420894,9273.079052935676,23.0,12.0,11.0,0.5217391304347826,2268.627135081869,39048.02785690248,14.0,4.0,10.0,0.2857142857142857,1556.5350938474542,23053.91833651193,94.0,48.0,46.0,0.5106382978723404,60.3035623344044,10241.224422786538,0.0,0.0,0.0,0.0,154405.0,154440.0,154521.0,154533.0,154544.0,154567.0,154575.0,154588.0,154819.0,154910.0,0.03228153862956146,-0.32534473677532105,0.05340190925036184,-0.1542081172230346,0.0063253768717326485
136,136,155576.98454982077,381.8429762065354,4.2508711646690855,155681.54796540082,-4082.676678960548,15.28779240518434,155707.114263915,43436.71163675629,9.535951699433026,155729.3001451041,-11793.833855609068,8.6317181789232,156015.84332091946,9297.673065813284,34.78284626846318,0.984750530341136,98.0,84.0,73.0,316.0,389.0,14.0,1153.0,1151.0,14.0,7.0,7.0,0.5,51.91593509023587,340.33155354400094,20.0,16.0,4.0,0.8,951.611654164388,8799.363906318911,22.0,11.0,11.0,0.5,2316.3169056417382,39211.16410190616,16.0,4.0,12.0,0.25,1594.5093436299433,25608.163089461268,86.0,44.0,42.0,0.5116279069767442,74.89693099149963,10027.651935662538,0.0,0.0,0.0,0.0,155570.0,155584.0,155668.0,155685.0,155696.0,155718.0,155725.0,155741.0,155975.0,156057.0,0.13596147716530213,-0.23308523524979913,0.05332624911876761,-0.13519855910735976,0.008055448977539228
