Unnamed: 0,cycle,p_center,p_height,p_width,q_center,q_height,q_width,r_center,r_height,r_width,s_center,s_height,s_width,t_center,t_height,t_width,r_squared,pr_interval,pr_segment,qrs_duration,st_segment,qt_interval,p_duration,pp_interval,rr_interval,fwhm_p,rise_time_p,decay_time_p,rise_decay_symmetry_p,sharpness_deriv_p,sharpness_diff_p,fwhm_q,rise_time_q,decay_time_q,rise_decay_symmetry_q,sharpness_deriv_q,sharpness_diff_q,fwhm_r,rise_time_r,decay_time_r,rise_decay_symmetry_r,sharpness_deriv_r,sharpness_diff_r,fwhm_s,rise_time_s,decay_time_s,rise_decay_symmetry_s,sharpness_deriv_s,sharpness_diff_s,fwhm_t,rise_time_t,decay_time_t,rise_decay_symmetry_t,sharpness_deriv_t,sharpness_diff_t,Average_Heart_Rate,SDNN,RMSSD,NN50,p_on,p_off,q_on,q_off,r_on,r_off,s_on,s_off,t_on,t_off,sharpness_deriv_p_norm,sharpness_deriv_q_norm,sharpness_deriv_r_norm,sharpness_deriv_s_norm,sharpness_deriv_t_norm
0,0,0.0,0.0,0.0,0.0,0.0,0.0,0.0,0.0,0.0,0.0,0.0,0.0,0.0,0.0,0.0,0.0,0.0,0.0,0.0,0.0,0.0,0.0,0.0,0.0,0.0,0.0,0.0,0.0,0.0,0.0,0.0,0.0,0.0,0.0,0.0,0.0,0.0,0.0,0.0,0.0,0.0,0.0,0.0,0.0,0.0,0.0,0.0,0.0,0.0,0.0,0.0,0.0,0.0,0.0,95.26201388563268,1908.5525429375425,2742.733032258824,539.0,,,,,,,,,,,,,,,
1,1,692.7320285212221,2082.986043348963,9.920961769761895,1039.178051898704,-14549.652104170047,22.93168860777651,1067.2803001215482,47341.56964274832,8.274098289832292,1091.6860964737991,-16567.346261162078,22.93168860777651,1268.4914270127097,3209.4966355371594,12.373940034629454,0.7281626334870999,350.0,318.0,79.0,182.0,261.0,32.0,,,32.0,16.0,16.0,0.5,55.87311711433761,1803.409577161843,28.0,15.0,13.0,0.5357142857142857,871.3626525532288,13709.093252872524,17.0,8.0,9.0,0.4705882352941176,2493.369481232517,29328.05136971487,24.0,10.0,14.0,0.4166666666666667,1322.6444691131355,29038.09583419218,39.0,19.0,20.0,0.4871794871794871,56.1102080450811,2928.1331862942134,0.0,0.0,0.0,0.0,677.0,709.0,1027.0,1052.0,1059.0,1076.0,1082.0,1106.0,1249.0,1288.0,0.026823567681954544,-0.059888899494956946,0.052667655509695294,-0.07983441936103783,0.017482557053900817
2,2,1269.2767416162797,981.6164042314178,7.100594037783063,1616.178051898704,-16449.196541920355,22.93168860777651,1644.209554470359,46900.625156513954,8.10649885972868,1671.8219481007577,-17229.35252724266,22.93168860777651,1844.8381215438872,1449.6065187201054,8.138552453593025,0.669622781305866,344.0,321.0,81.0,175.0,256.0,23.0,578.0,577.0,23.0,11.0,12.0,0.4782608695652174,56.92316811729688,889.606588765535,73.0,59.0,14.0,0.8082191780821918,876.7752356793433,15081.772379841635,17.0,8.0,9.0,0.4705882352941176,2552.550080091699,29056.06703433845,26.0,13.0,13.0,0.5,1056.8659750220072,23026.38079073977,26.0,13.0,13.0,0.5,64.10732787461193,1343.7699520854835,0.0,0.0,0.0,0.0,1258.0,1281.0,1602.0,1629.0,1636.0,1653.0,1659.0,1683.0,1832.0,1858.0,0.05798921846855887,-0.053302009824303824,0.054424649385237014,-0.06134101518620127,0.04422395115276794
3,3,0.0,0.0,0.0,0.0,0.0,0.0,0.0,0.0,0.0,0.0,0.0,0.0,0.0,0.0,0.0,0.0,0.0,0.0,0.0,0.0,0.0,0.0,0.0,0.0,0.0,0.0,0.0,0.0,0.0,0.0,0.0,0.0,0.0,0.0,0.0,0.0,0.0,0.0,0.0,0.0,0.0,0.0,0.0,0.0,0.0,0.0,0.0,0.0,0.0,0.0,0.0,0.0,0.0,0.0,0.0,0.0,0.0,0.0,,1853.0,2193.0,2220.0,2226.0,2243.0,2249.0,2273.0,2424.0,2447.0,,,,,
4,4,0.0,0.0,0.0,0.0,0.0,0.0,0.0,0.0,0.0,0.0,0.0,0.0,0.0,0.0,0.0,0.0,0.0,0.0,0.0,0.0,0.0,0.0,0.0,0.0,0.0,0.0,0.0,0.0,0.0,0.0,0.0,0.0,0.0,0.0,0.0,0.0,0.0,0.0,0.0,0.0,0.0,0.0,0.0,0.0,0.0,0.0,0.0,0.0,0.0,0.0,0.0,0.0,0.0,0.0,0.0,0.0,0.0,0.0,,2450.0,2791.0,2817.0,2824.0,2841.0,2847.0,2871.0,3020.0,3048.0,,,,,
5,5,0.0,0.0,0.0,0.0,0.0,0.0,0.0,0.0,0.0,0.0,0.0,0.0,0.0,0.0,0.0,0.0,0.0,0.0,0.0,0.0,0.0,0.0,0.0,0.0,0.0,0.0,0.0,0.0,0.0,0.0,0.0,0.0,0.0,0.0,0.0,0.0,0.0,0.0,0.0,0.0,0.0,0.0,0.0,0.0,0.0,0.0,0.0,0.0,0.0,0.0,0.0,0.0,0.0,0.0,0.0,0.0,0.0,0.0,,3050.0,3392.0,3419.0,3425.0,3442.0,3448.0,3472.0,3621.0,3646.0,,,,,
6,6,0.0,0.0,0.0,0.0,0.0,0.0,0.0,0.0,0.0,0.0,0.0,0.0,0.0,0.0,0.0,0.0,0.0,0.0,0.0,0.0,0.0,0.0,0.0,0.0,0.0,0.0,0.0,0.0,0.0,0.0,0.0,0.0,0.0,0.0,0.0,0.0,0.0,0.0,0.0,0.0,0.0,0.0,0.0,0.0,0.0,0.0,0.0,0.0,0.0,0.0,0.0,0.0,0.0,0.0,0.0,0.0,0.0,0.0,,3653.0,3995.0,4019.0,4026.0,4043.0,4050.0,4074.0,4220.0,4251.0,,,,,
7,7,4235.230224260287,389.49821803094505,4.061000690003079,4593.7533909985605,-17002.22038480108,25.47965400864057,4622.56816497722,46721.98997574946,8.256697720586875,4649.821948101295,-17639.823735916423,22.93168860777651,4822.739481434183,314.8923923577998,3.950954392283488,0.6174187401755419,348.0,335.0,87.0,165.0,252.0,13.0,2964.0,2978.0,13.0,6.0,7.0,0.4615384615384615,59.9952110613551,4325.538431543497,90.0,76.0,14.0,0.8444444444444444,842.9484865122212,15995.556682688071,17.0,9.0,8.0,0.5294117647058824,2484.572331774027,25544.31432268331,29.0,13.0,16.0,0.4482758620689655,1031.5875181686358,24178.147648506463,13.0,7.0,6.0,0.5384615384615384,64.37993727386144,264.4451620178793,0.0,0.0,0.0,0.0,4229.0,4242.0,4577.0,4608.0,4614.0,4631.0,4637.0,4664.0,4816.0,4829.0,0.15403205530606193,-0.04957872956791951,0.05317779343438962,-0.05848060239220088,0.20445059593789444
8,8,4822.820607615498,337.4146323290595,3.9530290105000665,5173.178051898705,-16808.352457692614,22.93168860777651,5201.278264550421,46465.79148192405,8.138184646519608,5227.397287201135,-17420.589055960172,20.383723206912453,5403.726954353319,1283.734309289625,7.819863810620833,0.6485723343674621,342.0,328.0,82.0,176.0,258.0,14.0,588.0,579.0,14.0,7.0,7.0,0.5,64.37993727386144,283.3134694667192,44.0,31.0,13.0,0.7045454545454546,873.1098721608572,14827.818989081665,17.0,8.0,9.0,0.4705882352941176,2552.4436963092967,29165.481052062787,24.0,11.0,13.0,0.4583333333333333,1262.578225151801,27479.1578341336,25.0,13.0,12.0,0.52,61.9432018138049,1149.83081207845,0.0,0.0,0.0,0.0,4816.0,4830.0,5158.0,5186.0,5193.0,5210.0,5216.0,5240.0,5391.0,5416.0,0.1908036318089362,-0.051945000222866244,0.054931673708866854,-0.07247620738288585,0.04825235359494456
9,9,5403.955429527915,630.6621289877131,5.4927888682071035,5752.178051898705,-16890.527968919567,22.93168860777651,5779.497264127833,48190.16522325259,8.183132421277465,5806.821948101295,-17460.083422936168,22.93168860777651,5980.941808818717,1218.8017654269838,7.53983357961376,0.6511215722307807,340.0,322.0,83.0,175.0,258.0,18.0,581.0,579.0,18.0,9.0,9.0,0.5,61.9432018138049,538.0476560899119,90.0,77.0,13.0,0.8555555555555555,930.7956758469272,14156.241664966612,17.0,8.0,9.0,0.4705882352941176,2587.364443655156,30352.963057072386,26.0,13.0,13.0,0.5,1122.2072201872336,24116.12567142692,24.0,12.0,12.0,0.5,62.92759245237154,1133.7100462502608,0.0,0.0,0.0,0.0,5395.0,5413.0,5735.0,5765.0,5771.0,5788.0,5794.0,5818.0,5969.0,5993.0,0.09821931422016893,-0.055107553627671904,0.05369071534966864,-0.06427272957430796,0.051630703398535094
10,10,0.0,0.0,0.0,0.0,0.0,0.0,0.0,0.0,0.0,0.0,0.0,0.0,0.0,0.0,0.0,0.0,0.0,0.0,0.0,0.0,0.0,0.0,0.0,0.0,0.0,0.0,0.0,0.0,0.0,0.0,0.0,0.0,0.0,0.0,0.0,0.0,0.0,0.0,0.0,0.0,0.0,0.0,0.0,0.0,0.0,0.0,0.0,0.0,0.0,0.0,0.0,0.0,0.0,0.0,0.0,0.0,0.0,0.0,,5988.0,6326.0,6356.0,6362.0,6379.0,6385.0,6409.0,6563.0,6583.0,,,,,
11,11,0.0,0.0,0.0,0.0,0.0,0.0,0.0,0.0,0.0,0.0,0.0,0.0,0.0,0.0,0.0,0.0,0.0,0.0,0.0,0.0,0.0,0.0,0.0,0.0,0.0,0.0,0.0,0.0,0.0,0.0,0.0,0.0,0.0,0.0,0.0,0.0,0.0,0.0,0.0,0.0,0.0,0.0,0.0,0.0,0.0,0.0,0.0,0.0,0.0,0.0,0.0,0.0,0.0,0.0,0.0,0.0,0.0,0.0,,6588.0,6924.0,6952.0,6958.0,6975.0,6982.0,7006.0,7156.0,7181.0,,,,,
12,12,0.0,0.0,0.0,0.0,0.0,0.0,0.0,0.0,0.0,0.0,0.0,0.0,0.0,0.0,0.0,0.0,0.0,0.0,0.0,0.0,0.0,0.0,0.0,0.0,0.0,0.0,0.0,0.0,0.0,0.0,0.0,0.0,0.0,0.0,0.0,0.0,0.0,0.0,0.0,0.0,0.0,0.0,0.0,0.0,0.0,0.0,0.0,0.0,0.0,0.0,0.0,0.0,0.0,0.0,0.0,0.0,0.0,0.0,,7175.0,7511.0,7540.0,7547.0,7563.0,7570.0,7595.0,7746.0,7768.0,,,,,
13,13,7757.122217455701,933.0631858947468,6.173080530473684,8109.178051898705,-16542.48569996647,22.93168860777651,8137.062102594226,46419.54367852755,8.136904730421428,8164.821948101268,-16900.486652194166,22.93168860777651,8339.566791291694,1689.8266184171532,8.736995831472282,0.6661718773169814,347.0,327.0,82.0,177.0,259.0,20.0,2354.0,2357.0,20.0,10.0,10.0,0.5,62.05017262130347,802.584874650976,87.0,74.0,13.0,0.8505747126436781,875.2310885671357,14775.222083253884,16.0,8.0,8.0,0.5,2520.446476672527,28472.2047357274,26.0,13.0,13.0,0.5,1036.763188068535,22523.41254002789,27.0,14.0,13.0,0.5185185185185185,65.68915529858222,1503.712046050774,0.0,0.0,0.0,0.0,7747.0,7767.0,8094.0,8122.0,8129.0,8145.0,8152.0,8176.0,8326.0,8353.0,0.06650157626978005,-0.05290807587452892,0.05429709723403461,-0.061345167710536525,0.03887331077794994
14,14,8339.559855229885,772.1562415107101,5.470528808919183,8685.178051898705,-17351.965461060005,22.93168860777651,8712.894946289953,46632.2722606983,8.13614056872012,8739.39728720115,-18044.230460363768,20.383723206912453,8915.251559369446,632.4208205447692,4.968780311682109,0.6529214593160729,340.0,321.0,82.0,172.0,254.0,19.0,582.0,576.0,19.0,10.0,9.0,0.5263157894736842,65.64370834592431,560.6695033684578,73.0,60.0,13.0,0.821917808219178,915.5869144859942,14982.500704228623,16.0,8.0,8.0,0.5,2571.90043059723,27747.80136724976,25.0,12.0,13.0,0.48,1240.1010717687052,27320.32798680435,17.0,8.0,9.0,0.4705882352941176,63.9453792024422,547.2547614754276,0.0,0.0,0.0,0.0,8330.0,8349.0,8670.0,8698.0,8705.0,8721.0,8728.0,8752.0,8907.0,8924.0,0.0850135048024653,-0.0527656026368129,0.0551528009662276,-0.06872562808886365,0.10111207146431304
15,15,8915.180150207038,563.0281946408872,4.741239104365376,9261.178051898703,-16124.767208154157,22.93168860777651,9289.320867624469,47459.44295490364,8.165669331530616,9314.234997658046,-17784.598501064796,20.383723206912453,9491.299697532322,2163.3165963598144,9.424171596904916,0.6849467724869761,341.0,325.0,79.0,180.0,259.0,16.0,575.0,576.0,16.0,8.0,8.0,0.5,63.9453792024422,482.56339602525713,32.0,19.0,13.0,0.59375,878.9226529144275,14434.663378153378,16.0,8.0,8.0,0.5,2581.869070001692,29398.076467396422,23.0,10.0,13.0,0.4347826086956521,1393.2954963434736,30135.032055018884,31.0,15.0,16.0,0.4838709677419355,66.53281092183855,1952.9047244651429,0.0,0.0,0.0,0.0,8907.0,8923.0,9248.0,9274.0,9281.0,9297.0,9304.0,9327.0,9476.0,9507.0,0.11357402668480586,-0.05450761809881906,0.05440158816139088,-0.07834281421984615,0.030755004160645034
16,16,0.0,0.0,0.0,0.0,0.0,0.0,0.0,0.0,0.0,0.0,0.0,0.0,0.0,0.0,0.0,0.0,0.0,0.0,0.0,0.0,0.0,0.0,0.0,0.0,0.0,0.0,0.0,0.0,0.0,0.0,0.0,0.0,0.0,0.0,0.0,0.0,0.0,0.0,0.0,0.0,0.0,0.0,0.0,0.0,0.0,0.0,0.0,0.0,0.0,0.0,0.0,0.0,0.0,0.0,0.0,0.0,0.0,0.0,,,,,,,,,,,,,,,
17,17,0.0,0.0,0.0,0.0,0.0,0.0,0.0,0.0,0.0,0.0,0.0,0.0,0.0,0.0,0.0,0.0,0.0,0.0,0.0,0.0,0.0,0.0,0.0,0.0,0.0,0.0,0.0,0.0,0.0,0.0,0.0,0.0,0.0,0.0,0.0,0.0,0.0,0.0,0.0,0.0,0.0,0.0,0.0,0.0,0.0,0.0,0.0,0.0,0.0,0.0,0.0,0.0,0.0,0.0,0.0,0.0,0.0,0.0,,10087.0,10425.0,10451.0,10457.0,10474.0,10481.0,10505.0,10654.0,10681.0,,,,,
18,18,0.0,0.0,0.0,0.0,0.0,0.0,0.0,0.0,0.0,0.0,0.0,0.0,0.0,0.0,0.0,0.0,0.0,0.0,0.0,0.0,0.0,0.0,0.0,0.0,0.0,0.0,0.0,0.0,0.0,0.0,0.0,0.0,0.0,0.0,0.0,0.0,0.0,0.0,0.0,0.0,0.0,0.0,0.0,0.0,0.0,0.0,0.0,0.0,0.0,0.0,0.0,0.0,0.0,0.0,0.0,0.0,0.0,0.0,,10677.0,11013.0,11043.0,11049.0,11066.0,11072.0,11098.0,11247.0,11271.0,,,,,
19,19,11259.526110756176,235.64367735915852,3.3501879727388473,11612.178051898703,-16410.535631054954,22.93168860777651,11640.286896994436,45972.98983161843,8.121110328811154,11667.821948095185,-17074.37800682981,22.93168860777651,11842.46129641254,1030.527890898691,7.08624567727699,0.6369477201071244,344.0,333.0,82.0,174.0,256.0,11.0,2345.0,2351.0,11.0,6.0,5.0,0.5454545454545454,58.93683525545905,4190.635817384178,52.0,38.0,14.0,0.7307692307692307,857.9610130483422,15159.177232453145,17.0,8.0,9.0,0.4705882352941176,2498.3296666737533,28563.21386775717,27.0,13.0,14.0,0.4814814814814814,1032.270997520096,22951.4049388485,23.0,11.0,12.0,0.4782608695652174,60.18454484975334,981.3737007044816,0.0,0.0,0.0,0.0,11254.0,11265.0,11598.0,11625.0,11632.0,11649.0,11655.0,11680.0,11831.0,11854.0,0.2501099792532516,-0.052281109668642065,0.05434342373259134,-0.060457311950525165,0.05840166518663389
20,20,11842.340194695966,454.5328148156189,4.999466310317079,12194.178051898703,-18103.0028694463,22.93168860777651,12221.998192198467,46968.08742952872,8.207393356038816,12248.397287201136,-19286.73368347339,20.383723206912453,12423.246579627152,459.3313123521499,4.948399417282831,0.6281426621314544,341.0,324.0,87.0,169.0,256.0,17.0,583.0,582.0,17.0,8.0,9.0,0.4705882352941176,59.99413950843664,427.3560316706198,95.0,82.0,13.0,0.8631578947368421,902.8652927264368,15533.625702247611,16.0,8.0,8.0,0.5,2581.863171637931,27350.182737435956,26.0,12.0,14.0,0.4615384615384615,1250.9716510283374,28514.014870188763,16.0,8.0,8.0,0.5,61.352066893425096,491.6657351752192,0.0,0.0,0.0,0.0,11834.0,11851.0,12175.0,12207.0,12214.0,12230.0,12237.0,12262.0,12415.0,12431.0,0.13199077723964384,-0.04987378609160282,0.05497058349484164,-0.06486176827859051,0.13356822242152971
21,21,0.0,0.0,0.0,0.0,0.0,0.0,0.0,0.0,0.0,0.0,0.0,0.0,0.0,0.0,0.0,0.0,0.0,0.0,0.0,0.0,0.0,0.0,0.0,0.0,0.0,0.0,0.0,0.0,0.0,0.0,0.0,0.0,0.0,0.0,0.0,0.0,0.0,0.0,0.0,0.0,0.0,0.0,0.0,0.0,0.0,0.0,0.0,0.0,0.0,0.0,0.0,0.0,0.0,0.0,0.0,0.0,0.0,0.0,,12430.0,12769.0,12796.0,12803.0,12819.0,12826.0,12850.0,13006.0,13023.0,,,,,
22,22,0.0,0.0,0.0,0.0,0.0,0.0,0.0,0.0,0.0,0.0,0.0,0.0,0.0,0.0,0.0,0.0,0.0,0.0,0.0,0.0,0.0,0.0,0.0,0.0,0.0,0.0,0.0,0.0,0.0,0.0,0.0,0.0,0.0,0.0,0.0,0.0,0.0,0.0,0.0,0.0,0.0,0.0,0.0,0.0,0.0,0.0,0.0,0.0,0.0,0.0,0.0,0.0,0.0,0.0,0.0,0.0,0.0,0.0,,13026.0,13371.0,13397.0,13404.0,13421.0,13427.0,13452.0,13606.0,13627.0,,,,,
23,23,0.0,0.0,0.0,0.0,0.0,0.0,0.0,0.0,0.0,0.0,0.0,0.0,0.0,0.0,0.0,0.0,0.0,0.0,0.0,0.0,0.0,0.0,0.0,0.0,0.0,0.0,0.0,0.0,0.0,0.0,0.0,0.0,0.0,0.0,0.0,0.0,0.0,0.0,0.0,0.0,0.0,0.0,0.0,0.0,0.0,0.0,0.0,0.0,0.0,0.0,0.0,0.0,0.0,0.0,0.0,0.0,0.0,0.0,,13631.0,13973.0,13998.0,14005.0,14021.0,14028.0,14052.0,14198.0,14232.0,,,,,
24,24,0.0,0.0,0.0,0.0,0.0,0.0,0.0,0.0,0.0,0.0,0.0,0.0,0.0,0.0,0.0,0.0,0.0,0.0,0.0,0.0,0.0,0.0,0.0,0.0,0.0,0.0,0.0,0.0,0.0,0.0,0.0,0.0,0.0,0.0,0.0,0.0,0.0,0.0,0.0,0.0,0.0,0.0,0.0,0.0,0.0,0.0,0.0,0.0,0.0,0.0,0.0,0.0,0.0,0.0,0.0,0.0,0.0,0.0,,14238.0,14580.0,14606.0,14613.0,14629.0,14636.0,14660.0,14808.0,14840.0,,,,,
25,25,0.0,0.0,0.0,0.0,0.0,0.0,0.0,0.0,0.0,0.0,0.0,0.0,0.0,0.0,0.0,0.0,0.0,0.0,0.0,0.0,0.0,0.0,0.0,0.0,0.0,0.0,0.0,0.0,0.0,0.0,0.0,0.0,0.0,0.0,0.0,0.0,0.0,0.0,0.0,0.0,0.0,0.0,0.0,0.0,0.0,0.0,0.0,0.0,0.0,0.0,0.0,0.0,0.0,0.0,0.0,0.0,0.0,0.0,,14836.0,15189.0,15215.0,15221.0,15238.0,15245.0,15268.0,15421.0,15446.0,,,,,
26,26,0.0,0.0,0.0,0.0,0.0,0.0,0.0,0.0,0.0,0.0,0.0,0.0,0.0,0.0,0.0,0.0,0.0,0.0,0.0,0.0,0.0,0.0,0.0,0.0,0.0,0.0,0.0,0.0,0.0,0.0,0.0,0.0,0.0,0.0,0.0,0.0,0.0,0.0,0.0,0.0,0.0,0.0,0.0,0.0,0.0,0.0,0.0,0.0,0.0,0.0,0.0,0.0,0.0,0.0,0.0,0.0,0.0,0.0,,15452.0,15806.0,15831.0,15838.0,15855.0,15861.0,15883.0,16031.0,16066.0,,,,,
27,27,0.0,0.0,0.0,0.0,0.0,0.0,0.0,0.0,0.0,0.0,0.0,0.0,0.0,0.0,0.0,0.0,0.0,0.0,0.0,0.0,0.0,0.0,0.0,0.0,0.0,0.0,0.0,0.0,0.0,0.0,0.0,0.0,0.0,0.0,0.0,0.0,0.0,0.0,0.0,0.0,0.0,0.0,0.0,0.0,0.0,0.0,0.0,0.0,0.0,0.0,0.0,0.0,0.0,0.0,0.0,0.0,0.0,0.0,,16085.0,16429.0,16451.0,16458.0,16476.0,16482.0,16503.0,16645.0,16695.0,,,,,
28,28,0.0,0.0,0.0,0.0,0.0,0.0,0.0,0.0,0.0,0.0,0.0,0.0,0.0,0.0,0.0,0.0,0.0,0.0,0.0,0.0,0.0,0.0,0.0,0.0,0.0,0.0,0.0,0.0,0.0,0.0,0.0,0.0,0.0,0.0,0.0,0.0,0.0,0.0,0.0,0.0,0.0,0.0,0.0,0.0,0.0,0.0,0.0,0.0,0.0,0.0,0.0,0.0,0.0,0.0,0.0,0.0,0.0,0.0,,16684.0,17043.0,17069.0,17076.0,17092.0,17099.0,17124.0,17273.0,17300.0,,,,,
29,29,0.0,0.0,0.0,0.0,0.0,0.0,0.0,0.0,0.0,0.0,0.0,0.0,0.0,0.0,0.0,0.0,0.0,0.0,0.0,0.0,0.0,0.0,0.0,0.0,0.0,0.0,0.0,0.0,0.0,0.0,0.0,0.0,0.0,0.0,0.0,0.0,0.0,0.0,0.0,0.0,0.0,0.0,0.0,0.0,0.0,0.0,0.0,0.0,0.0,0.0,0.0,0.0,0.0,0.0,0.0,0.0,0.0,0.0,,17294.0,17639.0,17668.0,17675.0,17691.0,17697.0,17724.0,17883.0,17887.0,,,,,
30,30,0.0,0.0,0.0,0.0,0.0,0.0,0.0,0.0,0.0,0.0,0.0,0.0,0.0,0.0,0.0,0.0,0.0,0.0,0.0,0.0,0.0,0.0,0.0,0.0,0.0,0.0,0.0,0.0,0.0,0.0,0.0,0.0,0.0,0.0,0.0,0.0,0.0,0.0,0.0,0.0,0.0,0.0,0.0,0.0,0.0,0.0,0.0,0.0,0.0,0.0,0.0,0.0,0.0,0.0,0.0,0.0,0.0,0.0,,17892.0,18232.0,18262.0,18268.0,18285.0,18291.0,18316.0,18471.0,18488.0,,,,,
31,31,0.0,0.0,0.0,0.0,0.0,0.0,0.0,0.0,0.0,0.0,0.0,0.0,0.0,0.0,0.0,0.0,0.0,0.0,0.0,0.0,0.0,0.0,0.0,0.0,0.0,0.0,0.0,0.0,0.0,0.0,0.0,0.0,0.0,0.0,0.0,0.0,0.0,0.0,0.0,0.0,0.0,0.0,0.0,0.0,0.0,0.0,0.0,0.0,0.0,0.0,0.0,0.0,0.0,0.0,0.0,0.0,0.0,0.0,,18488.0,18833.0,18860.0,18866.0,18883.0,18890.0,18913.0,19064.0,19090.0,,,,,
32,32,0.0,0.0,0.0,0.0,0.0,0.0,0.0,0.0,0.0,0.0,0.0,0.0,0.0,0.0,0.0,0.0,0.0,0.0,0.0,0.0,0.0,0.0,0.0,0.0,0.0,0.0,0.0,0.0,0.0,0.0,0.0,0.0,0.0,0.0,0.0,0.0,0.0,0.0,0.0,0.0,0.0,0.0,0.0,0.0,0.0,0.0,0.0,0.0,0.0,0.0,0.0,0.0,0.0,0.0,0.0,0.0,0.0,0.0,,19101.0,19447.0,19472.0,19479.0,19496.0,19502.0,19525.0,19673.0,19708.0,,,,,
33,33,0.0,0.0,0.0,0.0,0.0,0.0,0.0,0.0,0.0,0.0,0.0,0.0,0.0,0.0,0.0,0.0,0.0,0.0,0.0,0.0,0.0,0.0,0.0,0.0,0.0,0.0,0.0,0.0,0.0,0.0,0.0,0.0,0.0,0.0,0.0,0.0,0.0,0.0,0.0,0.0,0.0,0.0,0.0,0.0,0.0,0.0,0.0,0.0,0.0,0.0,0.0,0.0,0.0,0.0,0.0,0.0,0.0,0.0,,19710.0,20059.0,20083.0,20090.0,20107.0,20114.0,20137.0,20284.0,20319.0,,,,,
34,34,0.0,0.0,0.0,0.0,0.0,0.0,0.0,0.0,0.0,0.0,0.0,0.0,0.0,0.0,0.0,0.0,0.0,0.0,0.0,0.0,0.0,0.0,0.0,0.0,0.0,0.0,0.0,0.0,0.0,0.0,0.0,0.0,0.0,0.0,0.0,0.0,0.0,0.0,0.0,0.0,0.0,0.0,0.0,0.0,0.0,0.0,0.0,0.0,0.0,0.0,0.0,0.0,0.0,0.0,0.0,0.0,0.0,0.0,,20312.0,20657.0,20686.0,20693.0,20709.0,20716.0,20741.0,20891.0,20914.0,,,,,
35,35,0.0,0.0,0.0,0.0,0.0,0.0,0.0,0.0,0.0,0.0,0.0,0.0,0.0,0.0,0.0,0.0,0.0,0.0,0.0,0.0,0.0,0.0,0.0,0.0,0.0,0.0,0.0,0.0,0.0,0.0,0.0,0.0,0.0,0.0,0.0,0.0,0.0,0.0,0.0,0.0,0.0,0.0,0.0,0.0,0.0,0.0,0.0,0.0,0.0,0.0,0.0,0.0,0.0,0.0,0.0,0.0,0.0,0.0,,20915.0,21259.0,21287.0,21294.0,21311.0,21317.0,21342.0,21498.0,21514.0,,,,,
36,36,0.0,0.0,0.0,0.0,0.0,0.0,0.0,0.0,0.0,0.0,0.0,0.0,0.0,0.0,0.0,0.0,0.0,0.0,0.0,0.0,0.0,0.0,0.0,0.0,0.0,0.0,0.0,0.0,0.0,0.0,0.0,0.0,0.0,0.0,0.0,0.0,0.0,0.0,0.0,0.0,0.0,0.0,0.0,0.0,0.0,0.0,0.0,0.0,0.0,0.0,0.0,0.0,0.0,0.0,0.0,0.0,0.0,0.0,,21515.0,21859.0,21887.0,21893.0,21910.0,21916.0,21941.0,22094.0,22116.0,,,,,
37,37,0.0,0.0,0.0,0.0,0.0,0.0,0.0,0.0,0.0,0.0,0.0,0.0,0.0,0.0,0.0,0.0,0.0,0.0,0.0,0.0,0.0,0.0,0.0,0.0,0.0,0.0,0.0,0.0,0.0,0.0,0.0,0.0,0.0,0.0,0.0,0.0,0.0,0.0,0.0,0.0,0.0,0.0,0.0,0.0,0.0,0.0,0.0,0.0,0.0,0.0,0.0,0.0,0.0,0.0,0.0,0.0,0.0,0.0,,22128.0,22471.0,22493.0,22500.0,22518.0,22524.0,22546.0,22694.0,22731.0,,,,,
38,38,0.0,0.0,0.0,0.0,0.0,0.0,0.0,0.0,0.0,0.0,0.0,0.0,0.0,0.0,0.0,0.0,0.0,0.0,0.0,0.0,0.0,0.0,0.0,0.0,0.0,0.0,0.0,0.0,0.0,0.0,0.0,0.0,0.0,0.0,0.0,0.0,0.0,0.0,0.0,0.0,0.0,0.0,0.0,0.0,0.0,0.0,0.0,0.0,0.0,0.0,0.0,0.0,0.0,0.0,0.0,0.0,0.0,0.0,,22732.0,23080.0,23106.0,23112.0,23129.0,23136.0,23159.0,23308.0,23341.0,,,,,
39,39,0.0,0.0,0.0,0.0,0.0,0.0,0.0,0.0,0.0,0.0,0.0,0.0,0.0,0.0,0.0,0.0,0.0,0.0,0.0,0.0,0.0,0.0,0.0,0.0,0.0,0.0,0.0,0.0,0.0,0.0,0.0,0.0,0.0,0.0,0.0,0.0,0.0,0.0,0.0,0.0,0.0,0.0,0.0,0.0,0.0,0.0,0.0,0.0,0.0,0.0,0.0,0.0,0.0,0.0,0.0,0.0,0.0,0.0,,23355.0,23701.0,23723.0,23730.0,23748.0,23754.0,23777.0,23917.0,23965.0,,,,,
40,40,0.0,0.0,0.0,0.0,0.0,0.0,0.0,0.0,0.0,0.0,0.0,0.0,0.0,0.0,0.0,0.0,0.0,0.0,0.0,0.0,0.0,0.0,0.0,0.0,0.0,0.0,0.0,0.0,0.0,0.0,0.0,0.0,0.0,0.0,0.0,0.0,0.0,0.0,0.0,0.0,0.0,0.0,0.0,0.0,0.0,0.0,0.0,0.0,0.0,0.0,0.0,0.0,0.0,0.0,0.0,0.0,0.0,0.0,,23956.0,24305.0,24333.0,24340.0,24356.0,24363.0,24388.0,24541.0,24560.0,,,,,
41,41,0.0,0.0,0.0,0.0,0.0,0.0,0.0,0.0,0.0,0.0,0.0,0.0,0.0,0.0,0.0,0.0,0.0,0.0,0.0,0.0,0.0,0.0,0.0,0.0,0.0,0.0,0.0,0.0,0.0,0.0,0.0,0.0,0.0,0.0,0.0,0.0,0.0,0.0,0.0,0.0,0.0,0.0,0.0,0.0,0.0,0.0,0.0,0.0,0.0,0.0,0.0,0.0,0.0,0.0,0.0,0.0,0.0,0.0,,24562.0,24905.0,24933.0,24940.0,24956.0,24963.0,24987.0,25143.0,25161.0,,,,,
42,42,25152.22035243231,249.646235606658,3.5461691020701576,25515.178051898707,-18172.57012104659,22.93168860777651,25543.185973587755,47523.42770150057,8.170670509293052,25570.82194810109,-18461.806133124497,22.93168860777651,25746.439199041368,564.6804363618108,5.347136995625661,0.6089539411873677,323.0,311.0,114.0,172.0,286.0,12.0,13309.0,13321.0,12.0,6.0,6.0,0.5,58.419633520081696,3858.193809417199,97.0,83.0,14.0,0.8556701030927835,869.4699478765186,16159.66909577963,16.0,8.0,8.0,0.5,2579.5716570282793,28328.480639419777,27.0,13.0,14.0,0.4814814814814814,1080.4222663028418,24113.10473923032,17.0,8.0,9.0,0.4705882352941176,64.08464618556827,618.7618156627095,0.0,0.0,0.0,0.0,25146.0,25158.0,25469.0,25528.0,25535.0,25551.0,25558.0,25583.0,25738.0,25755.0,0.23400967123785327,-0.04784518326714507,0.05428000002926616,-0.05852202425440538,0.11348834147409166
43,43,25746.352923295628,287.1862757114109,3.8479712910192543,26107.178051898707,-17511.730009299743,22.93168860777651,26134.525798296767,47994.92103797026,8.198616425233057,26161.82194810101,-18082.81635887523,22.93168860777651,26338.285037705537,652.432833917926,6.092276145990361,0.6130758392840641,350.0,337.0,84.0,174.0,258.0,13.0,594.0,592.0,13.0,6.0,7.0,0.4615384615384615,51.74256897014536,4794.551378058692,98.0,85.0,13.0,0.8673469387755102,935.4274232877812,14950.116604057124,17.0,9.0,8.0,0.5294117647058824,2590.058530961508,26945.01897417844,27.0,13.0,14.0,0.4814814814814814,1116.060662624402,24646.76083277817,20.0,10.0,10.0,0.5,58.37286838259936,699.8532016536406,0.0,0.0,0.0,0.0,25740.0,25753.0,26090.0,26120.0,26126.0,26143.0,26149.0,26174.0,26328.0,26348.0,0.180170757958297,-0.05341719080816201,0.05396526288505471,-0.06171940479153449,0.08946954436989982
44,44,26921.12546195487,2932.556780766443,11.171745550511298,27260.602712798853,-14014.671035136898,20.383723206912453,27288.045502654837,46971.61668007701,8.396311331672123,27310.276089398656,-17250.57411663428,20.383723206912453,27489.980591171126,4186.763339305544,13.622362645378503,0.7817350013058505,346.0,310.0,77.0,185.0,262.0,36.0,1176.0,1153.0,36.0,18.0,18.0,0.5,62.518613225210174,2631.831419881863,24.0,13.0,11.0,0.5416666666666666,1007.952617279095,11122.55419431168,17.0,9.0,8.0,0.5294117647058824,2487.881480248064,29048.336831883546,23.0,7.0,16.0,0.3043478260869565,1553.1789627611493,33246.58468886682,42.0,21.0,21.0,0.5,68.92855041943325,3796.48230705644,0.0,0.0,0.0,0.0,26903.0,26939.0,27249.0,27272.0,27279.0,27296.0,27303.0,27326.0,27469.0,27511.0,0.02131880740903183,-0.07192124700979462,0.052965634485033546,-0.09003636355867478,0.016463445586314508
45,45,27490.21730302408,1726.8965902353295,8.282389723719753,27828.178051898707,-15431.327734952944,22.93168860777651,27856.22523823378,48001.37878564135,8.202468118007888,27881.842724800055,-16579.01105526846,22.93168860777651,28058.57096126737,3095.822043618055,11.569684865970206,0.7136050541253477,338.0,311.0,79.0,183.0,262.0,27.0,567.0,568.0,27.0,13.0,14.0,0.4814814814814814,68.92855041943325,1568.7925625477883,30.0,17.0,13.0,0.5666666666666667,878.6384473107029,14124.938043873675,17.0,8.0,9.0,0.4705882352941176,2556.9382153411498,29979.40350022686,24.0,11.0,13.0,0.4583333333333333,1263.5488131614918,27187.26537313027,37.0,19.0,18.0,0.5135135135135135,62.87426224064056,2713.3365620835566,0.0,0.0,0.0,0.0,27477.0,27504.0,27815.0,27841.0,27848.0,27865.0,27871.0,27894.0,28040.0,28077.0,0.0399146948399731,-0.056938616197006214,0.05326801604511425,-0.0762137626272927,0.02030939161062374
46,46,28058.75049304891,1278.057389482926,7.784402481182934,28403.178051898707,-16017.733958075156,22.93168860777651,28431.339161876094,47492.21912546353,8.130691794110179,28456.742519057763,-17665.203355978625,20.383723206912453,28634.22765806224,2038.7126292754165,9.379271215852024,0.667134170064298,344.0,319.0,79.0,180.0,259.0,25.0,570.0,575.0,25.0,13.0,12.0,0.52,62.76277463213143,1146.0220915849404,30.0,17.0,13.0,0.5666666666666667,883.1401160864501,14391.430172875822,17.0,8.0,9.0,0.4705882352941176,2586.8612987000292,29751.773575097177,24.0,11.0,13.0,0.4583333333333333,1277.4161039145074,27591.39443277371,30.0,15.0,15.0,0.5,68.30951496010384,1936.8381288026012,0.0,0.0,0.0,0.0,28046.0,28071.0,28390.0,28416.0,28423.0,28440.0,28446.0,28469.0,28619.0,28649.0,0.049107947067638234,-0.05513514698133847,0.054469160345321746,-0.07231256149011031,0.03350620091286818
47,47,0.0,0.0,0.0,0.0,0.0,0.0,0.0,0.0,0.0,0.0,0.0,0.0,0.0,0.0,0.0,0.0,0.0,0.0,0.0,0.0,0.0,0.0,0.0,0.0,0.0,0.0,0.0,0.0,0.0,0.0,0.0,0.0,0.0,0.0,0.0,0.0,0.0,0.0,0.0,0.0,0.0,0.0,0.0,0.0,0.0,0.0,0.0,0.0,0.0,0.0,0.0,0.0,0.0,0.0,0.0,0.0,0.0,0.0,,28644.0,28979.0,29011.0,29018.0,29034.0,29040.0,29065.0,29217.0,29240.0,,,,,
48,48,0.0,0.0,0.0,0.0,0.0,0.0,0.0,0.0,0.0,0.0,0.0,0.0,0.0,0.0,0.0,0.0,0.0,0.0,0.0,0.0,0.0,0.0,0.0,0.0,0.0,0.0,0.0,0.0,0.0,0.0,0.0,0.0,0.0,0.0,0.0,0.0,0.0,0.0,0.0,0.0,0.0,0.0,0.0,0.0,0.0,0.0,0.0,0.0,0.0,0.0,0.0,0.0,0.0,0.0,0.0,0.0,0.0,0.0,,29250.0,29589.0,29614.0,29621.0,29638.0,29645.0,29669.0,29815.0,29849.0,,,,,
49,49,0.0,0.0,0.0,0.0,0.0,0.0,0.0,0.0,0.0,0.0,0.0,0.0,0.0,0.0,0.0,0.0,0.0,0.0,0.0,0.0,0.0,0.0,0.0,0.0,0.0,0.0,0.0,0.0,0.0,0.0,0.0,0.0,0.0,0.0,0.0,0.0,0.0,0.0,0.0,0.0,0.0,0.0,0.0,0.0,0.0,0.0,0.0,0.0,0.0,0.0,0.0,0.0,0.0,0.0,0.0,0.0,0.0,0.0,,29854.0,30194.0,30219.0,30225.0,30243.0,30249.0,30273.0,30417.0,30455.0,,,,,
50,50,0.0,0.0,0.0,0.0,0.0,0.0,0.0,0.0,0.0,0.0,0.0,0.0,0.0,0.0,0.0,0.0,0.0,0.0,0.0,0.0,0.0,0.0,0.0,0.0,0.0,0.0,0.0,0.0,0.0,0.0,0.0,0.0,0.0,0.0,0.0,0.0,0.0,0.0,0.0,0.0,0.0,0.0,0.0,0.0,0.0,0.0,0.0,0.0,0.0,0.0,0.0,0.0,0.0,0.0,0.0,0.0,0.0,0.0,,30451.0,30794.0,30823.0,30830.0,30846.0,30853.0,30877.0,31028.0,31053.0,,,,,
51,51,31041.247337466637,242.45837077915277,3.3627757955001445,31410.178051898707,-18664.668060224365,22.93168860777651,31438.101817577553,46549.502017012455,8.30011869679755,31464.397287201147,-19545.636398013645,20.383723206912453,31641.94793055459,633.3481853917963,5.1868686172228005,0.597244567194827,313.0,302.0,130.0,171.0,301.0,11.0,2982.0,3007.0,11.0,5.0,6.0,0.4545454545454545,65.32989427761916,4590.193163687744,97.0,84.0,13.0,0.865979381443299,897.8106314432781,16050.80490313392,16.0,8.0,8.0,0.5,2538.489265036467,27065.421464995077,27.0,11.0,16.0,0.4074074074074074,1231.497046524274,28893.72141183403,16.0,8.0,8.0,0.5,71.29292382906515,545.8606379242674,0.0,0.0,0.0,0.0,31036.0,31047.0,31349.0,31423.0,31430.0,31446.0,31453.0,31479.0,31634.0,31650.0,0.26944788116689106,-0.048102148323578904,0.054533113245953196,-0.06300623942075516,0.11256513474489951
52,52,31641.947313486424,918.4185839483686,6.1453701277384605,31982.178051898707,-16383.30306304424,22.93168860777651,32010.169620703808,47055.172117901,8.10801123439186,32037.82194806316,-16766.68781623911,22.93168860777651,32212.891970255187,1873.9779510960104,8.645315989497128,0.6393978434162283,336.0,316.0,81.0,178.0,259.0,20.0,601.0,572.0,20.0,10.0,10.0,0.5,71.29292382906517,815.8475177080595,97.0,84.0,13.0,0.865979381443299,870.8086639646984,14681.339405639592,17.0,8.0,9.0,0.4705882352941176,2556.8155013451233,29432.18403409725,26.0,13.0,13.0,0.5,1054.5150122998118,22584.881763848854,28.0,14.0,14.0,0.5,74.88189228703568,1731.5605817622004,0.0,0.0,0.0,0.0,31632.0,31652.0,31968.0,31995.0,32002.0,32019.0,32025.0,32049.0,32199.0,32227.0,0.07762574176425104,-0.05315220383910119,0.054336545511698274,-0.06289346016680038,0.03995879046668635
53,53,32212.718439038737,1500.4325920084923,7.58421773483986,32553.178051898707,-16199.55465067017,22.93168860777651,32581.39728165032,47466.35784898455,8.102282285842989,32608.821948089448,-16874.60705599408,22.93168860777651,32784.04162691257,1924.1439428323877,9.447981475307408,0.65661871940859,338.0,314.0,81.0,179.0,260.0,24.0,572.0,571.0,24.0,12.0,12.0,0.5,74.73640009414117,1325.910024087429,96.0,82.0,14.0,0.8541666666666666,848.6387844475404,14687.528033682636,17.0,8.0,9.0,0.4705882352941176,2572.842527837788,30306.253448519285,26.0,13.0,13.0,0.5,1085.3348609234322,23164.491289987935,30.0,15.0,15.0,0.5,62.78820659106805,1809.1267611517796,0.0,0.0,0.0,0.0,32201.0,32225.0,32539.0,32566.0,32573.0,32590.0,32596.0,32620.0,32769.0,32799.0,0.04980990181911363,-0.05238655029398802,0.05420349579007838,-0.06431763757947223,0.032631761685480896
54,54,32784.2431252423,880.438238366267,6.467225654737918,33133.178051898714,-16562.066020568956,22.93168860777651,33160.55278099068,47894.531885853015,8.116091034567393,33187.82194804892,-17052.558581439822,22.93168860777651,33364.13932454954,1779.3999298658978,9.05946668846611,0.6560770256604473,344.0,323.0,81.0,180.0,261.0,21.0,571.0,580.0,21.0,10.0,11.0,0.4761904761904761,62.80779999536701,844.8300738588218,36.0,23.0,13.0,0.6388888888888888,932.157158240573,14267.491991765624,17.0,9.0,8.0,0.5294117647058824,2593.497775484876,27758.070010320385,26.0,13.0,13.0,0.5,1120.192260559642,23802.81633299681,29.0,14.0,15.0,0.4827586206896552,63.21205056871289,1673.2219093685972,0.0,0.0,0.0,0.0,32774.0,32795.0,33118.0,33146.0,33152.0,33169.0,33175.0,33199.0,33350.0,33379.0,0.07133697431396503,-0.056282661660863896,0.054150185279312396,-0.06569056808746991,0.03552436386432632
55,55,0.0,0.0,0.0,0.0,0.0,0.0,0.0,0.0,0.0,0.0,0.0,0.0,0.0,0.0,0.0,0.0,0.0,0.0,0.0,0.0,0.0,0.0,0.0,0.0,0.0,0.0,0.0,0.0,0.0,0.0,0.0,0.0,0.0,0.0,0.0,0.0,0.0,0.0,0.0,0.0,0.0,0.0,0.0,0.0,0.0,0.0,0.0,0.0,0.0,0.0,0.0,0.0,0.0,0.0,0.0,0.0,0.0,0.0,,33372.0,33711.0,33740.0,33746.0,33763.0,33769.0,33794.0,33945.0,33968.0,,,,,
56,56,0.0,0.0,0.0,0.0,0.0,0.0,0.0,0.0,0.0,0.0,0.0,0.0,0.0,0.0,0.0,0.0,0.0,0.0,0.0,0.0,0.0,0.0,0.0,0.0,0.0,0.0,0.0,0.0,0.0,0.0,0.0,0.0,0.0,0.0,0.0,0.0,0.0,0.0,0.0,0.0,0.0,0.0,0.0,0.0,0.0,0.0,0.0,0.0,0.0,0.0,0.0,0.0,0.0,0.0,0.0,0.0,0.0,0.0,,33967.0,34305.0,34333.0,34340.0,34356.0,34363.0,34389.0,34538.0,34562.0,,,,,
57,57,34549.99932494084,235.6965350580388,3.3969461477351133,34904.753390998565,-17487.893173026787,25.47965400864057,34933.55265108868,46892.15775580171,8.317582031009078,34960.82194810119,-17699.117606660093,22.931688607776508,35135.15324425877,515.5140663809826,5.200006223921051,0.6010741414817301,343.0,331.0,88.0,169.0,257.0,12.0,1764.0,1772.0,12.0,6.0,6.0,0.5,62.73250555109679,4694.404976725757,99.0,85.0,14.0,0.8585858585858586,851.9968812078013,16255.36832044528,17.0,9.0,8.0,0.5294117647058824,2479.5883714353527,25602.70422576573,30.0,13.0,17.0,0.4333333333333333,1018.8272462465555,24256.221813430493,17.0,8.0,9.0,0.4705882352941176,62.2222204770948,509.6117714052507,0.0,0.0,0.0,0.0,34544.0,34556.0,34887.0,34919.0,34925.0,34942.0,34948.0,34975.0,35127.0,35144.0,0.26615794557883216,-0.048719240950185795,0.05287853001664371,-0.05756373107906666,0.12069936503170108
58,58,35135.1114339985,1362.4106971102713,8.014861637034182,35476.178051898714,-16287.68284214712,22.93168860777651,35503.491058488886,46430.44896954312,8.156047913990442,35530.82194763046,-16434.55533635928,22.93168860777651,35706.05317976963,1940.1086040553716,9.081525966403644,0.677931970354908,340.0,314.0,81.0,178.0,259.0,26.0,587.0,571.0,26.0,13.0,13.0,0.5,62.24544482948177,1296.621520912808,30.0,17.0,13.0,0.5666666666666667,938.9515267243854,14228.56344100296,17.0,8.0,9.0,0.4705882352941176,2488.411426452896,29587.093180388925,26.0,13.0,13.0,0.5,1058.0142904988293,22978.96179308917,29.0,14.0,15.0,0.4827586206896552,70.73759341141803,1824.00967348762,0.0,0.0,0.0,0.0,35122.0,35148.0,35462.0,35489.0,35495.0,35512.0,35518.0,35543.0,35692.0,35721.0,0.04568772467913449,-0.05764795003833758,0.05359438647869234,-0.06437742116198986,0.03646063589613314
59,59,35705.99345457581,2161.562547647282,9.25555549220726,36049.60271279886,-14563.266674918475,20.383723206912453,36077.2414811616,48832.63989292318,8.427764007929174,36098.38412378401,-17521.20276953994,20.383723206912453,36278.63329558062,3391.1194761194124,11.918931266440715,0.7475267984180571,347.0,317.0,76.0,183.0,259.0,30.0,571.0,573.0,30.0,15.0,15.0,0.5,70.72325540714128,1930.769273478942,25.0,13.0,12.0,0.52,1012.3460194350668,11688.814498299358,18.0,9.0,9.0,0.5,2563.3823471737637,30597.512718190315,23.0,6.0,17.0,0.2608695652173913,1705.834840883179,35122.077745531395,37.0,19.0,18.0,0.5135135135135135,70.93193127356469,3018.0534659985797,0.0,0.0,0.0,0.0,35691.0,35721.0,36038.0,36061.0,36068.0,36086.0,36092.0,36114.0,36260.0,36297.0,0.03271857919823735,-0.06951366352293578,0.052493216684467,-0.09735831856524822,0.02091696614438805
60,60,36278.50266058442,370.1221021977534,3.873873555953033,36631.178051898714,-17495.50770842342,22.93168860777651,36658.50309392355,47997.789404030096,8.18084647062625,36685.82194810125,-17776.708474502964,22.93168860777651,36861.46625639798,1028.6038762692408,6.836036111549318,0.6273822102495216,341.0,328.0,84.0,176.0,260.0,13.0,572.0,582.0,13.0,7.0,6.0,0.5384615384615384,70.93193127356466,287.339324918948,85.0,72.0,13.0,0.8470588235294118,938.7074990694332,14901.742738926858,17.0,9.0,8.0,0.5294117647058824,2592.448946464863,27093.94054864563,26.0,13.0,13.0,0.5,1122.941405370441,24388.026069537133,23.0,11.0,12.0,0.4782608695652174,64.44301174066956,1002.423683304458,0.0,0.0,0.0,0.0,36272.0,36285.0,36613.0,36644.0,36650.0,36667.0,36673.0,36697.0,36850.0,36873.0,0.1916446784787423,-0.05365420167929629,0.054011840517121615,-0.06316925357588385,0.06265095167092426
61,61,0.0,0.0,0.0,0.0,0.0,0.0,0.0,0.0,0.0,0.0,0.0,0.0,0.0,0.0,0.0,0.0,0.0,0.0,0.0,0.0,0.0,0.0,0.0,0.0,0.0,0.0,0.0,0.0,0.0,0.0,0.0,0.0,0.0,0.0,0.0,0.0,0.0,0.0,0.0,0.0,0.0,0.0,0.0,0.0,0.0,0.0,0.0,0.0,0.0,0.0,0.0,0.0,0.0,0.0,0.0,0.0,0.0,0.0,,36871.0,37204.0,37235.0,37241.0,37258.0,37264.0,37289.0,37447.0,37462.0,,,,,
62,62,0.0,0.0,0.0,0.0,0.0,0.0,0.0,0.0,0.0,0.0,0.0,0.0,0.0,0.0,0.0,0.0,0.0,0.0,0.0,0.0,0.0,0.0,0.0,0.0,0.0,0.0,0.0,0.0,0.0,0.0,0.0,0.0,0.0,0.0,0.0,0.0,0.0,0.0,0.0,0.0,0.0,0.0,0.0,0.0,0.0,0.0,0.0,0.0,0.0,0.0,0.0,0.0,0.0,0.0,0.0,0.0,0.0,0.0,,37478.0,37822.0,37845.0,37852.0,37869.0,37876.0,37898.0,38045.0,38084.0,,,,,
63,63,0.0,0.0,0.0,0.0,0.0,0.0,0.0,0.0,0.0,0.0,0.0,0.0,0.0,0.0,0.0,0.0,0.0,0.0,0.0,0.0,0.0,0.0,0.0,0.0,0.0,0.0,0.0,0.0,0.0,0.0,0.0,0.0,0.0,0.0,0.0,0.0,0.0,0.0,0.0,0.0,0.0,0.0,0.0,0.0,0.0,0.0,0.0,0.0,0.0,0.0,0.0,0.0,0.0,0.0,0.0,0.0,0.0,0.0,,38094.0,38439.0,38461.0,38468.0,38486.0,38492.0,38515.0,38658.0,38702.0,,,,,
64,64,0.0,0.0,0.0,0.0,0.0,0.0,0.0,0.0,0.0,0.0,0.0,0.0,0.0,0.0,0.0,0.0,0.0,0.0,0.0,0.0,0.0,0.0,0.0,0.0,0.0,0.0,0.0,0.0,0.0,0.0,0.0,0.0,0.0,0.0,0.0,0.0,0.0,0.0,0.0,0.0,0.0,0.0,0.0,0.0,0.0,0.0,0.0,0.0,0.0,0.0,0.0,0.0,0.0,0.0,0.0,0.0,0.0,0.0,,38707.0,39053.0,39076.0,39083.0,39100.0,39107.0,39129.0,39271.0,39316.0,,,,,
65,65,0.0,0.0,0.0,0.0,0.0,0.0,0.0,0.0,0.0,0.0,0.0,0.0,0.0,0.0,0.0,0.0,0.0,0.0,0.0,0.0,0.0,0.0,0.0,0.0,0.0,0.0,0.0,0.0,0.0,0.0,0.0,0.0,0.0,0.0,0.0,0.0,0.0,0.0,0.0,0.0,0.0,0.0,0.0,0.0,0.0,0.0,0.0,0.0,0.0,0.0,0.0,0.0,0.0,0.0,0.0,0.0,0.0,0.0,,39310.0,39655.0,39681.0,39688.0,39705.0,39711.0,39736.0,39889.0,39911.0,,,,,
66,66,0.0,0.0,0.0,0.0,0.0,0.0,0.0,0.0,0.0,0.0,0.0,0.0,0.0,0.0,0.0,0.0,0.0,0.0,0.0,0.0,0.0,0.0,0.0,0.0,0.0,0.0,0.0,0.0,0.0,0.0,0.0,0.0,0.0,0.0,0.0,0.0,0.0,0.0,0.0,0.0,0.0,0.0,0.0,0.0,0.0,0.0,0.0,0.0,0.0,0.0,0.0,0.0,0.0,0.0,0.0,0.0,0.0,0.0,,39917.0,40259.0,40284.0,40291.0,40308.0,40315.0,40338.0,40486.0,40519.0,,,,,
67,67,0.0,0.0,0.0,0.0,0.0,0.0,0.0,0.0,0.0,0.0,0.0,0.0,0.0,0.0,0.0,0.0,0.0,0.0,0.0,0.0,0.0,0.0,0.0,0.0,0.0,0.0,0.0,0.0,0.0,0.0,0.0,0.0,0.0,0.0,0.0,0.0,0.0,0.0,0.0,0.0,0.0,0.0,0.0,0.0,0.0,0.0,0.0,0.0,0.0,0.0,0.0,0.0,0.0,0.0,0.0,0.0,0.0,0.0,,40528.0,40871.0,40895.0,40902.0,40919.0,40926.0,40948.0,41096.0,41133.0,,,,,
68,68,0.0,0.0,0.0,0.0,0.0,0.0,0.0,0.0,0.0,0.0,0.0,0.0,0.0,0.0,0.0,0.0,0.0,0.0,0.0,0.0,0.0,0.0,0.0,0.0,0.0,0.0,0.0,0.0,0.0,0.0,0.0,0.0,0.0,0.0,0.0,0.0,0.0,0.0,0.0,0.0,0.0,0.0,0.0,0.0,0.0,0.0,0.0,0.0,0.0,0.0,0.0,0.0,0.0,0.0,0.0,0.0,0.0,0.0,,41139.0,41483.0,41507.0,41514.0,41531.0,41538.0,41560.0,41707.0,41745.0,,,,,
69,69,0.0,0.0,0.0,0.0,0.0,0.0,0.0,0.0,0.0,0.0,0.0,0.0,0.0,0.0,0.0,0.0,0.0,0.0,0.0,0.0,0.0,0.0,0.0,0.0,0.0,0.0,0.0,0.0,0.0,0.0,0.0,0.0,0.0,0.0,0.0,0.0,0.0,0.0,0.0,0.0,0.0,0.0,0.0,0.0,0.0,0.0,0.0,0.0,0.0,0.0,0.0,0.0,0.0,0.0,0.0,0.0,0.0,0.0,,41745.0,42088.0,42114.0,42120.0,42137.0,42144.0,42169.0,42315.0,42347.0,,,,,
70,70,0.0,0.0,0.0,0.0,0.0,0.0,0.0,0.0,0.0,0.0,0.0,0.0,0.0,0.0,0.0,0.0,0.0,0.0,0.0,0.0,0.0,0.0,0.0,0.0,0.0,0.0,0.0,0.0,0.0,0.0,0.0,0.0,0.0,0.0,0.0,0.0,0.0,0.0,0.0,0.0,0.0,0.0,0.0,0.0,0.0,0.0,0.0,0.0,0.0,0.0,0.0,0.0,0.0,0.0,0.0,0.0,0.0,0.0,,42341.0,42678.0,42707.0,42714.0,42730.0,42737.0,42763.0,42914.0,42936.0,,,,,
71,71,42924.78093410819,832.0445244093622,6.493721050196251,43275.178051898714,-16511.909271778677,22.93168860777651,43303.083268324786,46606.67669619542,8.127700919412332,43330.82194810034,-17084.539355061126,22.93168860777651,43506.62073971526,1370.704252695119,7.544972845290348,0.641348086607009,346.0,325.0,82.0,177.0,259.0,21.0,6646.0,6644.0,21.0,11.0,10.0,0.5238095238095238,57.95304965095802,709.6448662114462,96.0,83.0,13.0,0.8645833333333334,866.2847653762835,14650.459345622425,16.0,8.0,8.0,0.5,2534.573278856486,28528.962264133897,26.0,13.0,13.0,0.5,1043.9245677343283,22655.91618750626,24.0,12.0,12.0,0.5,71.12469225581403,1182.6053268588105,0.0,0.0,0.0,0.0,42914.0,42935.0,43260.0,43288.0,43295.0,43311.0,43318.0,43342.0,43495.0,43519.0,0.06965138036584852,-0.05246423966590549,0.05438219282138577,-0.061103465890350504,0.05188915998178787
72,72,43506.540510512394,1602.4306050519178,8.446429544275258,43844.178051898714,-15472.92269169164,22.93168860777651,43872.38597619103,48541.793542456486,8.25260719547253,43895.49979737855,-17645.840465997488,20.383723206912453,44073.22191606555,3383.2939966750055,11.843152674510124,0.7166131800198671,339.0,312.0,77.0,183.0,260.0,27.0,581.0,569.0,27.0,14.0,13.0,0.5185185185185185,71.12469225581398,1454.3338495167532,29.0,16.0,13.0,0.5517241379310345,885.3784466740458,14010.178137063656,17.0,8.0,9.0,0.4705882352941176,2590.656906661138,30006.792664679582,22.0,8.0,14.0,0.3636363636363636,1592.4282663789224,33760.27859345891,37.0,18.0,19.0,0.4864864864864865,70.01232987150564,3061.126818624,0.0,0.0,0.0,0.0,43493.0,43520.0,43832.0,43857.0,43864.0,43881.0,43887.0,43909.0,44055.0,44092.0,0.044385505388864925,-0.05722115105955126,0.053369616522208875,-0.09024383221912492,0.020693540064892837
73,73,44072.77728678062,721.986795174888,5.606211019720367,44416.178051898714,-17601.347557683388,22.93168860777651,44443.68726202536,48375.59103173704,8.174811319424453,44470.82194810126,-18455.54587793738,22.93168860777651,44646.719410916725,581.0942848097138,5.832529116405818,0.6205714052249982,335.0,317.0,84.0,173.0,257.0,18.0,566.0,572.0,18.0,9.0,9.0,0.5,70.12922584862129,693.3428642608915,96.0,83.0,13.0,0.8645833333333334,927.4653288663844,15304.084581188108,16.0,8.0,8.0,0.5,2619.551224597345,27460.772745557355,27.0,13.0,14.0,0.4814814814814814,1129.5084821245257,25173.185815319932,19.0,10.0,9.0,0.5263157894736842,56.92883848388601,527.626628300271,0.0,0.0,0.0,0.0,44064.0,44082.0,44399.0,44429.0,44436.0,44452.0,44458.0,44483.0,44637.0,44656.0,0.09713366825723423,-0.0526928592158573,0.054150268115148725,-0.06120157537441322,0.0979683331467079
74,74,44646.94961373688,730.2840926823076,5.798331501912949,44992.178051898714,-16074.329234531082,22.93168860777651,45019.913138635544,45617.31992014585,8.136505823683985,45046.39728720114,-17405.2188083508,20.383723206912453,45222.26141161687,2059.5986003217618,9.259201797031706,0.6775824419466966,342.0,322.0,81.0,177.0,258.0,20.0,576.0,576.0,20.0,10.0,10.0,0.5,56.89780921299971,601.4675936730082,29.0,16.0,13.0,0.5517241379310345,918.9044887033843,14274.092917059745,17.0,9.0,8.0,0.5294117647058824,2510.567787861102,27687.07302566173,26.0,11.0,15.0,0.4230769230769231,1174.0421890827013,26521.954924053345,30.0,15.0,15.0,0.5,63.27068549730123,1834.4780291582024,0.0,0.0,0.0,0.0,44637.0,44657.0,44979.0,45005.0,45011.0,45028.0,45035.0,45060.0,45207.0,45237.0,0.07791188358494305,-0.05716596165825581,0.05503540743419183,-0.06745345761004802,0.030719910902744223
75,75,45221.95504938939,589.5865535524719,4.916373985910886,45572.178051898714,-16819.18564671109,22.93168860777651,45600.14577640967,45635.8874443859,8.216792282490387,45627.821948101286,-16929.22597769994,22.93168860777651,45803.43150406379,1750.9869811574276,8.221584991330705,0.6415231561648596,344.0,328.0,83.0,176.0,259.0,16.0,574.0,580.0,16.0,8.0,8.0,0.5,63.27068549730123,558.2367889539787,88.0,75.0,13.0,0.8522727272727273,881.7714392914756,15263.563016894848,16.0,8.0,8.0,0.5,2461.722621030528,28123.51835108942,28.0,13.0,15.0,0.4642857142857143,977.5163060834906,22561.530793794213,27.0,13.0,14.0,0.4814814814814814,66.48510621676405,1556.169762495479,0.0,0.0,0.0,0.0,45214.0,45230.0,45558.0,45585.0,45592.0,45608.0,45615.0,45641.0,45790.0,45817.0,0.10731365075419802,-0.05242652395979123,0.053942692010328544,-0.057741346672974064,0.03797007455350493
76,76,45803.95749531471,772.0200438045412,5.9083322311710615,46150.178051898714,-15747.43163549982,22.93168860777651,46178.04923956633,46075.032935438954,8.146929332877681,46205.82194647821,-16178.620574236258,22.93168860777651,46380.908774026175,1831.7289097281375,9.215536182354034,0.6606083621409334,343.0,323.0,80.0,179.0,259.0,20.0,582.0,578.0,20.0,10.0,10.0,0.5,67.2021080651343,700.0919730092919,31.0,18.0,13.0,0.5806451612903226,880.4094939933797,14132.456491666811,17.0,8.0,9.0,0.4705882352941176,2491.361348498421,28861.47598101866,26.0,13.0,13.0,0.5,1000.7684137354228,21783.019432638495,30.0,15.0,15.0,0.5,63.69012508024231,1699.7386062434662,0.0,0.0,0.0,0.0,45794.0,45814.0,46137.0,46163.0,46170.0,46187.0,46193.0,46217.0,46366.0,46396.0,0.08704710273318814,-0.055908132473402906,0.054071830008007915,-0.06185746239262836,0.03477049728373567
77,77,0.0,0.0,0.0,0.0,0.0,0.0,0.0,0.0,0.0,0.0,0.0,0.0,0.0,0.0,0.0,0.0,0.0,0.0,0.0,0.0,0.0,0.0,0.0,0.0,0.0,0.0,0.0,0.0,0.0,0.0,0.0,0.0,0.0,0.0,0.0,0.0,0.0,0.0,0.0,0.0,0.0,0.0,0.0,0.0,0.0,0.0,0.0,0.0,0.0,0.0,0.0,0.0,0.0,0.0,0.0,0.0,0.0,0.0,,46389.0,46725.0,46755.0,46762.0,46778.0,46785.0,46810.0,46968.0,46979.0,,,,,
78,78,0.0,0.0,0.0,0.0,0.0,0.0,0.0,0.0,0.0,0.0,0.0,0.0,0.0,0.0,0.0,0.0,0.0,0.0,0.0,0.0,0.0,0.0,0.0,0.0,0.0,0.0,0.0,0.0,0.0,0.0,0.0,0.0,0.0,0.0,0.0,0.0,0.0,0.0,0.0,0.0,0.0,0.0,0.0,0.0,0.0,0.0,0.0,0.0,0.0,0.0,0.0,0.0,0.0,0.0,0.0,0.0,0.0,0.0,,46996.0,47342.0,47365.0,47372.0,47390.0,47396.0,47418.0,47565.0,47606.0,,,,,
79,79,0.0,0.0,0.0,0.0,0.0,0.0,0.0,0.0,0.0,0.0,0.0,0.0,0.0,0.0,0.0,0.0,0.0,0.0,0.0,0.0,0.0,0.0,0.0,0.0,0.0,0.0,0.0,0.0,0.0,0.0,0.0,0.0,0.0,0.0,0.0,0.0,0.0,0.0,0.0,0.0,0.0,0.0,0.0,0.0,0.0,0.0,0.0,0.0,0.0,0.0,0.0,0.0,0.0,0.0,0.0,0.0,0.0,0.0,,47625.0,47971.0,47992.0,47999.0,48016.0,48023.0,48043.0,48186.0,48238.0,,,,,
80,80,0.0,0.0,0.0,0.0,0.0,0.0,0.0,0.0,0.0,0.0,0.0,0.0,0.0,0.0,0.0,0.0,0.0,0.0,0.0,0.0,0.0,0.0,0.0,0.0,0.0,0.0,0.0,0.0,0.0,0.0,0.0,0.0,0.0,0.0,0.0,0.0,0.0,0.0,0.0,0.0,0.0,0.0,0.0,0.0,0.0,0.0,0.0,0.0,0.0,0.0,0.0,0.0,0.0,0.0,0.0,0.0,0.0,0.0,,48236.0,48588.0,48612.0,48619.0,48636.0,48642.0,48666.0,48811.0,48849.0,,,,,
81,81,0.0,0.0,0.0,0.0,0.0,0.0,0.0,0.0,0.0,0.0,0.0,0.0,0.0,0.0,0.0,0.0,0.0,0.0,0.0,0.0,0.0,0.0,0.0,0.0,0.0,0.0,0.0,0.0,0.0,0.0,0.0,0.0,0.0,0.0,0.0,0.0,0.0,0.0,0.0,0.0,0.0,0.0,0.0,0.0,0.0,0.0,0.0,0.0,0.0,0.0,0.0,0.0,0.0,0.0,0.0,0.0,0.0,0.0,,48857.0,49200.0,49223.0,49230.0,49248.0,49254.0,49276.0,49421.0,49464.0,,,,,
82,82,0.0,0.0,0.0,0.0,0.0,0.0,0.0,0.0,0.0,0.0,0.0,0.0,0.0,0.0,0.0,0.0,0.0,0.0,0.0,0.0,0.0,0.0,0.0,0.0,0.0,0.0,0.0,0.0,0.0,0.0,0.0,0.0,0.0,0.0,0.0,0.0,0.0,0.0,0.0,0.0,0.0,0.0,0.0,0.0,0.0,0.0,0.0,0.0,0.0,0.0,0.0,0.0,0.0,0.0,0.0,0.0,0.0,0.0,,49459.0,49801.0,49829.0,49836.0,49852.0,49859.0,49884.0,50038.0,50059.0,,,,,
83,83,0.0,0.0,0.0,0.0,0.0,0.0,0.0,0.0,0.0,0.0,0.0,0.0,0.0,0.0,0.0,0.0,0.0,0.0,0.0,0.0,0.0,0.0,0.0,0.0,0.0,0.0,0.0,0.0,0.0,0.0,0.0,0.0,0.0,0.0,0.0,0.0,0.0,0.0,0.0,0.0,0.0,0.0,0.0,0.0,0.0,0.0,0.0,0.0,0.0,0.0,0.0,0.0,0.0,0.0,0.0,0.0,0.0,0.0,,50067.0,50411.0,50436.0,50443.0,50459.0,50466.0,50489.0,50638.0,50675.0,,,,,
84,84,0.0,0.0,0.0,0.0,0.0,0.0,0.0,0.0,0.0,0.0,0.0,0.0,0.0,0.0,0.0,0.0,0.0,0.0,0.0,0.0,0.0,0.0,0.0,0.0,0.0,0.0,0.0,0.0,0.0,0.0,0.0,0.0,0.0,0.0,0.0,0.0,0.0,0.0,0.0,0.0,0.0,0.0,0.0,0.0,0.0,0.0,0.0,0.0,0.0,0.0,0.0,0.0,0.0,0.0,0.0,0.0,0.0,0.0,,50688.0,51031.0,51055.0,51061.0,51079.0,51085.0,51107.0,51254.0,51295.0,,,,,
85,85,0.0,0.0,0.0,0.0,0.0,0.0,0.0,0.0,0.0,0.0,0.0,0.0,0.0,0.0,0.0,0.0,0.0,0.0,0.0,0.0,0.0,0.0,0.0,0.0,0.0,0.0,0.0,0.0,0.0,0.0,0.0,0.0,0.0,0.0,0.0,0.0,0.0,0.0,0.0,0.0,0.0,0.0,0.0,0.0,0.0,0.0,0.0,0.0,0.0,0.0,0.0,0.0,0.0,0.0,0.0,0.0,0.0,0.0,,51308.0,51650.0,51672.0,51679.0,51696.0,51703.0,51725.0,51865.0,51916.0,,,,,
86,86,0.0,0.0,0.0,0.0,0.0,0.0,0.0,0.0,0.0,0.0,0.0,0.0,0.0,0.0,0.0,0.0,0.0,0.0,0.0,0.0,0.0,0.0,0.0,0.0,0.0,0.0,0.0,0.0,0.0,0.0,0.0,0.0,0.0,0.0,0.0,0.0,0.0,0.0,0.0,0.0,0.0,0.0,0.0,0.0,0.0,0.0,0.0,0.0,0.0,0.0,0.0,0.0,0.0,0.0,0.0,0.0,0.0,0.0,,51915.0,52256.0,52280.0,52287.0,52304.0,52311.0,52334.0,52481.0,52519.0,,,,,
87,87,0.0,0.0,0.0,0.0,0.0,0.0,0.0,0.0,0.0,0.0,0.0,0.0,0.0,0.0,0.0,0.0,0.0,0.0,0.0,0.0,0.0,0.0,0.0,0.0,0.0,0.0,0.0,0.0,0.0,0.0,0.0,0.0,0.0,0.0,0.0,0.0,0.0,0.0,0.0,0.0,0.0,0.0,0.0,0.0,0.0,0.0,0.0,0.0,0.0,0.0,0.0,0.0,0.0,0.0,0.0,0.0,0.0,0.0,,52510.0,52841.0,52885.0,52892.0,52908.0,52914.0,52940.0,53100.0,53112.0,,,,,
88,88,53105.90425271159,221.9805034407272,3.455181985625644,53461.753390998565,-17058.58877967945,25.47965400864057,53490.5177489662,47839.01897635151,8.16725828361162,53517.821948101235,-17417.73288421386,22.93168860777651,53694.88875761766,656.2946364412776,5.9210834353094866,0.6172773172777852,345.0,333.0,85.0,175.0,260.0,12.0,7301.0,7312.0,12.0,6.0,6.0,0.5,55.9805261294593,4088.685272785157,99.0,85.0,14.0,0.8585858585858586,845.0988979171891,15851.612960648818,17.0,9.0,8.0,0.5294117647058824,2565.536885238002,26393.64757644901,27.0,13.0,14.0,0.4814814814814814,1092.1834893821492,24097.31269956081,20.0,10.0,10.0,0.5,62.06119488596156,632.8355216976265,0.0,0.0,0.0,0.0,53100.0,53112.0,53445.0,53476.0,53482.0,53499.0,53505.0,53530.0,53685.0,53705.0,0.2521866797387776,-0.049540961965381845,0.05362854297882313,-0.0627052611635825,0.09456300789304795
89,89,0.0,0.0,0.0,0.0,0.0,0.0,0.0,0.0,0.0,0.0,0.0,0.0,0.0,0.0,0.0,0.0,0.0,0.0,0.0,0.0,0.0,0.0,0.0,0.0,0.0,0.0,0.0,0.0,0.0,0.0,0.0,0.0,0.0,0.0,0.0,0.0,0.0,0.0,0.0,0.0,0.0,0.0,0.0,0.0,0.0,0.0,0.0,0.0,0.0,0.0,0.0,0.0,0.0,0.0,0.0,0.0,0.0,0.0,,,,,,,,,,,,,,,
90,90,0.0,0.0,0.0,0.0,0.0,0.0,0.0,0.0,0.0,0.0,0.0,0.0,0.0,0.0,0.0,0.0,0.0,0.0,0.0,0.0,0.0,0.0,0.0,0.0,0.0,0.0,0.0,0.0,0.0,0.0,0.0,0.0,0.0,0.0,0.0,0.0,0.0,0.0,0.0,0.0,0.0,0.0,0.0,0.0,0.0,0.0,0.0,0.0,0.0,0.0,0.0,0.0,0.0,0.0,0.0,0.0,0.0,0.0,,54290.0,54626.0,54653.0,54660.0,54677.0,54683.0,54708.0,54856.0,54886.0,,,,,
91,91,54870.68060477193,1055.1400792337563,7.8743800311869085,55222.178051898714,-17091.863848630976,22.93168860777651,55249.75844990253,44986.138773028106,8.24469747057701,55276.39728720114,-17239.73252595283,20.383723206912453,55452.37895128717,1673.1036012245456,8.594780163003549,0.6664348524070889,350.0,324.0,82.0,177.0,259.0,26.0,1764.0,1760.0,26.0,13.0,13.0,0.5,48.970524276435846,986.8168555161652,81.0,68.0,13.0,0.8395061728395061,927.6835471985214,14705.184060698006,17.0,9.0,8.0,0.5294117647058824,2452.2610108253457,26763.54215742604,27.0,12.0,15.0,0.4444444444444444,1130.269426009547,25910.483321706008,29.0,14.0,15.0,0.4827586206896552,59.26148308465742,1537.562542761861,0.0,0.0,0.0,0.0,54858.0,54884.0,55208.0,55235.0,55241.0,55258.0,55265.0,55290.0,55438.0,55467.0,0.04641139621195916,-0.05427632442045383,0.054511480151651144,-0.06556188875367007,0.03542009176316631
92,92,55453.01878682942,2987.31292397621,12.206984280628305,55794.60271279886,-13041.309819757336,20.383723206912453,55821.9039993903,48236.83502194736,8.539970621895115,55841.60271279886,-16676.789988769564,20.383723206912453,56023.44757586369,4735.935968781551,15.704114966181535,0.8178531436890659,349.0,310.0,76.0,188.0,264.0,39.0,582.0,572.0,39.0,19.0,20.0,0.4871794871794871,57.70566364714508,2688.710361125767,24.0,13.0,11.0,0.5416666666666666,1016.3289461434427,9994.346321619889,17.0,9.0,8.0,0.5294117647058824,2470.6585407017424,29364.50283487956,23.0,5.0,18.0,0.217391304347826,1667.7922421703304,33824.22644971607,47.0,23.0,24.0,0.4893617021276595,58.56476571227286,4384.5804234172465,0.0,0.0,0.0,0.0,55434.0,55473.0,55783.0,55806.0,55813.0,55830.0,55837.0,55859.0,56000.0,56047.0,0.019316912930011018,-0.07793150842898645,0.05121933351509512,-0.10000679047307368,0.012366038328710817
93,93,56023.73667273676,2315.502739408031,10.645190463751248,56363.178051898714,-15145.290022332836,22.93168860777651,56391.27554425305,47344.09245276225,8.195987587219912,56416.7447494352,-16345.743877972283,22.93168860777651,56594.16425112024,2719.348897214023,10.802373059153869,0.7271150996526188,343.0,309.0,79.0,182.0,261.0,34.0,573.0,569.0,34.0,17.0,17.0,0.5,58.95287677957613,2109.0744206781987,29.0,16.0,13.0,0.5517241379310345,868.8349467393797,14036.706802958604,17.0,8.0,9.0,0.4705882352941176,2522.8350194010877,29716.23828271609,24.0,11.0,13.0,0.4583333333333333,1246.9034967729922,26838.50693042941,34.0,17.0,17.0,0.5,64.47154824522549,2448.712837605941,0.0,0.0,0.0,0.0,56007.0,56041.0,56350.0,56376.0,56383.0,56400.0,56406.0,56429.0,56577.0,56611.0,0.02546007645607351,-0.05736667607277372,0.05328721892637938,-0.07628306830705539,0.02370845032473644
94,94,56594.08312068533,788.6718032153797,5.86080157386152,56941.178051898714,-16401.170505969745,22.93168860777651,56969.003736417195,46790.488784541674,8.109434020592523,56995.39728720114,-17100.330637963503,20.383723206912453,57173.152668579874,2123.69916211683,9.143761460528516,0.6667522255469331,343.0,323.0,80.0,181.0,261.0,20.0,571.0,578.0,20.0,10.0,10.0,0.5,64.23894769578438,713.1770167606983,31.0,18.0,13.0,0.5806451612903226,906.2183845354388,14250.584658427208,16.0,8.0,8.0,0.5,2577.557052525293,29039.989740061657,24.0,11.0,13.0,0.4583333333333333,1243.4123380380736,26702.706621807993,30.0,15.0,15.0,0.5,68.52008722466586,1882.0211578292235,0.0,0.0,0.0,0.0,56584.0,56604.0,56927.0,56954.0,56961.0,56977.0,56984.0,57007.0,57158.0,57188.0,0.08145206590863913,-0.055253275015072295,0.055087200828234324,-0.07271276587352307,0.03226449793216823
95,95,57173.3320615269,395.700440772904,4.107425791704605,57529.178051898714,-17808.250253267677,22.93168860777651,57556.99855195669,46316.783730659234,8.19890083495264,57583.39728719882,-18699.552118134823,20.383723206912453,57760.021551717335,576.7564519569772,5.478150493281618,0.5982886561050172,345.0,332.0,85.0,172.0,257.0,13.0,578.0,588.0,13.0,6.0,7.0,0.4615384615384615,59.09702501128901,4421.698859013342,100.0,87.0,13.0,0.87,898.1284448130705,15328.350332493992,16.0,8.0,8.0,0.5,2546.0291811924926,27289.147492458887,27.0,12.0,15.0,0.4444444444444444,1224.2828357672663,27914.485169498115,18.0,9.0,9.0,0.5,62.98614531719334,542.4701603421618,0.0,0.0,0.0,0.0,57167.0,57180.0,57512.0,57542.0,57549.0,57565.0,57572.0,57597.0,57751.0,57769.0,0.1493478877502826,-0.05043327851079984,0.05496990455982714,-0.06547123845709422,0.10920752616373289
96,96,0.0,0.0,0.0,0.0,0.0,0.0,0.0,0.0,0.0,0.0,0.0,0.0,0.0,0.0,0.0,0.0,0.0,0.0,0.0,0.0,0.0,0.0,0.0,0.0,0.0,0.0,0.0,0.0,0.0,0.0,0.0,0.0,0.0,0.0,0.0,0.0,0.0,0.0,0.0,0.0,0.0,0.0,0.0,0.0,0.0,0.0,0.0,0.0,0.0,0.0,0.0,0.0,0.0,0.0,0.0,0.0,0.0,0.0,,57768.0,58105.0,58137.0,58143.0,58160.0,58166.0,58193.0,58345.0,58363.0,,,,,
97,97,0.0,0.0,0.0,0.0,0.0,0.0,0.0,0.0,0.0,0.0,0.0,0.0,0.0,0.0,0.0,0.0,0.0,0.0,0.0,0.0,0.0,0.0,0.0,0.0,0.0,0.0,0.0,0.0,0.0,0.0,0.0,0.0,0.0,0.0,0.0,0.0,0.0,0.0,0.0,0.0,0.0,0.0,0.0,0.0,0.0,0.0,0.0,0.0,0.0,0.0,0.0,0.0,0.0,0.0,0.0,0.0,0.0,0.0,,58366.0,58711.0,58738.0,58744.0,58761.0,58768.0,58792.0,58944.0,58969.0,,,,,
98,98,0.0,0.0,0.0,0.0,0.0,0.0,0.0,0.0,0.0,0.0,0.0,0.0,0.0,0.0,0.0,0.0,0.0,0.0,0.0,0.0,0.0,0.0,0.0,0.0,0.0,0.0,0.0,0.0,0.0,0.0,0.0,0.0,0.0,0.0,0.0,0.0,0.0,0.0,0.0,0.0,0.0,0.0,0.0,0.0,0.0,0.0,0.0,0.0,0.0,0.0,0.0,0.0,0.0,0.0,0.0,0.0,0.0,0.0,,58971.0,59312.0,59340.0,59347.0,59363.0,59370.0,59394.0,59547.0,59572.0,,,,,
99,99,0.0,0.0,0.0,0.0,0.0,0.0,0.0,0.0,0.0,0.0,0.0,0.0,0.0,0.0,0.0,0.0,0.0,0.0,0.0,0.0,0.0,0.0,0.0,0.0,0.0,0.0,0.0,0.0,0.0,0.0,0.0,0.0,0.0,0.0,0.0,0.0,0.0,0.0,0.0,0.0,0.0,0.0,0.0,0.0,0.0,0.0,0.0,0.0,0.0,0.0,0.0,0.0,0.0,0.0,0.0,0.0,0.0,0.0,,59569.0,59910.0,59940.0,59947.0,59963.0,59969.0,59994.0,60147.0,60170.0,,,,,
100,100,0.0,0.0,0.0,0.0,0.0,0.0,0.0,0.0,0.0,0.0,0.0,0.0,0.0,0.0,0.0,0.0,0.0,0.0,0.0,0.0,0.0,0.0,0.0,0.0,0.0,0.0,0.0,0.0,0.0,0.0,0.0,0.0,0.0,0.0,0.0,0.0,0.0,0.0,0.0,0.0,0.0,0.0,0.0,0.0,0.0,0.0,0.0,0.0,0.0,0.0,0.0,0.0,0.0,0.0,0.0,0.0,0.0,0.0,,,,,,,,,,,,,,,
101,101,60754.80321098277,2392.9470122807047,10.286665815316184,61090.178051898714,-13818.721761486791,22.93168860777651,61118.65201236786,50663.11354150104,8.503988472507508,61137.60271279886,-17924.209595980305,20.383723206912453,61320.72032422243,3890.7062812137137,13.489301543461636,0.7680375896039678,340.0,308.0,76.0,186.0,262.0,32.0,3583.0,3561.0,32.0,16.0,16.0,0.5,64.20408204858516,2123.199727568483,27.0,14.0,13.0,0.5185185185185185,863.4557549535403,12954.684770189586,17.0,9.0,8.0,0.5294117647058824,2572.426808177571,28248.41332184603,23.0,5.0,18.0,0.217391304347826,1795.843926308,36087.881408951886,41.0,21.0,20.0,0.5121951219512195,66.48658278262404,3491.4287070896594,0.0,0.0,0.0,0.0,60739.0,60771.0,61079.0,61103.0,61110.0,61127.0,61133.0,61155.0,61300.0,61341.0,0.02683054899213694,-0.06248448806314477,0.050775142472646285,-0.10019096890669796,0.017088563869150107
102,102,61320.52362181241,3028.62170816506,11.692223723700971,61649.178051898714,-14543.401809108578,22.93168860777651,61677.366642479305,49293.62166106105,8.379888859699554,61698.373070310176,-17668.715574700967,20.383723206912453,61879.064220452434,4072.581203001619,13.836581368351528,0.7657156126449278,335.0,298.0,77.0,186.0,263.0,37.0,565.0,559.0,37.0,19.0,18.0,0.5135135135135135,66.48658278262401,2682.941528626062,27.0,14.0,13.0,0.5185185185185185,880.95310895153,13196.557153444846,17.0,8.0,9.0,0.4705882352941176,2568.0726474080657,29916.900260153903,23.0,6.0,17.0,0.2608695652173913,1720.520761762902,35727.07002749129,42.0,21.0,21.0,0.5,68.39027997568292,3675.557286154298,0.0,0.0,0.0,0.0,61302.0,61339.0,61637.0,61662.0,61669.0,61686.0,61692.0,61714.0,61858.0,61900.0,0.02195275250236055,-0.06057407479450828,0.05209746334050935,-0.09737667429693858,0.01679285852551624
103,103,61878.89936084398,2865.465971994883,11.218229937863,62209.178051898714,-13860.940401002355,22.93168860777651,62237.40014519454,48558.69572653639,8.431816484639025,62257.80939586482,-17220.641639252055,20.383723206912453,62438.23198512587,4492.881595116011,14.759244526702211,0.7715229535295576,336.0,302.0,77.0,186.0,263.0,34.0,558.0,560.0,34.0,17.0,17.0,0.5,68.39027997568289,2563.2852410161836,26.0,13.0,13.0,0.5,884.1468516904628,12931.137505977378,18.0,9.0,9.0,0.5,2508.347654971933,29737.652013443538,24.0,6.0,18.0,0.25,1638.2310293534558,34425.62418163043,45.0,22.0,23.0,0.4888888888888889,62.70996281692963,4120.1801770380025,0.0,0.0,0.0,0.0,61862.0,61896.0,62198.0,62222.0,62228.0,62246.0,62252.0,62275.0,62416.0,62461.0,0.02386707106072206,-0.06378693119743345,0.051655993173662804,-0.09513182282472775,0.013957626411766231
104,104,62438.67986249509,4020.4589784316486,13.871176521455428,62770.60271279886,-12569.21889958974,20.383723206912453,62797.95838294491,47614.256887409305,8.436023653373848,62817.60271279886,-15844.425935043657,20.383723206912453,62999.42160786952,5669.653100984476,17.281248518063748,0.8316473110596357,342.0,300.0,75.0,190.0,265.0,42.0,560.0,561.0,42.0,21.0,21.0,0.5,62.9255709608817,3618.440284029234,23.0,12.0,11.0,0.5217391304347826,1009.2760595857412,9943.69543840041,17.0,9.0,8.0,0.5294117647058824,2463.8659981781902,29730.77802483259,23.0,5.0,18.0,0.217391304347826,1653.0382609338228,33100.76344334257,51.0,25.0,26.0,0.4901960784313725,65.69208234323541,5264.761801306538,0.0,0.0,0.0,0.0,62418.0,62460.0,62760.0,62782.0,62789.0,62806.0,62813.0,62835.0,62974.0,63025.0,0.01565134013267025,-0.08029743674992279,0.05174639192635837,-0.10432932488123421,0.01158661406141915
105,105,62999.322790850085,4243.9897881429215,14.231310043677071,63329.178051898714,-13323.681030381242,22.93168860777651,63357.82559669235,48615.49286340577,8.474634165372384,63377.027373699,-17322.08979064923,17.8357578060484,63559.03011927374,4852.325523145323,15.496852067565932,0.8191841819550333,341.0,298.0,75.0,188.0,263.0,43.0,561.0,559.0,43.0,21.0,22.0,0.4883720930232558,65.65663453272774,3903.512965793563,25.0,12.0,13.0,0.48,860.333421448532,12027.567115907306,18.0,10.0,8.0,0.5555555555555556,2524.525939742945,28500.073496129666,23.0,5.0,18.0,0.217391304347826,1750.3791165944087,34603.73442580936,46.0,23.0,23.0,0.5,65.98440095291984,4447.455323309162,0.0,0.0,0.0,0.0,62978.0,63021.0,63319.0,63342.0,63348.0,63366.0,63373.0,63394.0,63536.0,63582.0,0.015470497765136627,-0.06457175156676012,0.05192842427487196,-0.10104895758820592,0.013598510783783551
106,106,63559.27313544351,1399.1201075091683,7.410674579940869,63895.178051898714,-15532.615280605438,22.93168860777651,63923.34761836038,47804.91786077444,8.204565194271058,63947.511923042104,-17273.30624250886,20.383723206912453,64125.5479922849,2529.0053845902003,11.144783448970138,0.7072175185081142,335.0,310.0,79.0,182.0,261.0,25.0,560.0,566.0,25.0,12.0,13.0,0.48,65.96163852392361,1243.3191816162584,29.0,16.0,13.0,0.5517241379310345,881.9147793263803,13964.555349143897,17.0,8.0,9.0,0.4705882352941176,2574.559547076486,29973.58120786152,23.0,10.0,13.0,0.4347826086956521,1372.0086635997488,29283.72596736072,35.0,18.0,17.0,0.5142857142857142,55.83432320397836,2241.6975919553133,0.0,0.0,0.0,0.0,63547.0,63572.0,63882.0,63908.0,63915.0,63932.0,63938.0,63961.0,64108.0,64143.0,0.04714508652252457,-0.0567782542343381,0.053855537511319516,-0.07942941810545191,0.0220775817814345
107,107,64125.84460983762,644.4702866076725,5.908500245029304,64468.60271279886,-17407.32487172946,20.383723206912453,64495.25910805995,46787.93071766642,8.134772286788756,64522.821948101286,-17842.19571967244,22.93168860777651,64697.08470621458,1539.2973611366162,8.447122920737803,0.650935058331446,335.0,315.0,83.0,177.0,260.0,20.0,567.0,572.0,20.0,10.0,10.0,0.5,55.75609721800399,558.4232764486833,89.0,77.0,12.0,0.8651685393258427,1043.9460599134284,13059.186999128497,17.0,8.0,9.0,0.4705882352941176,2570.9849630883987,29502.211080184945,26.0,13.0,13.0,0.5,1090.1922604002236,23638.32677758891,28.0,14.0,14.0,0.5,62.470171232092135,1442.562134502602,0.0,0.0,0.0,0.0,64116.0,64136.0,64451.0,64480.0,64487.0,64504.0,64510.0,64534.0,64684.0,64711.0,0.08651461266195822,-0.059971653749558006,0.05494974716027852,-0.061101911307821825,0.04058356287050619
108,108,64696.23602545062,254.2889094991,3.555196429572488,65047.178051898714,-17753.82218686526,22.93168860777651,65075.11659142836,45696.63742234258,8.22622949835598,65101.39728720114,-18615.40625138806,20.383723206912453,65277.90526297908,891.1491168410588,6.909946539019856,0.6137812978632637,341.0,329.0,85.0,173.0,258.0,12.0,569.0,580.0,12.0,6.0,6.0,0.5,60.47194199916803,4807.418440489575,96.0,83.0,13.0,0.8645833333333334,889.7963584624908,15578.160600455716,16.0,8.0,8.0,0.5,2505.59566880692,27159.27205003269,27.0,11.0,16.0,0.4074074074074074,1191.6746320458983,27807.57742410424,22.0,11.0,11.0,0.5,57.69553784656197,838.4030268910597,0.0,0.0,0.0,0.0,64690.0,64702.0,65031.0,65060.0,65067.0,65083.0,65090.0,65116.0,65267.0,65289.0,0.23780801969809093,-0.050118580049809514,0.05483107314110277,-0.06401550500446591,0.06474285476608095
109,109,65278.62482003384,218.66413433007804,3.408160005139633,65631.17805189872,-15810.586123911246,22.93168860777651,65659.48714887728,45642.88851267527,8.15444062723234,65686.82194809947,-16615.387207605916,22.93168860777651,65862.17134427493,1156.444509770799,7.532050584233169,0.6342097246916216,345.0,334.0,81.0,175.0,256.0,11.0,583.0,584.0,11.0,6.0,5.0,0.5454545454545454,53.15003128695886,3868.3480325554137,98.0,84.0,14.0,0.8571428571428571,833.141224072456,14677.145699451412,17.0,8.0,9.0,0.4705882352941176,2464.951648644332,29247.34307342102,27.0,13.0,14.0,0.4814814814814814,1029.139000149722,22951.608443966696,24.0,12.0,12.0,0.5,65.52222320935716,1165.802601750183,0.0,0.0,0.0,0.0,65273.0,65284.0,65618.0,65644.0,65651.0,65668.0,65674.0,65699.0,65850.0,65874.0,0.243066982382798,-0.05269515105530777,0.054005163322645586,-0.061938911642012165,0.05665833739168628
110,110,0.0,0.0,0.0,0.0,0.0,0.0,0.0,0.0,0.0,0.0,0.0,0.0,0.0,0.0,0.0,0.0,0.0,0.0,0.0,0.0,0.0,0.0,0.0,0.0,0.0,0.0,0.0,0.0,0.0,0.0,0.0,0.0,0.0,0.0,0.0,0.0,0.0,0.0,0.0,0.0,0.0,0.0,0.0,0.0,0.0,0.0,0.0,0.0,0.0,0.0,0.0,0.0,0.0,0.0,0.0,0.0,0.0,0.0,,,,,,,,,,,,,,,
111,111,0.0,0.0,0.0,0.0,0.0,0.0,0.0,0.0,0.0,0.0,0.0,0.0,0.0,0.0,0.0,0.0,0.0,0.0,0.0,0.0,0.0,0.0,0.0,0.0,0.0,0.0,0.0,0.0,0.0,0.0,0.0,0.0,0.0,0.0,0.0,0.0,0.0,0.0,0.0,0.0,0.0,0.0,0.0,0.0,0.0,0.0,0.0,0.0,0.0,0.0,0.0,0.0,0.0,0.0,0.0,0.0,0.0,0.0,,66461.0,66802.0,66830.0,66837.0,66854.0,66860.0,66884.0,67037.0,67060.0,,,,,
112,112,0.0,0.0,0.0,0.0,0.0,0.0,0.0,0.0,0.0,0.0,0.0,0.0,0.0,0.0,0.0,0.0,0.0,0.0,0.0,0.0,0.0,0.0,0.0,0.0,0.0,0.0,0.0,0.0,0.0,0.0,0.0,0.0,0.0,0.0,0.0,0.0,0.0,0.0,0.0,0.0,0.0,0.0,0.0,0.0,0.0,0.0,0.0,0.0,0.0,0.0,0.0,0.0,0.0,0.0,0.0,0.0,0.0,0.0,,67064.0,67404.0,67432.0,67439.0,67455.0,67462.0,67486.0,67639.0,67662.0,,,,,
113,113,0.0,0.0,0.0,0.0,0.0,0.0,0.0,0.0,0.0,0.0,0.0,0.0,0.0,0.0,0.0,0.0,0.0,0.0,0.0,0.0,0.0,0.0,0.0,0.0,0.0,0.0,0.0,0.0,0.0,0.0,0.0,0.0,0.0,0.0,0.0,0.0,0.0,0.0,0.0,0.0,0.0,0.0,0.0,0.0,0.0,0.0,0.0,0.0,0.0,0.0,0.0,0.0,0.0,0.0,0.0,0.0,0.0,0.0,,67663.0,68001.0,68028.0,68034.0,68051.0,68057.0,68083.0,68231.0,68261.0,,,,,
114,114,0.0,0.0,0.0,0.0,0.0,0.0,0.0,0.0,0.0,0.0,0.0,0.0,0.0,0.0,0.0,0.0,0.0,0.0,0.0,0.0,0.0,0.0,0.0,0.0,0.0,0.0,0.0,0.0,0.0,0.0,0.0,0.0,0.0,0.0,0.0,0.0,0.0,0.0,0.0,0.0,0.0,0.0,0.0,0.0,0.0,0.0,0.0,0.0,0.0,0.0,0.0,0.0,0.0,0.0,0.0,0.0,0.0,0.0,,68255.0,68589.0,68617.0,68624.0,68640.0,68647.0,68672.0,68825.0,68845.0,,,,,
115,115,68835.34082538942,254.3273391254756,3.2285627892982713,69191.75339099858,-17579.38600486615,25.47965400864057,69220.37200268803,47193.29718167626,8.211008840857781,69247.82194810128,-18156.133182087327,22.93168860777651,69423.32427320267,290.8210588914992,3.933523856297175,0.6168051370104641,310.0,299.0,120.0,170.0,290.0,11.0,3556.0,3561.0,11.0,5.0,6.0,0.4545454545454545,55.98814051765612,4191.435649428013,98.0,84.0,14.0,0.8571428571428571,845.4779158330801,16150.700271839049,16.0,8.0,8.0,0.5,2519.9520264823204,27498.17603700879,28.0,13.0,15.0,0.4642857142857143,1061.265738487697,24241.518714780424,13.0,6.0,7.0,0.4615384615384615,57.13615631021091,302.48274516042557,0.0,0.0,0.0,0.0,68830.0,68841.0,69140.0,69206.0,69212.0,69228.0,69235.0,69260.0,69417.0,69430.0,0.2201420449338074,-0.048094849023682815,0.053396396881986496,-0.05845218956284877,0.196464989598733
116,116,0.0,0.0,0.0,0.0,0.0,0.0,0.0,0.0,0.0,0.0,0.0,0.0,0.0,0.0,0.0,0.0,0.0,0.0,0.0,0.0,0.0,0.0,0.0,0.0,0.0,0.0,0.0,0.0,0.0,0.0,0.0,0.0,0.0,0.0,0.0,0.0,0.0,0.0,0.0,0.0,0.0,0.0,0.0,0.0,0.0,0.0,0.0,0.0,0.0,0.0,0.0,0.0,0.0,0.0,0.0,0.0,0.0,0.0,,69432.0,69761.0,69795.0,69802.0,69818.0,69825.0,69850.0,70008.0,70021.0,,,,,
117,117,0.0,0.0,0.0,0.0,0.0,0.0,0.0,0.0,0.0,0.0,0.0,0.0,0.0,0.0,0.0,0.0,0.0,0.0,0.0,0.0,0.0,0.0,0.0,0.0,0.0,0.0,0.0,0.0,0.0,0.0,0.0,0.0,0.0,0.0,0.0,0.0,0.0,0.0,0.0,0.0,0.0,0.0,0.0,0.0,0.0,0.0,0.0,0.0,0.0,0.0,0.0,0.0,0.0,0.0,0.0,0.0,0.0,0.0,,70025.0,70359.0,70389.0,70396.0,70412.0,70419.0,70444.0,70597.0,70616.0,,,,,
118,118,0.0,0.0,0.0,0.0,0.0,0.0,0.0,0.0,0.0,0.0,0.0,0.0,0.0,0.0,0.0,0.0,0.0,0.0,0.0,0.0,0.0,0.0,0.0,0.0,0.0,0.0,0.0,0.0,0.0,0.0,0.0,0.0,0.0,0.0,0.0,0.0,0.0,0.0,0.0,0.0,0.0,0.0,0.0,0.0,0.0,0.0,0.0,0.0,0.0,0.0,0.0,0.0,0.0,0.0,0.0,0.0,0.0,0.0,,70620.0,70957.0,70984.0,70991.0,71007.0,71014.0,71039.0,71186.0,71217.0,,,,,
119,119,0.0,0.0,0.0,0.0,0.0,0.0,0.0,0.0,0.0,0.0,0.0,0.0,0.0,0.0,0.0,0.0,0.0,0.0,0.0,0.0,0.0,0.0,0.0,0.0,0.0,0.0,0.0,0.0,0.0,0.0,0.0,0.0,0.0,0.0,0.0,0.0,0.0,0.0,0.0,0.0,0.0,0.0,0.0,0.0,0.0,0.0,0.0,0.0,0.0,0.0,0.0,0.0,0.0,0.0,0.0,0.0,0.0,0.0,,71212.0,71549.0,71576.0,71583.0,71599.0,71606.0,71631.0,71786.0,71805.0,,,,,
120,120,71795.46216198965,368.6390730743416,3.6445781889293016,72149.17805189872,-17658.699379787966,22.93168860777651,72176.70877513476,47542.90823151668,8.235794923911605,72203.82194810128,-18265.57932784675,22.93168860777651,72379.10847453178,745.765462243345,6.22769325171565,0.6300342163906962,343.0,330.0,85.0,172.0,257.0,13.0,2960.0,2957.0,13.0,6.0,7.0,0.4615384615384615,69.15021001213906,299.22771355022815,93.0,80.0,13.0,0.8602150537634409,923.2075029905684,15401.765406750035,16.0,8.0,8.0,0.5,2557.931317875988,26949.694112397017,28.0,13.0,15.0,0.4642857142857143,1108.301655130361,25135.21895257329,20.0,10.0,10.0,0.5,56.87158535105024,744.5156077091328,0.0,0.0,0.0,0.0,71789.0,71802.0,72132.0,72162.0,72169.0,72185.0,72191.0,72217.0,72369.0,72389.0,0.18758242156873556,-0.05228060590052661,0.05380258408719535,-0.06067706012700633,0.07625934456655344
121,121,72378.83785854964,463.049337459149,4.603755579297983,72729.17805189872,-17491.081546627283,22.93168860777651,72756.90939248833,46772.80265176536,8.166963489001974,72783.39728720114,-18031.629852570462,20.383723206912453,72960.3923321965,921.506520524393,6.262676032257914,0.6415266796032403,341.0,325.0,84.0,174.0,258.0,16.0,582.0,580.0,16.0,8.0,8.0,0.5,56.953357083262105,433.9396874269491,89.0,76.0,13.0,0.8539325842696629,905.4722698312868,14870.764134555357,16.0,8.0,8.0,0.5,2573.37712164194,27938.704898743865,26.0,12.0,14.0,0.4615384615384615,1237.0594551445777,27344.76737491653,20.0,10.0,10.0,0.5,67.47698250737373,889.2669492748187,0.0,0.0,0.0,0.0,72371.0,72387.0,72712.0,72742.0,72749.0,72765.0,72772.0,72796.0,72950.0,72970.0,0.12299630401325566,-0.05176765469976809,0.055018664175447096,-0.06860497166695284,0.07322463922336138
122,122,72960.1424390162,355.75502317261277,4.000080696515449,73308.17805189872,-17651.458556331934,22.93168860777651,73335.91953027697,46433.891094149345,8.181807340234531,73362.39728719898,-18470.661099994257,20.383723206912453,73538.35736692623,803.3402771834318,7.039518406307831,0.6263390830352119,338.0,325.0,83.0,175.0,258.0,13.0,584.0,579.0,13.0,6.0,7.0,0.4615384615384615,67.28055571813015,335.5460777206281,94.0,81.0,13.0,0.8617021276595744,908.4298528744926,15170.207080840535,16.0,8.0,8.0,0.5,2554.819812157591,27357.929056102315,26.0,12.0,14.0,0.4615384615384615,1218.060310416976,27554.39795782824,23.0,11.0,12.0,0.4782608695652174,53.88372817177157,885.8809034929509,0.0,0.0,0.0,0.0,72954.0,72967.0,73292.0,73321.0,73328.0,73344.0,73351.0,73375.0,73527.0,73550.0,0.1891204658703738,-0.05146486053689996,0.055020584145693045,-0.06594568022350618,0.06707460051759356
123,123,73538.43752503303,399.3403507371887,4.525503691327393,73885.17805189872,-16001.621758855708,22.93168860777651,73913.37209858143,45541.34418186716,8.106020326892915,73940.82194810128,-16549.42376400575,22.93168860777651,74115.0280588682,2397.430824064497,9.748424202687614,0.6414590235072022,341.0,326.0,81.0,177.0,258.0,15.0,577.0,577.0,15.0,7.0,8.0,0.4666666666666667,53.8837281717716,462.02304984578177,32.0,18.0,14.0,0.5625,856.1041574201208,15049.448466644186,17.0,8.0,9.0,0.4705882352941176,2474.7746246206943,28896.766171824347,27.0,13.0,14.0,0.4814814814814814,1019.6365809370766,22639.30469151055,30.0,15.0,15.0,0.5,73.70210884526328,2178.4573253158555,0.0,0.0,0.0,0.0,73531.0,73546.0,73872.0,73898.0,73905.0,73922.0,73928.0,73953.0,74100.0,74130.0,0.1349318396508176,-0.05350108697240833,0.054341273167910924,-0.061611606269623725,0.030742121151304806
124,124,74115.45847986623,563.9707487196464,4.7211462581967005,74466.17805189872,-16524.137241453427,22.93168860777651,74494.23551012888,45854.25158864798,8.141103559737557,74521.82194810086,-17294.06106983496,22.93168860777651,74696.86352440702,1171.021905572623,7.554964086510706,0.6411957631535637,344.0,329.0,82.0,175.0,257.0,15.0,577.0,581.0,15.0,7.0,8.0,0.4666666666666667,73.70210884526338,659.9136192744518,37.0,23.0,14.0,0.6216216216216216,868.6971949556727,15320.873342275874,16.0,8.0,8.0,0.5,2488.630591178902,28151.07044900004,28.0,13.0,15.0,0.4642857142857143,1020.6732678967028,23040.30876559748,24.0,12.0,12.0,0.5,65.02254264059545,1094.137969837523,0.0,0.0,0.0,0.0,74108.0,74123.0,74452.0,74479.0,74486.0,74502.0,74509.0,74534.0,74685.0,74709.0,0.13068427575824715,-0.05257141006892678,0.05427262478306386,-0.05901871537142914,0.05552632476913384
125,125,0.0,0.0,0.0,0.0,0.0,0.0,0.0,0.0,0.0,0.0,0.0,0.0,0.0,0.0,0.0,0.0,0.0,0.0,0.0,0.0,0.0,0.0,0.0,0.0,0.0,0.0,0.0,0.0,0.0,0.0,0.0,0.0,0.0,0.0,0.0,0.0,0.0,0.0,0.0,0.0,0.0,0.0,0.0,0.0,0.0,0.0,0.0,0.0,0.0,0.0,0.0,0.0,0.0,0.0,0.0,0.0,0.0,0.0,,74706.0,75038.0,75072.0,75079.0,75095.0,75102.0,75127.0,75289.0,75295.0,,,,,
126,126,0.0,0.0,0.0,0.0,0.0,0.0,0.0,0.0,0.0,0.0,0.0,0.0,0.0,0.0,0.0,0.0,0.0,0.0,0.0,0.0,0.0,0.0,0.0,0.0,0.0,0.0,0.0,0.0,0.0,0.0,0.0,0.0,0.0,0.0,0.0,0.0,0.0,0.0,0.0,0.0,0.0,0.0,0.0,0.0,0.0,0.0,0.0,0.0,0.0,0.0,0.0,0.0,0.0,0.0,0.0,0.0,0.0,0.0,,75312.0,75656.0,75680.0,75687.0,75704.0,75711.0,75733.0,75881.0,75919.0,,,,,
127,127,0.0,0.0,0.0,0.0,0.0,0.0,0.0,0.0,0.0,0.0,0.0,0.0,0.0,0.0,0.0,0.0,0.0,0.0,0.0,0.0,0.0,0.0,0.0,0.0,0.0,0.0,0.0,0.0,0.0,0.0,0.0,0.0,0.0,0.0,0.0,0.0,0.0,0.0,0.0,0.0,0.0,0.0,0.0,0.0,0.0,0.0,0.0,0.0,0.0,0.0,0.0,0.0,0.0,0.0,0.0,0.0,0.0,0.0,,75945.0,76290.0,76311.0,76318.0,76336.0,76342.0,76362.0,76504.0,76558.0,,,,,
128,128,0.0,0.0,0.0,0.0,0.0,0.0,0.0,0.0,0.0,0.0,0.0,0.0,0.0,0.0,0.0,0.0,0.0,0.0,0.0,0.0,0.0,0.0,0.0,0.0,0.0,0.0,0.0,0.0,0.0,0.0,0.0,0.0,0.0,0.0,0.0,0.0,0.0,0.0,0.0,0.0,0.0,0.0,0.0,0.0,0.0,0.0,0.0,0.0,0.0,0.0,0.0,0.0,0.0,0.0,0.0,0.0,0.0,0.0,,76560.0,76910.0,76932.0,76939.0,76957.0,76963.0,76985.0,77128.0,77174.0,,,,,
129,129,0.0,0.0,0.0,0.0,0.0,0.0,0.0,0.0,0.0,0.0,0.0,0.0,0.0,0.0,0.0,0.0,0.0,0.0,0.0,0.0,0.0,0.0,0.0,0.0,0.0,0.0,0.0,0.0,0.0,0.0,0.0,0.0,0.0,0.0,0.0,0.0,0.0,0.0,0.0,0.0,0.0,0.0,0.0,0.0,0.0,0.0,0.0,0.0,0.0,0.0,0.0,0.0,0.0,0.0,0.0,0.0,0.0,0.0,,77178.0,77523.0,77545.0,77552.0,77569.0,77576.0,77598.0,77741.0,77785.0,,,,,
130,130,0.0,0.0,0.0,0.0,0.0,0.0,0.0,0.0,0.0,0.0,0.0,0.0,0.0,0.0,0.0,0.0,0.0,0.0,0.0,0.0,0.0,0.0,0.0,0.0,0.0,0.0,0.0,0.0,0.0,0.0,0.0,0.0,0.0,0.0,0.0,0.0,0.0,0.0,0.0,0.0,0.0,0.0,0.0,0.0,0.0,0.0,0.0,0.0,0.0,0.0,0.0,0.0,0.0,0.0,0.0,0.0,0.0,0.0,,77785.0,78126.0,78152.0,78159.0,78176.0,78182.0,78206.0,78358.0,78386.0,,,,,
131,131,0.0,0.0,0.0,0.0,0.0,0.0,0.0,0.0,0.0,0.0,0.0,0.0,0.0,0.0,0.0,0.0,0.0,0.0,0.0,0.0,0.0,0.0,0.0,0.0,0.0,0.0,0.0,0.0,0.0,0.0,0.0,0.0,0.0,0.0,0.0,0.0,0.0,0.0,0.0,0.0,0.0,0.0,0.0,0.0,0.0,0.0,0.0,0.0,0.0,0.0,0.0,0.0,0.0,0.0,0.0,0.0,0.0,0.0,,78393.0,78735.0,78760.0,78767.0,78784.0,78791.0,78813.0,78964.0,78997.0,,,,,
132,132,0.0,0.0,0.0,0.0,0.0,0.0,0.0,0.0,0.0,0.0,0.0,0.0,0.0,0.0,0.0,0.0,0.0,0.0,0.0,0.0,0.0,0.0,0.0,0.0,0.0,0.0,0.0,0.0,0.0,0.0,0.0,0.0,0.0,0.0,0.0,0.0,0.0,0.0,0.0,0.0,0.0,0.0,0.0,0.0,0.0,0.0,0.0,0.0,0.0,0.0,0.0,0.0,0.0,0.0,0.0,0.0,0.0,0.0,,79002.0,79348.0,79372.0,79378.0,79396.0,79402.0,79425.0,79573.0,79610.0,,,,,
133,133,0.0,0.0,0.0,0.0,0.0,0.0,0.0,0.0,0.0,0.0,0.0,0.0,0.0,0.0,0.0,0.0,0.0,0.0,0.0,0.0,0.0,0.0,0.0,0.0,0.0,0.0,0.0,0.0,0.0,0.0,0.0,0.0,0.0,0.0,0.0,0.0,0.0,0.0,0.0,0.0,0.0,0.0,0.0,0.0,0.0,0.0,0.0,0.0,0.0,0.0,0.0,0.0,0.0,0.0,0.0,0.0,0.0,0.0,,79620.0,79966.0,79988.0,79995.0,80012.0,80019.0,80040.0,80186.0,80230.0,,,,,
134,134,0.0,0.0,0.0,0.0,0.0,0.0,0.0,0.0,0.0,0.0,0.0,0.0,0.0,0.0,0.0,0.0,0.0,0.0,0.0,0.0,0.0,0.0,0.0,0.0,0.0,0.0,0.0,0.0,0.0,0.0,0.0,0.0,0.0,0.0,0.0,0.0,0.0,0.0,0.0,0.0,0.0,0.0,0.0,0.0,0.0,0.0,0.0,0.0,0.0,0.0,0.0,0.0,0.0,0.0,0.0,0.0,0.0,0.0,,80216.0,80561.0,80593.0,80599.0,80615.0,80622.0,80649.0,80805.0,80820.0,,,,,
135,135,80812.65321884616,366.9772023050325,4.008432111243799,81169.17805189872,-16868.309057941842,22.93168860777651,81197.01658983098,45390.071776757475,8.175011296433363,81224.82194809134,-17538.42608735924,22.93168860777651,81399.96049305607,992.3747835677692,7.366501620391542,0.6260064916996613,348.0,334.0,84.0,174.0,258.0,14.0,6698.0,6703.0,14.0,7.0,7.0,0.5,57.91147657256284,4262.901573910676,72.0,59.0,13.0,0.8194444444444444,881.3916455392183,15371.988674746295,16.0,8.0,8.0,0.5,2461.1958252054387,26919.111824611744,29.0,14.0,15.0,0.4827586206896552,991.30981511432,22712.812482921156,24.0,12.0,12.0,0.5,59.539346167046126,970.4228682988856,0.0,0.0,0.0,0.0,80806.0,80820.0,81154.0,81182.0,81189.0,81205.0,81212.0,81238.0,81388.0,81412.0,0.15780674169625025,-0.05225133369987945,0.054223219502942566,-0.056522165111999596,0.05999683501931726
136,136,81400.062063159,257.1290012062008,3.8306260153633622,81753.17805189872,-17776.933130846657,22.93168860777651,81780.51981378296,47362.46933841748,8.257071758835822,81807.82194810128,-18056.179477326285,22.93168860777651,81984.9721659602,555.7547531085849,5.199524980272474,0.6092267328853718,323.0,311.0,103.0,174.0,277.0,12.0,587.0,584.0,12.0,6.0,6.0,0.5,59.5393461670461,217.7307667670766,96.0,83.0,13.0,0.8645833333333334,928.1829731921664,15085.276800535865,17.0,9.0,8.0,0.5294117647058824,2541.6242626454737,26393.58158855283,27.0,13.0,14.0,0.4814814814814814,1094.3309823385343,24586.00488476208,18.0,9.0,9.0,0.5,63.70804771585632,473.8689540097448,0.0,0.0,0.0,0.0,81394.0,81406.0,81717.0,81766.0,81772.0,81789.0,81795.0,81820.0,81976.0,81994.0,0.2315543788827593,-0.05221277294347116,0.05366325485449017,-0.0606070062447441,0.1146333834474806
137,137,81984.8452630558,343.7650268511976,4.277282205627777,82336.17805189872,-17245.427085976327,22.93168860777651,82363.40149889664,47423.035732923505,8.168407904248005,82390.82194810128,-17718.96484282474,22.93168860777651,82567.22401172813,1102.6733168725402,6.900897889043737,0.6217563495110405,342.0,328.0,82.0,176.0,258.0,14.0,584.0,582.0,14.0,7.0,7.0,0.5,63.70804771585639,265.04447688237997,94.0,81.0,13.0,0.8617021276595744,948.6504609473664,14811.635534371864,17.0,8.0,9.0,0.4705882352941176,2554.041530076951,29143.659891428073,26.0,13.0,13.0,0.5,1090.4764742840475,23880.060920353157,22.0,11.0,11.0,0.5,72.96261969572494,1101.508877016377,0.0,0.0,0.0,0.0,81978.0,81992.0,82320.0,82349.0,82355.0,82372.0,82378.0,82402.0,82556.0,82578.0,0.185324401087005,-0.05500881226181936,0.05385655917222955,-0.06154289959696116,0.06616884491470723
138,138,82567.39627267218,397.72022218381903,4.1013472923417345,82920.75339099858,-17310.537900211777,25.47965400864057,82949.39686598392,47811.93350500019,8.194820126995364,82976.82194810081,-17798.507743980466,22.93168860777651,83153.57919768494,729.5416443950485,6.389064729676985,0.6283489634601878,325.0,312.0,103.0,175.0,278.0,13.0,583.0,586.0,13.0,6.0,7.0,0.4615384615384615,72.96261969572494,429.6399214730605,98.0,84.0,14.0,0.8571428571428571,847.8395601548984,15821.357198262627,17.0,8.0,9.0,0.4705882352941176,2554.0984219238553,28497.642384696635,27.0,13.0,14.0,0.4814814814814814,1074.1647245770414,24078.678405589508,21.0,11.0,10.0,0.5238095238095238,59.77683210119558,661.172388677247,0.0,0.0,0.0,0.0,82561.0,82574.0,82886.0,82935.0,82941.0,82958.0,82964.0,82989.0,83143.0,83164.0,0.18345212444843437,-0.04897823308798082,0.05341968489219844,-0.06035139237671926,0.08193751866045126
139,139,83153.6499376055,510.7633242890447,5.139395787997099,83497.17805189872,-17172.624169571252,22.93168860777651,83524.87892405732,46590.82118396785,8.10721575354518,83551.39715743989,-17788.877991173704,20.383723206912453,83727.38808146995,1736.589614728388,9.105249330097609,0.652322323279342,337.0,320.0,81.0,179.0,260.0,17.0,587.0,576.0,17.0,9.0,8.0,0.5294117647058824,59.77683210119558,410.2353843966275,73.0,60.0,13.0,0.821917808219178,907.183171350376,14761.457871767736,16.0,8.0,8.0,0.5,2567.9446122940085,27784.637493603364,25.0,12.0,13.0,0.48,1230.9595281839051,26965.78972927278,29.0,14.0,15.0,0.4827586206896552,62.00766372399558,1681.3413204254284,0.0,0.0,0.0,0.0,83145.0,83162.0,83482.0,83510.0,83517.0,83533.0,83540.0,83563.0,83713.0,83742.0,0.11703430778707877,-0.05282728850246687,0.05511696396494621,-0.06919826696178756,0.035706572927820895
140,140,83727.37117782299,3896.7476830124074,13.878959154326209,84053.60271279886,-13340.5312282033,20.383723206912453,84081.28415180824,49613.26530106284,8.397855001031816,84100.60271279886,-17359.5960240816,20.383723206912453,84283.299724784,4858.510643790918,15.701408027054988,0.820850709797233,337.0,294.0,74.0,190.0,264.0,43.0,574.0,556.0,43.0,21.0,22.0,0.4883720930232558,62.08488221529706,3590.328368518268,24.0,12.0,12.0,0.5,993.1252272376644,11033.499124708318,18.0,9.0,9.0,0.5,2576.89328731208,30841.566671679597,22.0,5.0,17.0,0.2272727272727272,1787.9778862672106,35514.84732105111,47.0,23.0,24.0,0.4893617021276595,60.57199968229561,4423.512282833065,0.0,0.0,0.0,0.0,83706.0,83749.0,84043.0,84065.0,84072.0,84090.0,84096.0,84117.0,84260.0,84307.0,0.015932487106094052,-0.07444420392630934,0.051939602678336035,-0.10299651465315725,0.012467195015761764
141,141,84282.67028162043,3464.3352907799,12.75742344336534,84612.17805189872,-13672.65185521303,22.93168860777651,84640.42300994227,50522.50861873596,8.452254445988324,84659.60271279886,-17570.12418132205,20.383723206912453,84841.9418811203,4915.688806052429,15.598450904042789,0.7920692510685263,338.0,298.0,76.0,188.0,264.0,40.0,555.0,559.0,40.0,20.0,20.0,0.5,60.29735145306401,3065.213703489274,26.0,13.0,13.0,0.5,888.2881209527567,12709.816333687377,18.0,9.0,9.0,0.5,2579.136213727608,30730.6206972832,23.0,5.0,18.0,0.217391304347826,1791.6366387226954,35934.35074303908,47.0,24.0,23.0,0.5106382978723404,64.89305378276934,4524.370710259936,0.0,0.0,0.0,0.0,84263.0,84303.0,84601.0,84625.0,84631.0,84649.0,84655.0,84677.0,84818.0,84865.0,0.017405171957097062,-0.06496823954557691,0.05104925080404956,-0.10197063038560067,0.013201212758397142
142,142,84842.49617013635,3024.2571847620043,11.57459084313468,85176.60271279886,-14161.001759637984,20.383723206912453,85203.80648809225,47954.31599892109,8.511256409303765,85223.60271279886,-16997.845244873348,20.383723206912453,85404.64269734923,4625.322193113294,15.477904321181542,0.7707777577390835,341.0,304.0,76.0,187.0,263.0,37.0,560.0,563.0,37.0,18.0,19.0,0.4864864864864865,65.03842490691696,2800.935052607389,24.0,13.0,11.0,0.5416666666666666,1021.8300444639566,10908.40404498004,17.0,9.0,8.0,0.5294117647058824,2472.054899429383,28470.772079742834,23.0,5.0,18.0,0.217391304347826,1655.742269420893,34014.31097044052,47.0,24.0,23.0,0.5106382978723404,62.58610912444244,4216.525183582438,0.0,0.0,0.0,0.0,84824.0,84861.0,85165.0,85188.0,85195.0,85212.0,85219.0,85241.0,85381.0,85428.0,0.02150558663946274,-0.07215803386003385,0.05155020664844852,-0.09740895069745825,0.013531189074272006
143,143,85405.74185196184,901.0776406967752,6.52783027591857,85748.60271279886,-16409.519707786523,20.383723206912453,85775.27155306311,44868.18926988535,8.157342686736959,85802.71444694478,-16868.82481993943,22.93168860777651,85976.87005501566,1678.63802942114,9.355980807924338,0.6447533596894102,339.0,318.0,81.0,177.0,258.0,21.0,563.0,572.0,21.0,11.0,10.0,0.5238095238095238,63.73972346746526,799.3138307494278,29.0,17.0,12.0,0.5862068965517241,1026.3324201074329,12560.971847327217,17.0,8.0,9.0,0.4705882352941176,2446.79176051892,28571.500655108342,27.0,13.0,14.0,0.4814814814814814,1017.2554013902984,22699.16498585685,30.0,15.0,15.0,0.5,55.612574841078334,1566.2445897506905,0.0,0.0,0.0,0.0,85395.0,85416.0,85734.0,85760.0,85767.0,85784.0,85790.0,85815.0,85962.0,85992.0,0.07073721573889828,-0.06254493966818696,0.054532883994967876,-0.06030386895641205,0.03312958116423451
144,144,85976.60011376486,1411.6505750885165,8.117605029913245,86324.17805189872,-16526.312356724535,22.93168860777651,86352.14479931373,46335.4344005254,8.155589320456746,86378.39728720114,-17872.280926685362,20.383723206912453,86555.99583208987,1772.8039983720848,8.799076150348608,0.6740802508320209,347.0,320.0,81.0,180.0,261.0,27.0,571.0,577.0,27.0,14.0,13.0,0.5185185185185185,55.612574841078306,1192.555205743242,84.0,71.0,13.0,0.8452380952380952,880.6743032179137,14440.10429774642,16.0,8.0,8.0,0.5,2545.0064448183252,28373.893876462946,24.0,11.0,13.0,0.4583333333333333,1255.4800845842178,27650.69009126834,30.0,15.0,15.0,0.5,58.50924663426243,1529.754711802928,0.0,0.0,0.0,0.0,85963.0,85990.0,86310.0,86337.0,86344.0,86360.0,86367.0,86391.0,86541.0,86571.0,0.039395425342841066,-0.05328922049930688,0.05492570594718471,-0.0702473338313322,0.033003787608776716
145,145,86556.48640236285,464.3815795325868,4.987734446125435,86911.17805189872,-16182.027991934474,22.93168860777651,86939.35493291263,46869.807656497906,8.07287190992396,86966.82194810128,-17043.302703989306,22.93168860777651,87142.06593357446,1648.2973885001195,8.876857645508988,0.6502540797048405,349.0,332.0,81.0,178.0,259.0,17.0,580.0,587.0,17.0,8.0,9.0,0.4705882352941176,58.466297743140395,427.96283881229147,89.0,75.0,14.0,0.8426966292134831,843.5056077717971,14790.144976300204,17.0,8.0,9.0,0.4705882352941176,2545.773168828269,29383.83718276809,26.0,13.0,13.0,0.5,1080.8388593367615,23103.184025067625,28.0,14.0,14.0,0.5,61.35935409994624,1545.278786564676,0.0,0.0,0.0,0.0,86548.0,86565.0,86897.0,86924.0,86931.0,86948.0,86954.0,86978.0,87128.0,87156.0,0.1259014145263651,-0.05212607518613992,0.0543158441674409,-0.06341721895743663,0.03722590020953721
146,146,0.0,0.0,0.0,0.0,0.0,0.0,0.0,0.0,0.0,0.0,0.0,0.0,0.0,0.0,0.0,0.0,0.0,0.0,0.0,0.0,0.0,0.0,0.0,0.0,0.0,0.0,0.0,0.0,0.0,0.0,0.0,0.0,0.0,0.0,0.0,0.0,0.0,0.0,0.0,0.0,0.0,0.0,0.0,0.0,0.0,0.0,0.0,0.0,0.0,0.0,0.0,0.0,0.0,0.0,0.0,0.0,0.0,0.0,,87160.0,87501.0,87528.0,87535.0,87552.0,87558.0,87582.0,87736.0,87761.0,,,,,
147,147,0.0,0.0,0.0,0.0,0.0,0.0,0.0,0.0,0.0,0.0,0.0,0.0,0.0,0.0,0.0,0.0,0.0,0.0,0.0,0.0,0.0,0.0,0.0,0.0,0.0,0.0,0.0,0.0,0.0,0.0,0.0,0.0,0.0,0.0,0.0,0.0,0.0,0.0,0.0,0.0,0.0,0.0,0.0,0.0,0.0,0.0,0.0,0.0,0.0,0.0,0.0,0.0,0.0,0.0,0.0,0.0,0.0,0.0,,87770.0,88116.0,88140.0,88147.0,88164.0,88170.0,88194.0,88339.0,88377.0,,,,,
148,148,0.0,0.0,0.0,0.0,0.0,0.0,0.0,0.0,0.0,0.0,0.0,0.0,0.0,0.0,0.0,0.0,0.0,0.0,0.0,0.0,0.0,0.0,0.0,0.0,0.0,0.0,0.0,0.0,0.0,0.0,0.0,0.0,0.0,0.0,0.0,0.0,0.0,0.0,0.0,0.0,0.0,0.0,0.0,0.0,0.0,0.0,0.0,0.0,0.0,0.0,0.0,0.0,0.0,0.0,0.0,0.0,0.0,0.0,,88381.0,88723.0,88748.0,88755.0,88772.0,88778.0,88803.0,88947.0,88984.0,,,,,
149,149,0.0,0.0,0.0,0.0,0.0,0.0,0.0,0.0,0.0,0.0,0.0,0.0,0.0,0.0,0.0,0.0,0.0,0.0,0.0,0.0,0.0,0.0,0.0,0.0,0.0,0.0,0.0,0.0,0.0,0.0,0.0,0.0,0.0,0.0,0.0,0.0,0.0,0.0,0.0,0.0,0.0,0.0,0.0,0.0,0.0,0.0,0.0,0.0,0.0,0.0,0.0,0.0,0.0,0.0,0.0,0.0,0.0,0.0,,88975.0,89318.0,89345.0,89352.0,89368.0,89375.0,89400.0,89552.0,89575.0,,,,,
150,150,89563.21940964473,258.5600728044423,3.1925165125623045,89916.75339099858,-17850.477141524414,25.47965400864057,89945.40628769733,47003.91422940592,8.232616403839101,89972.82194810128,-18847.13661321536,22.93168860777651,90149.18068526896,474.4760116872073,4.8070067192436765,0.6094180886840783,287.0,276.0,141.0,171.0,312.0,11.0,3007.0,3006.0,12.0,6.0,6.0,0.5,57.37758075890974,4461.879496138789,101.0,87.0,14.0,0.8613861386138614,837.5866488148531,16455.315909991434,16.0,8.0,8.0,0.5,2504.929444727362,26768.22264636964,28.0,13.0,15.0,0.4642857142857143,1075.1840356502005,24900.33406779072,16.0,8.0,8.0,0.5,63.753928759128726,414.56210924704055,0.0,0.0,0.0,0.0,89558.0,89569.0,89845.0,89931.0,89937.0,89953.0,89960.0,89986.0,90141.0,90157.0,0.22191199181130464,-0.04692236751848102,0.0532919329335399,-0.05704760663199607,0.13436702212283336
151,151,90148.90494367263,876.9030759453111,6.012413076866889,90494.17805189872,-16825.964502941126,22.93168860777651,90522.2388926172,46766.646776411086,8.071912505994904,90549.82194810128,-17236.954831616815,22.93168860777651,90724.95140572908,1364.45629451948,7.797030127811834,0.6489542127297574,339.0,319.0,83.0,177.0,260.0,20.0,585.0,577.0,20.0,10.0,10.0,0.5,63.753928759128755,704.1649597538953,93.0,79.0,14.0,0.8494623655913979,853.3552897038505,15260.441995149897,17.0,8.0,9.0,0.4705882352941176,2555.4325556603753,28814.45133575201,26.0,13.0,13.0,0.5,1082.3748438713408,23030.483569934742,26.0,13.0,13.0,0.5,58.641905231063475,1154.903625378648,0.0,0.0,0.0,0.0,90139.0,90159.0,90478.0,90507.0,90514.0,90531.0,90537.0,90561.0,90712.0,90738.0,0.07270350681619098,-0.05071657494312951,0.054642201906794086,-0.06279385508895104,0.04297822177713312
152,152,90725.1029569044,371.4251855575598,4.5072483887167385,91071.17805189872,-17711.37568739092,22.93168860777651,91099.36242917668,46757.628284916354,8.15748693509171,91125.39728720103,-19019.202773054625,20.383723206912453,91302.7913463817,772.8988716514357,6.1087728023175245,0.6376707069026357,335.0,320.0,85.0,175.0,260.0,15.0,576.0,577.0,15.0,7.0,8.0,0.4666666666666667,58.64190523106351,295.00578096713934,99.0,85.0,14.0,0.8585858585858586,859.6538439444981,15635.033277015824,16.0,8.0,8.0,0.5,2575.0910165766854,28295.58869919816,25.0,11.0,14.0,0.44,1283.3349641063576,28952.59846740435,20.0,10.0,10.0,0.5,65.572845073471,704.6709865760681,0.0,0.0,0.0,0.0,90718.0,90733.0,91053.0,91084.0,91091.0,91107.0,91114.0,91138.0,91293.0,91313.0,0.15788349178054262,-0.04853681944968864,0.055073174389544254,-0.06747574961052084,0.08484013559673463
153,153,91302.51457570896,2045.1160856959375,9.564420315766164,91649.60271279886,-15371.986557873552,20.383723206912453,91676.6631369714,45790.33141065934,8.222870517170186,91701.1452882201,-17278.425782884937,20.383723206912453,91878.53728642786,3689.108057122321,12.950179984248708,0.733792684436996,350.0,319.0,78.0,184.0,262.0,31.0,578.0,577.0,31.0,16.0,15.0,0.5161290322580645,65.57284507347103,1808.3429169915044,25.0,14.0,11.0,0.56,1022.3058250936206,11768.426461100971,17.0,9.0,8.0,0.5294117647058824,2502.915377885778,27580.234380972965,23.0,9.0,14.0,0.391304347826087,1351.96921246868,29655.096446232114,41.0,21.0,20.0,0.5121951219512195,66.29579186139512,3309.149299055272,0.0,0.0,0.0,0.0,91287.0,91318.0,91637.0,91661.0,91668.0,91685.0,91692.0,91715.0,91858.0,91899.0,0.032063140832006655,-0.06650447040431441,0.05466034642638849,-0.07824608731472903,0.017970683112250436
154,154,91879.7619141717,333.9179135131025,3.900092810096523,92232.17805189872,-17071.27262656865,22.93168860777651,92260.07651806016,45268.586690424505,8.21463257328586,92286.39728720114,-17705.411393384737,20.383723206912453,92462.10007418026,1642.1222065773284,9.071141190644507,0.6297506530275174,344.0,331.0,84.0,176.0,260.0,13.0,577.0,584.0,13.0,7.0,6.0,0.5384615384615384,67.2205378175966,232.43339670542449,74.0,61.0,13.0,0.8243243243243243,892.4494398924327,14992.837619344018,16.0,8.0,8.0,0.5,2478.96162676259,27488.54361837258,26.0,11.0,15.0,0.4230769230769231,1160.3228209059378,26904.052884687677,29.0,14.0,15.0,0.4827586206896552,60.57256126384427,1575.7916039116676,0.0,0.0,0.0,0.0,91873.0,91886.0,92217.0,92245.0,92252.0,92268.0,92275.0,92301.0,92448.0,92477.0,0.20130857045187828,-0.05227785059817279,0.054761188894968435,-0.06553492574250314,0.03688675606555222
155,155,92462.88935998552,288.84658084880994,3.8835373190955,92816.17805189872,-18360.432070594907,22.93168860777651,92843.44289572872,47254.36707666619,8.303424186260465,92870.82194810128,-18664.15197052378,22.93168860777651,93047.38171090937,262.44127744225597,3.553807702162075,0.6011461325968693,284.0,271.0,144.0,169.0,313.0,13.0,583.0,584.0,13.0,7.0,6.0,0.5384615384615384,61.762261983935,168.40578635533166,98.0,85.0,13.0,0.8673469387755102,933.1328956732764,15453.751509823018,17.0,8.0,9.0,0.4705882352941176,2520.05059788581,28299.49489562247,29.0,13.0,16.0,0.4482758620689655,1065.6910382084336,24795.08224602561,12.0,6.0,6.0,0.5,67.53459981976275,261.9321289545228,0.0,0.0,0.0,0.0,92456.0,92469.0,92740.0,92829.0,92835.0,92852.0,92858.0,92884.0,93042.0,93053.0,0.21382376001280426,-0.05082303575893143,0.05332947521648618,-0.05709828337721827,0.2573322324824537
156,156,93046.9345244317,232.14626990124745,3.3710337153057113,93407.17805189872,-17656.86968965353,22.93168860777651,93434.74107649992,47726.37518993116,8.210315560863544,93461.82194810128,-18295.293363418867,22.93168860777651,93638.46549627744,597.8117789955801,5.123789128805246,0.597574886089644,347.0,335.0,86.0,173.0,259.0,12.0,585.0,591.0,12.0,6.0,6.0,0.5,62.28515299758423,3000.0568483899083,100.0,87.0,13.0,0.87,910.0626307635058,15312.040052528651,16.0,8.0,8.0,0.5,2575.1497435976053,27105.11934204984,27.0,13.0,14.0,0.4814814814814814,1132.8348172828184,25187.108612815056,17.0,8.0,9.0,0.4705882352941176,70.95538492263192,628.4749249746055,0.0,0.0,0.0,0.0,93041.0,93053.0,93388.0,93420.0,93427.0,93443.0,93449.0,93474.0,93630.0,93647.0,0.26830133012294216,-0.051541561259682345,0.05395653311925698,-0.06191946719738874,0.11869184819651493
157,157,0.0,0.0,0.0,0.0,0.0,0.0,0.0,0.0,0.0,0.0,0.0,0.0,0.0,0.0,0.0,0.0,0.0,0.0,0.0,0.0,0.0,0.0,0.0,0.0,0.0,0.0,0.0,0.0,0.0,0.0,0.0,0.0,0.0,0.0,0.0,0.0,0.0,0.0,0.0,0.0,0.0,0.0,0.0,0.0,0.0,0.0,0.0,0.0,0.0,0.0,0.0,0.0,0.0,0.0,0.0,0.0,0.0,0.0,,93652.0,93995.0,94022.0,94029.0,94045.0,94052.0,94075.0,94225.0,94254.0,,,,,
158,158,0.0,0.0,0.0,0.0,0.0,0.0,0.0,0.0,0.0,0.0,0.0,0.0,0.0,0.0,0.0,0.0,0.0,0.0,0.0,0.0,0.0,0.0,0.0,0.0,0.0,0.0,0.0,0.0,0.0,0.0,0.0,0.0,0.0,0.0,0.0,0.0,0.0,0.0,0.0,0.0,0.0,0.0,0.0,0.0,0.0,0.0,0.0,0.0,0.0,0.0,0.0,0.0,0.0,0.0,0.0,0.0,0.0,0.0,,94257.0,94598.0,94626.0,94633.0,94649.0,94656.0,94682.0,94831.0,94859.0,,,,,
159,159,0.0,0.0,0.0,0.0,0.0,0.0,0.0,0.0,0.0,0.0,0.0,0.0,0.0,0.0,0.0,0.0,0.0,0.0,0.0,0.0,0.0,0.0,0.0,0.0,0.0,0.0,0.0,0.0,0.0,0.0,0.0,0.0,0.0,0.0,0.0,0.0,0.0,0.0,0.0,0.0,0.0,0.0,0.0,0.0,0.0,0.0,0.0,0.0,0.0,0.0,0.0,0.0,0.0,0.0,0.0,0.0,0.0,0.0,,94866.0,95207.0,95231.0,95238.0,95255.0,95262.0,95285.0,95432.0,95468.0,,,,,
160,160,0.0,0.0,0.0,0.0,0.0,0.0,0.0,0.0,0.0,0.0,0.0,0.0,0.0,0.0,0.0,0.0,0.0,0.0,0.0,0.0,0.0,0.0,0.0,0.0,0.0,0.0,0.0,0.0,0.0,0.0,0.0,0.0,0.0,0.0,0.0,0.0,0.0,0.0,0.0,0.0,0.0,0.0,0.0,0.0,0.0,0.0,0.0,0.0,0.0,0.0,0.0,0.0,0.0,0.0,0.0,0.0,0.0,0.0,,95459.0,95792.0,95840.0,95847.0,95863.0,95869.0,95894.0,96051.0,96070.0,,,,,
161,161,0.0,0.0,0.0,0.0,0.0,0.0,0.0,0.0,0.0,0.0,0.0,0.0,0.0,0.0,0.0,0.0,0.0,0.0,0.0,0.0,0.0,0.0,0.0,0.0,0.0,0.0,0.0,0.0,0.0,0.0,0.0,0.0,0.0,0.0,0.0,0.0,0.0,0.0,0.0,0.0,0.0,0.0,0.0,0.0,0.0,0.0,0.0,0.0,0.0,0.0,0.0,0.0,0.0,0.0,0.0,0.0,0.0,0.0,,96081.0,96426.0,96452.0,96459.0,96475.0,96482.0,96505.0,96654.0,96689.0,,,,,
162,162,0.0,0.0,0.0,0.0,0.0,0.0,0.0,0.0,0.0,0.0,0.0,0.0,0.0,0.0,0.0,0.0,0.0,0.0,0.0,0.0,0.0,0.0,0.0,0.0,0.0,0.0,0.0,0.0,0.0,0.0,0.0,0.0,0.0,0.0,0.0,0.0,0.0,0.0,0.0,0.0,0.0,0.0,0.0,0.0,0.0,0.0,0.0,0.0,0.0,0.0,0.0,0.0,0.0,0.0,0.0,0.0,0.0,0.0,,96703.0,97051.0,97073.0,97080.0,97098.0,97104.0,97126.0,97272.0,97316.0,,,,,
163,163,0.0,0.0,0.0,0.0,0.0,0.0,0.0,0.0,0.0,0.0,0.0,0.0,0.0,0.0,0.0,0.0,0.0,0.0,0.0,0.0,0.0,0.0,0.0,0.0,0.0,0.0,0.0,0.0,0.0,0.0,0.0,0.0,0.0,0.0,0.0,0.0,0.0,0.0,0.0,0.0,0.0,0.0,0.0,0.0,0.0,0.0,0.0,0.0,0.0,0.0,0.0,0.0,0.0,0.0,0.0,0.0,0.0,0.0,,97934.0,98277.0,98300.0,98307.0,98324.0,98331.0,98353.0,98498.0,98541.0,,,,,
164,164,0.0,0.0,0.0,0.0,0.0,0.0,0.0,0.0,0.0,0.0,0.0,0.0,0.0,0.0,0.0,0.0,0.0,0.0,0.0,0.0,0.0,0.0,0.0,0.0,0.0,0.0,0.0,0.0,0.0,0.0,0.0,0.0,0.0,0.0,0.0,0.0,0.0,0.0,0.0,0.0,0.0,0.0,0.0,0.0,0.0,0.0,0.0,0.0,0.0,0.0,0.0,0.0,0.0,0.0,0.0,0.0,0.0,0.0,,98545.0,98888.0,98913.0,98920.0,98937.0,98943.0,98966.0,99114.0,99152.0,,,,,
165,165,0.0,0.0,0.0,0.0,0.0,0.0,0.0,0.0,0.0,0.0,0.0,0.0,0.0,0.0,0.0,0.0,0.0,0.0,0.0,0.0,0.0,0.0,0.0,0.0,0.0,0.0,0.0,0.0,0.0,0.0,0.0,0.0,0.0,0.0,0.0,0.0,0.0,0.0,0.0,0.0,0.0,0.0,0.0,0.0,0.0,0.0,0.0,0.0,0.0,0.0,0.0,0.0,0.0,0.0,0.0,0.0,0.0,0.0,,99154.0,99499.0,99525.0,99531.0,99548.0,99555.0,99578.0,99729.0,99763.0,,,,,
166,166,0.0,0.0,0.0,0.0,0.0,0.0,0.0,0.0,0.0,0.0,0.0,0.0,0.0,0.0,0.0,0.0,0.0,0.0,0.0,0.0,0.0,0.0,0.0,0.0,0.0,0.0,0.0,0.0,0.0,0.0,0.0,0.0,0.0,0.0,0.0,0.0,0.0,0.0,0.0,0.0,0.0,0.0,0.0,0.0,0.0,0.0,0.0,0.0,0.0,0.0,0.0,0.0,0.0,0.0,0.0,0.0,0.0,0.0,,99774.0,100119.0,100143.0,100150.0,100167.0,100174.0,100196.0,100347.0,100384.0,,,,,
167,167,0.0,0.0,0.0,0.0,0.0,0.0,0.0,0.0,0.0,0.0,0.0,0.0,0.0,0.0,0.0,0.0,0.0,0.0,0.0,0.0,0.0,0.0,0.0,0.0,0.0,0.0,0.0,0.0,0.0,0.0,0.0,0.0,0.0,0.0,0.0,0.0,0.0,0.0,0.0,0.0,0.0,0.0,0.0,0.0,0.0,0.0,0.0,0.0,0.0,0.0,0.0,0.0,0.0,0.0,0.0,0.0,0.0,0.0,,100389.0,100736.0,100760.0,100767.0,100784.0,100790.0,100814.0,100958.0,101000.0,,,,,
168,168,0.0,0.0,0.0,0.0,0.0,0.0,0.0,0.0,0.0,0.0,0.0,0.0,0.0,0.0,0.0,0.0,0.0,0.0,0.0,0.0,0.0,0.0,0.0,0.0,0.0,0.0,0.0,0.0,0.0,0.0,0.0,0.0,0.0,0.0,0.0,0.0,0.0,0.0,0.0,0.0,0.0,0.0,0.0,0.0,0.0,0.0,0.0,0.0,0.0,0.0,0.0,0.0,0.0,0.0,0.0,0.0,0.0,0.0,,100990.0,101334.0,101361.0,101367.0,101384.0,101391.0,101416.0,101565.0,101594.0,,,,,
169,169,102172.67324209036,1095.565436510782,7.158194329909751,102523.17805189872,-16408.990865219464,22.93168860777651,102550.80795531928,46507.36025091333,8.132736522822555,102577.39728720114,-17432.021650105624,20.383723206912453,102755.2066543114,2143.2829323608617,9.905070454719583,0.6766094019407861,348.0,325.0,80.0,183.0,263.0,23.0,9126.0,9116.0,24.0,12.0,12.0,0.5,60.500265625699136,922.64151376761,30.0,17.0,13.0,0.5666666666666667,922.4108010065944,14093.5703528127,17.0,9.0,8.0,0.5294117647058824,2558.9458258535587,27999.39512103506,25.0,12.0,13.0,0.48,1220.0530560088705,26586.39397624316,33.0,16.0,17.0,0.4848484848484848,55.545204155570325,1884.126507018375,0.0,0.0,0.0,0.0,102161.0,102184.0,102509.0,102536.0,102542.0,102559.0,102566.0,102589.0,102739.0,102772.0,0.05522286812769829,-0.05621374334248296,0.055022383812964426,-0.06998918889029018,0.02591594572835345
170,170,102755.1990867676,402.3028370790454,4.76146977872386,103106.17805189872,-17111.38223946452,22.93168860777651,103134.19111256595,47401.75443237685,8.115667268211789,103161.82194809864,-17705.844249777052,22.93168860777651,103339.10843243552,861.6614633289029,7.249028910184671,0.6311493329199783,342.0,326.0,84.0,178.0,262.0,16.0,582.0,583.0,16.0,8.0,8.0,0.5,55.499411425277415,395.09791994607576,95.0,81.0,14.0,0.8526315789473684,866.5482638447255,15312.440154664182,16.0,8.0,8.0,0.5,2581.824288445503,28952.70644014766,26.0,13.0,13.0,0.5,1077.549169182301,23463.390566518006,24.0,12.0,12.0,0.5,47.86377037340796,786.3720600760462,0.0,0.0,0.0,0.0,102747.0,102763.0,103089.0,103119.0,103126.0,103142.0,103149.0,103173.0,103327.0,103351.0,0.13795431279638917,-0.05064162857902723,0.05446685084470287,-0.060858389692198346,0.055548231423154626
171,171,103339.18262819073,169.01396476621596,3.6931354472095785,103693.75339099858,-17128.759137389272,25.47965400864057,103722.4812759312,47883.656995442856,8.205191662582727,103749.82194810128,-17712.1549981841,22.93168860777651,103926.792166237,799.3111983900814,6.483551800385023,0.6100282298050514,344.0,331.0,85.0,176.0,261.0,13.0,583.0,588.0,13.0,6.0,7.0,0.4615384615384615,47.72347610856062,117.70494386841074,102.0,88.0,14.0,0.8627450980392157,849.0217930918215,15778.452555483937,17.0,8.0,9.0,0.4705882352941176,2551.8979877704255,28933.824218742066,27.0,13.0,14.0,0.4814814814814814,1081.8975577974588,24266.92202426188,22.0,11.0,11.0,0.5,55.5860593830915,696.0137961730561,0.0,0.0,0.0,0.0,103333.0,103346.0,103677.0,103708.0,103714.0,103731.0,103737.0,103762.0,103916.0,103938.0,0.28236410035450527,-0.04956703438245834,0.05329371539047848,-0.06108220924604476,0.06954245041862192
172,172,103927.15818357845,180.3020446570232,3.3844334104436724,104284.17805189872,-16829.998108403943,22.93168860777651,104311.90888733733,45678.60883397768,8.185010621312276,104339.82194810107,-17356.9877168246,22.93168860777651,104516.4949146009,1323.8233511427843,7.526901238820876,0.6083288921922653,348.0,336.0,84.0,175.0,259.0,12.0,589.0,590.0,12.0,6.0,6.0,0.5,50.67395574754708,4628.323258977294,95.0,82.0,13.0,0.8631578947368421,896.5334089404856,15121.406365559,16.0,8.0,8.0,0.5,2474.7563919204304,27145.707346292817,29.0,14.0,15.0,0.4827586206896552,977.2320386869447,22474.795185524785,23.0,11.0,12.0,0.4782608695652174,73.08822112986188,1324.3798059894625,0.0,0.0,0.0,0.0,103921.0,103933.0,104269.0,104297.0,104304.0,104320.0,104327.0,104353.0,104505.0,104528.0,0.281050366588692,-0.053269964926069,0.05417757797561474,-0.056301937561417256,0.055209950078889916
173,173,104516.63139873128,1338.9013547947393,7.556524256959636,104868.17805189872,-17278.8883338218,22.93168860777651,104895.7678287349,45354.78506884876,8.29257168684882,104922.39728718223,-17600.075765996637,20.383723206912453,105097.75464293837,1884.8046391025991,9.88269677967456,0.6607330441725308,347.0,323.0,84.0,177.0,261.0,24.0,589.0,584.0,24.0,12.0,12.0,0.5,73.65747317028396,1230.0133786391991,63.0,50.0,13.0,0.7936507936507936,923.2066194056108,14673.983360389942,17.0,9.0,8.0,0.5294117647058824,2463.0622792813833,26827.053054559285,27.0,12.0,15.0,0.4444444444444444,1137.863621617153,26324.50806038075,31.0,16.0,15.0,0.5161290322580645,61.5589075854087,1821.8694957544412,0.0,0.0,0.0,0.0,104505.0,104529.0,104852.0,104881.0,104887.0,104904.0,104911.0,104936.0,105082.0,105113.0,0.055013368166750454,-0.0534297462643196,0.05430655829461972,-0.06465106382186755,0.0326606303424202
174,174,105097.868688647,619.2107082445843,5.094971687336311,105442.17805189872,-16963.937404389264,22.93168860777651,105469.6767911934,45360.03651588249,8.257572822076183,105496.39728720114,-17366.434535071523,20.383723206912453,105673.88285235009,1983.5054730882712,8.869863680071802,0.6471255706106185,338.0,321.0,83.0,178.0,261.0,17.0,581.0,574.0,17.0,9.0,8.0,0.5294117647058824,61.5589075854087,524.5502961871589,59.0,46.0,13.0,0.7796610169491526,928.265489191076,14291.359487960864,17.0,9.0,8.0,0.5294117647058824,2467.8478053372587,26742.04515475005,26.0,12.0,14.0,0.4615384615384615,1148.7437542869898,26060.37945969995,28.0,14.0,14.0,0.5,66.86272169646632,1715.3740342733004,0.0,0.0,0.0,0.0,105089.0,105106.0,105427.0,105455.0,105461.0,105478.0,105485.0,105510.0,105660.0,105688.0,0.09941512116275178,-0.054719931290886266,0.05440577201636863,-0.06614735753427689,0.033709370911068195
175,175,105673.71302221873,2457.1444313076277,10.240742258608249,106010.17805189872,-14664.64835089747,22.93168860777651,106038.0230175746,47154.724383172936,8.302795255733137,106062.76963427792,-16056.632119771508,22.93168860777651,106240.06438698764,4066.03105812562,12.885766498425529,0.7306300086596161,339.0,307.0,79.0,183.0,262.0,32.0,576.0,568.0,32.0,16.0,16.0,0.5,66.8627216964663,2185.821283565364,28.0,15.0,13.0,0.5357142857142857,889.9324279523523,13288.245198925351,17.0,9.0,8.0,0.5294117647058824,2480.5693228915675,28939.037328625567,24.0,10.0,14.0,0.4166666666666667,1301.491957569699,28196.503354489727,38.0,19.0,19.0,0.5,82.5491594706176,3755.604794404689,0.0,0.0,0.0,0.0,105658.0,105690.0,105997.0,106023.0,106029.0,106046.0,106053.0,106076.0,106221.0,106259.0,0.027211555350404742,-0.06068556208495029,0.05260489495675546,-0.08105634779830902,0.020302146808655105
176,176,106240.71246038078,711.9577323853814,4.902348706353015,106589.75339099858,-17751.906584492615,25.47965400864057,106618.41652554754,47208.02502961936,8.270078796858071,106645.82194810128,-18404.236431277135,22.93168860777651,106822.67312051484,497.3861322433823,4.878757491219751,0.6168701192234216,292.0,276.0,134.0,172.0,306.0,16.0,567.0,580.0,16.0,8.0,8.0,0.5,83.13501129185713,572.1591822802525,100.0,86.0,14.0,0.86,852.4208022062235,16313.83948742994,16.0,8.0,8.0,0.5,2506.178035461919,27482.33736471259,28.0,13.0,15.0,0.4642857142857143,1055.8670946471696,24552.61556652464,16.0,8.0,8.0,0.5,62.25358762745803,400.0006355873052,0.0,0.0,0.0,0.0,106233.0,106249.0,106525.0,106604.0,106610.0,106626.0,106633.0,106659.0,106815.0,106831.0,0.11676958829187391,-0.04801854933998276,0.053087966164428346,-0.057370872113595164,0.12516148640227054
177,177,106822.10477521204,318.91058680402284,4.272014235645259,107184.17805189872,-17335.733760141273,22.93168860777651,107212.21177697928,46398.11074302458,8.195943561231603,107238.39728720103,-18361.510798484072,20.383723206912453,107416.68847041752,640.8782905875865,5.641799665306429,0.6224147421671012,352.0,339.0,83.0,175.0,258.0,13.0,582.0,594.0,13.0,6.0,7.0,0.4615384615384615,51.27519808489081,2305.931052015074,94.0,81.0,13.0,0.8617021276595744,875.6292073780412,15090.675162881687,16.0,8.0,8.0,0.5,2543.886238850864,28155.259744083363,25.0,11.0,14.0,0.44,1258.3223249029695,28110.390964608072,18.0,9.0,9.0,0.5,64.76449224986469,530.4175311484469,0.0,0.0,0.0,0.0,106816.0,106829.0,107168.0,107197.0,107204.0,107220.0,107227.0,107251.0,107408.0,107426.0,0.16078236410633956,-0.050510074710036705,0.05482736684991658,-0.06853043514299796,0.10105583727993912
178,178,0.0,0.0,0.0,0.0,0.0,0.0,0.0,0.0,0.0,0.0,0.0,0.0,0.0,0.0,0.0,0.0,0.0,0.0,0.0,0.0,0.0,0.0,0.0,0.0,0.0,0.0,0.0,0.0,0.0,0.0,0.0,0.0,0.0,0.0,0.0,0.0,0.0,0.0,0.0,0.0,0.0,0.0,0.0,0.0,0.0,0.0,0.0,0.0,0.0,0.0,0.0,0.0,0.0,0.0,0.0,0.0,0.0,0.0,,107436.0,107787.0,107811.0,107818.0,107835.0,107842.0,107864.0,108012.0,108050.0,,,,,
179,179,0.0,0.0,0.0,0.0,0.0,0.0,0.0,0.0,0.0,0.0,0.0,0.0,0.0,0.0,0.0,0.0,0.0,0.0,0.0,0.0,0.0,0.0,0.0,0.0,0.0,0.0,0.0,0.0,0.0,0.0,0.0,0.0,0.0,0.0,0.0,0.0,0.0,0.0,0.0,0.0,0.0,0.0,0.0,0.0,0.0,0.0,0.0,0.0,0.0,0.0,0.0,0.0,0.0,0.0,0.0,0.0,0.0,0.0,,108069.0,108414.0,108436.0,108443.0,108461.0,108467.0,108488.0,108629.0,108683.0,,,,,
180,180,0.0,0.0,0.0,0.0,0.0,0.0,0.0,0.0,0.0,0.0,0.0,0.0,0.0,0.0,0.0,0.0,0.0,0.0,0.0,0.0,0.0,0.0,0.0,0.0,0.0,0.0,0.0,0.0,0.0,0.0,0.0,0.0,0.0,0.0,0.0,0.0,0.0,0.0,0.0,0.0,0.0,0.0,0.0,0.0,0.0,0.0,0.0,0.0,0.0,0.0,0.0,0.0,0.0,0.0,0.0,0.0,0.0,0.0,,108686.0,109029.0,109053.0,109060.0,109077.0,109083.0,109107.0,109252.0,109292.0,,,,,
181,181,0.0,0.0,0.0,0.0,0.0,0.0,0.0,0.0,0.0,0.0,0.0,0.0,0.0,0.0,0.0,0.0,0.0,0.0,0.0,0.0,0.0,0.0,0.0,0.0,0.0,0.0,0.0,0.0,0.0,0.0,0.0,0.0,0.0,0.0,0.0,0.0,0.0,0.0,0.0,0.0,0.0,0.0,0.0,0.0,0.0,0.0,0.0,0.0,0.0,0.0,0.0,0.0,0.0,0.0,0.0,0.0,0.0,0.0,,109285.0,109633.0,109659.0,109666.0,109682.0,109689.0,109713.0,109861.0,109891.0,,,,,
182,182,0.0,0.0,0.0,0.0,0.0,0.0,0.0,0.0,0.0,0.0,0.0,0.0,0.0,0.0,0.0,0.0,0.0,0.0,0.0,0.0,0.0,0.0,0.0,0.0,0.0,0.0,0.0,0.0,0.0,0.0,0.0,0.0,0.0,0.0,0.0,0.0,0.0,0.0,0.0,0.0,0.0,0.0,0.0,0.0,0.0,0.0,0.0,0.0,0.0,0.0,0.0,0.0,0.0,0.0,0.0,0.0,0.0,0.0,,,,,,,,,,,,,,,
183,183,0.0,0.0,0.0,0.0,0.0,0.0,0.0,0.0,0.0,0.0,0.0,0.0,0.0,0.0,0.0,0.0,0.0,0.0,0.0,0.0,0.0,0.0,0.0,0.0,0.0,0.0,0.0,0.0,0.0,0.0,0.0,0.0,0.0,0.0,0.0,0.0,0.0,0.0,0.0,0.0,0.0,0.0,0.0,0.0,0.0,0.0,0.0,0.0,0.0,0.0,0.0,0.0,0.0,0.0,0.0,0.0,0.0,0.0,,110491.0,110836.0,110861.0,110868.0,110885.0,110891.0,110916.0,111066.0,111094.0,,,,,
184,184,0.0,0.0,0.0,0.0,0.0,0.0,0.0,0.0,0.0,0.0,0.0,0.0,0.0,0.0,0.0,0.0,0.0,0.0,0.0,0.0,0.0,0.0,0.0,0.0,0.0,0.0,0.0,0.0,0.0,0.0,0.0,0.0,0.0,0.0,0.0,0.0,0.0,0.0,0.0,0.0,0.0,0.0,0.0,0.0,0.0,0.0,0.0,0.0,0.0,0.0,0.0,0.0,0.0,0.0,0.0,0.0,0.0,0.0,,111101.0,111448.0,111473.0,111480.0,111497.0,111503.0,111526.0,111676.0,111710.0,,,,,
185,185,0.0,0.0,0.0,0.0,0.0,0.0,0.0,0.0,0.0,0.0,0.0,0.0,0.0,0.0,0.0,0.0,0.0,0.0,0.0,0.0,0.0,0.0,0.0,0.0,0.0,0.0,0.0,0.0,0.0,0.0,0.0,0.0,0.0,0.0,0.0,0.0,0.0,0.0,0.0,0.0,0.0,0.0,0.0,0.0,0.0,0.0,0.0,0.0,0.0,0.0,0.0,0.0,0.0,0.0,0.0,0.0,0.0,0.0,,111720.0,112062.0,112086.0,112093.0,112110.0,112117.0,112138.0,112284.0,112327.0,,,,,
186,186,0.0,0.0,0.0,0.0,0.0,0.0,0.0,0.0,0.0,0.0,0.0,0.0,0.0,0.0,0.0,0.0,0.0,0.0,0.0,0.0,0.0,0.0,0.0,0.0,0.0,0.0,0.0,0.0,0.0,0.0,0.0,0.0,0.0,0.0,0.0,0.0,0.0,0.0,0.0,0.0,0.0,0.0,0.0,0.0,0.0,0.0,0.0,0.0,0.0,0.0,0.0,0.0,0.0,0.0,0.0,0.0,0.0,0.0,,112322.0,112669.0,112696.0,112703.0,112719.0,112726.0,112751.0,112898.0,112926.0,,,,,
187,187,0.0,0.0,0.0,0.0,0.0,0.0,0.0,0.0,0.0,0.0,0.0,0.0,0.0,0.0,0.0,0.0,0.0,0.0,0.0,0.0,0.0,0.0,0.0,0.0,0.0,0.0,0.0,0.0,0.0,0.0,0.0,0.0,0.0,0.0,0.0,0.0,0.0,0.0,0.0,0.0,0.0,0.0,0.0,0.0,0.0,0.0,0.0,0.0,0.0,0.0,0.0,0.0,0.0,0.0,0.0,0.0,0.0,0.0,,113525.0,113863.0,113895.0,113901.0,113917.0,113924.0,113949.0,114103.0,114123.0,,,,,
188,188,0.0,0.0,0.0,0.0,0.0,0.0,0.0,0.0,0.0,0.0,0.0,0.0,0.0,0.0,0.0,0.0,0.0,0.0,0.0,0.0,0.0,0.0,0.0,0.0,0.0,0.0,0.0,0.0,0.0,0.0,0.0,0.0,0.0,0.0,0.0,0.0,0.0,0.0,0.0,0.0,0.0,0.0,0.0,0.0,0.0,0.0,0.0,0.0,0.0,0.0,0.0,0.0,0.0,0.0,0.0,0.0,0.0,0.0,,114135.0,114479.0,114503.0,114510.0,114527.0,114533.0,114556.0,114704.0,114741.0,,,,,
189,189,0.0,0.0,0.0,0.0,0.0,0.0,0.0,0.0,0.0,0.0,0.0,0.0,0.0,0.0,0.0,0.0,0.0,0.0,0.0,0.0,0.0,0.0,0.0,0.0,0.0,0.0,0.0,0.0,0.0,0.0,0.0,0.0,0.0,0.0,0.0,0.0,0.0,0.0,0.0,0.0,0.0,0.0,0.0,0.0,0.0,0.0,0.0,0.0,0.0,0.0,0.0,0.0,0.0,0.0,0.0,0.0,0.0,0.0,,114748.0,115097.0,115121.0,115128.0,115145.0,115151.0,115174.0,115323.0,115360.0,,,,,
190,190,0.0,0.0,0.0,0.0,0.0,0.0,0.0,0.0,0.0,0.0,0.0,0.0,0.0,0.0,0.0,0.0,0.0,0.0,0.0,0.0,0.0,0.0,0.0,0.0,0.0,0.0,0.0,0.0,0.0,0.0,0.0,0.0,0.0,0.0,0.0,0.0,0.0,0.0,0.0,0.0,0.0,0.0,0.0,0.0,0.0,0.0,0.0,0.0,0.0,0.0,0.0,0.0,0.0,0.0,0.0,0.0,0.0,0.0,,115370.0,115720.0,115743.0,115750.0,115767.0,115774.0,115796.0,115938.0,115985.0,,,,,
191,191,0.0,0.0,0.0,0.0,0.0,0.0,0.0,0.0,0.0,0.0,0.0,0.0,0.0,0.0,0.0,0.0,0.0,0.0,0.0,0.0,0.0,0.0,0.0,0.0,0.0,0.0,0.0,0.0,0.0,0.0,0.0,0.0,0.0,0.0,0.0,0.0,0.0,0.0,0.0,0.0,0.0,0.0,0.0,0.0,0.0,0.0,0.0,0.0,0.0,0.0,0.0,0.0,0.0,0.0,0.0,0.0,0.0,0.0,,115984.0,116330.0,116354.0,116361.0,116378.0,116385.0,116409.0,116554.0,116592.0,,,,,
192,192,0.0,0.0,0.0,0.0,0.0,0.0,0.0,0.0,0.0,0.0,0.0,0.0,0.0,0.0,0.0,0.0,0.0,0.0,0.0,0.0,0.0,0.0,0.0,0.0,0.0,0.0,0.0,0.0,0.0,0.0,0.0,0.0,0.0,0.0,0.0,0.0,0.0,0.0,0.0,0.0,0.0,0.0,0.0,0.0,0.0,0.0,0.0,0.0,0.0,0.0,0.0,0.0,0.0,0.0,0.0,0.0,0.0,0.0,,116592.0,116932.0,116960.0,116966.0,116983.0,116990.0,117014.0,117166.0,117192.0,,,,,
193,193,0.0,0.0,0.0,0.0,0.0,0.0,0.0,0.0,0.0,0.0,0.0,0.0,0.0,0.0,0.0,0.0,0.0,0.0,0.0,0.0,0.0,0.0,0.0,0.0,0.0,0.0,0.0,0.0,0.0,0.0,0.0,0.0,0.0,0.0,0.0,0.0,0.0,0.0,0.0,0.0,0.0,0.0,0.0,0.0,0.0,0.0,0.0,0.0,0.0,0.0,0.0,0.0,0.0,0.0,0.0,0.0,0.0,0.0,,117186.0,117487.0,117557.0,117564.0,117580.0,117586.0,117612.0,117774.0,117780.0,,,,,
194,194,0.0,0.0,0.0,0.0,0.0,0.0,0.0,0.0,0.0,0.0,0.0,0.0,0.0,0.0,0.0,0.0,0.0,0.0,0.0,0.0,0.0,0.0,0.0,0.0,0.0,0.0,0.0,0.0,0.0,0.0,0.0,0.0,0.0,0.0,0.0,0.0,0.0,0.0,0.0,0.0,0.0,0.0,0.0,0.0,0.0,0.0,0.0,0.0,0.0,0.0,0.0,0.0,0.0,0.0,0.0,0.0,0.0,0.0,,117786.0,118129.0,118157.0,118164.0,118181.0,118187.0,118211.0,118367.0,118389.0,,,,,
195,195,0.0,0.0,0.0,0.0,0.0,0.0,0.0,0.0,0.0,0.0,0.0,0.0,0.0,0.0,0.0,0.0,0.0,0.0,0.0,0.0,0.0,0.0,0.0,0.0,0.0,0.0,0.0,0.0,0.0,0.0,0.0,0.0,0.0,0.0,0.0,0.0,0.0,0.0,0.0,0.0,0.0,0.0,0.0,0.0,0.0,0.0,0.0,0.0,0.0,0.0,0.0,0.0,0.0,0.0,0.0,0.0,0.0,0.0,,118390.0,118730.0,118761.0,118767.0,118784.0,118790.0,118816.0,118967.0,118991.0,,,,,
196,196,0.0,0.0,0.0,0.0,0.0,0.0,0.0,0.0,0.0,0.0,0.0,0.0,0.0,0.0,0.0,0.0,0.0,0.0,0.0,0.0,0.0,0.0,0.0,0.0,0.0,0.0,0.0,0.0,0.0,0.0,0.0,0.0,0.0,0.0,0.0,0.0,0.0,0.0,0.0,0.0,0.0,0.0,0.0,0.0,0.0,0.0,0.0,0.0,0.0,0.0,0.0,0.0,0.0,0.0,0.0,0.0,0.0,0.0,,118998.0,119341.0,119367.0,119374.0,119390.0,119397.0,119423.0,119573.0,119600.0,,,,,
197,197,0.0,0.0,0.0,0.0,0.0,0.0,0.0,0.0,0.0,0.0,0.0,0.0,0.0,0.0,0.0,0.0,0.0,0.0,0.0,0.0,0.0,0.0,0.0,0.0,0.0,0.0,0.0,0.0,0.0,0.0,0.0,0.0,0.0,0.0,0.0,0.0,0.0,0.0,0.0,0.0,0.0,0.0,0.0,0.0,0.0,0.0,0.0,0.0,0.0,0.0,0.0,0.0,0.0,0.0,0.0,0.0,0.0,0.0,,119598.0,119943.0,119970.0,119977.0,119993.0,120000.0,120025.0,120180.0,120200.0,,,,,
198,198,0.0,0.0,0.0,0.0,0.0,0.0,0.0,0.0,0.0,0.0,0.0,0.0,0.0,0.0,0.0,0.0,0.0,0.0,0.0,0.0,0.0,0.0,0.0,0.0,0.0,0.0,0.0,0.0,0.0,0.0,0.0,0.0,0.0,0.0,0.0,0.0,0.0,0.0,0.0,0.0,0.0,0.0,0.0,0.0,0.0,0.0,0.0,0.0,0.0,0.0,0.0,0.0,0.0,0.0,0.0,0.0,0.0,0.0,,120200.0,120550.0,120578.0,120584.0,120601.0,120608.0,120632.0,120786.0,120810.0,,,,,
199,199,0.0,0.0,0.0,0.0,0.0,0.0,0.0,0.0,0.0,0.0,0.0,0.0,0.0,0.0,0.0,0.0,0.0,0.0,0.0,0.0,0.0,0.0,0.0,0.0,0.0,0.0,0.0,0.0,0.0,0.0,0.0,0.0,0.0,0.0,0.0,0.0,0.0,0.0,0.0,0.0,0.0,0.0,0.0,0.0,0.0,0.0,0.0,0.0,0.0,0.0,0.0,0.0,0.0,0.0,0.0,0.0,0.0,0.0,,120813.0,121153.0,121181.0,121188.0,121205.0,121211.0,121235.0,121387.0,121412.0,,,,,
200,200,0.0,0.0,0.0,0.0,0.0,0.0,0.0,0.0,0.0,0.0,0.0,0.0,0.0,0.0,0.0,0.0,0.0,0.0,0.0,0.0,0.0,0.0,0.0,0.0,0.0,0.0,0.0,0.0,0.0,0.0,0.0,0.0,0.0,0.0,0.0,0.0,0.0,0.0,0.0,0.0,0.0,0.0,0.0,0.0,0.0,0.0,0.0,0.0,0.0,0.0,0.0,0.0,0.0,0.0,0.0,0.0,0.0,0.0,,121410.0,121749.0,121782.0,121789.0,121805.0,121811.0,121837.0,121995.0,122010.0,,,,,
201,201,0.0,0.0,0.0,0.0,0.0,0.0,0.0,0.0,0.0,0.0,0.0,0.0,0.0,0.0,0.0,0.0,0.0,0.0,0.0,0.0,0.0,0.0,0.0,0.0,0.0,0.0,0.0,0.0,0.0,0.0,0.0,0.0,0.0,0.0,0.0,0.0,0.0,0.0,0.0,0.0,0.0,0.0,0.0,0.0,0.0,0.0,0.0,0.0,0.0,0.0,0.0,0.0,0.0,0.0,0.0,0.0,0.0,0.0,,122011.0,122349.0,122377.0,122384.0,122400.0,122407.0,122433.0,122583.0,122606.0,,,,,
202,202,0.0,0.0,0.0,0.0,0.0,0.0,0.0,0.0,0.0,0.0,0.0,0.0,0.0,0.0,0.0,0.0,0.0,0.0,0.0,0.0,0.0,0.0,0.0,0.0,0.0,0.0,0.0,0.0,0.0,0.0,0.0,0.0,0.0,0.0,0.0,0.0,0.0,0.0,0.0,0.0,0.0,0.0,0.0,0.0,0.0,0.0,0.0,0.0,0.0,0.0,0.0,0.0,0.0,0.0,0.0,0.0,0.0,0.0,,122602.0,122938.0,122968.0,122975.0,122991.0,122998.0,123023.0,123176.0,123196.0,,,,,
203,203,123185.90781478195,213.27082980256944,3.34469520711215,123543.17805189872,-17215.987906290182,22.93168860777651,123571.30254972086,46398.88660243101,8.188964227625942,123598.82194810128,-17909.833628019176,22.93168860777651,123774.23076130066,798.2038327339257,5.585749665765521,0.6096419050234708,345.0,333.0,86.0,173.0,259.0,12.0,16362.0,16359.0,12.0,6.0,6.0,0.5,54.48036407018721,4374.485987290438,100.0,86.0,14.0,0.86,847.8103205745684,15511.274266938151,17.0,8.0,9.0,0.4705882352941176,2509.0437782372264,28217.631952475946,27.0,13.0,14.0,0.4814814814814814,1052.3974354972584,23713.07666748589,19.0,9.0,10.0,0.4736842105263157,64.76644799875794,706.6665065438046,0.0,0.0,0.0,0.0,123180.0,123192.0,123525.0,123556.0,123563.0,123580.0,123586.0,123611.0,123765.0,123784.0,0.2554515501281687,-0.04924552254505274,0.05407551693505008,-0.058760871672801425,0.08114023679506344
204,204,123774.26215732643,397.7203003194032,3.9214531173746248,124130.17805189872,-17740.00895154238,22.93168860777651,124157.52830058924,47539.586372988786,8.263658962983923,124184.82194810128,-18339.64843004252,22.93168860777651,124362.33494080255,430.98995970178487,4.573399586600942,0.6258616518953347,343.0,330.0,87.0,172.0,259.0,13.0,588.0,587.0,13.0,6.0,7.0,0.4615384615384615,64.76020437356325,362.0011555766701,95.0,82.0,13.0,0.8631578947368421,932.1169025486296,15101.794473957229,17.0,9.0,8.0,0.5294117647058824,2550.8207498578895,26372.12496135728,28.0,13.0,15.0,0.4642857142857143,1091.675313612954,24858.316493332823,15.0,7.0,8.0,0.4666666666666667,60.477562908680525,399.44291644257055,0.0,0.0,0.0,0.0,123768.0,123781.0,124111.0,124143.0,124149.0,124166.0,124172.0,124198.0,124355.0,124370.0,0.16282851119632394,-0.05254320361927371,0.05365677206033126,-0.05952542208086498,0.14032244034298805
205,205,0.0,0.0,0.0,0.0,0.0,0.0,0.0,0.0,0.0,0.0,0.0,0.0,0.0,0.0,0.0,0.0,0.0,0.0,0.0,0.0,0.0,0.0,0.0,0.0,0.0,0.0,0.0,0.0,0.0,0.0,0.0,0.0,0.0,0.0,0.0,0.0,0.0,0.0,0.0,0.0,0.0,0.0,0.0,0.0,0.0,0.0,0.0,0.0,0.0,0.0,0.0,0.0,0.0,0.0,0.0,0.0,0.0,0.0,,124371.0,124707.0,124735.0,124742.0,124758.0,124765.0,124789.0,124943.0,124966.0,,,,,
206,206,124954.60422673372,229.74829914071563,3.4875644800584755,125316.17805189872,-17915.63960389179,22.93168860777651,125343.6968685094,47322.725587299465,8.255136235936616,125370.82194810128,-18174.521249078218,22.93168860777651,125547.62894452996,486.9975617420645,4.979603334438851,0.6017125157219619,287.0,275.0,147.0,173.0,320.0,12.0,1182.0,1186.0,12.0,6.0,6.0,0.5,57.76289548443712,4535.95841673007,101.0,88.0,13.0,0.8712871287128713,903.3077625732412,15296.070104316284,16.0,8.0,8.0,0.5,2543.9309306817877,26724.6876836817,27.0,13.0,14.0,0.4814814814814814,1111.1512839460852,25044.98212512745,16.0,8.0,8.0,0.5,62.45745824756644,410.2747694558293,0.0,0.0,0.0,0.0,124949.0,124961.0,125236.0,125329.0,125336.0,125352.0,125358.0,125383.0,125540.0,125556.0,0.2514181637055718,-0.05042006774779154,0.05375706701400418,-0.0611378571527677,0.12825004302721066
207,207,125547.66782690604,1916.0089200271543,9.162149498954664,125885.60271279886,-14359.885156197752,20.383723206912453,125912.5054241315,48890.8666227687,8.385754853131331,125934.19525921842,-17434.278452979568,22.93168860777651,126115.63973743554,3347.6163095636766,12.268205661820884,0.7208913846381257,340.0,310.0,77.0,185.0,262.0,30.0,592.0,568.0,30.0,15.0,15.0,0.5,62.29252457708677,1668.2717247447167,25.0,14.0,11.0,0.56,1032.1897430718673,11347.093343974111,17.0,9.0,8.0,0.5294117647058824,2549.0299641793404,27816.975976427737,23.0,7.0,16.0,0.3043478260869565,1670.4225022605517,35212.99574217413,39.0,20.0,19.0,0.5128205128205128,64.76337961559057,3018.426471685263,0.0,0.0,0.0,0.0,125533.0,125563.0,125873.0,125897.0,125904.0,125921.0,125927.0,125950.0,126096.0,126135.0,0.03251160468303245,-0.07188008342994111,0.052137140129814054,-0.09581254003517832,0.019346117842289914
208,208,126115.4928586095,2981.062678577957,11.758807318367722,126447.17805189872,-14242.544129992168,22.93168860777651,126475.27785792688,49203.337905106775,8.379188425015114,126495.8671335791,-17784.243861050374,20.383723206912453,126677.76128121672,4047.8351650210534,13.358099981943134,0.7541283826862808,339.0,302.0,76.0,186.0,262.0,37.0,571.0,563.0,37.0,18.0,19.0,0.4864864864864865,63.40645576733933,2829.8836626162747,27.0,14.0,13.0,0.5185185185185185,890.1564391165399,13109.530600076952,17.0,9.0,8.0,0.5294117647058824,2555.1619858610384,29271.981656846237,22.0,6.0,16.0,0.2727272727272727,1706.019892449222,35405.328478651725,40.0,20.0,20.0,0.5,76.40934521874637,3688.5744468035255,0.0,0.0,0.0,0.0,126097.0,126134.0,126436.0,126460.0,126466.0,126483.0,126490.0,126512.0,126658.0,126698.0,0.02126974928201974,-0.062499819624362955,0.05193066354134158,-0.09592872802343934,0.018876595044934087
209,209,127814.9404186096,1577.29545710755,8.511416183732598,128155.17805189872,-15506.342932851994,22.93168860777651,128183.05289408202,45581.76632764738,8.184102154200648,128208.71132091006,-16690.08630048985,20.383723206912453,128386.41464926169,2411.8941151275953,10.07765679746036,0.6944348945411544,341.0,313.0,79.0,182.0,261.0,28.0,1697.0,1708.0,28.0,14.0,14.0,0.5,57.793622826297266,1389.9361220681865,30.0,17.0,13.0,0.5666666666666667,877.8388042441076,13487.298779685072,16.0,8.0,8.0,0.5,2481.026496252157,28178.20715351073,24.0,11.0,13.0,0.4583333333333333,1199.0613866932342,25932.19394123442,33.0,16.0,17.0,0.4848484848484848,65.15545300900642,2176.314688155626,0.0,0.0,0.0,0.0,127801.0,127829.0,128142.0,128168.0,128175.0,128191.0,128198.0,128221.0,128370.0,128403.0,0.0366409619490564,-0.056611594883813884,0.054430240338170115,-0.07184273137389602,0.02701422612226057
210,210,128386.48752868456,508.00073713119315,5.024675340759249,128732.17805189872,-17381.01787131944,22.93168860777651,128759.885605907,45942.7225991661,8.172653508170455,128786.39728719975,-18378.31195965612,20.383723206912453,128963.59501107894,1195.898191605481,7.452687563277145,0.6317942336777258,338.0,321.0,83.0,176.0,259.0,17.0,573.0,577.0,17.0,8.0,9.0,0.4705882352941176,64.61295129607879,492.8406352797547,95.0,82.0,13.0,0.8631578947368421,902.4961044837596,14972.77987773547,16.0,8.0,8.0,0.5,2528.9332596660365,26846.48419617932,26.0,12.0,14.0,0.4615384615384615,1217.3102087572984,27431.75503992946,23.0,12.0,11.0,0.5217391304347826,67.38038538523867,1082.6323454357912,0.0,0.0,0.0,0.0,128378.0,128395.0,128716.0,128745.0,128752.0,128768.0,128775.0,128799.0,128952.0,128975.0,0.127190664448568,-0.05192423776129796,0.055045350309995314,-0.06623623602807076,0.056342911008821904
211,211,128963.9977539856,390.5590552367291,4.1980089090923824,129315.17805189872,-16890.139261112465,22.93168860777651,129343.2651703372,46375.78912077964,8.094284153673891,129370.8219480484,-17449.87884337888,22.93168860777651,129548.4505087982,540.9194218058349,5.655700202003029,0.6369502207405663,341.0,327.0,84.0,176.0,260.0,14.0,575.0,583.0,14.0,7.0,7.0,0.5,67.25511475764792,335.94506434697905,92.0,78.0,14.0,0.8478260869565217,842.2751366798914,15285.889687881256,17.0,8.0,9.0,0.4705882352941176,2529.6295393470195,28362.68928948438,26.0,13.0,13.0,0.5,1070.7818269026766,23257.924274246427,19.0,9.0,10.0,0.4736842105263157,54.83897299683243,519.3778617837124,0.0,0.0,0.0,0.0,128957.0,128971.0,129298.0,129328.0,129335.0,129352.0,129358.0,129382.0,129539.0,129558.0,0.1722021647069037,-0.0498678621684979,0.054546339529855374,-0.061363281459628605,0.10138103899792508
212,212,0.0,0.0,0.0,0.0,0.0,0.0,0.0,0.0,0.0,0.0,0.0,0.0,0.0,0.0,0.0,0.0,0.0,0.0,0.0,0.0,0.0,0.0,0.0,0.0,0.0,0.0,0.0,0.0,0.0,0.0,0.0,0.0,0.0,0.0,0.0,0.0,0.0,0.0,0.0,0.0,0.0,0.0,0.0,0.0,0.0,0.0,0.0,0.0,0.0,0.0,0.0,0.0,0.0,0.0,0.0,0.0,0.0,0.0,,129557.0,129893.0,129923.0,129930.0,129946.0,129953.0,129978.0,130137.0,130151.0,,,,,
213,213,0.0,0.0,0.0,0.0,0.0,0.0,0.0,0.0,0.0,0.0,0.0,0.0,0.0,0.0,0.0,0.0,0.0,0.0,0.0,0.0,0.0,0.0,0.0,0.0,0.0,0.0,0.0,0.0,0.0,0.0,0.0,0.0,0.0,0.0,0.0,0.0,0.0,0.0,0.0,0.0,0.0,0.0,0.0,0.0,0.0,0.0,0.0,0.0,0.0,0.0,0.0,0.0,0.0,0.0,0.0,0.0,0.0,0.0,,130746.0,131086.0,131112.0,131119.0,131136.0,131142.0,131167.0,131318.0,131343.0,,,,,
214,214,0.0,0.0,0.0,0.0,0.0,0.0,0.0,0.0,0.0,0.0,0.0,0.0,0.0,0.0,0.0,0.0,0.0,0.0,0.0,0.0,0.0,0.0,0.0,0.0,0.0,0.0,0.0,0.0,0.0,0.0,0.0,0.0,0.0,0.0,0.0,0.0,0.0,0.0,0.0,0.0,0.0,0.0,0.0,0.0,0.0,0.0,0.0,0.0,0.0,0.0,0.0,0.0,0.0,0.0,0.0,0.0,0.0,0.0,,,,,,,,,,,,,,,
215,215,131929.49625650348,322.3175135995365,4.104532373219476,132291.17805189872,-17393.95548531008,22.93168860777651,132319.15302269623,46152.39048404208,8.161380701941129,132345.3972871882,-18882.05070358936,20.383723206912453,132523.47423767112,575.6691548949702,5.565515863352366,0.6233804155106166,352.0,339.0,83.0,174.0,257.0,13.0,2967.0,2976.0,13.0,6.0,7.0,0.4615384615384615,52.4519458316303,3305.3762426600715,97.0,84.0,13.0,0.865979381443299,875.2774553181263,15253.284899059352,16.0,8.0,8.0,0.5,2544.159651743882,27329.571511452803,25.0,11.0,14.0,0.44,1256.8356677652123,28371.575427938344,18.0,9.0,9.0,0.5,59.808289916941675,631.9168803158445,0.0,0.0,0.0,0.0,131923.0,131936.0,132275.0,132304.0,132311.0,132327.0,132334.0,132358.0,132514.0,132532.0,0.16273377529462837,-0.05032078276027178,0.0551251977429764,-0.06656245592679695,0.10389351141777535
216,216,0.0,0.0,0.0,0.0,0.0,0.0,0.0,0.0,0.0,0.0,0.0,0.0,0.0,0.0,0.0,0.0,0.0,0.0,0.0,0.0,0.0,0.0,0.0,0.0,0.0,0.0,0.0,0.0,0.0,0.0,0.0,0.0,0.0,0.0,0.0,0.0,0.0,0.0,0.0,0.0,0.0,0.0,0.0,0.0,0.0,0.0,0.0,0.0,0.0,0.0,0.0,0.0,0.0,0.0,0.0,0.0,0.0,0.0,,132534.0,132873.0,132901.0,132907.0,132924.0,132930.0,132956.0,133109.0,133129.0,,,,,
217,217,133119.24229216055,297.05420790846085,3.398379703041744,133476.17805189872,-17322.53061091655,22.93168860777651,133504.21556927043,45210.69380187653,8.203740149243414,133531.82194810128,-17597.569267577037,22.93168860777651,133707.32132974808,1042.0364289244667,7.532286906643721,0.603771383181194,346.0,335.0,86.0,173.0,259.0,11.0,1190.0,1185.0,11.0,5.0,6.0,0.4545454545454545,73.43756547641696,4370.029620385974,96.0,82.0,14.0,0.8541666666666666,856.6239536194058,15793.640467193924,16.0,8.0,8.0,0.5,2446.705286867429,27237.75467985548,29.0,13.0,16.0,0.4482758620689655,991.0554992177714,23234.462521011803,24.0,12.0,12.0,0.5,58.97229963283647,1065.3902273212066,0.0,0.0,0.0,0.0,133114.0,133125.0,133460.0,133489.0,133496.0,133512.0,133519.0,133546.0,133695.0,133719.0,0.2472194081796923,-0.049451432522195506,0.05411784427793664,-0.056317749579412636,0.05659331861718545
218,218,0.0,0.0,0.0,0.0,0.0,0.0,0.0,0.0,0.0,0.0,0.0,0.0,0.0,0.0,0.0,0.0,0.0,0.0,0.0,0.0,0.0,0.0,0.0,0.0,0.0,0.0,0.0,0.0,0.0,0.0,0.0,0.0,0.0,0.0,0.0,0.0,0.0,0.0,0.0,0.0,0.0,0.0,0.0,0.0,0.0,0.0,0.0,0.0,0.0,0.0,0.0,0.0,0.0,0.0,0.0,0.0,0.0,0.0,,133715.0,134050.0,134080.0,134087.0,134103.0,134110.0,134136.0,134297.0,134302.0,,,,,
219,219,0.0,0.0,0.0,0.0,0.0,0.0,0.0,0.0,0.0,0.0,0.0,0.0,0.0,0.0,0.0,0.0,0.0,0.0,0.0,0.0,0.0,0.0,0.0,0.0,0.0,0.0,0.0,0.0,0.0,0.0,0.0,0.0,0.0,0.0,0.0,0.0,0.0,0.0,0.0,0.0,0.0,0.0,0.0,0.0,0.0,0.0,0.0,0.0,0.0,0.0,0.0,0.0,0.0,0.0,0.0,0.0,0.0,0.0,,134307.0,134643.0,134672.0,134679.0,134695.0,134702.0,134726.0,134883.0,134898.0,,,,,
220,220,134890.1740393011,337.9979389051912,4.1682031264021475,135250.17805189872,-17592.174411894568,22.93168860777651,135277.4886835839,47491.27130506995,8.224100907228001,135304.82194810128,-18685.846108493595,22.93168860777651,135482.4595513295,113.07468194091544,2.42253909762414,0.6164425852269204,348.0,335.0,85.0,170.0,255.0,13.0,1771.0,1774.0,13.0,6.0,7.0,0.4615384615384615,54.265489293955106,3654.4845245993706,93.0,80.0,13.0,0.8602150537634409,934.4665944826526,15131.38655330426,17.0,8.0,9.0,0.4705882352941176,2547.115065581647,28625.951316014347,28.0,13.0,15.0,0.4642857142857143,1091.1457384637613,24837.81123287451,9.0,4.0,5.0,0.4444444444444444,62.04608120536459,121.63890066807517,0.0,0.0,0.0,0.0,134884.0,134897.0,135232.0,135263.0,135269.0,135286.0,135292.0,135317.0,135478.0,135487.0,0.16054976391195286,-0.053118311165152685,0.053633330832938315,-0.05839423765605049,0.5487177159409153
