Unnamed: 0,cycle,p_center,p_height,p_width,q_center,q_height,q_width,r_center,r_height,r_width,s_center,s_height,s_width,t_center,t_height,t_width,r_squared,pr_interval,pr_segment,qrs_duration,st_segment,qt_interval,p_duration,pp_interval,rr_interval,fwhm_p,rise_time_p,decay_time_p,rise_decay_symmetry_p,sharpness_deriv_p,sharpness_diff_p,fwhm_q,rise_time_q,decay_time_q,rise_decay_symmetry_q,sharpness_deriv_q,sharpness_diff_q,fwhm_r,rise_time_r,decay_time_r,rise_decay_symmetry_r,sharpness_deriv_r,sharpness_diff_r,fwhm_s,rise_time_s,decay_time_s,rise_decay_symmetry_s,sharpness_deriv_s,sharpness_diff_s,fwhm_t,rise_time_t,decay_time_t,rise_decay_symmetry_t,sharpness_deriv_t,sharpness_diff_t,Average_Heart_Rate,SDNN,RMSSD,NN50,p_on,p_off,q_on,q_off,r_on,r_off,s_on,s_off,t_on,t_off,sharpness_deriv_p_norm,sharpness_deriv_q_norm,sharpness_deriv_r_norm,sharpness_deriv_s_norm,sharpness_deriv_t_norm
0,0,0.0,0.0,0.0,0.0,0.0,0.0,0.0,0.0,0.0,0.0,0.0,0.0,0.0,0.0,0.0,0.0,0.0,0.0,0.0,0.0,0.0,0.0,0.0,0.0,0.0,0.0,0.0,0.0,0.0,0.0,0.0,0.0,0.0,0.0,0.0,0.0,0.0,0.0,0.0,0.0,0.0,0.0,0.0,0.0,0.0,0.0,0.0,0.0,0.0,0.0,0.0,0.0,0.0,0.0,63.90015104731993,342.71516422031124,489.4208074321573,1106.0,,,,,,,,,,,,,,,
1,1,0.0,0.0,0.0,0.0,0.0,0.0,0.0,0.0,0.0,0.0,0.0,0.0,0.0,0.0,0.0,0.0,0.0,0.0,0.0,0.0,0.0,0.0,0.0,0.0,0.0,0.0,0.0,0.0,0.0,0.0,0.0,0.0,0.0,0.0,0.0,0.0,0.0,0.0,0.0,0.0,0.0,0.0,0.0,0.0,0.0,0.0,0.0,0.0,0.0,0.0,0.0,0.0,0.0,0.0,0.0,0.0,0.0,0.0,,,,,,,,,,,,,,,
2,2,2142.4458596974355,1823.874661501172,6.338562344882802,2197.5479654008636,-1887.9068917811376,15.28779240518434,2264.026210608601,36051.028775088744,10.078418512960274,2290.8389162683,-13985.61111755111,12.25813459235165,2503.1309964633224,14385.015393941714,34.790855002392924,0.9680276899927418,56.0,36.0,117.0,241.0,358.0,20.0,,,22.0,11.0,11.0,0.5,181.866145219944,1587.782283693616,51.0,12.0,39.0,0.2352941176470588,163.71623437110574,2296.4529277919933,23.0,12.0,11.0,0.5217391304347826,1982.8473578886485,31440.632916861177,23.0,8.0,15.0,0.3478260869565217,1150.043595693553,22375.26602808214,83.0,40.0,43.0,0.4819277108433735,128.76895966741455,14829.648483101246,0.0,0.0,0.0,0.0,2132.0,2152.0,2188.0,2201.0,2252.0,2275.0,2283.0,2305.0,2464.0,2546.0,0.09971416844524605,-0.08671838377402626,0.055001131042862104,-0.0822304857490508,0.00895160388369455
3,3,3001.3546180039884,2550.1582148717885,7.58142738795158,3083.3425398031677,-2887.903994960981,56.05523881900877,3124.6292157203607,37754.00369347289,10.664517171462018,3149.328730098546,-13527.574100825645,12.762814904821337,3365.609969751616,13574.763971067276,32.52400715621103,0.9539208747835068,38.0,25.0,134.0,241.0,375.0,13.0,856.0,861.0,13.0,7.0,6.0,0.5384615384615384,185.11686978316047,1279.4871999176653,68.0,54.0,14.0,0.7941176470588235,144.58108062522663,2002.7737908406505,24.0,13.0,11.0,0.5416666666666666,2013.2796243882249,28723.19967900839,25.0,7.0,18.0,0.28,1299.0026861535628,25566.647494041255,88.0,45.0,43.0,0.5113636363636364,125.87414441252186,13035.082824772777,0.0,0.0,0.0,0.0,2994.0,3007.0,3032.0,3096.0,3113.0,3135.0,3143.0,3166.0,3321.0,3407.0,0.07259034702380902,-0.05006436532429815,0.053326254898266354,-0.09602628501397595,0.00927265804995248
4,4,3887.775452820204,1906.051490659291,8.527640997097281,3974.219235302447,-2456.306903231174,43.31541181468896,4009.7574852561615,35959.70516716991,10.333574017050587,4038.2176129932905,-12073.529287116471,11.772462231550524,4251.405017052712,13553.172037041117,33.61222016901593,0.9578643267612986,50.0,30.0,126.0,241.0,367.0,20.0,884.0,885.0,20.0,12.0,8.0,0.6,134.4613659534689,1435.2677023601389,60.0,50.0,10.0,0.8333333333333334,252.45717318322843,409.04427588406134,23.0,12.0,11.0,0.5217391304347826,1927.3413568997012,32154.86250172458,23.0,8.0,15.0,0.3478260869565217,1040.2310081765386,19690.382308051572,86.0,43.0,43.0,0.5,113.61144217432155,13648.944087723394,0.0,0.0,0.0,0.0,3876.0,3896.0,3926.0,3984.0,3998.0,4021.0,4030.0,4052.0,4209.0,4293.0,0.07054445622922788,-0.10277916527903376,0.05359725136621264,-0.08615798938646362,0.00838264591224984
5,5,4716.053444677237,2217.0434847413435,4.866502545858987,4783.356103797409,-4019.540766619794,45.86337721555302,4835.375689964991,38120.41917352538,10.803370617109788,4861.328730098417,-14539.45682324136,19.717801102507455,5076.009021009315,12574.017973602382,28.22513471667496,0.9382254733664936,35.0,28.0,132.0,232.0,364.0,7.0,831.0,825.0,7.0,4.0,3.0,0.5714285714285714,190.44944208099508,338.14009365638435,65.0,39.0,26.0,0.6,113.5387305786405,4122.966840708911,23.0,12.0,11.0,0.5217391304347826,1879.948975479332,28038.126982995247,27.0,7.0,20.0,0.2592592592592592,1222.8462316070572,26306.464970648416,74.0,37.0,37.0,0.5,166.31890925857363,12332.605759211892,0.0,0.0,0.0,0.0,4712.0,4719.0,4747.0,4809.0,4823.0,4846.0,4855.0,4879.0,5040.0,5111.0,0.08590243871703504,-0.0282466921399382,0.04931606252601115,-0.08410535871273639,0.013227188763984583
6,6,5516.334438058026,3367.0852582298116,10.191861603456228,5553.207417784429,-2653.719838358758,58.60320421987331,5633.052292282833,35700.816269777955,10.1848326297107,5660.969627432487,-13988.360350268033,11.977255311647816,5872.908142616778,13826.2220418198,31.625161278004757,0.9590519609953936,24.0,14.0,138.0,239.0,377.0,10.0,800.0,799.0,10.0,4.0,6.0,0.4,144.2733128955726,805.8384600663397,60.0,18.0,42.0,0.3,124.35542469645436,2768.9413973257906,23.0,12.0,11.0,0.5217391304347826,1942.9983831882575,32571.488340790875,23.0,9.0,14.0,0.391304347826087,1145.6322994453917,21789.879848054392,79.0,39.0,40.0,0.4936708860759494,137.26323379833593,14199.753068055208,0.0,0.0,0.0,0.0,5512.0,5522.0,5536.0,5595.0,5621.0,5644.0,5653.0,5674.0,5834.0,5913.0,0.042848131790824286,-0.04686079626753828,0.05442448061987525,-0.08189896962608917,0.00992774695670007
7,7,6323.726017299569,2587.115982159138,4.209280403488009,6390.7807646975525,-3753.875161580111,43.31541181468896,6440.940277486416,40824.83873625217,10.38687468739349,6464.7533909985605,-14599.825507025018,18.578337409731972,6681.00413745851,13532.405840347034,29.690178545144445,0.941942679199099,17.0,7.0,148.0,235.0,383.0,10.0,809.0,807.0,10.0,6.0,4.0,0.6,220.38860759005897,923.775832629322,81.0,57.0,24.0,0.7037037037037037,104.92270553797624,3493.965146555829,23.0,12.0,11.0,0.5217391304347826,2003.85711406809,28278.983875278667,26.0,7.0,19.0,0.2692307692307692,1344.3485380141128,27834.1243487263,77.0,39.0,38.0,0.5064935064935064,125.009186767214,13588.755433558848,0.0,0.0,0.0,0.0,6318.0,6328.0,6335.0,6415.0,6429.0,6451.0,6459.0,6483.0,6643.0,6718.0,0.0851869839272256,-0.027950504750885573,0.049084262818867644,-0.09207976748538883,0.009237765127801414
8,8,7177.301356399425,2288.188249602796,10.191861603455708,7237.794574402304,-1857.586184155546,40.767446413824906,7296.750295371286,37156.21319229089,10.56246451458415,7320.75339099856,-14485.643147873949,12.684355710975773,7536.162996344336,14647.005598049474,34.10991875289472,0.9525879162217712,44.0,32.0,122.0,242.0,364.0,12.0,854.0,855.0,23.0,15.0,8.0,0.6521739130434783,192.5122284590662,1122.0134762099508,55.0,24.0,31.0,0.4363636363636363,93.50492700007456,1413.1306956396063,24.0,13.0,11.0,0.5416666666666666,1986.43955282574,28281.36166985968,23.0,7.0,16.0,0.3043478260869565,1298.1509835010013,25043.781359865858,83.0,39.0,44.0,0.4698795180722891,131.7491462138231,14802.449732978788,0.0,0.0,0.0,0.0,7171.0,7183.0,7215.0,7269.0,7284.0,7307.0,7315.0,7337.0,7497.0,7579.0,0.08413303778326987,-0.05033679072208521,0.053461840757170684,-0.0896163857033528,0.008994954315533817
9,9,8075.452034599137,1992.4481503035777,8.773585438549338,8161.876695499894,-2583.1721323561974,12.739827003824455,8196.792279132678,35924.29776605182,10.520861863093955,8222.32873009843,-14335.911939085874,14.290737367198524,8437.010824158308,13557.590688292128,33.60119337146279,0.9697370611425682,76.0,54.0,101.0,241.0,342.0,22.0,899.0,900.0,23.0,14.0,9.0,0.6086956521739131,150.39672894631266,1740.34161262614,57.0,49.0,8.0,0.8596491228070176,354.5792860890558,1925.1741938914015,24.0,13.0,11.0,0.5416666666666666,1965.8666908151204,28245.8073633196,25.0,7.0,18.0,0.28,1232.826392013984,24538.30036229631,85.0,41.0,44.0,0.4823529411764706,165.59800646774724,14137.358260693003,0.0,0.0,0.0,0.0,8062.0,8084.0,8138.0,8169.0,8184.0,8207.0,8216.0,8239.0,8398.0,8480.0,0.07548338405865046,-0.13726506323279053,0.054722480690293375,-0.08599567277284734,0.012214412595502828
10,10,8894.760033436221,3137.6103130396114,10.191861603390416,8944.657460314611,-2488.382102360003,56.05523881900916,9015.875619892651,38772.0874533038,10.29415517903613,9040.904069198274,-14128.2172083804,16.549568403174664,9255.907437602578,13729.241251454338,31.64607648703666,0.9512510738492046,48.0,32.0,128.0,236.0,364.0,16.0,818.0,820.0,16.0,11.0,5.0,0.6875,176.82154073468251,1412.3772542041315,70.0,27.0,43.0,0.3857142857142857,124.69891405124882,2289.110522803013,23.0,12.0,11.0,0.5217391304347826,2036.1723547812037,28851.364805097375,26.0,7.0,19.0,0.2692307692307692,1165.0637694087206,25894.234216078625,81.0,41.0,40.0,0.5061728395061729,128.02260231550528,14577.38087893415,0.0,0.0,0.0,0.0,8884.0,8900.0,8932.0,8987.0,9004.0,9026.0,9034.0,9060.0,9218.0,9296.0,0.05635548174986197,-0.05011244612834311,0.05251644903652718,-0.08246360826882267,0.009324812636819522
11,11,9762.03861432427,2857.164280762518,8.412435056371157,9825.36991350209,-1972.3674210677016,38.21948100337167,9882.53113507669,36436.87841803179,10.64793150552006,9907.32873010121,-14790.778435828784,12.199588945341358,10123.665467347357,13813.655396002388,33.05166403216054,0.9643164774951628,53.0,35.0,119.0,241.0,360.0,18.0,868.0,866.0,20.0,12.0,8.0,0.6,179.0887381482034,2323.1531223291586,71.0,41.0,30.0,0.5774647887323944,109.30864405208396,2232.5519077000818,24.0,13.0,11.0,0.5416666666666666,1977.865866469004,28092.65685591012,23.0,7.0,16.0,0.3043478260869565,1312.5221545047789,25270.073271150963,82.0,42.0,40.0,0.5121951219512195,142.6436925684784,14242.594501295223,0.0,0.0,0.0,0.0,9751.0,9769.0,9804.0,9855.0,9870.0,9893.0,9901.0,9923.0,10082.0,10164.0,0.06268058835609142,-0.055420021079496395,0.054281978927432015,-0.08873922087328145,0.01032628138456088
12,12,10693.904069198274,2861.3625658132137,19.526770697078295,10747.349027431912,-1328.829170009821,4.991591911479103,10816.580223432966,35737.32019774082,10.369957890737576,10841.818742477531,-12988.06810440288,10.511811491248762,11061.684833895826,15314.144234799496,37.77171771272947,0.9694149082357616,72.0,30.0,115.0,247.0,362.0,42.0,935.0,934.0,42.0,25.0,17.0,0.5952380952380952,105.14993657449098,2891.560536388469,13.0,6.0,7.0,0.4615384615384615,146.6900521024723,1256.1333365278986,24.0,13.0,11.0,0.5416666666666666,1960.0852347400753,29879.35425411427,22.0,7.0,15.0,0.3181818181818182,1241.2232591911852,22429.32208539168,87.0,46.0,41.0,0.5287356321839081,129.16144122667404,15284.87216746348,0.0,0.0,0.0,0.0,10669.0,10711.0,10741.0,10754.0,10804.0,10828.0,10835.0,10856.0,11016.0,11103.0,0.036748204450143436,-0.1103904515441877,0.054847012140098426,-0.09556642675521679,0.008434127251666512
13,13,11557.698643600574,3334.2345568867104,10.191861603456228,11623.315166104174,-3454.582440849221,73.89099662505764,11675.84261020578,36992.028786687675,10.681378467689417,11701.328730098418,-12733.904045244371,16.997394332915107,11918.302227516288,12846.401839403055,30.766864613392013,0.9431142299385572,30.0,20.0,139.0,234.0,373.0,10.0,857.0,859.0,12.0,7.0,5.0,0.5833333333333334,160.16827276621453,647.4904316335858,68.0,41.0,27.0,0.6029411764705882,115.36697091646046,2972.0283151959643,23.0,12.0,11.0,0.5217391304347826,1913.6198730347437,26610.95422040767,27.0,6.0,21.0,0.2222222222222222,1119.296861178695,26050.63355849228,76.0,38.0,38.0,0.5,129.29022800333289,12953.592519618916,0.0,0.0,0.0,0.0,11552.0,11562.0,11582.0,11650.0,11664.0,11686.0,11695.0,11721.0,11880.0,11955.0,0.048037494073533075,-0.033395344558082234,0.051730600775359424,-0.08789895519879544,0.0100643144765072
14,14,12415.782702021252,1681.8394925277337,6.563003596258149,12499.027373698991,-2633.475347898703,17.8357578060484,12535.917434981831,37577.9561564492,10.507053789371612,12560.328730098418,-14577.773485362372,13.991331588983083,12777.12340010606,14003.644604722724,32.821314281388915,0.9615279060064728,47.0,30.0,123.0,240.0,363.0,17.0,861.0,861.0,20.0,11.0,9.0,0.55,129.8300433225724,1277.5739042156608,57.0,47.0,10.0,0.8245614035087719,242.62138111635429,132.65404004653874,24.0,13.0,11.0,0.5416666666666666,2007.1413301413463,29345.08484242729,25.0,6.0,19.0,0.24,1301.24794859967,26102.606105432023,82.0,41.0,41.0,0.5,125.7138726749193,14387.116816037342,0.0,0.0,0.0,0.0,12408.0,12425.0,12455.0,12509.0,12524.0,12547.0,12554.0,12578.0,12736.0,12818.0,0.07719526381643194,-0.09212973317177478,0.05341273276771538,-0.0892624617817159,0.00897722530265602
15,15,13333.317726634736,2217.860715113534,9.615042478437118,13392.39728720115,-2055.7192824333424,20.383723206858537,13449.85390289444,35164.19198017414,9.848320214304016,13477.281651354817,-13859.680638688478,10.263554169945529,13693.260172995922,14309.46939337144,35.11469781192331,0.9633199988924784,60.0,37.0,109.0,246.0,355.0,23.0,914.0,914.0,24.0,12.0,12.0,0.5,128.11975432800028,1738.8349571849844,43.0,12.0,31.0,0.2790697674418604,119.81313967872164,2374.6507247604413,23.0,12.0,11.0,0.5217391304347826,1977.3470029279536,32897.65217175193,22.0,8.0,14.0,0.3636363636363636,1180.66112952289,22176.563770741697,90.0,45.0,45.0,0.5,95.62016333690067,14101.526457914762,0.0,0.0,0.0,0.0,13321.0,13344.0,13381.0,13423.0,13438.0,13461.0,13469.0,13490.0,13649.0,13736.0,0.05776726800512436,-0.05828283107647828,0.05623183390770924,-0.08518674854795313,0.006682299721133943
16,16,14261.45203459914,3319.629309158847,6.48400774685594,14334.75339099856,-1765.618695182072,25.47965400863605,14381.335756875427,34236.22803119754,9.666514628230544,14411.364541930066,-12582.92226386622,11.726326378042492,14623.708705680294,14464.906492197695,33.57447975605903,0.9619215418601804,62.0,46.0,108.0,240.0,348.0,16.0,933.0,932.0,18.0,9.0,9.0,0.5,230.02699567181568,2726.0509281800432,34.0,20.0,14.0,0.5882352941176471,127.30480226586393,1711.160411329042,23.0,11.0,12.0,0.4782608695652174,1962.8587478135148,33794.45552408263,23.0,9.0,14.0,0.391304347826087,853.2127794328677,16895.663729794305,82.0,41.0,41.0,0.5,106.78807131002424,15134.761497055211,0.0,0.0,0.0,0.0,14254.0,14270.0,14316.0,14349.0,14370.0,14393.0,14402.0,14424.0,14583.0,14664.0,0.06929297648902301,-0.07210209237886221,0.05733279805312876,-0.06780720420430462,0.007382562159501359
17,17,15085.979118339468,1834.1091916430237,6.358560364343166,15163.931674988336,-2562.468144163524,38.21948101279855,15207.740327096106,36451.08393616331,10.78827839528888,15233.328730105806,-14668.993889638006,13.205259154363738,15448.067785724874,14107.290869135017,33.54597501306468,0.9550653003439722,36.0,21.0,134.0,239.0,373.0,15.0,821.0,826.0,15.0,7.0,8.0,0.4666666666666667,148.95369725137184,1059.8296737869046,66.0,49.0,17.0,0.7424242424242424,101.02744563186752,3125.6101828028422,24.0,13.0,11.0,0.5416666666666666,1930.918441859824,28818.670152753064,24.0,7.0,17.0,0.2916666666666667,1274.8943960615802,25472.822841717225,82.0,41.0,41.0,0.5,124.33852947535136,15036.907576048425,0.0,0.0,0.0,0.0,15079.0,15094.0,15115.0,15181.0,15195.0,15219.0,15227.0,15249.0,15407.0,15488.0,0.08121310221336211,-0.03942583476090248,0.052972867562496535,-0.08691082739915446,0.008813777969758069
18,18,15976.86699207602,2251.7954562519717,11.396723906347589,16049.24660900144,-1786.5134821621623,25.31305861563234,16098.003551521744,37742.11678009049,10.44523203412053,16121.75339099856,-15648.608973879564,12.476446293903429,16339.294782918363,14142.146109169424,33.72303088980266,0.9674559869563308,69.0,46.0,103.0,243.0,346.0,23.0,890.0,889.0,24.0,12.0,12.0,0.5,146.15329759323035,2295.5135124740636,25.0,15.0,10.0,0.6,129.95028115116267,2396.269937233905,24.0,13.0,11.0,0.5416666666666666,2041.4922596060085,28811.59492908733,23.0,7.0,16.0,0.3043478260869565,1381.6982307922583,26459.42186727265,88.0,45.0,43.0,0.5113636363636364,112.54857967548088,14053.416377040385,0.0,0.0,0.0,0.0,15966.0,15989.0,16035.0,16056.0,16085.0,16109.0,16116.0,16138.0,16296.0,16381.0,0.06490522804255808,-0.07273960283461609,0.054090560725595684,-0.08829527487705581,0.007958380489543034
19,19,16887.602712798853,2193.9338917138507,11.561544974363445,16976.334805761595,-2070.808677081233,3.843987166463128,17007.258476120056,34164.5079691271,10.029177084571904,17035.40408620459,-12798.360965599177,10.404756311347626,17249.228453606054,14926.952916932194,35.0170015540175,0.9678345018072692,102.0,72.0,78.0,245.0,323.0,30.0,916.0,910.0,32.0,19.0,13.0,0.59375,102.37099136654902,1473.2139128114952,9.0,5.0,4.0,0.5555555555555556,434.83676229916733,2662.694855565161,24.0,12.0,12.0,0.5,1866.2117293814208,33453.51411675986,22.0,8.0,14.0,0.3636363636363636,1085.3865625247722,20740.93174926858,91.0,45.0,46.0,0.4945054945054945,123.48246215943988,15848.075167450996,0.0,0.0,0.0,0.0,16869.0,16899.0,16971.0,16980.0,16996.0,17019.0,17027.0,17049.0,17204.0,17294.0,0.046660928003887644,-0.2099840352765287,0.05462428234200916,-0.08480668465612058,0.008272449363685548
20,20,18566.043007695826,2181.522867809044,7.522314305063406,18639.67126990158,-2198.426159269409,28.02761940948313,18687.60463997828,38275.54939602515,10.361970868316831,18711.753390998565,-13875.92195411868,13.64745662670438,18928.37028860951,14831.647211545696,33.105134186177324,0.9597159556075224,69.0,51.0,105.0,240.0,345.0,18.0,1677.0,1680.0,19.0,11.0,8.0,0.5789473684210527,164.08361494420242,1970.8054287992263,37.0,16.0,21.0,0.4324324324324324,93.23357253649483,2373.0081599011687,24.0,13.0,11.0,0.5416666666666666,2028.1398940276893,29041.822729864092,25.0,7.0,18.0,0.28,1267.6061271406377,25213.20213440785,83.0,40.0,43.0,0.4819277108433735,165.03781255641783,15497.66257257442,0.0,0.0,0.0,0.0,18555.0,18573.0,18624.0,18661.0,18675.0,18698.0,18706.0,18729.0,18890.0,18969.0,0.07521517072566632,-0.04240923541752189,0.05298787152715065,-0.09135293001301324,0.01112740953195975
21,21,19504.99960466776,1786.6942099512555,6.973440157801188,19589.94525135772,-2512.196098357631,35.6715156120968,19624.2563199869,38614.82296287186,10.800991217788498,19647.753390998565,-15246.32539240604,13.429458312706233,19867.379253745796,14528.734130534966,32.87551964657978,0.959885589449879,47.0,33.0,119.0,244.0,363.0,14.0,937.0,937.0,14.0,7.0,7.0,0.5,131.36950245321057,1359.0383199793228,54.0,46.0,8.0,0.8518518518518519,366.66390773058953,2579.470590861415,23.0,12.0,11.0,0.5217391304347826,1992.7795489546552,29861.65644798966,23.0,6.0,17.0,0.2608695652173913,1356.9651984018294,26406.847090814677,82.0,41.0,41.0,0.5,125.598752258365,15412.591389798468,0.0,0.0,0.0,0.0,19498.0,19512.0,19545.0,19598.0,19612.0,19635.0,19642.0,19664.0,19826.0,19908.0,0.07352657311000889,-0.14595353761209132,0.05160659550014542,-0.0890027704037927,0.008644851721416992
22,22,20458.85482869022,3170.205788382728,10.667964008202135,20521.54796540086,-1620.9577747414658,15.287792405183502,20581.056609237337,34813.236768645824,9.806133514540068,20610.08258975719,-12469.966287476163,11.516773910176056,20824.671615088573,15118.23827639393,35.401408087184734,0.9679527210452692,66.0,42.0,111.0,242.0,353.0,24.0,956.0,958.0,25.0,13.0,12.0,0.52,173.02775594771893,3135.2942127542656,41.0,9.0,32.0,0.2195121951219512,108.6481450872115,1465.4104076911544,24.0,12.0,12.0,0.5,1941.2108601198424,33753.84890154683,24.0,9.0,15.0,0.375,915.8337626168452,18502.469836606462,85.0,43.0,42.0,0.5058823529411764,180.9063354610336,15594.416884061857,0.0,0.0,0.0,0.0,20447.0,20471.0,20513.0,20541.0,20569.0,20593.0,20601.0,20624.0,20784.0,20866.0,0.05457934515853262,-0.0670271285163738,0.055760711737903486,-0.0734431626761201,0.011966098969580745
23,23,0.0,0.0,0.0,0.0,0.0,0.0,0.0,0.0,0.0,0.0,0.0,0.0,0.0,0.0,0.0,0.0,0.0,0.0,0.0,0.0,0.0,0.0,0.0,0.0,0.0,0.0,0.0,0.0,0.0,0.0,0.0,0.0,0.0,0.0,0.0,0.0,0.0,0.0,0.0,0.0,0.0,0.0,0.0,0.0,0.0,0.0,0.0,0.0,0.0,0.0,0.0,0.0,0.0,0.0,0.0,0.0,0.0,0.0,,21107.0,21370.0,21446.0,21459.0,21482.0,21490.0,21514.0,21678.0,21755.0,,,,,
24,24,22277.756779780808,1904.1327422167308,9.048944070923724,22334.54796540086,-1996.4457376127368,15.28779240518434,22401.180082110895,37290.24624109343,9.918731172135145,22426.588648220943,-13561.18344326836,12.780545890132151,22644.019345761928,15231.7910139067,33.7188561171649,0.9666494293852468,56.0,40.0,116.0,243.0,359.0,16.0,1818.0,1819.0,19.0,9.0,10.0,0.4736842105263157,156.88512432733128,2106.9291768201947,33.0,9.0,24.0,0.2727272727272727,111.02007952397808,1885.5687291671952,23.0,12.0,11.0,0.5217391304347826,2047.8988350240004,31667.686586208467,24.0,8.0,16.0,0.3333333333333333,1180.936736392798,23274.07117868394,79.0,38.0,41.0,0.4810126582278481,155.07895854555971,16125.830001151313,0.0,0.0,0.0,0.0,22270.0,22286.0,22326.0,22347.0,22389.0,22412.0,22419.0,22442.0,22606.0,22685.0,0.08239190516974705,-0.05560886400886161,0.054917814749295996,-0.08708212976641086,0.010181268795243571
25,25,23248.972626301005,2496.5000954959746,14.09227552906814,23329.342539803165,-1678.9704521741796,56.05523881899184,23372.380112942723,36349.78145927952,10.496481378127273,23398.218095300184,-13493.752576579793,11.008807685192826,23619.53415569611,15051.725586764378,34.44774064533738,0.96075792769182,59.0,39.0,115.0,245.0,360.0,20.0,967.0,971.0,20.0,10.0,10.0,0.5,171.47387730455338,2462.239323965481,48.0,31.0,17.0,0.6458333333333334,101.52692116949294,1665.5542497809984,24.0,12.0,12.0,0.5,1908.312352551736,32881.36912784552,22.0,7.0,15.0,0.3181818181818182,1284.6225128194633,23742.95913150062,88.0,49.0,39.0,0.5568181818181818,112.96376710485286,14665.920424469954,0.0,0.0,0.0,0.0,23239.0,23259.0,23298.0,23345.0,23360.0,23384.0,23391.0,23413.0,23572.0,23658.0,0.06868570828974353,-0.0604697486117286,0.05249859217694346,-0.09520127966842204,0.00750503764194231
26,26,24186.69864360057,2814.973628994884,8.075487805464265,24252.35610379872,-2469.1810105424915,45.86337721555302,24305.46304957921,37147.770371659666,10.527584023745009,24331.32873009842,-13343.230205196469,16.678807158356687,24550.02475734785,14086.577976024571,32.20011285161266,0.9534900215775648,30.0,17.0,138.0,238.0,376.0,13.0,939.0,933.0,14.0,6.0,8.0,0.4285714285714285,172.95380374081998,1737.1889948640935,75.0,47.0,28.0,0.6266666666666667,109.64067682527036,2169.558301436341,23.0,12.0,11.0,0.5217391304347826,1916.3906381130348,30154.71802992308,26.0,7.0,19.0,0.2692307692307692,1159.6360766743137,24683.40797070755,77.0,39.0,38.0,0.5064935064935064,126.02915801768486,14524.447114575996,0.0,0.0,0.0,0.0,24181.0,24194.0,24211.0,24278.0,24293.0,24316.0,24325.0,24349.0,24511.0,24587.0,0.061440647954693256,-0.04440366111562706,0.051588308502495336,-0.08690819680400162,0.008946754721564538
27,27,25066.972626301005,3356.9434353661572,15.33431591848684,25099.205425597924,-3461.507986307704,40.767446413824906,25185.60605741268,38088.3172071932,10.253875819657509,25209.753390998565,-14863.557327017556,15.493892141875875,25429.30762164566,14169.728509757508,31.016975659543796,0.946486224059224,36.0,19.0,138.0,239.0,377.0,17.0,879.0,880.0,17.0,13.0,4.0,0.7647058823529411,173.83703178754095,810.9021372067771,72.0,11.0,61.0,0.1527777777777778,126.31768623177383,3490.6737134925615,23.0,13.0,10.0,0.5652173913043478,2027.4677009925408,26093.243433571195,25.0,7.0,18.0,0.28,1268.3780195112238,26319.57996397046,81.0,41.0,40.0,0.5061728395061729,115.47153751262351,14443.663155571296,0.0,0.0,0.0,0.0,25054.0,25071.0,25090.0,25159.0,25173.0,25196.0,25204.0,25228.0,25391.0,25467.0,0.05178431961531688,-0.036492097297315056,0.05323069774817045,-0.08533475477002314,0.008149170778614982
28,28,25992.876695499283,2389.2431729611335,12.73982700432017,26073.493218002877,-1947.0370849558053,50.95930801572712,26111.22569793573,37293.05347034587,10.06589428131952,26139.319273014666,-12772.756936368363,10.675305454981098,26356.605618052345,15144.77973212524,33.809434736109885,0.9650762700052732,50.0,28.0,125.0,243.0,368.0,22.0,931.0,927.0,24.0,16.0,8.0,0.6666666666666666,131.48274906247494,1266.7649520317882,60.0,47.0,13.0,0.7833333333333333,200.04499582171965,121.22874044652406,23.0,11.0,12.0,0.4782608695652174,2001.907675579551,35607.88800444938,22.0,8.0,14.0,0.3636363636363636,1114.26988621413,21505.318024148513,80.0,40.0,40.0,0.5,187.6692406731593,15397.81614927314,0.0,0.0,0.0,0.0,25978.0,26000.0,26028.0,26085.0,26100.0,26123.0,26131.0,26153.0,26319.0,26396.0,0.05503112891582334,-0.10274328998014969,0.05368044419241235,-0.0872380091287439,0.012391678452415763
29,29,26967.45203459914,2483.696609786255,15.287792404932526,27027.397287201147,-1404.9081159608638,20.383723206912453,27086.61764671604,35709.432343138134,10.247785180758523,27112.36203825313,-12822.081029491952,11.789975461388124,27331.639426519963,15175.030723051426,36.6913388190115,0.9664855736362786,61.0,40.0,112.0,250.0,362.0,21.0,975.0,975.0,25.0,15.0,10.0,0.6,154.99604977336634,2644.7575105829956,42.0,12.0,30.0,0.2857142857142857,103.72946132300396,1640.5701831403735,24.0,13.0,11.0,0.5416666666666666,1950.6488094553752,29977.24621128061,23.0,7.0,16.0,0.3043478260869565,1189.1650049635398,22932.451969232476,88.0,42.0,46.0,0.4772727272727273,124.14100997041666,15874.917919249005,0.0,0.0,0.0,0.0,26955.0,26976.0,27016.0,27034.0,27074.0,27098.0,27105.0,27128.0,27290.0,27378.0,0.062405387663956736,-0.07383362665825295,0.05462558997609517,-0.09274352597120172,0.00818061012435658
30,30,27919.776320536756,2087.6186391859624,9.978162969441172,28012.876695499283,-2532.57454886797,12.739827004320285,28046.2805357937,33608.891392501864,10.201365127234718,28075.314760203244,-12717.253147845871,12.746298928390274,28295.53415569611,14598.853973623687,34.33827749173224,0.9587560410149792,101.0,79.0,81.0,244.0,325.0,22.0,948.0,960.0,22.0,12.0,10.0,0.5454545454545454,130.3191050437157,2138.794069607505,12.0,5.0,7.0,0.4166666666666667,372.5915097209785,927.0853718698831,24.0,12.0,12.0,0.5,1884.401128597878,32309.72504190248,23.0,8.0,15.0,0.3478260869565217,902.6148480416814,18432.0263914297,87.0,48.0,39.0,0.5517241379310345,119.28954787389854,13434.542777575873,0.0,0.0,0.0,0.0,27908.0,27930.0,28009.0,28020.0,28034.0,28058.0,28067.0,28090.0,28249.0,28334.0,0.062424765997745546,-0.14711966125045456,0.05606852980036965,-0.07097561380183519,0.008171158372391667
31,31,28833.807912297947,2725.5727216489595,5.586194134366802,28893.821948098295,-1847.0721656024416,22.9316886023887,28955.86975198331,35626.89827615203,9.612592794469744,28984.235461168108,-13527.23585800827,10.443495884653922,29200.36710270432,15131.701422577,33.874632087046336,0.961611894450847,47.0,32.0,124.0,245.0,369.0,15.0,914.0,909.0,17.0,9.0,8.0,0.5294117647058824,217.6433262318134,2333.7239444242555,28.0,22.0,6.0,0.7857142857142857,123.2475829829143,1915.7957383906771,23.0,12.0,11.0,0.5217391304347826,2015.0457381764525,33744.76043939455,22.0,9.0,13.0,0.4090909090909091,1073.4025076821774,20447.673034270272,81.0,39.0,42.0,0.4814814814814814,148.26891193655308,15764.727433810996,0.0,0.0,0.0,0.0,28826.0,28841.0,28873.0,28899.0,28944.0,28967.0,28975.0,28997.0,29162.0,29242.0,0.07985232773394509,-0.06672591644123219,0.05655967360833333,-0.07935120810706583,0.009798561826982057
32,32,29836.020417046348,3517.3186421412884,7.216917584198491,29949.76744641382,1131.2500535459017,185.5515367677575,29954.80090507103,35687.469208032635,9.735186845816552,29981.86970660592,-12668.083620471843,10.130080944004566,30201.844489698455,16427.785288890973,40.029880533262805,0.983267387822772,-65.0,-86.0,234.0,251.0,485.0,21.0,1006.0,999.0,23.0,11.0,12.0,0.4782608695652174,228.44631783538657,4551.989072336013,25.0,8.0,17.0,0.32,1595.3256245411342,40116.658096023464,23.0,12.0,11.0,0.5217391304347826,1988.8514661243764,34340.14112102824,21.0,8.0,13.0,0.3809523809523809,1111.0307831995992,19511.8574406466,91.0,47.0,44.0,0.5164835164835165,115.80725145400451,17688.88710576982,0.0,0.0,0.0,0.0,29826.0,29847.0,29761.0,30005.0,29943.0,29966.0,29974.0,29995.0,30157.0,30246.0,0.06494899697125878,1.410232529528364,0.05572968636500344,-0.08770314567581115,0.007049474376337102
33,33,30817.035474881024,3283.5649137145883,7.186128021251022,30903.301356412736,-2066.318254387332,10.191861603456228,30936.07874315318,34678.267594510595,10.418336404845226,30963.142302189994,-12937.32818706052,12.448233849656631,31180.89446348587,15552.757689752028,36.42807044743476,0.9718314235827922,83.0,64.0,87.0,248.0,335.0,19.0,980.0,981.0,19.0,9.0,10.0,0.4736842105263157,210.08021519856496,2733.678075993575,18.0,12.0,6.0,0.6666666666666666,356.16888710083407,2033.468905608224,23.0,12.0,11.0,0.5217391304347826,1932.2562070820425,31833.491223529512,23.0,7.0,16.0,0.3043478260869565,1098.8412353096455,21452.44381275464,90.0,45.0,45.0,0.5,135.4962272264165,16158.571538475331,0.0,0.0,0.0,0.0,30808.0,30827.0,30891.0,30909.0,30924.0,30947.0,30956.0,30978.0,31137.0,31226.0,0.06397930929311464,-0.17236884315598272,0.055719513721842015,-0.08493571620210343,0.008712038721962294
34,34,31706.527004050768,2501.4224181333193,3.643756665458545,31792.876695500385,-3251.3660522767345,12.739827003919556,31826.49942986209,36198.4932011601,10.500972562110432,31852.32873009901,-14594.885747851577,13.715671624446449,32071.05266218456,14896.041817750343,32.64837028095632,0.9524282543323458,42.0,31.0,125.0,244.0,369.0,11.0,890.0,890.0,11.0,6.0,5.0,0.5454545454545454,230.44624332685845,1939.5428256916784,63.0,56.0,7.0,0.8888888888888888,370.7619265028892,1484.121049420795,23.0,12.0,11.0,0.5217391304347826,1967.0646246675065,31659.26764318476,24.0,7.0,17.0,0.2916666666666667,1242.449046201967,25093.724180094458,85.0,43.0,42.0,0.5058823529411764,163.05839781995547,15698.35303794702,0.0,0.0,0.0,0.0,31701.0,31712.0,31743.0,31800.0,31814.0,31837.0,31845.0,31868.0,32030.0,32112.0,0.09212608060770017,-0.11403266213081947,0.054341063693901646,-0.08512906970750765,0.010946424547872353
35,35,32658.906491702575,2502.781715976676,12.430217536214942,32716.945252602018,-1298.9369992917243,35.671515612096485,32779.59257339191,35711.70911862094,9.954335810829154,32806.77392993199,-12527.984351219488,11.14081439413096,33025.268641871764,15582.139594203763,35.3627406540079,0.967337124103558,48.0,28.0,124.0,247.0,371.0,20.0,948.0,954.0,22.0,12.0,10.0,0.5454545454545454,166.34002590936535,1963.7364450490636,46.0,21.0,25.0,0.4565217391304347,96.75973641317384,1406.7552927947804,23.0,12.0,11.0,0.5217391304347826,1979.2820069863312,31932.027590235957,23.0,8.0,15.0,0.3478260869565217,1055.978252639212,20465.08385990877,84.0,41.0,43.0,0.4880952380952381,150.5212288316419,15769.864220137197,0.0,0.0,0.0,0.0,32649.0,32669.0,32697.0,32741.0,32768.0,32791.0,32799.0,32821.0,32985.0,33068.0,0.06646205893527293,-0.0744914776204961,0.05542389473469042,-0.08428955712547821,0.009659856268238844
36,36,33646.027373699,1697.803143226918,10.34604602306693,33734.30135639943,-2624.1563045145735,10.191861603456228,33766.64008266092,34642.239823460695,10.179244444975732,33793.98506283044,-13265.969147120142,11.466172516619457,34012.187850370916,15319.680049335617,34.70648714242591,0.9577952999952184,81.0,65.0,88.0,248.0,336.0,16.0,993.0,987.0,16.0,6.0,10.0,0.375,147.49742883832093,1703.8239617556922,25.0,19.0,6.0,0.76,377.5142749801204,1477.321027161675,23.0,12.0,11.0,0.5217391304347826,1979.6634465480247,31066.623280107942,23.0,8.0,15.0,0.3478260869565217,1062.3968927330554,20880.197027163304,87.0,42.0,45.0,0.4827586206896552,148.58269868894357,15366.177146780685,0.0,0.0,0.0,0.0,33640.0,33656.0,33721.0,33740.0,33755.0,33778.0,33786.0,33809.0,33970.0,34057.0,0.0868754598710313,-0.14386120000956057,0.057145942544030916,-0.0800843783783175,0.009698812129916988
37,37,34564.48321206382,1529.155826427478,6.449024557776504,34649.45203459914,-3039.4461593458045,15.28779240518434,34684.630343947065,35380.47235697349,10.650881873081987,34710.753390998565,-14306.762977966711,14.769771051538498,34930.44086575732,14907.263716787773,32.254647038393934,0.9552510115537776,30.0,12.0,141.0,245.0,386.0,18.0,916.0,917.0,23.0,12.0,11.0,0.5217391304347826,135.44254121508163,1457.335845819735,72.0,63.0,9.0,0.875,324.7119239319146,608.4347185960964,24.0,13.0,11.0,0.5416666666666666,1940.038710197703,27999.507234375775,24.0,7.0,17.0,0.2916666666666667,1153.5161543670542,22738.28291445725,82.0,39.0,43.0,0.4756097560975609,199.0628324768223,15825.744829701878,0.0,0.0,0.0,0.0,34556.0,34574.0,34586.0,34658.0,34672.0,34695.0,34705.0,34727.0,34892.0,34972.0,0.08857340689176987,-0.10683259610751059,0.054833601163476874,-0.08062733381013858,0.013353411884211068
38,38,35526.87669549929,1850.5518446999552,8.618399255017385,35572.54796540086,-2157.8026815605504,15.28779240518434,35645.34250582111,36539.75922576253,9.781810858007937,35671.74884593818,-12746.983150212638,12.447349130505486,35891.70308299967,15269.432279037226,33.24629899066155,0.9606605714195566,48.0,30.0,123.0,247.0,370.0,18.0,964.0,961.0,19.0,12.0,7.0,0.631578947368421,137.44530673084094,1375.8908221791078,58.0,13.0,45.0,0.2241379310344827,126.79221645719257,2419.4223920608124,23.0,12.0,11.0,0.5217391304347826,2018.4588709303168,33188.54964193002,24.0,8.0,16.0,0.3333333333333333,1078.1966347304665,21337.419969358285,86.0,44.0,42.0,0.5116279069767442,104.30088030396928,15642.652765623294,0.0,0.0,0.0,0.0,35516.0,35534.0,35564.0,35618.0,35633.0,35656.0,35664.0,35687.0,35849.0,35934.0,0.07427260529041058,-0.05875987528456254,0.05524007036989978,-0.0845844559473259,0.006830697985226317
39,39,36516.15523800976,3240.5924102694657,10.126145557123944,36594.69864360057,-1460.0311681299631,10.191861603456228,36637.25421691138,35211.61872393583,9.67445008099801,36664.47386701011,-13174.78196177564,10.67957223349249,36884.68483389583,15787.974136355597,35.95636391326179,0.9698535221026976,85.0,60.0,89.0,248.0,337.0,25.0,988.0,993.0,25.0,12.0,13.0,0.48,159.80624839449732,3341.310280669088,21.0,6.0,15.0,0.2857142857142857,143.52022092010478,1443.708811567387,22.0,11.0,11.0,0.5,2006.20566974185,33708.740454636434,22.0,8.0,14.0,0.3636363636363636,1156.043492309464,21782.662475006244,90.0,47.0,43.0,0.5222222222222223,107.20164642994968,16392.774157624215,0.0,0.0,0.0,0.0,36504.0,36529.0,36589.0,36609.0,36626.0,36648.0,36656.0,36678.0,36841.0,36926.0,0.04931389948580695,-0.09829942267871468,0.05697567287294548,-0.08774668876217649,0.006790082470625042
40,40,37481.669868219986,3093.2296568522165,13.794723907509734,37530.246609001384,-1523.655754989118,25.479654008471226,37600.02701976405,33860.028510053824,9.97955755237964,37629.50397676555,-13069.373070160824,11.613417088654767,37846.348168138815,15642.446849239,34.586629472674176,0.9646512284770512,49.0,22.0,127.0,246.0,373.0,27.0,965.0,963.0,27.0,16.0,11.0,0.5925925925925926,138.71848176645102,2842.0766311112297,42.0,16.0,26.0,0.3809523809523809,120.66291608104022,1737.096811960056,24.0,12.0,12.0,0.5,1875.6073099198975,32280.540796226385,22.0,9.0,13.0,0.4090909090909091,867.819670354678,17469.19769833401,90.0,45.0,45.0,0.5,155.03125986495422,16988.980184312146,0.0,0.0,0.0,0.0,37466.0,37493.0,37515.0,37536.0,37588.0,37612.0,37621.0,37642.0,37812.0,37888.0,0.04484583983577088,-0.07919303010928608,0.055392963102880624,-0.06640101753128692,0.009910934098682678
41,41,38348.01458330846,1407.8679519112395,5.191925563693496,38434.87669549929,-3222.7329185939197,12.739827004320285,38468.07029119266,34647.92356903359,10.226744044251,38496.15271969413,-13973.695660936595,12.691597622967942,38717.383477496405,14978.224384478242,31.819465312525494,0.9485569949667144,52.0,41.0,114.0,243.0,357.0,11.0,866.0,867.0,11.0,4.0,7.0,0.3636363636363636,158.28542578453337,1468.9863149087646,48.0,40.0,8.0,0.8333333333333334,354.68108248958043,1174.3768284409089,23.0,12.0,11.0,0.5217391304347826,1982.550505185856,32363.607224558953,23.0,8.0,15.0,0.3478260869565217,1089.3795472167303,21333.155761828777,78.0,42.0,36.0,0.5384615384615384,124.3410303025752,15078.390414064066,0.0,0.0,0.0,0.0,38344.0,38355.0,38396.0,38442.0,38456.0,38479.0,38488.0,38510.0,38675.0,38753.0,0.11242917034204401,-0.1100559964008212,0.05721989374733413,-0.07795930107896124,0.008301453303866134
42,42,39278.30135639943,2276.8118220564475,6.331577097425986,39362.21923530245,-2228.8695111355937,43.31541181458684,39398.93341934158,39975.821278360054,10.407353831282798,39422.178051898714,-13107.085802265638,14.451291745783635,39645.46678544249,15011.049918800963,33.87641328196895,0.961375904213604,65.0,51.0,104.0,249.0,353.0,14.0,932.0,931.0,14.0,8.0,6.0,0.5714285714285714,171.60280765958268,1657.2581354611152,53.0,42.0,11.0,0.7924528301886793,230.14737603328737,13.002026405333822,24.0,13.0,11.0,0.5416666666666666,2039.6463806300883,30646.881635844093,25.0,6.0,19.0,0.24,1320.8984556928417,25537.238850430236,85.0,42.0,43.0,0.4941176470588235,124.86655009074808,15396.486013781068,0.0,0.0,0.0,0.0,39270.0,39284.0,39335.0,39372.0,39387.0,39409.0,39417.0,39439.0,39603.0,39688.0,0.07536978067189966,-0.10325744727695112,0.05102200068455383,-0.1007774325750211,0.008318308896858431
43,43,40241.921798460826,2205.0275848983497,11.953234327814036,40306.246609001435,-2122.053152027139,25.47965400864032,40362.36399136148,35286.466292733385,9.96627554830454,40389.96268339736,-13156.776337721623,12.313235599495158,40609.43066442928,15157.206941712782,34.733783881254986,0.9601068289276364,60.0,40.0,113.0,249.0,362.0,20.0,959.0,964.0,22.0,11.0,11.0,0.5,142.9425201075852,2240.214929908717,58.0,27.0,31.0,0.4655172413793103,136.7031048530999,2162.622601473991,23.0,11.0,12.0,0.4782608695652174,1940.0634645580249,33074.13320137629,24.0,9.0,15.0,0.375,1033.3482710025055,20668.504962836578,84.0,39.0,45.0,0.4642857142857143,137.4255819713818,15531.913623483964,0.0,0.0,0.0,0.0,40232.0,40252.0,40292.0,40336.0,40351.0,40374.0,40381.0,40405.0,40570.0,40654.0,0.06482572875122321,-0.06442020772312473,0.05498038393710016,-0.07854114446255395,0.009066682436932708
44,44,41129.424660900135,537.7087898620979,1.7248929670569173,41212.027373699,-4871.649122116918,17.8357578060484,41246.86759067819,37937.830780912234,10.95080524472085,41271.753390998565,-15659.735354640132,18.908287320905707,41491.71517313107,13693.041991865022,30.86605199665006,0.9278260811551348,12.0,7.0,151.0,242.0,393.0,5.0,890.0,884.0,5.0,1.0,4.0,0.2,190.11399401539865,124.2167698071197,83.0,73.0,10.0,0.8795180722891566,332.3111655311044,108.91317360460108,24.0,13.0,11.0,0.5416666666666666,1888.0792008383623,26280.502680438472,27.0,7.0,20.0,0.2592592592592592,1237.1434677612765,27130.053969147702,83.0,41.0,42.0,0.4939759036144578,102.40617295751872,12995.851417609048,0.0,0.0,0.0,0.0,41128.0,41133.0,41140.0,41222.0,41235.0,41258.0,41266.0,41291.0,41452.0,41533.0,0.35356311371468513,-0.06821327997996343,0.0497677163394465,-0.07900155652341205,0.007478701446936173
45,45,42044.958093943955,1808.517217339786,8.500834155819394,42115.05474739799,-2837.034328515362,35.6715156120968,42161.984451887314,38879.077614636015,10.4638644036392,42186.90406919828,-14291.99563907833,14.034634916905077,42409.1282285701,15286.548468502968,32.03340145156503,0.9551002659554324,29.0,10.0,140.0,245.0,385.0,19.0,916.0,915.0,19.0,10.0,9.0,0.5263157894736842,122.17598778215697,764.7148299733051,72.0,52.0,20.0,0.7222222222222222,90.33634960007322,2692.010267731769,23.0,12.0,11.0,0.5217391304347826,2048.6653078137833,31665.606685152135,24.0,7.0,17.0,0.2916666666666667,1242.0697065668685,25391.27741988623,80.0,40.0,40.0,0.5,138.58301636220912,15764.902781984243,0.0,0.0,0.0,0.0,42035.0,42054.0,42064.0,42135.0,42150.0,42173.0,42180.0,42204.0,42371.0,42449.0,0.06755588866434464,-0.03184182464487372,0.05269325903561467,-0.08690666705569802,0.0090656839016179
46,46,43043.3966987039,2830.889599368742,8.556644635181543,43108.821948101286,-873.7109158046165,22.931688607776447,43164.47035692926,35454.082362014284,9.632230663990454,43192.84936649998,-12255.80905510504,9.778613354249964,43412.24842521507,16121.8600831148,35.45019129082474,0.9623625093925986,62.0,44.0,110.0,250.0,360.0,18.0,999.0,1003.0,18.0,9.0,9.0,0.5,195.62335777768465,2954.5378515972047,33.0,13.0,20.0,0.3939393939393939,103.17470768243112,971.3432694839112,23.0,11.0,12.0,0.4782608695652174,1928.778793172151,35829.29406342021,22.0,9.0,13.0,0.4090909090909091,1019.7348614250552,18427.684190939664,88.0,44.0,44.0,0.5,139.70640757449024,16382.439740689148,0.0,0.0,0.0,0.0,43034.0,43052.0,43096.0,43115.0,43153.0,43176.0,43184.0,43206.0,43369.0,43456.0,0.06910313910556828,-0.1180879233807164,0.054402163719195734,-0.08320420600876564,0.008665650666501658
47,47,43963.03856057086,1864.73797731285,5.366101219572387,44050.45203459914,-3725.9468234492338,15.28779240518434,44084.85839114582,36771.400968874805,10.332403598447756,44110.90406919828,-13521.744024544812,17.386731569928894,44331.26107195785,14462.123843854386,31.629425123426554,0.9474661686300706,58.0,43.0,115.0,242.0,357.0,15.0,919.0,919.0,15.0,7.0,8.0,0.4666666666666667,177.33737070931076,2259.9112779549164,64.0,55.0,9.0,0.859375,347.1710112862809,257.3381243227227,23.0,12.0,11.0,0.5217391304347826,2002.479012075377,29004.76968400995,26.0,7.0,19.0,0.2692307692307692,1085.9728095472694,23485.03069241801,80.0,39.0,41.0,0.4875,151.47029653831214,14931.087093156952,0.0,0.0,0.0,0.0,43956.0,43971.0,44014.0,44059.0,44073.0,44096.0,44104.0,44129.0,44293.0,44371.0,0.09510042315160003,-0.0931765877873944,0.05445751206951233,-0.0803130726018774,0.010473585911289147
48,48,44864.12330450071,3246.172602231745,12.739827004320285,44918.109494806464,-2546.9583520629985,71.3430312241936,44984.33807625439,39867.11133521381,10.33647954377462,45007.753390998565,-13542.125077210158,13.498253382993088,45229.68483389583,14996.15371874879,33.441603038704066,0.9486151627649998,34.0,22.0,135.0,245.0,380.0,12.0,899.0,900.0,14.0,8.0,6.0,0.5714285714285714,150.41670878138683,1133.791948867232,70.0,29.0,41.0,0.4142857142857143,101.23108747438354,1792.333560501526,23.0,12.0,11.0,0.5217391304347826,2075.9450219004316,31556.91429912544,25.0,6.0,19.0,0.24,1316.5456233987104,26462.39323217261,84.0,43.0,41.0,0.5119047619047619,109.15995895181815,15284.96362352162,0.0,0.0,0.0,0.0,44857.0,44869.0,44891.0,44958.0,44972.0,44995.0,45002.0,45026.0,45188.0,45271.0,0.04633663307920697,-0.03974587467925726,0.05207161874471681,-0.09721853962302457,0.007279197119414828
49,49,45850.87669549929,2149.7084029471243,5.680619804740381,45936.45203459914,-2766.189346007071,15.28779240518434,45971.31315591194,35525.821386646465,10.389859792868853,45997.753390998565,-14221.0925689434,12.492374843606823,46220.093378408375,15155.286282190991,33.201124848347035,0.9575288513817644,49.0,35.0,119.0,250.0,369.0,14.0,991.0,988.0,16.0,8.0,8.0,0.5,177.35633486131115,1740.3907103169372,57.0,48.0,9.0,0.8421052631578947,333.1727078471577,1253.8542099903964,23.0,12.0,11.0,0.5217391304347826,1939.6936392828225,31961.85681453513,22.0,8.0,14.0,0.3636363636363636,1172.4049307791936,22369.90645430664,83.0,41.0,42.0,0.4939759036144578,159.60804153068415,15506.633204991527,0.0,0.0,0.0,0.0,45844.0,45858.0,45893.0,45945.0,45959.0,45982.0,45990.0,46012.0,46180.0,46262.0,0.08250250806954376,-0.12044465008445089,0.054599543756415986,-0.0824412699021128,0.010531509504920399
50,50,46839.41442957484,2485.4978863504075,9.77297753999958,46912.655701268006,-1652.8601629263735,25.47965400864057,46959.14846778853,34810.080757405296,9.953473345218002,46988.65553498201,-13203.526040743443,11.644903637119487,47207.1533375885,15318.592154876544,36.12596719730294,0.9622545357493596,73.0,51.0,103.0,249.0,352.0,22.0,987.0,988.0,23.0,13.0,10.0,0.5652173913043478,150.42552496801292,2804.0700600866403,53.0,34.0,19.0,0.6415094339622641,115.9987770208582,2029.4019879826192,23.0,11.0,12.0,0.4782608695652174,1960.7720057560168,33655.771415771895,23.0,9.0,14.0,0.391304347826087,860.9089268567623,17560.81707318583,92.0,46.0,46.0,0.5,167.25252602205487,15633.153592612278,0.0,0.0,0.0,0.0,46827.0,46849.0,46900.0,46923.0,46948.0,46971.0,46980.0,47003.0,47167.0,47252.0,0.060521284606236764,-0.070180635738406,0.056327706316478265,-0.06520295595283937,0.010918270055829606
51,51,47752.14024175123,1387.218874551547,4.406332980871481,47840.87669549929,-3541.624616672821,12.739827004320285,47873.90979887809,36268.38919911298,10.560935190408452,47899.32873009842,-14479.879383558768,15.36860394078115,48121.55347275284,14275.720342377976,31.72232027490137,0.948032934913915,59.0,45.0,112.0,244.0,356.0,14.0,911.0,914.0,16.0,8.0,8.0,0.5,189.5323110082679,1157.253816455539,43.0,36.0,7.0,0.8372093023255814,413.3439995609197,1100.9422952275918,24.0,13.0,11.0,0.5416666666666666,1966.498482757313,28608.346012104015,26.0,7.0,19.0,0.2692307692307692,1231.0040408278535,25086.503745094014,79.0,39.0,40.0,0.4936708860759494,95.23863642604162,14277.355671476394,0.0,0.0,0.0,0.0,47746.0,47760.0,47805.0,47848.0,47862.0,47884.0,47893.0,47917.0,48084.0,48161.0,0.13662754629801221,-0.11671027968775406,0.054220728468564246,-0.08501479937917174,0.006671371681562183
52,52,48712.87669549929,1443.0547170898842,6.252517898461104,48799.87669549929,-3155.8657687326427,12.739827004320285,48832.731542489375,38209.09230359986,10.556196236577945,48855.60271279886,-14620.488796210142,14.884843759237055,49080.221452960905,15021.197208961476,33.78114847936161,0.9536393370693964,63.0,50.0,104.0,248.0,352.0,13.0,964.0,958.0,20.0,13.0,7.0,0.65,126.69044819833248,997.5817871276544,58.0,51.0,7.0,0.8793103448275862,419.5566995714698,2002.2413705762233,23.0,13.0,10.0,0.5652173913043478,1995.0695961864064,27626.12229708458,25.0,6.0,19.0,0.24,1309.7678844319755,25772.530934262224,90.0,45.0,45.0,0.5,106.31141658485946,14888.05489561493,0.0,0.0,0.0,0.0,48707.0,48720.0,48770.0,48807.0,48820.0,48843.0,48851.0,48874.0,49039.0,49122.0,0.08779323936781896,-0.1329450395920859,0.0522145247611245,-0.08958441148503105,0.007077426326673567
53,53,49705.027373699,2275.4215440654575,10.844114238975518,49787.91433186261,-1720.0024784387017,12.739827004320285,49822.31839844614,36150.35824384567,10.319706682277646,49847.3715268801,-12945.226135348968,12.200850031805974,50076.53415569612,16158.348178451895,34.82352260893607,0.9542220977822164,85.0,62.0,86.0,252.0,338.0,23.0,993.0,990.0,23.0,13.0,10.0,0.5652173913043478,157.1706569669266,2003.3416465497503,25.0,18.0,7.0,0.72,327.01392602830765,1977.5586871577957,23.0,12.0,11.0,0.5217391304347826,1967.90722040026,32183.480406408027,24.0,7.0,17.0,0.2916666666666667,1264.0502117423553,23205.102231382258,87.0,49.0,38.0,0.5632183908045977,108.5468527471221,15525.078024075803,0.0,0.0,0.0,0.0,49692.0,49715.0,49777.0,49795.0,49810.0,49833.0,49841.0,49863.0,50029.0,50115.0,0.06907320420554357,-0.19012410163800933,0.05443672804363651,-0.09764605102499277,0.006717694875016723
54,54,50633.98956865459,2247.6462306383087,5.874495370409339,50719.45203459914,-3892.585596976743,15.28779240518434,50754.08251606977,37009.237670984905,10.430429116550876,50780.32873009842,-13471.9429381894,17.832209971100042,51002.180062154184,14883.146690734167,33.46033674888474,0.9636470927805084,53.0,36.0,120.0,244.0,364.0,17.0,926.0,932.0,17.0,8.0,9.0,0.4705882352941176,183.15049114512277,2064.7048650433717,61.0,51.0,10.0,0.8360655737704918,299.682280183694,177.53575460177035,23.0,12.0,11.0,0.5217391304347826,1968.644130054708,29816.714500381247,27.0,7.0,20.0,0.2592592592592592,1093.1322988890474,24041.58318147525,88.0,45.0,43.0,0.5113636363636364,132.0489357182442,14372.914436005163,0.0,0.0,0.0,0.0,50626.0,50643.0,50679.0,50728.0,50742.0,50765.0,50774.0,50799.0,50960.0,51043.0,0.08148546183493917,-0.07698797437272759,0.05319331750510812,-0.08114139912145159,0.008872380180224534
55,55,51509.83777486971,3186.1125047436744,6.2042033846870055,51583.20542574242,-2554.78346167624,40.767446413817,51633.51991970259,37738.70877149705,10.73558580827579,51657.9040691983,-14674.005629790863,13.736804002206355,51880.68483389584,14853.844011206307,33.37466880653616,0.9526989004334968,35.0,19.0,138.0,247.0,385.0,16.0,875.0,880.0,17.0,9.0,8.0,0.5294117647058824,228.74543240167063,2381.939956463546,71.0,48.0,23.0,0.676056338028169,94.38465201961029,2175.0928373318893,23.0,13.0,10.0,0.5652173913043478,1967.3204054158623,27395.876743740424,25.0,7.0,18.0,0.28,1269.977938250292,25928.809040342952,87.0,45.0,42.0,0.5172413793103449,129.81702821679002,14508.332760443482,0.0,0.0,0.0,0.0,51502.0,51518.0,51537.0,51606.0,51621.0,51644.0,51651.0,51675.0,51836.0,51922.0,0.07179452453769312,-0.03694428644754213,0.05213004020163303,-0.08654609861073033,0.008739625117838257
56,56,52447.092525759246,2480.292657512754,7.913903305076213,52499.12330450071,-1626.3182910854391,12.739827004267603,52564.49352889221,35011.94414391372,9.787215031776691,52593.92198947,-11836.30100706406,11.185871712320928,52811.939660096585,15790.349976999169,35.345679966804184,0.9607819950132234,54.0,37.0,115.0,249.0,364.0,17.0,936.0,931.0,17.0,9.0,8.0,0.5294117647058824,153.71903691731,2745.0057320658066,47.0,8.0,39.0,0.1702127659574468,109.44524897224586,2026.3943389294311,23.0,11.0,12.0,0.4782608695652174,1898.1401880601088,35165.56699800417,22.0,9.0,13.0,0.4090909090909091,881.1649544133238,17043.972985221935,89.0,44.0,45.0,0.4943820224719101,136.7110551323572,16838.625618098915,0.0,0.0,0.0,0.0,52438.0,52455.0,52492.0,52537.0,52553.0,52576.0,52585.0,52607.0,52769.0,52856.0,0.06197616900235474,-0.06729632789114104,0.05421407563824389,-0.07444597377909137,0.008657886324970363
57,57,53283.84932180029,4227.69426946717,5.095930801728113,53357.28779240518,-4163.94860573046,91.72675443110604,53408.598945164966,34545.24278221267,10.69333931262569,53436.495725355664,-12556.93373597086,13.621370543644948,53654.634681109244,13828.784920945152,29.88053901677127,0.9210871420187916,26.0,21.0,147.0,240.0,387.0,5.0,838.0,844.0,5.0,4.0,1.0,0.8,137.27956047541866,454.6682385564085,85.0,58.0,27.0,0.6823529411764706,136.2494866799722,2506.080592911745,23.0,12.0,11.0,0.5217391304347826,1827.3151970590732,26360.062308639528,26.0,8.0,18.0,0.3076923076923077,1047.872307150638,23019.75173400877,74.0,36.0,38.0,0.4864864864864865,136.77079582404093,13850.222547373858,0.0,0.0,0.0,0.0,53280.0,53285.0,53306.0,53383.0,53397.0,53420.0,53428.0,53453.0,53619.0,53693.0,0.03247149668954668,-0.03272122198925907,0.052896290484314004,-0.0834496963338176,0.009890297419904706
58,58,54131.439827482674,3090.5577234062853,6.490381009794479,54200.63008649785,-2247.5547415633605,38.21948101296085,54250.36079719642,39996.1588833361,10.684983917129118,54272.60271279886,-14878.05176539073,14.056673043554095,54498.10949479597,15520.653982169188,33.393645750529174,0.9566003191825924,49.0,32.0,119.0,248.0,367.0,17.0,848.0,841.0,17.0,9.0,8.0,0.5294117647058824,230.358631245,2043.8391193515383,78.0,56.0,22.0,0.717948717948718,112.42046304467004,1718.8830769427786,23.0,12.0,11.0,0.5217391304347826,2043.6202835084289,31618.608442409288,23.0,5.0,18.0,0.217391304347826,1349.0854424628462,26506.202657650385,86.0,45.0,41.0,0.5232558139534884,112.52992925606334,14720.386890884314,0.0,0.0,0.0,0.0,54122.0,54139.0,54171.0,54222.0,54238.0,54261.0,54268.0,54290.0,54454.0,54538.0,0.07453626557445697,-0.05001900997813842,0.0510954136738335,-0.09067621646545712,0.007250334256877493
59,59,54984.30044999591,1923.2859694892363,5.796759444344449,55048.52059170187,-2631.649290863878,33.12355021123273,55101.17130371522,35293.17135177013,9.950379062683696,55129.50434057633,-13324.95638910237,11.120061163885998,55347.934280627,15200.205147008006,33.33200627203213,0.9493144207809134,51.0,39.0,113.0,247.0,360.0,12.0,854.0,852.0,16.0,9.0,7.0,0.5625,170.27092476283286,917.8819664696058,48.0,21.0,27.0,0.4375,138.45840649121166,2145.518253026686,23.0,11.0,12.0,0.4782608695652174,1961.6717687277444,34430.574187708145,22.0,9.0,13.0,0.4090909090909091,1014.1800512632292,19306.72957128861,82.0,40.0,42.0,0.4878048780487805,130.47618785769993,16034.860796863211,0.0,0.0,0.0,0.0,54979.0,54991.0,55030.0,55075.0,55090.0,55113.0,55121.0,55143.0,55309.0,55390.0,0.08853125716299559,-0.052612788099040596,0.05558219036695768,-0.07611132236745347,0.008583843875513926
60,60,55549.74559409695,709.3536277241825,2.6232245193596695,55864.216751235246,-3858.286821121051,43.31541181468896,55909.34326671007,36185.1348074965,11.066801014174894,55935.32873009842,-14398.901714333348,16.530194846773103,56155.502678688805,13944.747335917791,29.774496866328946,0.930988875941221,275.0,270.0,131.0,238.0,369.0,5.0,564.0,807.0,6.0,3.0,3.0,0.5,145.062279300274,2159.0452212835567,59.0,42.0,17.0,0.711864406779661,135.00546795843513,4589.324206008043,23.0,12.0,11.0,0.5217391304347826,1830.6925741338337,28017.88992962375,26.0,7.0,19.0,0.2692307692307692,1192.6925547705584,25383.568880614,74.0,38.0,36.0,0.5135135135135135,108.50402100766574,14477.117109888635,0.0,0.0,0.0,0.0,55547.0,55552.0,55822.0,55881.0,55897.0,55920.0,55929.0,55953.0,56118.0,56191.0,0.2044992421701951,-0.03499103986240411,0.050592393364652266,-0.08283218945673446,0.007780995839787613
61,61,56565.83026290284,3054.329800002055,7.1225729309280466,56656.30135639972,-2100.198794089239,10.191861603454804,56689.47365549366,37655.51092377139,10.41960604343254,56713.32873009842,-14938.766669728937,15.155485764153395,56935.10949479597,15421.487733752603,33.509669375921014,0.9660829349924912,92.0,73.0,83.0,243.0,326.0,19.0,1016.0,780.0,20.0,10.0,10.0,0.5,203.04501282509028,2905.8853629217288,14.0,8.0,6.0,0.5714285714285714,368.7600783119743,1743.5577948989137,23.0,12.0,11.0,0.5217391304347826,2011.4510994987024,30071.89977771065,26.0,6.0,20.0,0.2307692307692307,1292.4311802480108,26425.462436780545,81.0,40.0,41.0,0.4938271604938271,126.10799992380308,16000.392254980065,0.0,0.0,0.0,0.0,56557.0,56576.0,56649.0,56662.0,56677.0,56700.0,56707.0,56732.0,56897.0,56975.0,0.06647776308404996,-0.1755834158889177,0.05341717719806324,-0.08651525315452711,0.00817742114775307
62,62,57452.79608887221,2506.1020369505795,7.838712862797766,57515.36991350215,-2809.635288371686,38.21948100882557,57573.52395011509,38977.78267180621,10.402671555330814,57597.32873009842,-14366.719243426012,14.60746926910224,57819.832409365474,14814.10019163766,31.861168486349264,0.95422064852929,50.0,33.0,120.0,246.0,366.0,17.0,889.0,884.0,17.0,9.0,8.0,0.5294117647058824,170.83953504334156,988.1230103448772,56.0,24.0,32.0,0.4285714285714285,103.08949330331168,2418.0792679969804,23.0,13.0,10.0,0.5652173913043478,2054.6920248938563,27202.93547655017,26.0,7.0,19.0,0.2692307692307692,1301.137178868949,25789.859785899745,81.0,41.0,40.0,0.5061728395061729,116.95183306855196,14899.229298791606,0.0,0.0,0.0,0.0,57444.0,57461.0,57494.0,57546.0,57561.0,57584.0,57591.0,57614.0,57779.0,57860.0,0.06816942507704865,-0.036691414622378564,0.05271444099820681,-0.0905660615219671,0.007894629545881533
63,63,58360.12330450071,4212.6122851692735,12.739827004320285,58402.438224894984,-2968.197162019229,99.37065063369808,58484.57646605957,38255.56458587439,10.62043144111228,58507.17805320674,-14013.640028396112,13.011002832200134,58730.563952381315,14509.876180707071,31.857437956639945,0.9370085715322384,27.0,11.0,145.0,245.0,390.0,16.0,904.0,911.0,18.0,8.0,10.0,0.4444444444444444,164.62630878977998,1564.3550332382088,80.0,23.0,57.0,0.2875,93.00905649006668,2288.5958001878944,23.0,13.0,10.0,0.5652173913043478,2000.825755194786,26480.342398872926,25.0,6.0,19.0,0.24,1308.898680530954,26605.611937709135,78.0,38.0,40.0,0.4871794871794871,119.5821246995747,15186.62944402318,0.0,0.0,0.0,0.0,58353.0,58369.0,58380.0,58458.0,58472.0,58495.0,58502.0,58525.0,58695.0,58770.0,0.03907938771611043,-0.03133520160998798,0.05230156127230645,-0.09340176270253175,0.008241429713823197
64,64,59282.027373699006,1873.6624462719403,7.549104801632172,59350.178051900024,-2882.7718030635892,22.931688607721124,59402.71736720528,34639.11469097117,10.486545426463124,59428.32873009862,-14566.55945345793,14.444478370648143,59651.10949479598,14080.322066713738,32.44569964271881,0.948034328187775,75.0,53.0,100.0,246.0,346.0,22.0,927.0,918.0,23.0,13.0,10.0,0.5652173913043478,135.9488357210132,1330.1461044864177,62.0,37.0,25.0,0.5967741935483871,151.78876819673025,2130.0352187204585,24.0,13.0,11.0,0.5416666666666666,1916.897131628352,25610.028388789287,25.0,7.0,18.0,0.28,1216.2031113393127,24519.847055097176,86.0,45.0,41.0,0.5232558139534884,122.4445694709387,13703.678583714622,0.0,0.0,0.0,0.0,59270.0,59292.0,59345.0,59374.0,59390.0,59413.0,59422.0,59445.0,59609.0,59691.0,0.0725578056984133,-0.052653757760298875,0.05533909133445606,-0.08349281896148787,0.008696148347373459
65,65,60103.12384646203,1673.5377910501104,4.3140046085644475,60173.63008649785,-3202.8190319914115,38.21948101296083,60222.69748318941,37503.958446604775,10.753624960334744,60248.32873009842,-14536.691799788414,15.84235061885882,60467.77404644715,14576.598257468118,31.87983422441903,0.9439337980679542,40.0,32.0,126.0,241.0,367.0,8.0,819.0,820.0,8.0,4.0,4.0,0.5,154.857265697867,659.8720313854415,57.0,36.0,21.0,0.631578947368421,99.70623420021992,2964.278695694791,24.0,13.0,11.0,0.5416666666666666,1932.8414265750985,27304.977439829076,25.0,7.0,18.0,0.28,1260.933965323057,25702.50640835842,80.0,41.0,39.0,0.5125,121.28941848049789,14648.342956287634,0.0,0.0,0.0,0.0,60099.0,60107.0,60139.0,60195.0,60210.0,60233.0,60242.0,60265.0,60428.0,60506.0,0.0925328764764238,-0.03113077361046707,0.051536997869889606,-0.08674146653789622,0.008320831536833839
66,66,60998.0145561318,1645.211864129511,4.921310953027936,61081.45203459914,-3417.343616696545,15.287792405184335,61117.12970644737,37407.5566943682,10.350249125220746,61141.32873009842,-14638.069394609904,14.220020715260777,61364.540439191056,14532.600228330492,31.443461066134283,0.947406020948481,51.0,38.0,115.0,244.0,359.0,13.0,896.0,894.0,14.0,7.0,7.0,0.5,164.3581520178605,729.0355795282047,50.0,41.0,9.0,0.82,258.4568612552693,324.2377564721835,23.0,12.0,11.0,0.5217391304347826,2028.273962586474,29767.742679602172,24.0,6.0,18.0,0.25,1330.8088727433949,25571.15600491494,80.0,41.0,39.0,0.5125,155.1700510012346,14836.887997880753,0.0,0.0,0.0,0.0,60992.0,61005.0,61043.0,61090.0,61105.0,61127.0,61135.0,61158.0,61326.0,61402.0,0.09990090370812099,-0.07563092572619685,0.05422096875126398,-0.09091423444360985,0.010677376970622179
67,67,61913.33332972082,2707.381944738125,7.370347961207483,62001.87669549929,-2819.146528337043,12.739827004320285,62036.098380387826,36300.186421538994,10.50610258859206,62060.32873009842,-13669.809924507452,15.29255617002185,62283.734245736196,15116.53343320868,32.727660505513796,0.9556629601061826,47.0,28.0,126.0,247.0,373.0,19.0,914.0,919.0,19.0,9.0,10.0,0.4736842105263157,182.008776821378,3122.9682643153924,59.0,52.0,7.0,0.8813559322033898,309.4782159981052,1674.4354484126095,24.0,13.0,11.0,0.5416666666666666,1908.3415861701344,27707.75057842611,24.0,6.0,18.0,0.25,1260.622481536169,24854.76180651969,84.0,43.0,41.0,0.5119047619047619,137.98180807371602,15762.55230353399,0.0,0.0,0.0,0.0,61904.0,61923.0,61951.0,62009.0,62024.0,62047.0,62054.0,62077.0,62243.0,62324.0,0.06722685625318485,-0.1097772722656811,0.05257112357521683,-0.09221945941443598,0.009127873707512292
68,68,62769.75731587015,2869.2662030991332,7.64389620259217,62850.04118340374,-4433.579448360023,66.24710042246546,62890.27131819607,37890.61719394444,10.716114355864615,62916.90406919828,-12260.667192935383,18.654733715291577,63140.95881659626,13293.85191861301,30.258262875841627,0.9249426547954328,22.0,14.0,147.0,243.0,390.0,8.0,855.0,855.0,8.0,4.0,4.0,0.5,167.807542775857,399.9169558499224,80.0,64.0,16.0,0.8,174.72245620722637,2555.3615700386367,23.0,12.0,11.0,0.5217391304347826,1893.4753092334336,28610.342054326866,28.0,8.0,20.0,0.2857142857142857,1111.0508860590694,24146.624562583525,79.0,42.0,37.0,0.5316455696202531,129.30017339076372,13539.970150571691,0.0,0.0,0.0,0.0,62766.0,62774.0,62788.0,62865.0,62878.0,62901.0,62910.0,62935.0,63102.0,63178.0,0.05848448031577056,-0.0394088925759199,0.04997214216758768,-0.09061912117631402,0.009726313651028995
69,69,63632.84932180029,3703.858657901454,5.095930801728113,63714.31516610417,-3555.6794367042653,73.89099662505764,63756.599149165886,36848.39947759102,10.390969391147328,63782.89984537154,-13642.038603635305,10.71966307748059,64004.33507836262,14194.847147101578,31.01175937140301,0.9359509426275002,42.0,30.0,126.0,245.0,371.0,12.0,863.0,867.0,12.0,3.0,9.0,0.25,174.6014411998584,1305.401770668024,71.0,53.0,18.0,0.7464788732394366,102.8745462862124,3172.2971102846186,23.0,12.0,11.0,0.5217391304347826,1983.5813798520649,29818.55200102291,23.0,8.0,15.0,0.3478260869565217,1239.4815595086334,24629.844373295244,82.0,41.0,41.0,0.5,148.91126719865187,14088.24685780818,0.0,0.0,0.0,0.0,63630.0,63642.0,63672.0,63731.0,63745.0,63768.0,63775.0,63798.0,63964.0,64043.0,0.04714041688048235,-0.02893245809064444,0.053830869399317055,-0.0908575027179837,0.010490515724155424
70,70,64562.027373699,2563.5540952312053,8.711795054294981,64630.60271280392,-2037.1217681467292,20.38372320690714,64681.37628078897,37585.0022043095,10.30341687017336,64704.753390998565,-13645.27742620262,14.55585094756934,64928.499475950455,14798.75109041869,35.237380823398624,0.9615724876992314,72.0,47.0,103.0,250.0,353.0,25.0,933.0,923.0,25.0,15.0,10.0,0.6,141.30928001429567,1955.5964911791311,39.0,15.0,24.0,0.3846153846153846,120.30603043396172,1814.5692996549683,23.0,12.0,11.0,0.5217391304347826,1958.9922694497848,30006.28276177013,24.0,6.0,18.0,0.25,1247.969471759694,24759.303703554317,87.0,43.0,44.0,0.4942528735632184,93.17262791087816,15160.35377194743,0.0,0.0,0.0,0.0,64547.0,64572.0,64619.0,64642.0,64669.0,64692.0,64699.0,64722.0,64886.0,64972.0,0.05512241004672502,-0.05905686754474677,0.052121648385194626,-0.09145797720193329,0.0062959791229411175
71,71,65441.5514104172,2635.6488768655445,5.9578281800830455,65526.316663197795,-2935.725710018636,40.767446413824906,65563.09686164488,36656.49263275535,10.687961151586084,65588.90406919828,-13199.428695966008,15.670313485270286,65809.34259818545,14555.687598908373,32.812989840204864,0.9579026346464984,47.0,32.0,125.0,245.0,370.0,15.0,877.0,883.0,15.0,8.0,7.0,0.5333333333333333,193.9477842959217,1937.8212783144472,58.0,47.0,11.0,0.8103448275862069,230.7919788755455,8.296283308829516,23.0,12.0,11.0,0.5217391304347826,1897.5881721059532,28922.814853067717,25.0,7.0,18.0,0.28,1156.4224834249364,23623.895130058852,83.0,41.0,42.0,0.4939759036144578,111.9845110859634,15171.707624249895,0.0,0.0,0.0,0.0,65434.0,65449.0,65481.0,65536.0,65551.0,65574.0,65582.0,65606.0,65768.0,65851.0,0.07358635135290663,-0.07861496668027629,0.051766768608143235,-0.08761155577728609,0.0076935225715040675
72,72,66328.0052917579,2140.600782129899,7.231188682193499,66397.328730128,-2226.632524339992,28.02761940950131,66446.92789406801,35966.09782767255,10.229163884230871,66473.75339099858,-13658.660544119955,12.178203643464352,66694.12131020402,15183.274694739252,33.68894567216588,0.9608791650303546,71.0,55.0,97.0,247.0,344.0,16.0,887.0,884.0,18.0,9.0,9.0,0.5,145.32387690194895,1812.28768540611,63.0,39.0,24.0,0.6190476190476191,110.29451658333704,1617.10917927956,23.0,12.0,11.0,0.5217391304347826,1972.7299979074671,31535.91083160523,22.0,8.0,14.0,0.3636363636363636,1144.8207568595485,21859.718184386347,82.0,40.0,42.0,0.4878048780487805,117.8599002006959,15990.93557294694,0.0,0.0,0.0,0.0,66320.0,66336.0,66391.0,66420.0,66435.0,66458.0,66466.0,66488.0,66654.0,66735.0,0.06788929449859941,-0.04953422505854666,0.0548497089497887,-0.08381647330362808,0.007762482242485698
73,73,67279.30135639943,3147.7116238539516,10.191861603456202,67347.19186160344,-2012.9276751625905,61.15116961810554,67399.75424517896,37335.411392061374,10.244632068654424,67425.32873017815,-12928.637863644586,12.447419988925706,67647.14856085264,14919.74358316988,33.970942618989,0.958526204152368,47.0,28.0,128.0,248.0,376.0,19.0,952.0,953.0,19.0,13.0,6.0,0.6842105263157895,179.08997091899693,1644.08153580545,65.0,39.0,26.0,0.6,116.77121045378244,1616.5616889242967,23.0,12.0,11.0,0.5217391304347826,2035.96501067953,30625.111862152084,24.0,7.0,17.0,0.2916666666666667,1220.1488014283543,24297.92546749311,85.0,41.0,44.0,0.4823529411764706,149.82797117282325,14855.102082390162,0.0,0.0,0.0,0.0,67266.0,67285.0,67313.0,67373.0,67388.0,67411.0,67418.0,67441.0,67609.0,67689.0,0.05689529166579918,-0.058010633911300596,0.0545317417102959,-0.09437566542562234,0.010042261808161082
74,74,68231.45203459915,2801.2137652011825,8.57326272384298,68301.2466090014,-2057.016311166372,25.47965400864057,68352.86524912568,35670.91635375019,10.50128278694401,68378.3287300985,-13399.602297558547,14.82976061235346,68599.47183483467,14841.047842973898,33.49738131917974,0.960900701049886,67.0,47.0,108.0,244.0,352.0,20.0,953.0,952.0,22.0,12.0,10.0,0.5454545454545454,183.8503854219761,2402.9762694821047,67.0,42.0,25.0,0.6268656716417911,115.2390038460724,1854.30795832714,24.0,13.0,11.0,0.5416666666666666,1884.2200575135523,27975.534016251935,25.0,7.0,18.0,0.28,1210.959940528271,23700.864180153505,85.0,41.0,44.0,0.4823529411764706,188.845967878156,14635.46995057312,0.0,0.0,0.0,0.0,68220.0,68240.0,68287.0,68325.0,68340.0,68364.0,68372.0,68395.0,68562.0,68639.0,0.06563240110622975,-0.05602240644398655,0.05282230596006146,-0.09037282701658332,0.012724571059688357
75,75,69123.87669549929,2538.1215742163545,6.213246225529433,69213.72601729959,-2385.447103495088,7.6438962024328685,69246.52497828996,36368.44845287536,10.483841903614511,69271.32873009844,-14772.252206901523,13.242707995051736,69493.1027551856,15290.054612762084,34.8678769223783,0.960817076169164,86.0,71.0,86.0,248.0,334.0,15.0,892.0,894.0,17.0,9.0,8.0,0.5294117647058824,178.95654810086992,2643.560253332978,17.0,12.0,5.0,0.7058823529411765,389.4556642048587,2091.4593115605294,25.0,14.0,11.0,0.56,1994.8422042384557,26643.81386944382,25.0,7.0,18.0,0.28,1303.524809403048,25603.734152994264,86.0,43.0,43.0,0.5,124.87948937977812,15824.030466176851,0.0,0.0,0.0,0.0,69116.0,69131.0,69202.0,69218.0,69234.0,69257.0,69265.0,69288.0,69451.0,69536.0,0.07050747683594423,-0.16326317344628583,0.05485090206207957,-0.08824144017755449,0.008167367124741693
76,76,70070.49966734437,3035.83284054331,7.766098263484274,70137.7672007033,-1854.9549044361747,33.24138722246162,70190.04843796279,36464.81584591911,10.047743173173098,70216.86910436461,-12466.962773083913,12.330395085897464,70438.30762098504,15409.624702570944,35.36632035521207,0.964186497678202,45.0,26.0,127.0,250.0,377.0,19.0,947.0,944.0,20.0,11.0,9.0,0.55,189.6928589901546,2704.638384608038,59.0,33.0,26.0,0.559322033898305,78.13609986085983,1278.8617841876278,23.0,12.0,11.0,0.5217391304347826,1979.6428502445335,33114.38233986922,23.0,8.0,15.0,0.3478260869565217,1085.4449279349494,20654.12389034089,89.0,44.0,45.0,0.4943820224719101,118.37949458107504,16236.16137240507,0.0,0.0,0.0,0.0,70060.0,70079.0,70105.0,70164.0,70178.0,70201.0,70209.0,70232.0,70395.0,70482.0,0.06248461919800765,-0.04212291073707249,0.05428912238606798,-0.08706570699628763,0.007682178954126286
77,77,71008.14840344715,2165.1508928145786,6.393972820709121,71097.30135639943,-3379.1020867142556,10.191861603456196,71129.67907302988,35374.94911426209,10.466634022067971,71154.90406919828,-13214.681786106055,15.858376662889617,71376.85518873364,14888.235878563182,33.57307833066772,0.9552123127470004,50.0,32.0,123.0,247.0,370.0,18.0,936.0,939.0,19.0,10.0,9.0,0.5263157894736842,157.5792493541996,1771.7291140503569,57.0,50.0,7.0,0.8771929824561403,403.1508692025542,1268.9245275005314,24.0,13.0,11.0,0.5416666666666666,1872.7900190557496,26016.957751124857,25.0,7.0,18.0,0.28,1161.1763464819755,23442.08383514603,83.0,40.0,43.0,0.4819277108433735,185.0477013392855,15297.511622769203,0.0,0.0,0.0,0.0,70999.0,71017.0,71049.0,71103.0,71117.0,71140.0,71148.0,71172.0,71341.0,71419.0,0.0727798001872078,-0.11930709959537411,0.052941136763379776,-0.08787017086577437,0.012429122083276928
78,78,71877.70880701384,2814.484430294702,10.525870449628172,71937.65746019685,-3009.44592258393,56.055238819009254,71994.61786254932,35288.00071528648,10.162920131417854,72023.49961231295,-12735.665278570354,13.589571025904664,72243.53415569612,14533.062245772053,32.038733006382586,0.9365979631275736,38.0,21.0,134.0,243.0,377.0,17.0,870.0,866.0,17.0,11.0,6.0,0.6470588235294118,145.11259539637135,655.5170210990016,67.0,35.0,32.0,0.5223880597014925,128.39068835167987,2434.2517103736072,23.0,12.0,11.0,0.5217391304347826,1941.7859396560489,29855.13143488568,26.0,9.0,17.0,0.3461538461538461,950.4379265736428,20262.907826992618,84.0,44.0,40.0,0.5238095238095238,142.8417630365975,14484.81288757205,0.0,0.0,0.0,0.0,71867.0,71884.0,71905.0,71969.0,71983.0,72006.0,72015.0,72039.0,72204.0,72282.0,0.051559210573133896,-0.04266256701547333,0.055026805154616845,-0.07462805481963283,0.00982874501058116
79,79,72776.3063812051,2222.3558630944185,7.094897743068,72840.06855710273,-2809.798549442783,48.411342616409485,72893.14788578074,39666.966130086155,10.27336766511494,72917.90406919828,-12721.034269439502,15.50619294990776,73140.38269726503,14626.281114494765,32.548000541570495,0.9528101577002188,44.0,33.0,123.0,247.0,370.0,11.0,897.0,898.0,11.0,7.0,4.0,0.6363636363636364,161.07448491812036,961.4040994565628,57.0,29.0,28.0,0.5087719298245614,101.33345097892224,2265.9244947166976,23.0,12.0,11.0,0.5217391304347826,2030.0742552483332,31793.283387603584,25.0,7.0,18.0,0.28,1199.9136849289127,24970.895657822955,83.0,40.0,43.0,0.4819277108433735,84.47341132093582,14287.92280964168,0.0,0.0,0.0,0.0,72769.0,72780.0,72813.0,72867.0,72881.0,72904.0,72911.0,72936.0,73101.0,73183.0,0.07247915943301696,-0.036064311798800625,0.05117795620140925,-0.09432516723986326,0.005775453832705429
80,80,73734.82879170803,3287.1078794792747,10.599384631967729,73815.19186160344,-1614.142466304977,61.15116962073736,73859.46246565152,37255.92060324848,10.31205688969158,73884.32873009844,-12990.14932446961,12.671684407662122,74107.7837371187,14939.372709277332,34.0332611637119,0.9597503324647656,55.0,38.0,119.0,249.0,368.0,17.0,957.0,966.0,18.0,10.0,8.0,0.5555555555555556,190.15041814259533,3098.6993573742557,53.0,34.0,19.0,0.6415094339622641,89.80165129065456,1694.1970015538468,23.0,12.0,11.0,0.5217391304347826,1974.536370965287,31916.554146820716,24.0,7.0,17.0,0.2916666666666667,1272.278038816229,24437.12482853978,83.0,41.0,42.0,0.4939759036144578,147.25514848673564,15577.49756721426,0.0,0.0,0.0,0.0,73726.0,73743.0,73781.0,73834.0,73847.0,73870.0,73878.0,73900.0,74068.0,74149.0,0.05784733118425,-0.05563427836467527,0.052999263982571404,-0.09794175625214964,0.00985684950448357
81,81,74700.79391870314,2511.7683253293567,8.552922752063036,74789.52966764834,-2757.448842652651,12.739827004320285,74820.69968397028,34822.64045120176,10.768295764866432,74846.75339099858,-13486.340586417056,14.12194928999602,75069.40875763,14811.00383260575,34.015116542741595,0.9608991811265932,80.0,55.0,95.0,248.0,343.0,25.0,967.0,962.0,25.0,13.0,12.0,0.52,128.4795361878553,2571.039705571648,27.0,22.0,5.0,0.8148148148148148,442.58655687961993,3008.1430224671926,24.0,13.0,11.0,0.5416666666666666,1879.290262605471,28423.62724413438,24.0,7.0,17.0,0.2916666666666667,1123.777739234384,22434.117759006615,85.0,42.0,43.0,0.4941176470588235,139.00220848169937,15638.271009664888,0.0,0.0,0.0,0.0,74688.0,74713.0,74768.0,74795.0,74808.0,74832.0,74841.0,74863.0,75029.0,75111.0,0.051151029691804226,-0.1605058088598496,0.05396748317345404,-0.08332710656634397,0.009385063298389833
82,82,75565.12330450071,2143.0199331805893,8.68378200002683,75600.82194810128,-2774.3037776351957,22.93168860777651,75690.24943934639,36040.15098469501,9.803451876194504,75716.32873009844,-13519.673062945702,15.227159637962991,75936.81574093277,14574.458532719938,32.728070075200726,0.9433362311699542,30.0,12.0,144.0,248.0,392.0,18.0,863.0,869.0,18.0,7.0,11.0,0.3888888888888889,152.37825807516558,1673.386460164896,74.0,13.0,61.0,0.1756756756756756,120.40412982763756,3152.472274545664,23.0,12.0,11.0,0.5217391304347826,1967.4421157220345,28928.054723886675,25.0,8.0,17.0,0.32,1141.18713770604,23609.256215435613,90.0,45.0,45.0,0.5,127.73947167759222,13242.93718320856,0.0,0.0,0.0,0.0,75558.0,75576.0,75588.0,75662.0,75678.0,75701.0,75708.0,75732.0,75893.0,75980.0,0.07110445204726189,-0.04339976422130294,0.054590285056173554,-0.08440937383565658,0.0087646118304028
83,83,76505.16865643674,3492.2721783994443,8.041357583332726,76584.972626301,-1806.8006019323263,9.50547844213474,76623.79185578557,35953.51801161416,9.7844780462653,76651.48692698256,-12230.56039102931,10.337013112108004,76871.76104355133,16264.70678732426,37.635703736816865,0.9738220340009304,80.0,59.0,90.0,250.0,340.0,21.0,943.0,934.0,21.0,10.0,11.0,0.4761904761904761,205.25724238341948,3542.1670999853513,24.0,12.0,12.0,0.5,204.61514598696573,354.2162875713261,23.0,12.0,11.0,0.5217391304347826,2013.685401506999,34176.820044552616,22.0,8.0,14.0,0.3636363636363636,1122.1115155096447,20450.899734835795,91.0,47.0,44.0,0.5164835164835165,164.73940240500295,16243.524843062502,0.0,0.0,0.0,0.0,76495.0,76516.0,76575.0,76597.0,76612.0,76635.0,76643.0,76665.0,76828.0,76915.0,0.05877469793247663,-0.11324722040059934,0.05600802126947669,-0.0917465332441083,0.010128642622281454
84,84,77471.54796540085,2125.1029610324017,14.37920223271551,77562.45203459915,-1634.6667010925332,15.287792405184325,77597.82020414894,34227.38170853103,10.43372098826814,77624.17805189872,-13241.455509941745,10.435834504425692,77846.65029198969,15998.577280831963,35.70986666436012,0.963671672589844,87.0,62.0,87.0,255.0,342.0,25.0,963.0,974.0,27.0,10.0,17.0,0.3703703703703703,141.4614181262296,2155.66624728367,22.0,13.0,9.0,0.5909090909090909,271.7391829710463,1068.2479073060122,23.0,12.0,11.0,0.5217391304347826,1882.6272262682623,31050.070479657385,21.0,7.0,14.0,0.3333333333333333,1235.011013351234,21881.138161879317,89.0,44.0,45.0,0.4943820224719101,96.94259521592156,16024.753703323076,0.0,0.0,0.0,0.0,77463.0,77488.0,77550.0,77571.0,77586.0,77609.0,77617.0,77637.0,77803.0,77892.0,0.06656685380434738,-0.16623522262332058,0.05500354196824309,-0.09326852417575864,0.006059451007063568
85,85,78401.87669549929,2566.939940052368,6.487239787717538,78463.82194810128,-2130.9673835294725,22.93168860777637,78522.61254194548,33185.694552401765,10.082455704552306,78551.43694556766,-13166.71224411484,12.381615968267743,78773.38347749642,15017.579754897091,32.51076930020814,0.958346803490654,59.0,42.0,115.0,243.0,358.0,17.0,935.0,925.0,17.0,10.0,7.0,0.5882352941176471,181.24602378879956,2352.6621620507467,59.0,27.0,32.0,0.4576271186440678,131.3614959698444,2362.7062644248176,24.0,13.0,11.0,0.5416666666666666,1877.5380145565532,29100.10690162138,24.0,9.0,15.0,0.375,951.619333484504,19395.41545986342,81.0,43.0,38.0,0.5308641975308642,124.52221775535143,15555.392941822072,0.0,0.0,0.0,0.0,78392.0,78409.0,78451.0,78495.0,78511.0,78534.0,78543.0,78566.0,78731.0,78809.0,0.07060781631887421,-0.061644066908369745,0.056576728011277055,-0.07227463590311634,0.00829176337250654
86,86,79294.92903216946,2423.053038943655,8.688295773151177,79355.21923530243,-2618.791881238983,43.315411813110366,79415.94862781954,35571.03712798933,10.476782854199024,79441.75339101962,-14131.146518149608,12.048270405218869,79663.95369786535,15108.81716890914,32.45452511547399,0.9501036218965248,45.0,30.0,125.0,249.0,374.0,15.0,892.0,893.0,15.0,9.0,6.0,0.6,149.18331132096426,1110.6351791958314,60.0,25.0,35.0,0.4166666666666667,112.57938585008672,2557.6836635418913,23.0,12.0,11.0,0.5217391304347826,1963.8908745273084,30161.43885501429,23.0,8.0,15.0,0.3478260869565217,1217.3243163704235,23381.229266014067,80.0,39.0,41.0,0.4875,159.06392327014703,15691.387051746748,0.0,0.0,0.0,0.0,79286.0,79301.0,79331.0,79389.0,79404.0,79427.0,79435.0,79456.0,79625.0,79705.0,0.06156832265875685,-0.0429890540965111,0.05521039118035742,-0.08614476644247725,0.01052788722584241
87,87,80253.76831967072,2130.816197963784,7.514091398574848,80335.17805189872,-2190.2569739926334,22.93168860777651,80376.6605873846,36792.95749974686,10.285991668986895,80401.32873009844,-13794.910382266122,13.425046224698184,80625.57175210927,15158.177763061823,34.009770793998165,0.9582268153947902,68.0,51.0,102.0,250.0,352.0,17.0,959.0,960.0,19.0,9.0,10.0,0.4736842105263157,153.37721217389188,1661.391545348073,66.0,52.0,14.0,0.7878787878787878,140.54016045769083,1171.4707897762828,24.0,13.0,11.0,0.5416666666666666,2011.2504948752671,28217.42128063323,24.0,7.0,17.0,0.2916666666666667,1256.4158130293729,24408.88438283809,82.0,41.0,41.0,0.5,143.15397060666618,16160.46569936119,0.0,0.0,0.0,0.0,80247.0,80264.0,80315.0,80348.0,80365.0,80387.0,80395.0,80417.0,80587.0,80667.0,0.0719804985152918,-0.06416606002239969,0.05466400723260979,-0.09107821495125788,0.009444009223556584
88,88,81251.027373699,2774.147767516331,10.871027725127613,81338.30135639943,-1857.0903600638956,10.19186160345564,81370.90802473876,34456.14682455026,10.266499963321582,81398.83779443549,-12834.44501941708,11.16935547114759,81619.23673585869,15940.917835008078,35.86492668654629,0.963085573727723,90.0,62.0,90.0,251.0,341.0,28.0,999.0,995.0,28.0,18.0,10.0,0.6428571428571429,166.55824700976507,2157.479150747479,22.0,16.0,6.0,0.7272727272727273,361.1330275739086,2414.7625669376334,23.0,12.0,11.0,0.5217391304347826,1913.660123337511,32622.413009976997,22.0,8.0,14.0,0.3636363636363636,1012.9378880141962,19206.60048967419,90.0,44.0,46.0,0.4888888888888889,174.24736488993344,16952.196374753978,0.0,0.0,0.0,0.0,81233.0,81261.0,81323.0,81344.0,81359.0,81382.0,81391.0,81413.0,81580.0,81664.0,0.06003942867069519,-0.19446174259473478,0.05553900536475582,-0.07892338831026464,0.010930823851765066
89,89,82204.57149249523,2019.2015056202224,4.416612355863128,82288.45203459915,-3795.943225215023,15.28779240518434,82323.68665476557,34903.15173168556,10.823802333441732,82349.32873009844,-14703.875066455848,15.966943837335396,82573.0407701194,14434.22312115614,33.00339783029419,0.9500513031063282,40.0,27.0,129.0,248.0,377.0,13.0,950.0,952.0,13.0,7.0,6.0,0.5384615384615384,187.80748701619183,1735.8205058113122,64.0,55.0,9.0,0.859375,311.6165065878993,264.28260737329583,24.0,13.0,11.0,0.5416666666666666,1860.446678413563,25755.36478916298,26.0,6.0,20.0,0.2307692307692307,1169.1483531840922,24776.838759905353,86.0,43.0,43.0,0.5,131.42896620163708,14788.9693637883,0.0,0.0,0.0,0.0,82198.0,82211.0,82238.0,82297.0,82311.0,82334.0,82343.0,82367.0,82531.0,82615.0,0.09301077009572874,-0.08209198296696012,0.0533031140773635,-0.07951294117366968,0.00910537166416685
90,90,83126.30135639943,1048.699241181987,5.3150545754860445,83211.87669550379,-3555.9552063368674,12.739827003504391,83245.10410237969,37456.41315888591,10.291692084196798,83270.32873009852,-14351.160581040756,14.26666143123938,83493.02881651648,15131.660778097188,33.30494205997958,0.9501696837160468,45.0,28.0,126.0,249.0,375.0,17.0,924.0,922.0,17.0,11.0,6.0,0.6470588235294118,126.9851709320521,665.8088647187808,65.0,58.0,7.0,0.8923076923076924,376.19037496179624,1363.9612828282989,23.0,12.0,11.0,0.5217391304347826,2039.6380837162492,31155.15819484873,24.0,7.0,17.0,0.2916666666666667,1270.9816373669994,25480.886855461387,85.0,43.0,42.0,0.5058823529411764,118.52350238424164,15406.722543351156,0.0,0.0,0.0,0.0,83115.0,83132.0,83160.0,83219.0,83233.0,83256.0,83263.0,83286.0,83451.0,83535.0,0.12108826434252717,-0.10579165178779772,0.05445364122465045,-0.0885629862609221,0.00783281518944717
91,91,84110.27950231181,2658.6775894683265,7.148669709281341,84191.60271279886,-2003.6177340714728,20.383723206912354,84230.45158932738,36912.9124533728,10.348866133138396,84255.32873009844,-13650.117089319969,13.64069267034513,84482.2601729957,15395.38018943339,34.712225704340106,0.9616069067835304,51.0,31.0,120.0,254.0,374.0,20.0,983.0,985.0,20.0,10.0,10.0,0.5,171.28149492516968,2636.270005059521,53.0,42.0,11.0,0.7924528301886793,159.80370269921377,342.5168960700481,23.0,12.0,11.0,0.5217391304347826,1969.630556936448,32429.640609870155,24.0,7.0,17.0,0.2916666666666667,1249.997759688633,24434.25224439467,91.0,47.0,44.0,0.5164835164835165,99.54446887559963,15681.65775029456,0.0,0.0,0.0,0.0,84100.0,84120.0,84151.0,84203.0,84218.0,84241.0,84249.0,84271.0,84436.0,84525.0,0.0644235674169962,-0.0797575804914059,0.05335884995323579,-0.09157414192927676,0.0064658662306970455
92,92,85079.08381307751,2048.996857508043,6.997574960626387,85168.30135639943,-3216.1768231821056,10.19186160345618,85200.8142017358,35737.13655122368,10.47585013665385,85226.32873009844,-13209.009079274494,15.144572686433031,85449.7434410898,15217.769872941511,32.77060722705105,0.9610158258531546,62.0,40.0,113.0,247.0,360.0,22.0,966.0,971.0,22.0,11.0,11.0,0.5,168.84074190347818,1556.2136046839903,45.0,38.0,7.0,0.8444444444444444,366.29147952667705,1696.4462266557923,24.0,13.0,11.0,0.5416666666666666,1904.4806364717408,27966.790510317933,26.0,7.0,19.0,0.2692307692307692,1211.471787217518,23432.158787185024,82.0,42.0,40.0,0.5121951219512195,146.04326662068226,15675.779505963394,0.0,0.0,0.0,0.0,85068.0,85090.0,85130.0,85174.0,85188.0,85212.0,85220.0,85243.0,85408.0,85490.0,0.0824016597608742,-0.11389034237373365,0.05329136075975089,-0.09171556927145805,0.00959689020402126
93,93,85968.73879307974,3115.7616188400784,7.64389620259217,86045.31516610416,-3634.328576834771,73.89099662504107,86085.9564936019,35121.657703547346,10.136091564168945,86116.90378598611,-12524.636405977586,11.105316864856478,86336.0384008424,14606.104548440457,31.661575103469545,0.935692403674563,33.0,23.0,137.0,243.0,380.0,10.0,891.0,886.0,11.0,8.0,3.0,0.7272727272727273,153.1084996519198,610.1864954116841,70.0,52.0,18.0,0.7428571428571429,114.60264327556754,2635.6365468314443,23.0,11.0,12.0,0.4782608695652174,1901.343679937238,31874.15558306555,24.0,10.0,14.0,0.4166666666666667,824.6284507401361,18191.845867198717,75.0,36.0,39.0,0.48,127.12763221406634,15231.456892439906,0.0,0.0,0.0,0.0,85961.0,85971.0,85994.0,86062.0,86075.0,86098.0,86107.0,86131.0,86301.0,86374.0,0.049139991559726044,-0.03153337428157855,0.05413593219277913,-0.06584051017613324,0.008703732866792343
94,94,86851.05748905704,3389.399822020994,15.236783956512175,86906.38347749642,-2547.2962912004396,63.69913502160143,86968.8152301215,37759.76588790034,10.180864788630744,86995.33600255061,-12872.803733787723,11.560334489095428,87217.06457859246,15719.021677533534,34.9417748785513,0.9561037324049796,42.0,25.0,123.0,248.0,371.0,17.0,885.0,882.0,18.0,6.0,12.0,0.3333333333333333,152.7387306295602,1359.4553575194504,73.0,37.0,36.0,0.5068493150684932,96.2668222366855,2395.014032568325,23.0,12.0,11.0,0.5217391304347826,2080.7681275005557,33070.224991566094,23.0,7.0,16.0,0.3043478260869565,1184.4668800845252,23153.780913252464,86.0,44.0,42.0,0.5116279069767442,144.43789204719093,16272.244955551709,0.0,0.0,0.0,0.0,86845.0,86862.0,86887.0,86942.0,86957.0,86980.0,86988.0,87010.0,87173.0,87258.0,0.045063650985408626,-0.03779176477005695,0.05510542977617646,-0.0920131235261213,0.009188732925639341
95,95,87778.30135639943,1425.2976487676708,5.553370837721632,87824.54796540085,-2693.0315175092715,15.28779240518434,87896.42609320239,34712.59933889432,9.555724280378818,87924.40155292391,-12759.63936014614,12.174287895392672,88147.05882764961,15249.653371270202,32.69601819012408,0.9523557788860684,44.0,32.0,122.0,250.0,372.0,12.0,927.0,927.0,12.0,6.0,6.0,0.5,148.14823956285332,607.3788759786695,55.0,10.0,45.0,0.1818181818181818,163.99622071008477,3180.268752101665,23.0,11.0,12.0,0.4782608695652174,1941.15380896898,32470.337341517326,23.0,9.0,14.0,0.391304347826087,1030.3344848254317,20503.32736932516,80.0,39.0,41.0,0.4875,129.22640711367774,16284.775669233502,0.0,0.0,0.0,0.0,87772.0,87784.0,87816.0,87840.0,87885.0,87907.0,87915.0,87938.0,88108.0,88188.0,0.10394196587003707,-0.060896509990258654,0.0559207275150375,-0.08074949892734515,0.008474055374736297
96,96,88697.0304000843,2309.4131222164974,17.39853578629969,88755.79457440229,-1711.350101484113,40.767446413824906,88817.03881924137,34558.67366480929,9.895447357442569,88846.83702151623,-12649.037708210475,10.795520501778318,89066.35468188177,15532.999985197408,36.35969353742368,0.9595632540679276,43.0,26.0,127.0,252.0,379.0,17.0,920.0,922.0,18.0,8.0,10.0,0.4444444444444444,133.93699000791804,1580.6062360275737,65.0,31.0,34.0,0.4769230769230769,111.38915370033222,1886.7579664867555,23.0,11.0,12.0,0.4782608695652174,1906.893237981596,33884.522762152614,23.0,10.0,13.0,0.4347826086956521,898.3490274760646,17154.012284390046,91.0,43.0,48.0,0.4725274725274725,136.86924111520227,15763.283652374295,0.0,0.0,0.0,0.0,88690.0,88707.0,88733.0,88790.0,88806.0,88829.0,88838.0,88860.0,89025.0,89112.0,0.05799611542839499,-0.0650884664708487,0.0551784265934767,-0.07102113601044507,0.008811513631985806
97,97,89526.25382004326,1616.9734488265228,7.251937241827971,89618.30135639943,-2920.704075708554,10.191861603456228,89650.93338267834,35194.06739055802,10.356427344277924,89677.32873009844,-13369.049001095727,14.214648314845496,89898.8786209499,15074.483935370816,33.41980046025538,0.9531357537623072,33.0,11.0,145.0,248.0,393.0,22.0,824.0,833.0,25.0,11.0,14.0,0.44,137.91531375703352,1517.6085164111355,76.0,70.0,6.0,0.9210526315789472,372.7874115328387,2111.046888124442,23.0,12.0,11.0,0.5217391304347826,1939.2767483775417,29559.415217766986,24.0,7.0,17.0,0.2916666666666667,1141.723862614382,23124.328425308748,85.0,42.0,43.0,0.4941176470588235,122.85508560156376,14788.274324926631,0.0,0.0,0.0,0.0,89515.0,89537.0,89548.0,89624.0,89639.0,89662.0,89670.0,89693.0,89859.0,89941.0,0.08529225625635475,-0.12763614589828023,0.055102376399319426,-0.08540052942590054,0.008149870080347905
98,98,90441.80181287976,2354.1432833782783,10.135537238656946,90517.24660900142,-1726.296554171212,25.47965400864057,90563.2811926678,37258.18867937558,10.265770371221132,90588.32873009844,-12937.403716039204,12.904861522868147,90812.5846117401,15921.197938935193,35.31667405157018,0.9669941112385012,56.0,34.0,119.0,251.0,370.0,22.0,920.0,912.0,23.0,12.0,11.0,0.5217391304347826,162.4676807584756,2270.088621700175,39.0,32.0,7.0,0.8205128205128205,101.61413624720488,1895.4538166256852,23.0,12.0,11.0,0.5217391304347826,1990.104890962927,32786.17340342197,24.0,7.0,17.0,0.2916666666666667,1226.6207130260032,24019.19796063068,88.0,43.0,45.0,0.4886363636363636,127.0822110348124,16569.124480933533,0.0,0.0,0.0,0.0,90430.0,90452.0,90486.0,90523.0,90551.0,90574.0,90582.0,90605.0,90771.0,90856.0,0.06901350563731566,-0.05886250308597147,0.05341389266366987,-0.094811968455873,0.007981950323224964
99,99,91368.45203459916,2446.0122075015292,10.54622985893404,91435.36991350216,-2094.4430856276117,38.21948101235459,91488.7783186784,37742.181447793744,10.357830911919343,91513.32873009844,-13165.338887677644,14.28004206308713,91737.73325991622,15258.675041773186,34.705097350193014,0.9563995893087708,59.0,37.0,115.0,252.0,367.0,22.0,927.0,925.0,23.0,13.0,10.0,0.5652173913043478,162.68443644460905,1704.9739169771635,51.0,24.0,27.0,0.4705882352941176,95.86351667299074,1935.5451279342271,24.0,13.0,11.0,0.5416666666666666,1976.7416665765784,28785.575790541672,23.0,6.0,17.0,0.2608695652173913,1254.941507537072,24423.44848528935,88.0,43.0,45.0,0.4886363636363636,114.80603272980764,15979.849831032076,0.0,0.0,0.0,0.0,91355.0,91377.0,91414.0,91462.0,91476.0,91499.0,91507.0,91529.0,91696.0,91781.0,0.06651006726200377,-0.04577040900792236,0.05237486522369869,-0.09532162584220745,0.007523984383670721
100,100,92267.027373699,1322.8362549668202,9.31707580742965,92359.6986434778,-2636.157983596538,10.191861603456228,92388.75169988736,34657.275030687284,10.896289857401422,92414.32873009844,-14058.110641979974,14.09278558310012,92636.2601729957,14832.851141353562,34.88458018707866,0.9537669193417216,91.0,75.0,79.0,248.0,327.0,16.0,899.0,900.0,18.0,7.0,11.0,0.3888888888888889,112.08765731130342,1141.7568911282492,11.0,9.0,2.0,0.8181818181818182,591.4425607032251,5487.404531230235,24.0,13.0,11.0,0.5416666666666666,1864.8712980384437,27165.31991738429,24.0,6.0,18.0,0.25,1218.6170686828252,24289.13963357945,90.0,45.0,45.0,0.5,147.07920664185772,15291.846822819649,0.0,0.0,0.0,0.0,92261.0,92277.0,92352.0,92362.0,92376.0,92400.0,92408.0,92431.0,92594.0,92679.0,0.08473282833793729,-0.22435778294907568,0.05380894188556929,-0.08668427071869969,0.009915774468457055
101,101,93080.15067819972,3560.860176671168,5.095930801728113,93144.46584430388,-2798.036902199306,68.79506582328362,93198.73674156932,36887.50136812765,10.70203116702485,93224.90406921248,-13587.11421468776,13.753127600757653,93446.1817646962,14668.54047453766,32.65491542887509,0.9423108427313944,35.0,23.0,136.0,247.0,383.0,12.0,811.0,811.0,14.0,10.0,4.0,0.7142857142857143,148.54932139326223,711.742978750046,75.0,47.0,28.0,0.6266666666666667,111.3020632248102,2592.516152284683,24.0,13.0,11.0,0.5416666666666666,1949.9992030101332,28525.62273961507,26.0,8.0,18.0,0.3076923076923077,1145.156601811789,24050.51918148227,82.0,39.0,43.0,0.4756097560975609,115.54095675208288,15212.85163260343,0.0,0.0,0.0,0.0,93071.0,93083.0,93106.0,93172.0,93186.0,93210.0,93218.0,93242.0,93408.0,93489.0,0.041717257635241374,-0.039778625913519876,0.05286341255672618,-0.08428254769315674,0.007876786170556252
102,102,93943.54796540084,4067.972938006539,15.28779240518434,93985.68483389584,-3242.883388945197,73.89099662505764,94065.48012508987,39620.79816643046,10.339563269294583,94089.90406919828,-12860.068029743865,15.253009482231503,94315.10404094198,14404.079800870071,32.05670658292642,0.9480674667000109,34.0,18.0,139.0,247.0,386.0,16.0,860.0,866.0,18.0,10.0,8.0,0.5555555555555556,162.55041796503895,1124.6887658986764,74.0,20.0,54.0,0.2702702702702703,99.06474918504244,2995.1625539844435,23.0,12.0,11.0,0.5217391304347826,2011.4053947303175,32135.338249341527,25.0,7.0,18.0,0.28,1233.238460844898,25678.828924063037,82.0,42.0,40.0,0.5121951219512195,88.72837537090933,14594.683018833142,0.0,0.0,0.0,0.0,93935.0,93951.0,93969.0,94039.0,94053.0,94076.0,94083.0,94108.0,94274.0,94355.0,0.039958578988161804,-0.030548353826951802,0.05076640269287968,-0.09589672916135115,0.006159947500814994
103,103,94825.45676680095,1433.0069029954427,4.36919552722758,94912.87669549928,-3712.651642218321,12.739827004320285,94946.04024553392,36143.973977604066,10.47765947514844,94970.32873009844,-14579.542244077702,14.017262963324386,95194.01757548309,14681.383158272858,32.256189737771294,0.9448365375156408,27.0,17.0,138.0,248.0,386.0,10.0,886.0,880.0,14.0,7.0,7.0,0.5,184.4472104454072,1113.9761024835625,77.0,70.0,7.0,0.9090909090909092,413.4027904790893,1248.3201110693462,24.0,13.0,11.0,0.5416666666666666,1949.310060247272,28349.424480868907,23.0,6.0,17.0,0.2608695652173913,1330.538614481886,25639.249110374956,83.0,42.0,41.0,0.5060240963855421,125.06869216568842,15586.015644355906,0.0,0.0,0.0,0.0,94821.0,94831.0,94848.0,94920.0,94934.0,94957.0,94964.0,94986.0,95153.0,95234.0,0.12871341377341136,-0.11134973876301517,0.053931813404224045,-0.09126065772211461,0.008518863026554352
104,104,95682.39654478183,1542.2500401532534,4.936804360867097,95765.027373699,-3457.7123587472197,17.83575780600377,95802.7032062755,34949.70298595497,10.758328424606518,95828.9040691983,-14065.054910696355,15.736170614542583,96049.42590283632,14106.294858182631,33.170066724096465,0.9507152065842488,27.0,13.0,143.0,246.0,389.0,14.0,857.0,857.0,15.0,7.0,8.0,0.4666666666666667,142.2372127137908,1223.504064480207,73.0,63.0,10.0,0.863013698630137,208.2345770535777,574.0155186160023,24.0,13.0,11.0,0.5416666666666666,1843.9111937119596,26772.561941129617,26.0,8.0,18.0,0.3076923076923077,1101.62774469658,23015.118276652967,88.0,43.0,45.0,0.4886363636363636,116.72131049461822,13821.067107639616,0.0,0.0,0.0,0.0,95676.0,95690.0,95703.0,95775.0,95790.0,95814.0,95822.0,95846.0,96008.0,96092.0,0.092227076680547,-0.060223221439109,0.05275899467451729,-0.07832374289977365,0.008274413066512058
105,105,96243.027373699,557.3788228745191,13.144025962795457,96534.20542559771,-3513.891535163845,40.767446413824906,96584.5372766108,38774.88216175176,10.42694187227608,96610.32873009844,-13426.42835399777,18.553739339752223,96833.95881659626,14440.742578803416,30.8177666343302,0.9362875852264084,262.0,245.0,130.0,243.0,373.0,17.0,562.0,783.0,17.0,7.0,10.0,0.4117647058823529,106.97649931672892,438.45467321586466,79.0,55.0,24.0,0.6962025316455697,123.2569131636188,3962.007895330778,23.0,13.0,10.0,0.5652173913043478,1954.322519059244,27567.334329955513,26.0,7.0,19.0,0.2692307692307692,1205.1306788676377,25285.65306624844,82.0,44.0,38.0,0.5365853658536586,117.56323133536988,14086.441738279524,0.0,0.0,0.0,0.0,96236.0,96253.0,96498.0,96557.0,96573.0,96595.0,96604.0,96628.0,96791.0,96871.0,0.19192781448894802,-0.03507703978058947,0.05040176552714383,-0.08975809851238699,0.008141079358892038
106,106,97292.7567787719,2068.3278499356697,4.577086379202941,97363.24660900142,-2732.2081307530034,25.47965400471528,97412.4925024776,36797.03231505568,10.19437280348063,97438.75339099858,-13366.35429444832,13.13469624332796,97659.61038044402,15063.874711888211,35.127806201836755,0.9644940341085114,62.0,51.0,104.0,251.0,355.0,11.0,1047.0,827.0,11.0,6.0,5.0,0.5454545454545454,181.81095390331456,1867.010015349344,36.0,14.0,22.0,0.3888888888888889,165.88169281688965,3929.624160393087,22.0,11.0,11.0,0.5,2002.8485150382955,33631.834944202885,23.0,8.0,15.0,0.3478260869565217,1203.1495429102004,22097.221362332188,89.0,45.0,44.0,0.5056179775280899,126.30683250068444,15837.24167778059,0.0,0.0,0.0,0.0,97287.0,97298.0,97349.0,97385.0,97401.0,97423.0,97431.0,97453.0,97618.0,97704.0,0.087902386417593,-0.060713417455196664,0.054429620788163956,-0.09001329131384206,0.008384750598131619
107,107,98156.15456791894,2337.034562806367,5.130829133776429,98227.63008649784,-3353.675232095746,38.219481012960216,98275.61423208805,37572.81324527119,10.452056930466286,98300.32873009844,-13526.860587898103,14.333366990270218,98522.47083218988,14197.29226679924,32.56187782631592,0.9381110419355088,26.0,15.0,141.0,248.0,389.0,11.0,863.0,863.0,11.0,6.0,5.0,0.5454545454545454,197.98727209754756,1591.2113152863542,73.0,52.0,21.0,0.7123287671232876,85.41171417020514,3152.513376661137,23.0,13.0,10.0,0.5652173913043478,1978.6246781009957,28268.045584057458,24.0,6.0,18.0,0.25,1250.9868257175112,24876.450163629128,84.0,41.0,43.0,0.4880952380952381,175.26141565081326,14560.124937101167,0.0,0.0,0.0,0.0,98150.0,98161.0,98176.0,98249.0,98264.0,98286.0,98294.0,98317.0,98483.0,98565.0,0.08471730596050737,-0.02546809343754806,0.052661073451826766,-0.0924816824708547,0.012344707170723456
108,108,99040.46040118347,2482.3515014068303,7.693041169774963,99130.30135639945,-2956.713419543765,10.191861603456228,99163.11444979985,35776.17092177312,10.656344015033556,99188.32873009844,-14388.408762981311,13.94566397169932,99410.41715288976,14649.4610600264,34.571676513463586,0.959649432501558,48.0,27.0,127.0,249.0,376.0,21.0,887.0,888.0,21.0,10.0,11.0,0.4761904761904761,164.28555619711167,2407.1465147428717,58.0,52.0,6.0,0.896551724137931,376.5312002594276,1543.1627953416964,24.0,13.0,11.0,0.5416666666666666,1927.304434410772,29277.08197896931,25.0,7.0,18.0,0.28,1236.0003653150393,25242.603519013686,85.0,40.0,45.0,0.4705882352941176,141.90068518378794,15196.939977066995,0.0,0.0,0.0,0.0,99030.0,99051.0,99078.0,99136.0,99150.0,99174.0,99182.0,99205.0,99371.0,99454.0,0.06618142358324583,-0.1273478849084833,0.05387117695252928,-0.08590250566796778,0.009686409937017316
109,109,99862.84932180028,742.8872734862035,1.9682264035569788,99949.45203459916,-5099.51265985529,15.28779240518434,99983.11669347405,37397.19901518115,10.516788413061208,100009.47940829814,-14288.190719563963,20.61011466533333,100231.17660555246,13713.627393760053,30.029020895379293,0.9253657073018348,18.0,11.0,150.0,242.0,392.0,7.0,819.0,820.0,9.0,3.0,6.0,0.3333333333333333,199.938868453866,343.97958856397963,81.0,72.0,9.0,0.8888888888888888,338.9042311917758,323.39017433810113,23.0,12.0,11.0,0.5217391304347826,1935.24528586069,28595.69678628124,28.0,7.0,21.0,0.25,1160.3016175489895,25828.026830189636,84.0,43.0,41.0,0.5119047619047619,104.44632545444438,13234.231593668925,0.0,0.0,0.0,0.0,99860.0,99867.0,99878.0,99958.0,99971.0,99994.0,100002.0,100028.0,100192.0,100270.0,0.26913756042097436,-0.06645816057281696,0.05174840193446279,-0.08120703595874165,0.007616243496740282
110,110,100689.16044809454,1402.1726411012266,5.8286823425580945,100766.3287300993,-2757.617561314866,28.02761940872317,100808.48799782628,37519.447189523715,10.618551060991416,100832.75339099858,-14447.800601282996,13.343121511792582,101054.65523605708,14857.607187743191,34.475328553881674,0.9563398725515724,43.0,28.0,125.0,248.0,373.0,15.0,827.0,825.0,15.0,8.0,7.0,0.5333333333333333,112.62520942472966,1223.4455273829606,69.0,53.0,16.0,0.7681159420289855,131.54271246531135,1869.9418254718496,23.0,12.0,11.0,0.5217391304347826,1990.3964250291103,32026.13833149938,23.0,6.0,17.0,0.2608695652173913,1292.1738400208403,24837.284602377826,88.0,44.0,44.0,0.5,139.55769763446582,14045.83309385096,0.0,0.0,0.0,0.0,100681.0,100696.0,100724.0,100782.0,100796.0,100819.0,100827.0,100849.0,101016.0,101097.0,0.08032192764528412,-0.04770157918583538,0.0530497268516492,-0.08943740820357754,0.009393013011516026
111,111,101542.61817889298,1759.4650145048126,5.270878004841217,101593.82194810128,-2768.269355523277,22.93168860777651,101663.93383293672,34969.35316028902,9.810458685257322,101690.4517983602,-13831.356493074289,11.556174882331568,101914.53415569612,14623.56080818604,33.452253815111135,0.9465319552337196,45.0,32.0,123.0,249.0,372.0,13.0,855.0,856.0,13.0,7.0,6.0,0.5384615384615384,169.5210042617983,1263.5898672071148,58.0,14.0,44.0,0.2413793103448276,130.49587948571462,3297.7115352471437,23.0,12.0,11.0,0.5217391304347826,1947.7509940672976,30008.776930718035,22.0,8.0,14.0,0.3636363636363636,1214.8053380616946,23619.79371271737,87.0,48.0,39.0,0.5517241379310345,90.1714626870654,13582.644803353463,0.0,0.0,0.0,0.0,101536.0,101549.0,101581.0,101637.0,101652.0,101675.0,101682.0,101704.0,101868.0,101953.0,0.09634803924163769,-0.04713987792602191,0.05569879960717007,-0.08782980459436343,0.006166176888777242
112,112,102394.7252842314,1710.597068883793,5.953246145161439,102451.82194810128,-2363.07451406947,22.93168860777651,102513.7946010536,33103.13628805638,9.870309593725066,102543.34236827477,-13213.294744387023,12.368509208946104,102761.83115960314,14914.132021589789,34.511541959261635,0.9639408953819084,53.0,38.0,118.0,247.0,365.0,15.0,851.0,850.0,15.0,9.0,6.0,0.6,130.4816966838633,1695.654519241874,60.0,24.0,36.0,0.4,151.17278583387125,2379.9608068032207,23.0,12.0,11.0,0.5217391304347826,1870.407644197098,29547.40974029011,23.0,9.0,14.0,0.391304347826087,899.7030522061413,18306.64491909351,83.0,40.0,43.0,0.4819277108433735,111.3271427446533,15227.38337991413,0.0,0.0,0.0,0.0,102386.0,102401.0,102439.0,102458.0,102502.0,102525.0,102534.0,102557.0,102723.0,102804.0,0.07627845215998519,-0.06397292380490167,0.056502430099710566,-0.06809074266570289,0.007464540516571494
113,113,103183.7260172996,2736.625522032278,7.643896202591313,103244.6574601996,-2756.9930354114986,56.05523881897034,103302.15358918517,37543.73010552323,10.436136442554997,103327.90406919835,-13004.674661753286,15.608530780279755,103552.38347749642,14760.06043716352,31.0530857734561,0.9413873195358772,32.0,13.0,145.0,242.0,387.0,19.0,790.0,788.0,19.0,15.0,4.0,0.7894736842105263,146.3114753027531,364.3380722920636,77.0,46.0,31.0,0.5974025974025974,111.2977649422205,2363.431253148376,23.0,12.0,11.0,0.5217391304347826,1946.5340516465003,30231.524526612902,25.0,7.0,18.0,0.28,1137.9813710234166,24060.84662585579,80.0,43.0,37.0,0.5375,116.35481637638246,14868.45860900478,0.0,0.0,0.0,0.0,103169.0,103188.0,103201.0,103276.0,103290.0,103313.0,103321.0,103346.0,103509.0,103588.0,0.05346419308188686,-0.040369258649798734,0.05184711391690238,-0.08750556247056428,0.007883085362131666
114,114,104015.30135639945,1552.731934653846,5.0351676536506105,104105.7260172996,-3387.804626180036,7.64389620259217,104136.59317128525,34957.37267546029,10.242740502619922,104162.32873009844,-14014.198890779042,12.689956852637428,104385.53415569612,15011.098367399663,32.608377159436586,0.954677384598338,40.0,25.0,132.0,246.0,378.0,15.0,832.0,835.0,15.0,9.0,6.0,0.6,160.38380511019164,1618.774341952563,64.0,60.0,4.0,0.9375,445.41680592863815,2626.637494412242,24.0,13.0,11.0,0.5416666666666666,1970.3376701796408,28320.704609244232,23.0,7.0,16.0,0.3043478260869565,1208.562121529891,23927.347763969006,81.0,41.0,40.0,0.5061728395061729,139.21400603906665,14756.921918113088,0.0,0.0,0.0,0.0,104006.0,104021.0,104046.0,104110.0,104124.0,104147.0,104155.0,104178.0,104347.0,104424.0,0.10329136764096138,-0.13147653276301052,0.05636400905960525,-0.08623840227678599,0.009274071932098222
115,115,104880.71650047324,2302.7625798362833,11.96606323064481,104947.34253980315,-2959.4047349524317,56.055238819009254,105002.31300127158,37113.88034992884,10.528126979731551,105026.32873009844,-13853.94987002922,13.267813490494788,105250.13431533752,14300.156675470667,32.57448385452412,0.9358143441795932,42.0,29.0,127.0,248.0,375.0,13.0,865.0,865.0,13.0,7.0,6.0,0.5384615384615384,129.60723600464664,730.117662954507,79.0,50.0,29.0,0.6329113924050633,99.8620377456074,2675.103069173788,23.0,12.0,11.0,0.5217391304347826,1940.8506220840725,29840.447613488584,24.0,6.0,18.0,0.25,1296.6906359289967,25576.48677930739,85.0,43.0,42.0,0.5058823529411764,116.66206522635076,14412.545029848725,0.0,0.0,0.0,0.0,104874.0,104887.0,104916.0,104975.0,104990.0,105013.0,105020.0,105043.0,105209.0,105291.0,0.05628336900187998,-0.03374396092774128,0.052294467832108366,-0.09359717972808441,0.008158096996689793
116,116,105745.30135639945,2060.435923543055,10.191861603456228,105825.917878903,-2295.2489774388036,53.50727341814519,105865.00080523068,34707.94837951207,10.4698190372759,105892.9463335234,-12160.362819274293,12.681660080063704,106111.7895846045,14668.8292765908,34.36087321125009,0.9504806574951938,58.0,44.0,114.0,247.0,361.0,14.0,865.0,863.0,18.0,12.0,6.0,0.6666666666666666,137.65795380225188,947.9828689860544,48.0,35.0,13.0,0.7291666666666666,143.57281256306268,445.20577008422447,24.0,12.0,12.0,0.5,1880.78188736608,30432.532953804977,24.0,8.0,16.0,0.3333333333333333,948.9397211758112,20039.019467004,90.0,45.0,45.0,0.5,122.6209908183017,15062.597299183291,0.0,0.0,0.0,0.0,105737.0,105751.0,105795.0,105838.0,105853.0,105876.0,105885.0,105909.0,106069.0,106156.0,0.06681011150569534,-0.06255217363097187,0.05418879464728881,-0.07803547766450954,0.008359289518352088
117,117,106539.45203460033,4196.431586248943,15.28779240518434,106582.56152939513,-3188.3499968084193,86.63082362937793,106662.67073026756,35988.149615763235,10.420221302700009,106689.32288373874,-12905.91449477198,12.555539218371182,106908.74080977446,14548.327206586788,32.368488834591126,0.9464621603564284,31.0,15.0,143.0,244.0,387.0,16.0,795.0,798.0,18.0,8.0,10.0,0.4444444444444444,137.02445982226146,811.3529461536211,76.0,22.0,54.0,0.2894736842105263,87.1126025333523,2887.8546329462715,23.0,12.0,11.0,0.5217391304347826,1944.48403902168,28918.872718414757,25.0,8.0,17.0,0.32,1146.3485151588518,23717.690881991988,86.0,44.0,42.0,0.5116279069767442,123.24917437711883,13981.758944120484,0.0,0.0,0.0,0.0,106532.0,106548.0,106563.0,106636.0,106651.0,106674.0,106682.0,106706.0,106871.0,106950.0,0.032652613775777835,-0.027322158050575744,0.05403123138539952,-0.08882350147470935,0.008471707614695213
118,118,107391.87669550924,2676.6063656888114,4.770760256472649,107476.027373699,-2623.612227680146,17.83575780604836,107513.54979334904,36278.49748591471,10.394546946190362,107538.32873009848,-13880.83844027319,13.206212417778463,107761.41082865934,14761.176503330746,33.48027598067734,0.9531576693484212,40.0,26.0,129.0,248.0,377.0,14.0,852.0,851.0,15.0,8.0,7.0,0.5333333333333333,235.3458345123213,1820.3616073315827,80.0,70.0,10.0,0.875,216.745207801473,282.53879531728285,23.0,13.0,10.0,0.5652173913043478,2015.113215194643,28592.930118647935,23.0,6.0,17.0,0.2608695652173913,1238.5159033151244,24522.196029182312,82.0,39.0,43.0,0.4756097560975609,106.71482638526597,14647.467685775056,0.0,0.0,0.0,0.0,107385.0,107399.0,107425.0,107486.0,107501.0,107524.0,107532.0,107554.0,107723.0,107802.0,0.08792695015942556,-0.08261327856103329,0.05554566354290223,-0.08922486265107406,0.007229425538078661
119,119,108234.04902934004,1272.0145983241537,3.841283442546617,108295.24660900142,-3934.779266614739,25.47965400864057,108355.2087932499,36334.3390757281,10.231531233552955,108380.90406919828,-13924.616270876732,18.303089872592977,108602.94658251756,13801.215334626851,31.979429710385176,0.9390323188946552,52.0,43.0,118.0,243.0,361.0,9.0,839.0,841.0,9.0,5.0,4.0,0.5555555555555556,140.2856755970394,817.8401617145752,48.0,15.0,33.0,0.3125,142.12901330627622,4896.089972571795,23.0,12.0,11.0,0.5217391304347826,1894.6009985502455,27546.925267381484,26.0,7.0,19.0,0.2692307692307692,1108.6334679320282,24543.805144084756,78.0,39.0,39.0,0.5,118.21671604928996,14284.92899871157,0.0,0.0,0.0,0.0,108229.0,108238.0,108281.0,108328.0,108343.0,108366.0,108374.0,108399.0,108564.0,108642.0,0.1102862150967938,-0.036121216382375615,0.05214353822706158,-0.07961680568898188,0.008565674339758153
120,120,109013.30135639945,4187.995118641381,10.191861603456228,109059.98619029533,-3006.8914802398995,84.08285822851387,109133.02189009076,35489.11924353572,10.198619984376911,109161.37359083764,-12588.552168855198,11.52721194277801,109379.19840782236,14076.680983742712,31.34354718949595,0.9480274376153884,24.0,14.0,143.0,244.0,387.0,10.0,782.0,778.0,10.0,4.0,6.0,0.4,181.85226461451208,1416.206712791446,76.0,28.0,48.0,0.3684210526315789,90.49715043897504,3115.102662580759,23.0,11.0,12.0,0.4782608695652174,1921.1152316519344,32008.11139703934,24.0,9.0,15.0,0.375,1050.6391012032727,21289.053761088555,78.0,37.0,41.0,0.4743589743589743,124.10614436817175,14745.124152050905,0.0,0.0,0.0,0.0,109009.0,109019.0,109033.0,109107.0,109122.0,109145.0,109152.0,109176.0,109342.0,109420.0,0.043422272343408654,-0.03009658015052638,0.05413251364365324,-0.08345988379844144,0.008816435103665636
121,121,109782.44233979969,1896.2152515638957,5.172173484738743,109837.24660900142,-2600.6396496736775,25.47965400864057,109901.462059528,37156.92994349993,10.187286820981058,109925.90406919828,-14462.38242809861,15.28823781168482,110146.59095089858,14873.72624282798,32.97390627646897,0.9572369788694576,47.0,35.0,120.0,246.0,366.0,12.0,768.0,768.0,12.0,6.0,6.0,0.5,165.9239250670968,1226.765489819552,67.0,29.0,38.0,0.4328358208955223,108.9675129165293,2660.701880446648,23.0,12.0,11.0,0.5217391304347826,1961.0109146062305,30042.39355022531,25.0,7.0,18.0,0.28,1255.6626582453462,25502.466741745255,85.0,42.0,43.0,0.4941176470588235,115.33581594457628,14442.692978687654,0.0,0.0,0.0,0.0,109776.0,109788.0,109823.0,109874.0,109889.0,109912.0,109919.0,109943.0,110107.0,110189.0,0.0875026845872333,-0.04190027362314587,0.05277645159565399,-0.0868226700882802,0.007754332307964221
122,122,110618.0977811449,2848.2924415546936,6.894489642334305,110687.21923530244,-1973.8599815402124,43.31541179714998,110740.54305489406,35918.05706464661,10.691226905688271,110766.32873009844,-13572.108584401534,12.626889896613164,110989.68483389584,15683.182816827346,33.918081136070356,0.9497060759690188,54.0,38.0,119.0,249.0,368.0,16.0,834.0,840.0,16.0,9.0,7.0,0.5625,179.45499827023988,2053.8796595550616,50.0,24.0,26.0,0.48,72.28425220526687,1853.192545527839,24.0,13.0,11.0,0.5416666666666666,1905.508934503374,28478.432426027462,23.0,7.0,16.0,0.3043478260869565,1225.0699464663578,23652.04736093764,89.0,48.0,41.0,0.5393258426966292,129.9453717572945,16367.729526723222,0.0,0.0,0.0,0.0,110609.0,110625.0,110663.0,110713.0,110728.0,110752.0,110759.0,110782.0,110944.0,111031.0,0.06300441473358238,-0.03662075977084409,0.05305155930549836,-0.09026378906770127,0.008285650513355555
123,123,0.0,0.0,0.0,0.0,0.0,0.0,0.0,0.0,0.0,0.0,0.0,0.0,0.0,0.0,0.0,0.0,0.0,0.0,0.0,0.0,0.0,0.0,0.0,0.0,0.0,0.0,0.0,0.0,0.0,0.0,0.0,0.0,0.0,0.0,0.0,0.0,0.0,0.0,0.0,0.0,0.0,0.0,0.0,0.0,0.0,0.0,0.0,0.0,0.0,0.0,0.0,0.0,0.0,0.0,0.0,0.0,0.0,0.0,,111226.0,111482.0,111562.0,111576.0,111599.0,111607.0,111632.0,111795.0,111876.0,,,,,
124,124,112385.87669549928,2816.832074997829,12.7398270034339,112457.61652250358,-2063.035347975176,63.69913502160143,112505.38929184842,36530.83366890614,10.328886891290086,112531.00503909872,-12963.745661576637,11.243683497056562,112753.50381941927,14902.59202168553,34.32833858668265,0.956913465848642,43.0,29.0,124.0,250.0,374.0,14.0,1771.0,1765.0,14.0,7.0,7.0,0.5,187.15051511244803,1518.3122181061394,65.0,43.0,22.0,0.6615384615384615,96.10828971294214,1424.6659058212,23.0,12.0,11.0,0.5217391304347826,1937.8402611984825,32906.50290787099,22.0,7.0,15.0,0.3181818181818182,1232.2181757806889,23868.139553188652,89.0,46.0,43.0,0.5168539325842697,113.26496995328216,15158.680518462088,0.0,0.0,0.0,0.0,112379.0,112393.0,112422.0,112479.0,112493.0,112516.0,112524.0,112546.0,112712.0,112796.0,0.06644006817928338,-0.046585866697470946,0.05304670237646148,-0.0950510915554963,0.00760035366924522
125,125,113380.40417154254,2411.4820002929864,8.138075009463765,113468.02737370157,-1946.4224130557373,17.83575780604819,113503.8958624816,35196.37637493617,10.272253986026437,113529.33288684602,-13624.722695009172,11.828793092263728,113754.2601729957,15330.872789997597,35.993035199497285,0.9550385495072378,83.0,65.0,91.0,252.0,343.0,18.0,992.0,998.0,18.0,9.0,9.0,0.5,152.93529180447229,2514.018405134428,62.0,52.0,10.0,0.8387096774193549,237.3184692678142,882.3102574144882,23.0,12.0,11.0,0.5217391304347826,1951.1199986330037,30197.80616122392,23.0,7.0,16.0,0.3043478260869565,1239.1586096683634,24071.67953495249,89.0,44.0,45.0,0.4943820224719101,135.52084009683554,15845.86089422457,0.0,0.0,0.0,0.0,113371.0,113389.0,113454.0,113478.0,113492.0,113515.0,113522.0,113545.0,113711.0,113797.0,0.06341962817300366,-0.12192547089264247,0.0554352521364223,-0.09094927195268904,0.008839734172555012
126,126,114332.24727150226,1861.813002464409,5.305462187824741,114418.87669550498,-2924.4324958592288,12.739827004320285,114451.08100391866,32245.664836449436,10.099297992877936,114481.24777392505,-13811.119963969984,11.589181446479804,114699.74776291272,14359.463372080449,33.058851859950195,0.9542194122211004,90.0,75.0,80.0,245.0,325.0,15.0,952.0,947.0,15.0,7.0,8.0,0.4666666666666667,157.5326067741451,1808.228366009983,13.0,5.0,8.0,0.3846153846153846,393.1542491000968,1129.0273541494828,24.0,12.0,12.0,0.5,1813.8920348071904,31699.56581472108,23.0,9.0,14.0,0.391304347826087,887.8325729854643,18453.84038614365,81.0,41.0,40.0,0.5061728395061729,127.21797333672616,15107.982746500347,0.0,0.0,0.0,0.0,114325.0,114340.0,114415.0,114426.0,114439.0,114463.0,114472.0,114495.0,114659.0,114740.0,0.08461247534828974,-0.1344377925141965,0.05625227589529575,-0.0642838940869107,0.008859521420840838
127,127,115189.84045899,3373.1790749112774,12.739827004320285,115232.38347749642,-3211.207793707763,63.69913502160143,115308.45152897932,36668.58363490349,10.516387108803055,115333.93538858756,-13744.1671993452,14.44630072751974,115556.06737430525,15096.7659551981,32.474149138288794,0.9384570744092916,36.0,24.0,133.0,245.0,378.0,12.0,857.0,857.0,12.0,8.0,4.0,0.6666666666666666,158.92048538268608,706.8135806200584,82.0,31.0,51.0,0.3780487804878049,98.21785294271584,3395.6609252018516,23.0,12.0,11.0,0.5217391304347826,1937.4021233219269,30321.319304829776,25.0,7.0,18.0,0.28,1194.7605414019213,24955.39816237861,81.0,40.0,41.0,0.4938271604938271,135.99727966609615,15735.40583216559,0.0,0.0,0.0,0.0,115182.0,115194.0,115218.0,115282.0,115296.0,115319.0,115327.0,115351.0,115518.0,115596.0,0.04711297024361687,-0.030585953713481235,0.0528354774379064,-0.08692855114996288,0.009008371731381961
128,128,116090.66386759064,2923.9809720433777,14.115851590611816,116159.19186160344,-2955.793170792186,61.15116962073736,116207.33533827656,37028.28286833966,10.35594684079499,116233.75339099858,-13157.40329931842,11.79064007534254,116456.58998610056,14797.882165185378,32.26313095320674,0.949147226276848,44.0,28.0,123.0,249.0,372.0,16.0,901.0,900.0,16.0,10.0,6.0,0.625,118.78493889205085,1257.283048696659,70.0,48.0,22.0,0.6857142857142857,115.47971224067165,2594.71913932401,23.0,11.0,12.0,0.4782608695652174,1972.6576808209877,32692.271391539925,23.0,8.0,15.0,0.3478260869565217,1182.510531159016,23054.295056017872,79.0,38.0,41.0,0.4810126582278481,150.77456780931328,14813.867709550786,0.0,0.0,0.0,0.0,116081.0,116097.0,116125.0,116181.0,116196.0,116219.0,116226.0,116248.0,116420.0,116497.0,0.04062438847166638,-0.03906894209709598,0.053274349443508,-0.08987415710060909,0.010188928802530743
129,129,117024.87669549928,1925.949625877227,11.844583454861215,117100.21923530244,-2322.10975610638,43.31541181468896,117145.06207437249,37084.74533321326,10.493674608452666,117169.48888558304,-13518.864609927436,12.958906270461965,117393.64134691196,15171.070426558865,34.18603777008245,0.9589684978824504,57.0,44.0,110.0,250.0,360.0,13.0,937.0,936.0,14.0,6.0,8.0,0.4285714285714285,169.68077957939008,825.8152371163903,43.0,24.0,19.0,0.5581395348837209,114.29145002920238,2377.817510462762,23.0,12.0,11.0,0.5217391304347826,1972.8152146043833,29631.772982334784,24.0,6.0,18.0,0.25,1307.4903518737217,25062.79603693998,84.0,42.0,42.0,0.5,147.85402492840865,16184.46201736822,0.0,0.0,0.0,0.0,117019.0,117032.0,117076.0,117118.0,117133.0,117156.0,117163.0,117186.0,117353.0,117436.0,0.08810239753913827,-0.049218797573479765,0.05319748583624549,-0.09671598833185888,0.00974578726294564
130,130,117957.2683187994,2576.44011592469,7.0199243978563235,118044.8766954994,-2546.146910084847,12.73982700432005,118078.58163408792,32968.55823937846,10.166230955326032,118107.56767389024,-12586.57336386288,12.379073920221684,118330.53415569612,15370.915289554465,32.95639918390732,0.949670015921259,88.0,69.0,87.0,247.0,334.0,19.0,932.0,935.0,20.0,10.0,10.0,0.5,156.03799542998587,2400.6600456182177,18.0,11.0,7.0,0.6111111111111112,320.14366051242087,893.8527684174676,23.0,12.0,11.0,0.5217391304347826,1869.7139242947776,29227.59538631033,25.0,10.0,15.0,0.4,819.0209036655508,16927.257252797484,85.0,46.0,39.0,0.5411764705882353,140.2688182294036,15324.265022341677,0.0,0.0,0.0,0.0,117947.0,117966.0,118035.0,118052.0,118067.0,118090.0,118099.0,118122.0,118286.0,118369.0,0.06056340858284746,-0.12573652338927782,0.0567120318310294,-0.06507099907088527,0.00912559958773082
131,131,118802.69864360055,1800.8335489917536,8.520113622470479,118848.52059170186,-2785.730990216048,33.12355021123273,118921.80874692684,35618.47369049938,9.978071781529056,118948.4981944928,-13869.084730216198,13.410275624905807,119168.31491005151,14955.89075122163,32.41523425686235,0.9457694301277744,38.0,25.0,134.0,244.0,378.0,13.0,842.0,843.0,14.0,11.0,3.0,0.7857142857142857,132.5789883895586,279.7598493499153,77.0,30.0,47.0,0.3896103896103896,146.26498651438487,2468.1644028112814,23.0,12.0,11.0,0.5217391304347826,2042.377358120336,29947.39684769709,25.0,8.0,17.0,0.32,1148.2078766459736,23359.23615736871,81.0,41.0,40.0,0.5061728395061729,114.02885807031386,15513.701265393414,0.0,0.0,0.0,0.0,118792.0,118805.0,118830.0,118895.0,118910.0,118933.0,118941.0,118964.0,119128.0,119208.0,0.07362090097876431,-0.05250506492841265,0.05734039520803794,-0.08278901592867223,0.007624344144196141
132,132,119719.89171281295,2340.523952057616,6.351670179747192,119808.87669549928,-2886.2373117895886,12.73982700432026,119842.93886299792,36351.28529295277,10.67622857326558,119866.75339099858,-14888.935746040595,12.8677075995608,120091.86730617928,15475.49402048473,32.78672695383274,0.9616549402044616,42.0,24.0,130.0,249.0,379.0,18.0,917.0,920.0,18.0,9.0,9.0,0.5,187.15282049813632,2399.6525399796083,64.0,57.0,7.0,0.890625,354.12805816434013,2177.1651183120007,24.0,13.0,11.0,0.5416666666666666,1980.8296579727655,28876.759537119433,23.0,6.0,17.0,0.2608695652173913,1286.9432917537276,25259.9637013218,81.0,41.0,40.0,0.5061728395061729,115.31571275114014,16313.382518344351,0.0,0.0,0.0,0.0,119711.0,119729.0,119753.0,119816.0,119830.0,119853.0,119861.0,119883.0,120051.0,120132.0,0.07996193345238162,-0.1226954057858693,0.05449132381453314,-0.08643621771931977,0.00745150446237762
133,133,120661.12330450072,1996.22842921808,6.025747608485454,120750.87669549928,-2617.7001763735543,12.739827004320285,120784.36627452743,35072.421325410105,10.655221355479858,120810.32873009844,-14068.317605113867,13.237271695083155,121032.26017299596,15463.417768298215,34.28052574144513,0.957881230148371,45.0,27.0,127.0,249.0,376.0,18.0,941.0,942.0,18.0,7.0,11.0,0.3888888888888889,149.20274150205162,1693.072671338179,60.0,53.0,7.0,0.8833333333333333,324.70193118084546,1921.9297128368464,24.0,12.0,12.0,0.5,1897.4527803198448,30775.47956983752,24.0,7.0,17.0,0.2916666666666667,1215.9877751374322,23951.32335533547,86.0,42.0,44.0,0.4883720930232558,115.56067086764658,16032.019682158589,0.0,0.0,0.0,0.0,120654.0,120672.0,120699.0,120758.0,120772.0,120795.0,120804.0,120826.0,120992.0,121075.0,0.07474231872376155,-0.12404091733327272,0.05410099185097132,-0.0864344841557613,0.007473164897902406
134,134,121535.12330450072,3118.2474663750995,12.739826782262892,121597.1094947975,-2245.972459898044,71.3430312241936,121664.07713037707,38624.14679936964,10.405914224050017,121688.90406919828,-12898.317069305163,14.94866480571342,121911.68483389584,15280.513045746427,33.41943780078296,0.9536014632355077,44.0,25.0,135.0,246.0,381.0,19.0,874.0,880.0,20.0,7.0,13.0,0.35,131.61452878865765,1964.9644160488056,68.0,27.0,41.0,0.3970588235294117,105.41227680992807,2077.4004637581165,23.0,12.0,11.0,0.5217391304347826,2016.5728182014284,30922.87440605419,26.0,7.0,19.0,0.2692307692307692,1184.7272633762784,24945.57767986518,84.0,43.0,41.0,0.5119047619047619,98.5547030461139,15266.59696564265,0.0,0.0,0.0,0.0,121528.0,121547.0,121572.0,121637.0,121652.0,121675.0,121682.0,121707.0,121872.0,121953.0,0.04220785239397851,-0.04693391334580892,0.05221015828974478,-0.09185130564014737,0.0064496985638547106
135,135,122523.54283498412,2052.2390453221874,5.237539563634786,122610.45203459916,-2506.7183592174247,15.28779240518434,122645.67841626806,37173.04997817323,10.34039135084546,122669.32873009844,-14510.871186753582,13.037492217082024,122895.3832167844,15395.898954761631,33.42329948399994,0.9580244299769808,37.0,22.0,133.0,251.0,384.0,15.0,992.0,981.0,15.0,8.0,7.0,0.5333333333333333,147.91438537569218,1916.7186502427744,67.0,58.0,9.0,0.8656716417910447,276.5602713435228,892.3451485310497,23.0,13.0,10.0,0.5652173913043478,2048.807635507693,28012.712029947757,24.0,6.0,18.0,0.25,1329.0794421372275,25398.94080206053,82.0,40.0,42.0,0.4878048780487805,134.53342343310044,16258.769273647718,0.0,0.0,0.0,0.0,122516.0,122531.0,122553.0,122619.0,122633.0,122656.0,122663.0,122686.0,122856.0,122937.0,0.0720746375588379,-0.11032762030348814,0.055115403140465584,-0.09159198128300479,0.008738263600482521
136,136,123511.7122429382,2963.520190322629,7.277450316745142,123597.87669550508,-2397.439551087716,12.73982700432024,123631.90522546634,35346.03037210754,10.69880487715956,123657.38568284643,-13587.931892371742,13.636228138814008,123880.66296737095,15478.742235043244,34.88773747364738,0.9640434616775492,90.0,72.0,81.0,249.0,330.0,18.0,989.0,987.0,19.0,10.0,9.0,0.5263157894736842,176.1398767350964,2755.6246742106587,29.0,22.0,7.0,0.7586206896551724,377.18406612950497,1866.1101912174552,24.0,13.0,11.0,0.5416666666666666,1893.0244686159765,29043.909054183667,24.0,6.0,18.0,0.25,1207.5536708260809,24194.829255098302,88.0,46.0,42.0,0.5227272727272727,111.02261791375815,15948.130591821628,0.0,0.0,0.0,0.0,123503.0,123521.0,123593.0,123605.0,123619.0,123643.0,123651.0,123674.0,123837.0,123923.0,0.05943603060653372,-0.1573278733799052,0.053556918519195605,-0.08886957046818883,0.007172586520783805
