Unnamed: 0,cycle,p_center,p_height,p_width,q_center,q_height,q_width,r_center,r_height,r_width,s_center,s_height,s_width,t_center,t_height,t_width,r_squared,pr_interval,pr_segment,qrs_duration,st_segment,qt_interval,p_duration,pp_interval,rr_interval,fwhm_p,rise_time_p,decay_time_p,rise_decay_symmetry_p,sharpness_deriv_p,sharpness_diff_p,fwhm_q,rise_time_q,decay_time_q,rise_decay_symmetry_q,sharpness_deriv_q,sharpness_diff_q,fwhm_r,rise_time_r,decay_time_r,rise_decay_symmetry_r,sharpness_deriv_r,sharpness_diff_r,fwhm_s,rise_time_s,decay_time_s,rise_decay_symmetry_s,sharpness_deriv_s,sharpness_diff_s,fwhm_t,rise_time_t,decay_time_t,rise_decay_symmetry_t,sharpness_deriv_t,sharpness_diff_t,Average_Heart_Rate,SDNN,RMSSD,NN50,p_on,p_off,q_on,q_off,r_on,r_off,s_on,s_off,t_on,t_off,sharpness_deriv_p_norm,sharpness_deriv_q_norm,sharpness_deriv_r_norm,sharpness_deriv_s_norm,sharpness_deriv_t_norm
0,0,0.0,0.0,0.0,0.0,0.0,0.0,0.0,0.0,0.0,0.0,0.0,0.0,0.0,0.0,0.0,0.0,0.0,0.0,0.0,0.0,0.0,0.0,0.0,0.0,0.0,0.0,0.0,0.0,0.0,0.0,0.0,0.0,0.0,0.0,0.0,0.0,0.0,0.0,0.0,0.0,0.0,0.0,0.0,0.0,0.0,0.0,0.0,0.0,0.0,0.0,0.0,0.0,0.0,0.0,75.03089563368876,348.0986373248565,509.1717007463697,157.0,,,,,,,,,,,,,,,
1,1,1532.6712698435117,4957.022792742678,15.59258258344146,1573.684833896103,-2947.104573977651,73.8909966216485,1696.878264813948,43459.79674775183,11.09403574983962,1718.0969260433735,-20357.404996071025,8.110842771487834,1934.8369722293476,17959.642622829862,37.521649806690576,0.9365881464047876,40.0,14.0,173.0,252.0,425.0,26.0,,,26.0,16.0,10.0,0.6153846153846154,119.78355683102409,1870.732315006045,109.0,18.0,91.0,0.1651376146788991,72.30974834792063,3116.184517579571,23.0,13.0,10.0,0.5652173913043478,2219.875388182351,34492.56619744269,17.0,4.0,13.0,0.2352941176470588,2003.42025256458,31733.120736684265,96.0,48.0,48.0,0.5,111.75706161741624,18607.53603466589,0.0,0.0,0.0,0.0,1517.0,1543.0,1557.0,1665.0,1684.0,1707.0,1714.0,1730.0,1890.0,1982.0,0.024164415182111536,-0.02453586105712073,0.05107882581841998,-0.09841235918582156,0.006222677364156087
2,2,2500.425966387079,1131.5668659731275,5.618881822095702,2627.1780518987043,-5669.405898664987,22.93168860777651,2666.9018004425566,41683.67244658709,11.19569323419882,2688.0273736989925,-22638.58517035599,8.89928499526798,2909.1417293002155,16016.823532879263,31.985931511132858,0.933668419745458,33.0,16.0,175.0,251.0,426.0,17.0,974.0,971.0,17.0,8.0,9.0,0.4705882352941176,105.13359061385329,900.7805359117953,116.0,103.0,13.0,0.8879310344827587,189.88776393373345,3004.9316746369473,23.0,13.0,10.0,0.5652173913043478,2217.2236738664265,31365.851481306065,18.0,5.0,13.0,0.2777777777777778,1978.114474261965,33249.28330850028,85.0,42.0,43.0,0.4941176470588235,99.3898601957578,16005.622630953712,0.0,0.0,0.0,0.0,2492.0,2509.0,2525.0,2640.0,2654.0,2677.0,2684.0,2700.0,2868.0,2951.0,0.09290974645447952,-0.03349341488822446,0.05319165859744119,-0.08737800791774741,0.006205341526784681
3,3,3469.038804235458,4313.38745698242,16.943755615995826,3521.164242194069,-1927.118992435564,103.34449859406072,3634.474431655762,44072.33601747782,10.86514130475689,3656.0273736996423,-18836.04330455883,7.610038829212331,3874.6594244793832,17474.410501342205,35.533470066317534,0.9474777950348237,43.0,12.0,171.0,252.0,423.0,31.0,971.0,968.0,34.0,17.0,17.0,0.5,101.56556283262174,2420.233601986645,108.0,24.0,84.0,0.2222222222222222,45.34874174221639,2058.985431953195,24.0,13.0,11.0,0.5416666666666666,2205.4176411198705,37610.28090578231,16.0,4.0,12.0,0.25,1993.8377643922624,31074.842139176268,90.0,45.0,45.0,0.5,103.59691328991018,17957.079479212465,0.0,0.0,0.0,0.0,3454.0,3485.0,3497.0,3605.0,3621.0,3645.0,3652.0,3668.0,3831.0,3920.0,0.023546589274795974,-0.023531884600910387,0.05004086101188885,-0.10585226059178257,0.0059284925967575805
4,4,4427.4786884217765,2350.837999516788,9.236569627761908,4550.7533909985605,-3661.930812404703,25.47965400864057,4592.99618134636,43718.70352897927,11.192661170648863,4614.027373698993,-21695.113812629916,8.566037139164273,4834.341064100849,17051.58557934717,34.09789568313263,0.9460083536524744,43.0,15.0,170.0,253.0,423.0,28.0,954.0,957.0,28.0,14.0,14.0,0.5,88.01577572924059,2288.7950840626327,109.0,95.0,14.0,0.8715596330275229,134.57637020624242,2210.592316670356,23.0,13.0,10.0,0.5652173913043478,2255.3922857761327,34267.64988581727,17.0,4.0,13.0,0.2352941176470588,2010.086926780154,32664.681950083308,87.0,42.0,45.0,0.4827586206896552,97.67340009410697,17396.90579551761,0.0,0.0,0.0,0.0,4413.0,4441.0,4456.0,4565.0,4580.0,4603.0,4610.0,4626.0,4793.0,4879.0,0.03744017058909722,-0.03675011274117146,0.051588727563275726,-0.09265159630598352,0.005728112476086018
5,5,5369.305444021316,1177.1901199361864,6.06693274107891,5492.178051898705,-5052.499959831257,22.93168860777651,5533.285976233171,43411.598316834934,11.461812933260203,5554.027373698993,-23413.00556341091,9.413100437549414,5776.645453887952,16482.43617065998,31.44116642911369,0.9432756673084932,33.0,14.0,174.0,250.0,424.0,19.0,942.0,940.0,19.0,9.0,10.0,0.4736842105263157,89.79334810097717,1076.8724455575089,114.0,100.0,14.0,0.8771929824561403,147.54850898526428,2406.898738816096,23.0,13.0,10.0,0.5652173913043478,2235.8494311377945,32784.491451542366,18.0,4.0,14.0,0.2222222222222222,2011.267113692365,33958.90291018898,82.0,41.0,41.0,0.5,107.33660736765292,16513.144969398792,0.0,0.0,0.0,0.0,5360.0,5379.0,5393.0,5505.0,5520.0,5543.0,5550.0,5567.0,5736.0,5817.0,0.07627769429957901,-0.029203069798775832,0.051503504082473194,-0.08590384127510346,0.00651218098200316
6,6,6200.3517374056955,4671.710872806694,16.906328532733237,6302.959062306768,-2544.704635421167,89.27569107500099,6359.449288892118,43290.12027075447,11.220754470330371,6381.027373698993,-20441.0140913131,8.082847183352744,6597.295304091088,18584.175848963787,34.79650543758389,0.9544911908969916,52.0,18.0,159.0,248.0,407.0,34.0,830.0,827.0,34.0,18.0,16.0,0.5294117647058824,104.79673753634846,3221.4026016072844,98.0,70.0,28.0,0.7142857142857143,51.73791748970483,2174.7143208665257,24.0,13.0,11.0,0.5416666666666666,2163.7498834342764,34909.83951401241,17.0,4.0,13.0,0.2352941176470588,1980.751689589109,32828.46351918434,89.0,44.0,45.0,0.4943820224719101,106.45519827198392,19126.771311181983,0.0,0.0,0.0,0.0,6182.0,6216.0,6234.0,6330.0,6346.0,6370.0,6377.0,6393.0,6554.0,6641.0,0.022432196766789238,-0.020331600284581485,0.049982533425670383,-0.0969008524107851,0.005728271145148448
7,7,6935.242163701258,4036.072077227795,14.652015574760718,7058.602712798849,-2936.5157070790606,20.383723206912453,7098.417152361419,43341.69177438879,11.264348549218862,7119.027373698993,-24579.529576525103,8.910683392780033,7336.894221328967,18467.42618589032,33.7951364436769,0.9640899339122622,64.0,26.0,151.0,247.0,398.0,38.0,740.0,738.0,40.0,19.0,21.0,0.475,94.51923204770762,4135.008395945852,95.0,84.0,11.0,0.8842105263157894,192.50610598725177,333.73174596681883,23.0,13.0,10.0,0.5652173913043478,2282.943602175385,33227.127619661915,17.0,4.0,13.0,0.2352941176470588,2105.657146341484,35383.22629514343,86.0,43.0,43.0,0.5,104.13131077624482,18851.28846581341,0.0,0.0,0.0,0.0,6917.0,6955.0,6981.0,7070.0,7085.0,7108.0,7115.0,7132.0,7295.0,7379.0,0.02341861845852585,-0.06555595991643333,0.0526731539243793,-0.08566710521394642,0.005638647731853632
8,8,7677.017535426588,3628.3959599443174,11.603187662045103,7801.027373698993,-2559.6286694721075,17.8357578060484,7840.363897898732,43235.75867419685,11.294185030865204,7861.452034599137,-23340.304238893543,8.446945390762323,8078.834451181487,18094.431943927193,34.144323550765506,0.9657901083598698,47.0,14.0,166.0,248.0,414.0,33.0,738.0,743.0,33.0,16.0,17.0,0.4848484848484848,106.16777930554532,3450.1475977418904,103.0,93.0,10.0,0.9029126213592232,199.20255108313907,162.7707820117472,23.0,13.0,10.0,0.5652173913043478,2256.1536238256176,34787.419076599006,18.0,4.0,14.0,0.2222222222222222,2116.853409462394,34257.4885166116,88.0,44.0,44.0,0.5,101.8403902117876,18432.636805432623,0.0,0.0,0.0,0.0,7661.0,7694.0,7708.0,7811.0,7827.0,7850.0,7858.0,7874.0,8036.0,8122.0,0.029260251768986816,-0.07782478507877558,0.052182584347064846,-0.09069519350715818,0.0056282723064963085
9,9,8464.768266948697,4087.707987321727,15.85581572937683,8541.650847862033,-2230.288746894413,63.03166452387654,8627.359433842787,43985.25705216614,10.990410560970489,8649.452034599139,-19110.94671147874,7.608796301456472,8864.362383190062,18356.05448777936,35.24165912645573,0.9606573680965582,50.0,16.0,165.0,248.0,413.0,34.0,790.0,788.0,35.0,20.0,15.0,0.5714285714285714,95.7924011430832,2531.4675887605595,103.0,48.0,55.0,0.4660194174757281,57.48408939523825,2223.823789818719,24.0,13.0,11.0,0.5416666666666666,2177.8366176677123,37821.123267304574,16.0,4.0,12.0,0.25,1995.7241854461347,31303.588122416273,89.0,43.0,46.0,0.4831460674157303,102.54174218402372,18767.591651926567,0.0,0.0,0.0,0.0,8446.0,8480.0,8496.0,8597.0,8614.0,8638.0,8646.0,8661.0,8822.0,8909.0,0.023434257398079587,-0.025774281233890688,0.04951287689611127,-0.10442832663268477,0.0055862626825547625
10,10,9380.887322146844,2471.558672326715,8.829167612885758,9510.60271279885,-4506.267145743453,20.383723206912453,9549.913825640926,42337.41608371023,11.444653036233936,9570.45203459914,-23507.068322510037,9.388671035202066,9789.944701190145,17447.68913748198,32.75869483651413,0.9421062926463424,43.0,16.0,173.0,250.0,423.0,27.0,914.0,921.0,27.0,14.0,13.0,0.5185185185185185,107.42859339032432,2249.049515242289,112.0,101.0,11.0,0.9017857142857144,216.88480899789693,1250.71544817339,23.0,14.0,9.0,0.6086956521739131,2222.800009867294,30552.183222682743,18.0,4.0,14.0,0.2222222222222222,2008.8773692489776,33889.19377257184,85.0,42.0,43.0,0.4941176470588235,102.56831414097655,17641.17663124882,0.0,0.0,0.0,0.0,9367.0,9394.0,9410.0,9522.0,9536.0,9559.0,9567.0,9583.0,9749.0,9833.0,0.04346592884610402,-0.048129594181464105,0.052502023398696265,-0.08545843921018875,0.005878618843605729
11,11,10382.527067120443,4683.655727681172,16.1778678719569,10454.711886052151,-2422.2041339869797,81.5348928127697,10551.257041665527,43202.6967802125,11.105328188579753,10572.452034599177,-19138.288001058623,7.850560274202901,10791.951914713884,17754.497950101482,35.95130327470389,0.9470535409980548,47.0,14.0,173.0,253.0,426.0,33.0,1002.0,1002.0,33.0,19.0,14.0,0.5757575757575758,95.65709777149274,2565.9177567292204,112.0,45.0,67.0,0.4017857142857143,54.5742478612264,2158.650795847905,24.0,13.0,11.0,0.5416666666666666,2165.6240120663606,35630.26050466395,17.0,4.0,13.0,0.2352941176470588,1978.907784791458,30753.449312202913,91.0,45.0,46.0,0.4945054945054945,108.52663149385516,18362.372904656106,0.0,0.0,0.0,0.0,10364.0,10397.0,10411.0,10521.0,10538.0,10562.0,10569.0,10584.0,10748.0,10837.0,0.02042359715000905,-0.022530821038355867,0.05012705625955854,-0.1034004600976846,0.006112627447921434
12,12,11364.928437184755,4274.685051188773,15.228623936759616,11441.739581337297,-3226.6117588755515,109.56251223715444,11531.343035500957,43881.038995560026,11.055539437154712,11553.027373698991,-20832.17867004983,7.835414576493713,11774.445848084608,17568.04277386737,32.57973013942908,0.9386555282060818,35.0,12.0,177.0,251.0,428.0,23.0,983.0,980.0,23.0,12.0,11.0,0.5217391304347826,94.18704481004872,1268.9016799690758,116.0,55.0,61.0,0.4741379310344827,51.21372139436923,2714.8961022375124,24.0,13.0,11.0,0.5416666666666666,2219.505851403323,35160.855349404635,17.0,4.0,13.0,0.2352941176470588,2049.314621480379,33692.896536372464,84.0,41.0,43.0,0.4880952380952381,118.69690205301455,17774.603641521462,0.0,0.0,0.0,0.0,11353.0,11376.0,11388.0,11503.0,11518.0,11542.0,11549.0,11565.0,11734.0,11816.0,0.022033680536032864,-0.015872291190129676,0.05058006606516079,-0.09837255401551705,0.006756410123817396
13,13,12284.364665239464,3342.4051026046636,11.86582302439552,12412.452034599266,-2810.849605662717,15.287792404955278,12449.871922534494,43911.854434957146,11.019804852721146,12471.45203459914,-21052.710643423972,8.096199485431843,12690.75806230728,17635.809826768113,35.42791519506138,0.9520283012687836,53.0,19.0,162.0,253.0,415.0,34.0,914.0,919.0,34.0,16.0,18.0,0.4705882352941176,91.56305291808212,3196.268590158546,100.0,91.0,9.0,0.91,228.56435671332017,491.6286881668806,23.0,13.0,10.0,0.5652173913043478,2292.1595606644423,35859.77539158598,17.0,4.0,13.0,0.2352941176470588,2069.3845363226096,32810.99505779479,90.0,45.0,45.0,0.5,91.81768960412998,17976.52760025413,0.0,0.0,0.0,0.0,12268.0,12302.0,12321.0,12421.0,12437.0,12460.0,12468.0,12483.0,12647.0,12736.0,0.027394361277969875,-0.08131504305774884,0.052199106372508616,-0.09829539632080599,0.005206321144650051
14,14,13220.156837636074,2087.735839633,8.749687916040052,13345.45203459914,-3392.1175351166057,15.28779240518434,13382.69650621937,42651.30455833872,11.109332560788992,13404.027373698991,-20397.21092004352,8.334070623258567,13624.982620241784,16852.570730013154,32.917591509350274,0.9456528919037952,41.0,14.0,168.0,252.0,420.0,27.0,941.0,932.0,27.0,13.0,14.0,0.4814814814814814,93.16692524138996,1842.7065633002264,107.0,97.0,10.0,0.9065420560747663,266.58746905754987,77.64315231135424,23.0,13.0,10.0,0.5652173913043478,2231.434320124813,33898.33689675061,17.0,4.0,13.0,0.2352941176470588,1956.055554123564,31639.969179472304,85.0,42.0,43.0,0.4941176470588235,101.16964744501055,17096.45422624965,0.0,0.0,0.0,0.0,13207.0,13234.0,13248.0,13354.0,13370.0,13393.0,13400.0,13416.0,13584.0,13668.0,0.04462582069662972,-0.07859028064261511,0.0523180789715973,-0.09589818734488972,0.0060032174951703396
15,15,14181.809379756713,4022.970041927138,17.664386035980755,14278.384462922626,-1185.7063807909349,41.291769249705,14346.913968644056,44293.9772851864,10.985093253148566,14368.566559518673,-18370.868941421755,7.391836068243044,14587.374510558497,18390.196087408534,39.16855348902318,0.9518205219243768,75.0,34.0,143.0,255.0,398.0,41.0,962.0,965.0,41.0,20.0,21.0,0.4878048780487805,96.50003878021826,4025.082248896828,95.0,57.0,38.0,0.6,48.98400380366326,1183.9807886286085,24.0,13.0,11.0,0.5416666666666666,2215.1496944041096,37662.87442101875,15.0,4.0,11.0,0.2666666666666666,1958.5823076219851,29388.24133028275,95.0,46.0,49.0,0.4842105263157895,115.90123447289346,19409.74590367605,0.0,0.0,0.0,0.0,14162.0,14203.0,14237.0,14315.0,14334.0,14358.0,14365.0,14380.0,14543.0,14635.0,0.02398726258821244,-0.04131208585635517,0.050010178136451526,-0.10661348213125986,0.006302338154634966
16,16,15120.52268307287,4486.502442117038,18.149254446060368,15202.411096905902,-4717.563489298796,104.46658143542632,15282.469811235038,45627.93904593192,11.42167074346522,15303.063229776,-22833.40436370661,8.600181233352226,15525.84765130824,17251.538680902053,32.082899375752085,0.9325400872971208,34.0,16.0,173.0,251.0,424.0,18.0,935.0,935.0,20.0,13.0,7.0,0.65,105.916286960561,595.3402387727178,112.0,59.0,53.0,0.5267857142857143,53.14018534102485,3940.1623911991337,23.0,13.0,10.0,0.5652173913043478,2283.525007846531,33550.79096612251,19.0,4.0,15.0,0.2105263157894736,2096.447937942192,36238.18093578599,83.0,41.0,42.0,0.4939759036144578,97.71105209100304,17326.947376934902,0.0,0.0,0.0,0.0,15110.0,15128.0,15144.0,15255.0,15269.0,15292.0,15299.0,15317.0,15485.0,15568.0,0.023607763135548958,-0.01126432860131437,0.050046639309038105,-0.09181495253832879,0.005663903602939022
17,17,15990.947539017803,4126.065576076454,15.88007778349454,16064.164242193954,-1893.938959024819,105.8999565068295,16152.878508560285,44593.09090755487,11.058302612099826,16174.45203459914,-20655.138669697702,7.837338613784796,16392.16938655459,17987.19111222182,35.20940190891825,0.9454297147434148,45.0,15.0,166.0,251.0,417.0,30.0,872.0,871.0,30.0,16.0,14.0,0.5333333333333333,103.05548813444848,2368.7377194541086,105.0,45.0,60.0,0.4285714285714285,46.775868139148166,1889.501190562161,23.0,13.0,10.0,0.5652173913043478,2271.353906030184,35380.245862395845,17.0,4.0,13.0,0.2352941176470588,2088.477851279794,33217.765329440546,89.0,43.0,46.0,0.4831460674157303,104.74123729684275,18328.94885023364,0.0,0.0,0.0,0.0,15975.0,16005.0,16020.0,16124.0,16140.0,16163.0,16171.0,16186.0,16350.0,16437.0,0.024976696621590223,-0.024697664048915737,0.05093510810315631,-0.10111178068940845,0.005823101374937517
18,18,16902.104341751026,4080.243483132908,20.11751679476284,16975.205425600507,-704.6730550291272,24.56761432745265,17066.536917860747,44408.52440005878,11.030432388744996,17088.45203459914,-18389.231377499236,7.44173943012131,17307.677121946803,19963.73024489913,39.38898846670729,0.951181388999486,82.0,36.0,139.0,255.0,394.0,46.0,916.0,914.0,46.0,23.0,23.0,0.5,80.87322029291225,4324.02178814443,37.0,14.0,23.0,0.3783783783783784,50.83571413213481,1019.7844719102876,25.0,14.0,11.0,0.56,2216.798195157315,36850.784701226,15.0,3.0,12.0,0.2,1985.9927621946408,30262.829323990092,95.0,47.0,48.0,0.4947368421052631,112.92245248593537,21088.810140769216,0.0,0.0,0.0,0.0,16879.0,16925.0,16961.0,16998.0,17053.0,17078.0,17085.0,17100.0,17263.0,17355.0,0.01982068487511335,-0.07214085137686092,0.04991830341371084,-0.10799759497423417,0.005656380400891654
19,19,17813.90759872322,4712.7488252362855,16.189653139089586,17882.739581293812,-2252.4397265089096,109.56251208062756,17975.311774171776,44487.79574801027,11.229476031446598,17997.027373698995,-18890.728471626928,7.430846469312166,18216.112510345076,17786.192779848894,34.31959711263446,0.9381173557920072,46.0,15.0,165.0,253.0,418.0,31.0,909.0,908.0,31.0,17.0,14.0,0.5483870967741935,113.47107977974764,2494.228382793539,104.0,42.0,62.0,0.4038461538461538,46.15558978234362,2165.248206894414,24.0,13.0,11.0,0.5416666666666666,2174.162897297239,37492.59139943756,16.0,4.0,12.0,0.25,1987.3499301732215,30921.339319757124,87.0,42.0,45.0,0.4827586206896552,110.08513293045058,18160.685547101748,0.0,0.0,0.0,0.0,17797.0,17828.0,17843.0,17944.0,17962.0,17986.0,17993.0,18008.0,18175.0,18261.0,0.024077472402543855,-0.02049137619051004,0.04887099620786402,-0.10520239773485372,0.006189359032202384
20,20,18722.523167347415,3848.669950514464,15.215245385785307,18838.739827004072,-3111.91919917985,76.43896202562837,18885.396427901997,44730.27618545227,11.315048487759412,18907.027373698995,-19914.64022303754,7.832898995651478,19129.018047534235,16706.16563056532,32.98318397940073,0.955492005193158,51.0,21.0,163.0,253.0,416.0,30.0,907.0,910.0,31.0,18.0,13.0,0.5806451612903226,98.83934726214196,2438.2974660296686,103.0,85.0,18.0,0.8252427184466019,71.47043916332366,2166.860148263341,24.0,13.0,11.0,0.5416666666666666,2199.122050128499,36384.91297709472,17.0,4.0,13.0,0.2352941176470588,2001.2001189437392,32667.628778657978,85.0,42.0,43.0,0.4941176470588235,91.9811237031891,16822.870045853248,0.0,0.0,0.0,0.0,18705.0,18735.0,18756.0,18856.0,18872.0,18896.0,18903.0,18919.0,19087.0,19172.0,0.025681429827187387,-0.022966675735719547,0.04916406151866606,-0.10048889141510689,0.00550581897349934
21,21,19644.93137160756,4799.774757122935,17.835757802722682,19753.260418706144,-6363.905965081858,109.56251223685926,19804.556854856055,44303.79410211047,11.48101869742466,19826.027373698995,-19761.03307051463,7.677354641493755,20047.9656974961,15777.371430795323,30.22549069476391,0.9309533478692584,36.0,17.0,170.0,249.0,419.0,19.0,923.0,920.0,19.0,12.0,7.0,0.631578947368421,93.79278111769018,232.16931707459787,111.0,86.0,25.0,0.7747747747747747,54.70929392130953,4952.909562638004,23.0,13.0,10.0,0.5652173913043478,2215.1936625753688,30960.74504941108,19.0,5.0,14.0,0.2631578947368421,1996.88198660867,34787.055674591706,79.0,38.0,41.0,0.4810126582278481,106.60098829777914,15724.523966694274,0.0,0.0,0.0,0.0,19633.0,19652.0,19669.0,19778.0,19792.0,19815.0,19822.0,19839.0,20010.0,20088.0,0.0195410797097302,-0.008596810547090761,0.05000008932575472,-0.10105149763593134,0.006756574678194381
22,22,20532.314188180186,4779.546018015746,16.25064193069439,20590.767200703307,-3411.5600060791453,58.60320421987331,20691.87544064593,43758.51622609743,10.789701739109796,20713.229017268313,-22675.033809033142,8.988822364186198,20935.58112376935,17000.186113399268,32.22473031400608,0.9628388298323752,44.0,14.0,168.0,251.0,419.0,30.0,886.0,886.0,30.0,18.0,12.0,0.6,108.67453649751712,2159.6006444219897,106.0,34.0,72.0,0.320754716981132,58.24824506239735,2855.1216443119565,23.0,13.0,10.0,0.5652173913043478,2310.000482079758,32514.29711808264,18.0,5.0,13.0,0.2777777777777778,2074.010622160077,35398.92265147127,83.0,41.0,42.0,0.4939759036144578,91.62868857343751,17010.372448637252,0.0,0.0,0.0,0.0,20514.0,20544.0,20558.0,20663.0,20679.0,20702.0,20709.0,20726.0,20895.0,20977.0,0.022737418174840367,-0.017073785880536565,0.052789735148791025,-0.09146670473028558,0.005389863849856166
23,23,21407.198016479975,4406.4523972437455,16.904969438878954,21464.465598593397,-1587.4696494410985,117.2064080843882,21567.40216867064,44395.77967652352,11.127171715405709,21589.027373698995,-20340.8078975386,7.895332147894473,21808.572295971404,17251.83244431124,34.58047158525546,0.9531147906264772,48.0,14.0,163.0,252.0,415.0,34.0,880.0,876.0,34.0,17.0,17.0,0.5,83.01801406066697,2741.6153967894793,102.0,28.0,74.0,0.2745098039215686,52.18051077175467,1325.0683342841376,24.0,13.0,11.0,0.5416666666666666,2219.247828757741,37088.59826966389,17.0,4.0,13.0,0.2352941176470588,2035.4198485045536,32341.25041562513,89.0,44.0,45.0,0.4943820224719101,95.3943940167587,17544.969229329734,0.0,0.0,0.0,0.0,21390.0,21424.0,21438.0,21537.0,21554.0,21578.0,21585.0,21601.0,21765.0,21853.0,0.01884010232644181,-0.03287024151304303,0.049987810664158215,-0.10006583114876452,0.005529522404341159
24,24,22326.05423300404,4392.587192029146,18.426768383827252,22436.843264787258,-2607.4859587337764,79.28041941115079,22489.602279713938,44203.89632422453,11.140221517397563,22511.45203459914,-18598.87212169546,7.5106164843390335,22735.38265689903,16997.96786785423,34.19811412253775,0.961383793244454,58.0,21.0,159.0,256.0,415.0,37.0,916.0,923.0,38.0,21.0,17.0,0.5526315789473685,93.53859044618468,3306.190039007973,97.0,73.0,24.0,0.7525773195876289,48.35454819843498,2369.208931371702,23.0,13.0,10.0,0.5652173913043478,2209.7951038641663,35046.60377937637,17.0,4.0,13.0,0.2352941176470588,1976.9682121208573,31601.48367835289,86.0,42.0,44.0,0.4883720930232558,108.34194405621916,17570.572258305758,0.0,0.0,0.0,0.0,22306.0,22343.0,22364.0,22460.0,22477.0,22500.0,22508.0,22523.0,22694.0,22779.0,0.021294646265854714,-0.018544509525150608,0.0499909575313423,-0.10629505914042697,0.006373817440913654
25,25,23260.83623723081,4668.153472402799,17.96424775681624,23321.260172995684,-1574.845921488328,76.43896202388989,23419.795006797856,43784.51884140476,10.926852410502974,23442.027373698995,-19010.761008313813,7.894720678182326,23665.468901821052,17832.45765307822,33.96919273720104,0.9651842576927852,55.0,18.0,157.0,256.0,413.0,37.0,935.0,930.0,37.0,20.0,17.0,0.5405405405405406,90.89629171968257,3422.1446406855,82.0,28.0,54.0,0.3414634146341463,56.196076829713455,1775.1022732401866,24.0,13.0,11.0,0.5416666666666666,2213.35829951959,35980.83862174095,16.0,4.0,12.0,0.25,1945.2577944320751,30944.224633103848,86.0,42.0,44.0,0.4883720930232558,87.70012301914406,17874.387354789313,0.0,0.0,0.0,0.0,23241.0,23278.0,23296.0,23364.0,23407.0,23431.0,23438.0,23453.0,23623.0,23709.0,0.01947157312994174,-0.035683539616754786,0.05055116187382951,-0.10232403603313787,0.004918005399216823
26,26,24146.70801033464,1977.2744145646557,8.369137052338413,24269.602712798853,-3751.53478103182,20.383723206912453,24309.41421434081,42927.52522821403,11.054029045667772,24331.027373698995,-22842.339398288663,8.844439148767824,24552.924143700227,17486.87962227349,33.529785730620006,0.9525040592425796,40.0,14.0,169.0,254.0,423.0,26.0,886.0,889.0,26.0,13.0,13.0,0.5,98.6786883807709,1667.3727282865743,110.0,98.0,12.0,0.8909090909090909,189.00291972304265,1011.024215024845,23.0,13.0,10.0,0.5652173913043478,2265.7730936677494,34837.15666770116,18.0,5.0,13.0,0.2777777777777778,2030.1528689441263,34368.61984043302,86.0,42.0,44.0,0.4883720930232558,100.4780070873289,17674.774187745996,0.0,0.0,0.0,0.0,24134.0,24160.0,24174.0,24281.0,24296.0,24319.0,24327.0,24343.0,24511.0,24597.0,0.04990642050182871,-0.05038015925606303,0.05278135838537868,-0.08887674916064965,0.0057459083185628776
27,27,24979.55117008109,1268.0532000537162,7.004572824354994,25103.027373698995,-4384.359934217367,17.8357578060484,25141.098212026587,42123.1426820784,11.074251573743094,25163.027373698995,-21094.18850459852,8.527692944611344,25382.714410089116,17177.81820271574,32.5429096564104,0.9416048865991502,37.0,15.0,170.0,251.0,421.0,22.0,834.0,832.0,23.0,12.0,11.0,0.5217391304347826,85.52558513855665,950.4954735032808,108.0,98.0,10.0,0.9074074074074074,222.57585294679456,940.9196224737228,23.0,13.0,10.0,0.5652173913043478,2201.733488710308,34624.58432881224,17.0,5.0,12.0,0.2941176470588235,1952.019070517205,32350.580433118197,85.0,42.0,43.0,0.4941176470588235,93.27021218972324,17089.46755953057,0.0,0.0,0.0,0.0,24968.0,24990.0,25005.0,25113.0,25128.0,25151.0,25159.0,25175.0,25341.0,25426.0,0.06744636986439818,-0.05076587148097037,0.05226897492733968,-0.0925382396242295,0.0054296890960795945
28,28,25798.85778293857,4185.354113686605,15.166470786074024,25870.808138396547,-2205.8364253336595,52.29830980294975,25959.071537497977,42588.863606921914,11.050111435244844,25981.027373698995,-19707.59592554815,8.015215063761833,26199.887269653784,18240.875039991653,35.52055635504188,0.9659888374693072,48.0,12.0,166.0,252.0,418.0,36.0,819.0,818.0,36.0,20.0,16.0,0.5555555555555556,93.1006505759181,2846.898426138928,100.0,44.0,56.0,0.44,56.62423426731763,2084.098000032639,24.0,13.0,11.0,0.5416666666666666,2165.2570852374383,35317.42359431975,16.0,4.0,12.0,0.25,1937.3042402194585,31092.44472265911,90.0,45.0,45.0,0.5,99.92897441351415,18649.96771763145,0.0,0.0,0.0,0.0,25779.0,25815.0,25827.0,25905.0,25946.0,25970.0,25977.0,25993.0,26156.0,26245.0,0.02224439033043056,-0.025670187334381575,0.05084092182458519,-0.0983024133201358,0.005478299379521426
29,29,26590.47326428922,3813.15464817337,13.495119647177908,26653.657460196835,-1283.3041311964605,56.05523881363749,26751.932844686336,42941.750051245566,11.135068058947756,26773.235100100963,-21712.449924787852,8.229296347163922,26991.730761532508,19216.38344440729,36.7683867167664,0.9603240187254068,44.0,13.0,167.0,252.0,419.0,31.0,788.0,793.0,31.0,16.0,15.0,0.5161290322580645,101.538306218848,2821.0680378918996,76.0,37.0,39.0,0.4868421052631579,58.739563249552766,1344.9736446874003,24.0,14.0,10.0,0.5833333333333334,2216.7203810281453,33932.12658503675,17.0,4.0,13.0,0.2352941176470588,2060.2796371534732,32782.570110028886,91.0,45.0,46.0,0.4945054945054945,116.05142332564706,19873.01560236935,0.0,0.0,0.0,0.0,26574.0,26605.0,26618.0,26685.0,26738.0,26762.0,26769.0,26785.0,26948.0,27037.0,0.02662842595893358,-0.0457721297871832,0.051621565920875814,-0.09488932130138712,0.006039191696053636
30,30,27366.631340593336,4333.891671828962,17.71428504376124,27470.50702770763,-3598.4571815104077,120.22666234269774,27531.816462293285,44255.14061283368,11.189603015718497,27553.602712798853,-21094.05286263801,7.826005697789939,27772.31237259888,17920.300283848133,33.37829278565201,0.9477948236405096,42.0,16.0,171.0,250.0,421.0,26.0,780.0,780.0,26.0,14.0,12.0,0.5384615384615384,102.33830586689538,1558.304945353602,112.0,79.0,33.0,0.7053571428571429,55.89772632838349,3078.9012339980795,23.0,13.0,10.0,0.5652173913043478,2237.583186728247,33124.755315298484,17.0,5.0,12.0,0.2941176470588235,2024.426540848304,34404.90025510569,85.0,41.0,44.0,0.4823529411764706,98.60080896521498,17768.28172841883,0.0,0.0,0.0,0.0,27353.0,27379.0,27395.0,27504.0,27519.0,27542.0,27549.0,27566.0,27731.0,27816.0,0.02361348958768672,-0.01553380337984767,0.050560977905454066,-0.09597143583696938,0.005502185086378577
31,31,28187.09585902731,4097.784813323273,17.753920080120125,28269.43769192316,-1690.2963151203353,48.792622215810226,28352.2515179203,44006.66327417505,11.16981410440698,28373.458863501804,-19255.465282548215,7.723130074483027,28593.46311211888,17343.435103675663,34.155775835399155,0.9677453285967116,60.0,21.0,159.0,252.0,411.0,39.0,819.0,820.0,39.0,21.0,18.0,0.5384615384615384,93.54945293387397,3608.443721495861,96.0,44.0,52.0,0.4583333333333333,58.61361104427674,1291.1821525179864,24.0,13.0,11.0,0.5416666666666666,2191.320475914967,37346.010105582216,16.0,3.0,13.0,0.1875,2005.7909554797016,30351.806219953807,89.0,44.0,45.0,0.4943820224719101,104.6274948199644,17731.132111545347,0.0,0.0,0.0,0.0,28166.0,28205.0,28226.0,28321.0,28339.0,28363.0,28370.0,28385.0,28551.0,28637.0,0.022829274155566518,-0.034676530097093615,0.04979519720144121,-0.10416735851600573,0.006032685808464223
32,32,29074.59862814266,4842.573680925782,18.007342941985563,29168.49333720938,-3743.731613615125,135.04216622046914,29238.404860497107,43762.09773267462,11.19955135161739,29260.027373698995,-18793.12338798417,7.644568077942973,29481.67594937785,16977.490425982276,33.39928573845435,0.9359866923099373,41.0,16.0,170.0,253.0,423.0,25.0,889.0,886.0,26.0,14.0,12.0,0.5384615384615384,111.5181015480294,1525.2744944911155,108.0,66.0,42.0,0.6111111111111112,49.71569044761183,3777.3324917856658,23.0,12.0,11.0,0.5217391304347826,2152.803432378654,35188.45336051033,17.0,4.0,13.0,0.2352941176470588,1949.4596310594836,32658.249776419027,85.0,42.0,43.0,0.4941176470588235,103.428429012252,16927.840235446263,0.0,0.0,0.0,0.0,29061.0,29086.0,29102.0,29210.0,29226.0,29249.0,29256.0,29272.0,29441.0,29525.0,0.023028684516930232,-0.013279715422656593,0.0491933326763557,-0.10373260425171885,0.0060920917295270915
33,33,29973.8843965786,4447.7753156367135,17.250254849092432,30052.641951864643,-2233.29516417555,119.75437384061048,30140.600608895737,44106.212319881015,11.08659264216586,30162.046688885803,-20816.48602307141,7.985251964742219,30383.41108372244,18021.301455228153,35.20276014273851,0.9452116738968952,45.0,14.0,171.0,255.0,426.0,31.0,896.0,902.0,31.0,16.0,15.0,0.5161290322580645,100.01763550806854,2582.5600867614944,110.0,51.0,59.0,0.4636363636363636,44.67263666342596,2268.4273863569274,23.0,13.0,10.0,0.5652173913043478,2269.81150388765,33367.785446520305,17.0,4.0,13.0,0.2352941176470588,2049.381666923063,33354.44904635827,90.0,44.0,46.0,0.4888888888888889,99.23021674503774,18166.002686756532,0.0,0.0,0.0,0.0,29958.0,29989.0,30003.0,30111.0,30128.0,30151.0,30158.0,30174.0,30340.0,30429.0,0.02248711511043374,-0.020003014997758906,0.05146239916104801,-0.0984499336079915,0.005506273616895194
34,34,30577.575339099854,383.920694311735,2.5479653833516895,30902.65770590732,-4528.9544880219355,129.94623542566916,30974.34266294902,43341.39123592652,11.182839574668538,30995.761187885233,-21780.873542621302,7.919591141658898,31214.287927501973,16694.517287922645,32.31529835010601,0.897295790384751,254.0,251.0,179.0,248.0,427.0,3.0,605.0,834.0,3.0,2.0,1.0,0.6666666666666666,51.26690005468833,3192.7611029360587,118.0,74.0,44.0,0.6271186440677966,50.53061851806321,4733.180904797233,22.0,12.0,10.0,0.5454545454545454,2214.993955703788,32644.29128625335,18.0,5.0,13.0,0.2777777777777778,2048.7907643313147,35710.671055972256,82.0,39.0,43.0,0.4756097560975609,117.02870291174598,16904.250758006467,0.0,0.0,0.0,0.0,30576.0,30579.0,30830.0,30946.0,30962.0,30984.0,30991.0,31009.0,31175.0,31257.0,0.1335351305992918,-0.011157236985203827,0.051105741937230116,-0.09406375553864701,0.007010008189719168
35,35,31656.77708004507,3025.402406792615,10.469074559404271,31777.32873009842,-3531.5455959622404,28.027619409504627,31822.111800267423,43475.034702855875,11.287211668146965,31843.45203459914,-20815.964427887764,8.264251002927368,32064.838568616295,16962.748980970646,33.42899111613679,0.9580600614808208,46.0,14.0,168.0,253.0,421.0,32.0,1078.0,848.0,33.0,16.0,17.0,0.4848484848484848,91.48943785841796,2749.3441599466887,108.0,91.0,17.0,0.8425925925925926,79.38309320709726,2267.899843698518,23.0,13.0,10.0,0.5652173913043478,2213.03353265473,35488.84103119497,17.0,4.0,13.0,0.2352941176470588,2009.3293183452913,31757.762945097835,86.0,43.0,43.0,0.5,108.90553831538358,17267.688303869974,0.0,0.0,0.0,0.0,31641.0,31673.0,31687.0,31793.0,31809.0,31832.0,31840.0,31855.0,32022.0,32108.0,0.030240419473788492,-0.02247828636216935,0.0509035483877223,-0.09652828363087196,0.0064202764798062684
36,36,32516.7445229194,4805.512934306425,22.491931496913253,32622.50702770763,-4397.476385742324,135.04216624579502,32682.192897694717,43352.3692121094,11.24449645707338,32704.027373698995,-18895.79638505901,7.652869681542274,32924.22854413943,16801.69947215035,32.62946932859046,0.93850455902942,44.0,17.0,170.0,251.0,421.0,27.0,859.0,860.0,28.0,15.0,13.0,0.5357142857142857,98.47476470687248,1503.9273715818615,111.0,79.0,32.0,0.7117117117117117,60.5605439014312,3741.27717559281,23.0,12.0,11.0,0.5217391304347826,2143.875638043116,33697.377612334,18.0,5.0,13.0,0.2777777777777778,1934.6867472424783,33108.624448179165,84.0,40.0,44.0,0.4761904761904761,103.55814529085984,16782.384299792528,0.0,0.0,0.0,0.0,32503.0,32530.0,32547.0,32655.0,32670.0,32693.0,32700.0,32717.0,32885.0,32968.0,0.02049204029893746,-0.013771658694469184,0.049452329296094805,-0.10238715044433076,0.006163551815845331
37,37,33365.90406968701,3347.3413637026893,11.607535311925316,33481.90406919828,-2335.9736459312508,30.57558481036731,33529.3529743506,42111.516037064976,11.299757620396804,33551.027373699,-22637.143061988016,8.646392629108256,33770.31876576435,18543.717170000094,34.741417073243106,0.9568922591947784,46.0,12.0,168.0,252.0,420.0,34.0,856.0,847.0,34.0,17.0,17.0,0.5,101.75819438629392,3135.5885427127505,105.0,88.0,17.0,0.8380952380952381,70.25052082660153,1726.7771415300108,23.0,13.0,10.0,0.5652173913043478,2179.158227684822,33806.48376580328,18.0,5.0,13.0,0.2777777777777778,1997.7503992888303,33458.85388436784,88.0,42.0,46.0,0.4772727272727273,115.11190296908462,18958.982288275067,0.0,0.0,0.0,0.0,33349.0,33383.0,33395.0,33499.0,33516.0,33539.0,33547.0,33563.0,33728.0,33815.0,0.030399706313112104,-0.030073336207778883,0.05174732312574092,-0.08825099500490527,0.006207595915845391
38,38,34158.82119934922,3262.1284617816727,11.140149728310384,34279.753390998565,-2628.568825369754,25.47965400864057,34322.78975246652,42448.38929573615,11.38928874612243,34343.60271279886,-25246.008228815375,9.028105198373746,34564.10542914999,17904.92077332589,32.887619295400256,0.9595813865871886,46.0,14.0,167.0,251.0,418.0,32.0,785.0,793.0,32.0,16.0,16.0,0.5,100.95056141948538,3036.7136095271658,106.0,92.0,14.0,0.8679245283018868,98.15326932005992,1455.7727575119488,23.0,14.0,9.0,0.6086956521739131,2255.7757395067815,29764.338634762993,18.0,5.0,13.0,0.2777777777777778,2075.4962707468635,35301.105120615364,86.0,43.0,43.0,0.5,95.4986975763552,17937.10334010634,0.0,0.0,0.0,0.0,34143.0,34175.0,34189.0,34294.0,34309.0,34332.0,34339.0,34356.0,34522.0,34607.0,0.03094622501909362,-0.03734095465666681,0.05314160977442245,-0.08221086882075584,0.005333656528579882
39,39,34938.21862765248,1553.2119558874597,7.734419719553378,35062.178051898714,-5192.582105952032,22.93168860777651,35103.19250809376,43033.72340438007,11.447905444017543,35124.027373699,-25572.83531425861,9.528088754370154,35344.52514027219,18351.901258419064,32.467216318145475,0.942137044978548,37.0,14.0,173.0,250.0,423.0,23.0,783.0,780.0,24.0,12.0,12.0,0.5,96.66380762684912,1559.4015930473142,112.0,98.0,14.0,0.875,141.3857312770811,2389.2089449768273,23.0,13.0,10.0,0.5652173913043478,2260.1416897542836,31083.83361983819,19.0,5.0,14.0,0.2631578947368421,2077.8714266541683,36016.577870879795,83.0,41.0,42.0,0.4939759036144578,96.97298888252432,18224.142380361467,0.0,0.0,0.0,0.0,34927.0,34950.0,34964.0,35075.0,35090.0,35113.0,35120.0,35137.0,35304.0,35387.0,0.062234782098118904,-0.027228405520062313,0.052520244844168916,-0.08125307190695481,0.005284084058486163
40,40,35714.99152191323,4166.817199977985,17.30553692740793,35841.60271279886,-1735.5483631011475,20.383723206912453,35883.97893144612,43489.851081807654,11.272371782950358,35905.027373699,-21438.849308211305,8.470730670678677,36125.2686880788,18278.20751662228,33.98374971878761,0.97036293955621,63.0,22.0,158.0,252.0,410.0,41.0,780.0,782.0,42.0,20.0,22.0,0.4761904761904761,83.69472762822255,4493.971848071754,97.0,85.0,12.0,0.8762886597938144,126.25118543198526,229.18173548052505,24.0,14.0,10.0,0.5833333333333334,2225.6107643373966,34415.38889164025,17.0,4.0,13.0,0.2352941176470588,2012.7261703776635,32342.762569315983,87.0,43.0,44.0,0.4942528735632184,111.59056034686375,18839.641866765043,0.0,0.0,0.0,0.0,35696.0,35737.0,35759.0,35853.0,35870.0,35894.0,35901.0,35917.0,36083.0,36169.0,0.020086008963547702,-0.07274426234161206,0.05117540550209879,-0.09388219215696283,0.006105115080096494
41,41,36519.87143596927,4025.0195888423855,15.145362683127711,36619.80838410705,-1882.3790103534732,86.77560319969265,36683.124462666805,42800.76195410404,11.13598978077238,36705.027373699,-18746.886953615096,7.630471649611707,36925.13669628424,18091.1759304396,36.115537369204766,0.9595988318522892,47.0,15.0,166.0,254.0,420.0,32.0,800.0,799.0,33.0,18.0,15.0,0.5454545454545454,108.69147247938832,2809.5773368362534,104.0,71.0,33.0,0.6826923076923077,42.972121599909435,1686.806894375416,24.0,13.0,11.0,0.5416666666666666,2130.30844662218,35546.83580776304,16.0,4.0,12.0,0.25,1925.781931664075,30565.851896274733,90.0,44.0,46.0,0.4888888888888889,101.4487268034838,18464.614236900492,0.0,0.0,0.0,0.0,36503.0,36535.0,36550.0,36653.0,36670.0,36694.0,36701.0,36716.0,36881.0,36970.0,0.027003961118770233,-0.022828623440632252,0.04977267575064539,-0.10272542510279088,0.0056076358548252025
42,42,37315.371223627546,3573.0752090585297,13.764646753482634,37438.753390998565,-1965.1480499070651,25.47965400864057,37483.59966828839,42694.20343492533,11.449897528758346,37504.05128908218,-23864.243780989666,8.727027945717989,37724.945980159326,18394.195157087343,34.46903179506671,0.9669684242380198,59.0,22.0,161.0,251.0,412.0,37.0,795.0,800.0,38.0,18.0,20.0,0.4736842105263157,98.93750963384574,3604.877046404592,101.0,86.0,15.0,0.8514851485148515,79.4633605995253,1188.6773557062188,23.0,14.0,9.0,0.6086956521739131,2244.707182193297,30356.4673518506,17.0,4.0,13.0,0.2352941176470588,2058.2520276933924,33878.80585968513,88.0,44.0,44.0,0.5,101.73123065069436,18537.71384780114,0.0,0.0,0.0,0.0,37297.0,37334.0,37356.0,37453.0,37470.0,37493.0,37500.0,37517.0,37682.0,37768.0,0.027689736108273747,-0.04043632264921884,0.052576392146879806,-0.0862483658222182,0.005530616033042195
43,43,38109.28961333586,4403.057645576853,15.323183979778232,38180.18372270776,-2488.8790604284486,79.8801884941968,38272.778532944525,43638.55710893576,11.13643605443676,38294.13879780061,-21431.46070858823,7.974233637054784,38512.7457296961,18140.7281659639,35.591724031573065,0.9502585689104048,44.0,13.0,170.0,252.0,422.0,31.0,797.0,789.0,32.0,17.0,15.0,0.53125,98.36569507809926,2293.4545234813686,107.0,44.0,63.0,0.411214953271028,56.226445074400864,2459.480742270648,23.0,13.0,10.0,0.5652173913043478,2251.3766470652504,33774.22323950323,17.0,4.0,13.0,0.2352941176470588,2070.3432588387964,33271.87555480862,90.0,45.0,45.0,0.5,92.53187732765667,18521.83718080048,0.0,0.0,0.0,0.0,38092.0,38123.0,38136.0,38243.0,38260.0,38283.0,38290.0,38306.0,38469.0,38558.0,0.022340315071031094,-0.02259107160663795,0.05159145481013719,-0.09660299346787629,0.005100780766963222
44,44,38892.3858500693,3970.5601542265263,19.924791004710418,39007.13711420546,-3483.705634853824,96.8226851230774,39057.46135785474,44636.35879029437,11.321812332647298,39079.027373699,-20844.213757845377,7.814423852695336,39298.73928735101,17632.279592847768,34.381161911280245,0.9620207054901586,53.0,20.0,164.0,251.0,415.0,33.0,782.0,785.0,33.0,18.0,15.0,0.5454545454545454,87.44856874388734,2271.0762097364022,103.0,81.0,22.0,0.7864077669902912,52.10107135670635,3009.1520792771007,24.0,13.0,11.0,0.5416666666666666,2214.117708894689,35688.8841068359,17.0,4.0,13.0,0.2352941176470588,2055.5485977772832,34099.6193997136,87.0,43.0,44.0,0.4942528735632184,89.2699795391538,17840.425842417604,0.0,0.0,0.0,0.0,38874.0,38907.0,38927.0,39029.0,39044.0,39068.0,39075.0,39091.0,39256.0,39342.0,0.02202423974128721,-0.014955646893768769,0.04960345711210032,-0.09861483007501844,0.005062872277465736
45,45,39707.11985190002,4792.407822017468,17.499359966725155,39800.109740501015,-3278.423530655663,107.84404222566106,39871.90601140642,43275.794826251025,11.379071509718356,39893.027373699,-20222.62392094864,7.857031276772435,40112.944236271745,16590.17147465134,33.33078301288888,0.9519790255427404,45.0,15.0,170.0,250.0,420.0,30.0,815.0,814.0,30.0,16.0,14.0,0.5333333333333333,107.38048590125658,2274.5119034288905,108.0,65.0,43.0,0.6018518518518519,56.57972905230736,2876.9448300428517,23.0,13.0,10.0,0.5652173913043478,2177.176194425462,32983.80672016306,17.0,4.0,13.0,0.2352941176470588,1985.869254624412,32652.67756372748,88.0,44.0,44.0,0.5,94.88243884889285,16778.17665877432,0.0,0.0,0.0,0.0,39691.0,39721.0,39736.0,39843.0,39859.0,39882.0,39889.0,39906.0,40070.0,40156.0,0.02240637480974072,-0.017258212224029453,0.050309328879265106,-0.09820037510400653,0.005719195789740136
46,46,40566.007636376424,4570.912552480258,16.719530344635995,40652.1566814509,-4158.053366002968,117.2064084358764,40730.74143698368,42968.49889116417,11.178031885402415,40753.027373699,-18401.97060924669,7.3409462523242786,40973.59422209081,16045.683715272473,33.24015060155751,0.9345749380355414,36.0,15.0,174.0,252.0,426.0,21.0,856.0,860.0,22.0,12.0,10.0,0.5454545454545454,91.9293088301292,1016.0197590622512,112.0,62.0,50.0,0.5535714285714286,50.73914586328824,3652.189834216301,23.0,13.0,10.0,0.5652173913043478,2133.4535574373053,33569.89956066925,17.0,5.0,12.0,0.2941176470588235,1917.59738629578,31639.146021305445,86.0,43.0,43.0,0.5,96.13594407515885,16116.25084619539,0.0,0.0,0.0,0.0,40555.0,40576.0,40591.0,40702.0,40718.0,40741.0,40749.0,40765.0,40932.0,41017.0,0.020111806510112896,-0.012202620167923076,0.04965157295443751,-0.10420608895724562,0.005991389695887843
47,47,41435.72037628081,2837.9982085121987,10.827193259075797,41563.178051898714,-3023.450771370596,22.93168860777651,41604.921551406886,41864.43643261249,11.154565810075898,41626.60271279886,-21186.26607969836,8.496648084683855,41848.30521269946,15867.047019145211,31.595220650760385,0.9532595875757968,44.0,12.0,175.0,251.0,426.0,32.0,876.0,874.0,32.0,16.0,16.0,0.5,96.09392268228666,2468.925617734232,114.0,100.0,14.0,0.8771929824561403,120.49813807472928,1288.8048974505869,23.0,13.0,10.0,0.5652173913043478,2179.717982456945,33271.92737224451,17.0,5.0,12.0,0.2941176470588235,1923.0993735726809,31701.470233316377,83.0,41.0,42.0,0.4939759036144578,103.39803611264465,16061.61136844802,0.0,0.0,0.0,0.0,41420.0,41452.0,41464.0,41576.0,41592.0,41615.0,41622.0,41639.0,41807.0,41890.0,0.03385975452488508,-0.039854506385796004,0.052066101163586655,-0.09077103848022951,0.006516526735433781
48,48,42272.173084327114,3063.350171626085,10.387741785100577,42392.61652250184,-4327.434333530453,63.69913502160141,42435.31082685436,43037.2560784581,11.436500739542222,42457.027373699,-21696.268466291636,8.121193956743276,42677.90280797984,16580.14250915969,32.56412901670116,0.9497863612830502,38.0,14.0,172.0,251.0,423.0,24.0,834.0,830.0,26.0,14.0,12.0,0.5384615384615384,122.74554726488115,1788.7246849966623,111.0,97.0,14.0,0.8738738738738738,103.90143564622622,2144.0295372699875,22.0,12.0,10.0,0.5454545454545454,2174.975957756542,33163.3953807378,18.0,5.0,13.0,0.2777777777777778,2016.669364268938,34030.06953743931,86.0,43.0,43.0,0.5,92.18222541902118,16617.103018657872,0.0,0.0,0.0,0.0,42259.0,42283.0,42297.0,42407.0,42423.0,42445.0,42453.0,42469.0,42636.0,42720.0,0.04006905524604961,-0.024009939293858737,0.05053704989443335,-0.0929500557850366,0.005559796929857217
49,49,43115.39728720114,4684.4271293941565,18.86008599880836,43202.26041870619,-4962.8119191091655,109.56251223165938,43281.716740117314,43502.964877728,11.394528909768791,43303.027373699,-20353.70202681184,7.904072803986653,43526.19596507776,15130.530351409292,30.213338166894335,0.941894819766754,37.0,15.0,175.0,250.0,425.0,22.0,838.0,847.0,23.0,12.0,11.0,0.5217391304347826,87.70282859072076,925.6009834561892,115.0,63.0,52.0,0.5478260869565217,39.6736425016421,4204.8588090685025,23.0,13.0,10.0,0.5652173913043478,2196.9533250371956,31595.780000577153,17.0,4.0,13.0,0.2352941176470588,1983.8789089675656,33673.569077325985,80.0,39.0,41.0,0.4875,91.6393378383894,15073.87008369813,0.0,0.0,0.0,0.0,43104.0,43126.0,43141.0,43254.0,43269.0,43292.0,43299.0,43316.0,43488.0,43566.0,0.01872221003084821,-0.007994186188857949,0.05050123207032169,-0.0974701755166805,0.006056584647732054
50,50,43955.86548703988,1702.349459927829,8.987941395551758,44075.90406919828,-5194.522017210436,30.57558481036868,44120.47032397726,42964.56640605721,11.492667044399584,44141.027373699,-23263.29045442238,9.627692298378124,44365.437975687186,15772.527049301616,30.539995915029525,0.9462491316414012,45.0,16.0,168.0,252.0,420.0,29.0,846.0,838.0,30.0,15.0,15.0,0.5,72.49223502790932,1495.818546705739,108.0,91.0,17.0,0.8425925925925926,90.41216821131232,3460.5651245785666,23.0,13.0,10.0,0.5652173913043478,2176.567441423659,31763.213962218208,18.0,4.0,14.0,0.2222222222222222,1956.4449669673631,33623.152748720284,81.0,40.0,41.0,0.4938271604938271,97.97832581502011,15625.215904102472,0.0,0.0,0.0,0.0,43941.0,43970.0,43986.0,44093.0,44107.0,44130.0,44137.0,44154.0,44326.0,44406.0,0.04258363910250403,-0.017405291172462003,0.050659592857355204,-0.0841000962783165,0.006211961184708094
51,51,44772.49018026096,2169.4569921461407,9.220287507568065,44892.32873009842,-4964.015928691166,28.027619409504627,44935.83412955189,42926.192496771095,11.558477496700652,44956.027373699,-24097.13739153235,9.857818556539383,45179.85564155062,17069.64182796601,31.06325485910162,0.9433756619150556,43.0,15.0,168.0,250.0,418.0,28.0,815.0,815.0,29.0,14.0,15.0,0.4827586206896552,85.35886524757055,1883.415483643397,106.0,90.0,16.0,0.8490566037735849,105.94487291570005,3366.7127906035366,23.0,14.0,9.0,0.6086956521739131,2207.2033986332244,28708.318157090835,18.0,4.0,14.0,0.2222222222222222,1966.9427269985065,34184.84761999801,83.0,42.0,41.0,0.5060240963855421,100.38076690178484,17062.403616656713,0.0,0.0,0.0,0.0,44759.0,44787.0,44802.0,44908.0,44922.0,44945.0,44952.0,44970.0,45139.0,45220.0,0.03934572824286739,-0.021342573117736536,0.05141856918242283,-0.08162557630972729,0.005880660409483591
52,52,45537.722882023154,3762.762179433036,11.449228724695088,45658.753390998565,-2904.0790262317587,25.47965400864057,45701.25275462676,42539.76899670824,11.02566604727686,45723.027373699,-22443.727870101044,8.301234749821715,45940.7803953108,18675.40994162584,35.68387161660911,0.9526276852075504,50.0,17.0,164.0,250.0,414.0,33.0,766.0,766.0,33.0,17.0,16.0,0.5151515151515151,111.80245250067232,3472.381178289865,104.0,90.0,14.0,0.8653846153846154,110.21739610893636,1198.2085982506906,23.0,13.0,10.0,0.5652173913043478,2227.0915582597786,34511.081989221726,17.0,5.0,12.0,0.2941176470588235,2039.9592017177783,33624.0154414976,90.0,45.0,45.0,0.5,123.12660852256823,19477.684457509735,0.0,0.0,0.0,0.0,45521.0,45554.0,45571.0,45673.0,45688.0,45711.0,45719.0,45735.0,45898.0,45985.0,0.029712867082532023,-0.03795261599748922,0.0523531653035566,-0.09089217323987249,0.0065929802294797234
53,53,46281.65765201386,4794.94494764413,20.349804600683683,46381.65770590734,-3977.303118508295,118.75302703847125,46444.90503026873,44445.82052981147,11.29583636228507,46466.027373699,-21724.587167720292,8.224236783315986,46685.12351886452,16678.096752399,33.09479879463317,0.953894657026054,41.0,13.0,170.0,249.0,419.0,28.0,742.0,743.0,29.0,15.0,14.0,0.5172413793103449,100.32264858115698,1994.011554094266,109.0,73.0,36.0,0.6697247706422018,53.27712925764883,3489.703377331047,23.0,13.0,10.0,0.5652173913043478,2259.786775691978,32024.2704369462,18.0,4.0,14.0,0.2222222222222222,2060.3636422610166,35561.76121908981,84.0,41.0,43.0,0.4880952380952381,92.60480757154951,16654.787216838424,0.0,0.0,0.0,0.0,46268.0,46296.0,46309.0,46417.0,46432.0,46455.0,46462.0,46479.0,46645.0,46728.0,0.02092258611445537,-0.013395290142640839,0.05084362823668099,-0.09484017469949578,0.005552480534580729
54,54,47029.06353749522,3611.427052990813,12.799312655312688,47157.027373699,-2768.269372817697,17.8357578060484,47195.36888744788,42451.33445433514,11.075279908740224,47217.027373699,-20613.891487291086,8.45576732321485,47433.9877761763,18461.96285673772,34.726380431728124,0.9593352189030858,52.0,17.0,165.0,249.0,414.0,35.0,750.0,751.0,37.0,18.0,19.0,0.4864864864864865,84.48333117241366,3381.9933311924533,104.0,94.0,10.0,0.903846153846154,207.5035669081815,135.70663179587496,24.0,13.0,11.0,0.5416666666666666,2184.7596601750406,35583.15771965225,17.0,4.0,13.0,0.2352941176470588,1956.2718811643144,31683.83845811701,89.0,44.0,45.0,0.4943820224719101,98.7562033704847,18795.160161475877,0.0,0.0,0.0,0.0,47012.0,47047.0,47064.0,47167.0,47182.0,47206.0,47213.0,47229.0,47391.0,47478.0,0.023393337296526193,-0.07495786679783006,0.05146504081102997,-0.09490065873153541,0.005349171382090799
55,55,47788.16936914643,4606.339688741539,17.429808697486997,47881.6407426221,-1601.000771507117,104.02547502727874,47952.9971336182,42805.37233138573,11.06419595787766,47974.45203459914,-19373.881952688014,7.7582891700140655,48192.59940105391,17621.08439242466,33.76562903418316,0.9598931746731988,55.0,18.0,163.0,249.0,412.0,37.0,760.0,758.0,37.0,20.0,17.0,0.5405405405405406,95.07223766939248,3398.5816066235443,100.0,59.0,41.0,0.59,44.72845606598298,1689.9786655592418,23.0,13.0,10.0,0.5652173913043478,2165.6980666378267,34418.26620496472,17.0,4.0,13.0,0.2352941176470588,1979.0292808899576,31392.646133892587,86.0,43.0,43.0,0.5,123.92615243323124,18300.805105767948,0.0,0.0,0.0,0.0,47768.0,47805.0,47823.0,47923.0,47940.0,47963.0,47971.0,47986.0,48151.0,48235.0,0.020639432628418768,-0.02793781043832817,0.050594071460742664,-0.10214934135156009,0.007032833489323016
56,56,48563.32873009842,2719.0218642606887,10.56124409522202,48682.47940829813,-4012.7447668498503,33.12355021123273,48729.133254349654,41954.82246939485,11.358310607725528,48750.027373699,-22624.534775312783,8.970670844504083,48969.796363780915,16836.91231196262,31.802294358254,0.9531922405256672,47.0,15.0,169.0,247.0,416.0,32.0,777.0,775.0,32.0,16.0,16.0,0.5,85.19179536528836,2468.852087585135,108.0,89.0,19.0,0.8240740740740741,55.46016355384193,2794.6665114553293,23.0,13.0,10.0,0.5652173913043478,2169.663699232418,31248.62307476592,17.0,4.0,13.0,0.2352941176470588,1972.7682803151376,32953.03851606759,82.0,41.0,41.0,0.5,109.60285388335214,17085.53608637774,0.0,0.0,0.0,0.0,48547.0,48579.0,48594.0,48701.0,48716.0,48739.0,48746.0,48763.0,48929.0,49010.0,0.03133178018355225,-0.01382100451840603,0.05171428626149333,-0.08719597109540407,0.0065096765875224845
57,57,49295.85657743372,4659.102306264957,17.209073048285514,49381.04118340246,-1131.717251992353,66.24710042150178,49461.381564897354,43503.31587618419,11.192835458311665,49482.45203460121,-21988.97438744694,8.333780912790072,49699.76138900105,17156.085146919646,33.24444235072147,0.9724228195621196,54.0,16.0,165.0,247.0,412.0,38.0,730.0,733.0,39.0,20.0,19.0,0.5128205128205128,97.33783544114772,3995.3349836989423,66.0,51.0,15.0,0.7727272727272727,53.43189913986483,974.2019775941158,23.0,13.0,10.0,0.5652173913043478,2221.3508936921576,35023.0456098617,18.0,4.0,14.0,0.2222222222222222,2072.337223083748,33376.249157495666,84.0,42.0,42.0,0.5,110.9369484077056,17659.566175171924,0.0,0.0,0.0,0.0,49276.0,49314.0,49330.0,49396.0,49448.0,49471.0,49479.0,49495.0,49658.0,49742.0,0.02089197211021969,-0.04721311709775532,0.051061645507997515,-0.09424437841297426,0.0064663323513304075
58,58,50062.5753415058,4488.438080651589,18.908976974049253,50174.26041870619,-3414.6974649340655,109.56251223714716,50228.61413365458,43079.63227622921,11.43162699732308,50250.027373699,-22511.444589883507,8.041492967018478,50469.0726118919,17342.937388098337,32.207534484660385,0.9590405597046964,46.0,18.0,169.0,247.0,416.0,28.0,766.0,767.0,28.0,15.0,13.0,0.5357142857142857,108.67119405014402,2455.3433060634225,110.0,84.0,26.0,0.7636363636363637,49.82212475722328,2543.541802470121,23.0,13.0,10.0,0.5652173913043478,2223.2848633997837,30610.398127831715,18.0,5.0,13.0,0.2777777777777778,2061.9403739898676,35162.81892762463,82.0,40.0,42.0,0.4878048780487805,106.85547500508424,17428.509244666257,0.0,0.0,0.0,0.0,50048.0,50076.0,50094.0,50199.0,50216.0,50239.0,50246.0,50263.0,50429.0,50510.0,0.024211360855927896,-0.014590494551523994,0.051608724260781676,-0.09159520464166435,0.006161325075094503
59,59,50869.63159257287,4908.23365200032,21.1450482900102,50960.191861603445,-1581.3858180297757,61.15116962073736,51041.05520885417,43398.21302678867,11.11547187107838,51062.452034599206,-20275.470550956303,8.098013154845923,51280.66543953245,17203.91440366988,34.54114233568244,0.9676840121256928,78.0,36.0,148.0,251.0,399.0,42.0,810.0,813.0,42.0,22.0,20.0,0.5238095238095238,96.87116791606542,4570.834070760247,91.0,39.0,52.0,0.4285714285714285,54.29629253509112,1221.589808258203,23.0,13.0,10.0,0.5652173913043478,2191.617594711881,35055.21865527149,17.0,4.0,13.0,0.2352941176470588,2020.789729951744,31883.441968974148,89.0,45.0,44.0,0.5056179775280899,102.5712381854611,17416.640681495257,0.0,0.0,0.0,0.0,50848.0,50890.0,50926.0,51011.0,51028.0,51051.0,51059.0,51074.0,51237.0,51325.0,0.019736462194823626,-0.03433462720864541,0.05050018058022454,-0.09966672412722044,0.005962087219149436
60,60,51763.27588522556,4656.425350853047,21.289006420480774,51862.83575780604,-2158.357748572664,91.5114265307162,51932.55634788085,43111.86073092116,11.101149866729957,51954.45203459914,-18385.050328841786,7.656819918475557,52175.937305653984,16729.622857876457,34.04426765249758,0.9667556171752496,59.0,21.0,163.0,253.0,416.0,38.0,892.0,891.0,39.0,20.0,19.0,0.5128205128205128,89.3270849683633,3700.5028865713584,103.0,63.0,40.0,0.6116504854368932,49.03884946615312,1818.8948433440792,24.0,14.0,10.0,0.5833333333333334,2162.9728614872065,34124.470911386394,17.0,4.0,13.0,0.2352941176470588,1946.0510501390188,30759.59265402752,85.0,42.0,43.0,0.4941176470588235,98.18491427094824,17223.714004676363,0.0,0.0,0.0,0.0,51744.0,51782.0,51803.0,51903.0,51919.0,51943.0,51951.0,51966.0,52134.0,52219.0,0.01918361795534825,-0.022720445439864092,0.05017117852989944,-0.10584964497410845,0.005868925743578368
61,61,52654.5902930647,4644.030081489432,16.46786867589154,52752.15740397891,-3407.9930692903913,128.10941034436098,52823.44314326504,42983.362608354175,11.102603563260008,52845.027373699,-20465.950253818737,7.783783565666881,53063.74342954674,16948.39486502128,33.975120987750984,0.9373557746703118,39.0,13.0,176.0,251.0,427.0,26.0,890.0,891.0,27.0,14.0,13.0,0.5185185185185185,109.17427317999812,1820.1075640529505,116.0,72.0,44.0,0.6206896551724138,51.62890856357788,3252.3260703611277,23.0,12.0,11.0,0.5217391304347826,2176.809149603067,34174.411141846664,18.0,5.0,13.0,0.2777777777777778,2018.3110139742855,33812.03279257467,87.0,42.0,45.0,0.4827586206896552,92.22917928942698,17151.53627952545,0.0,0.0,0.0,0.0,52642.0,52668.0,52681.0,52796.0,52811.0,52834.0,52841.0,52857.0,53022.0,53108.0,0.023508519812383253,-0.015149358438785792,0.050643063211159425,-0.09861799666974609,0.005441764841092589
62,62,53516.8844011313,5055.922139820019,17.15255439705139,53574.042088222785,-2404.5728460415357,99.37065063369818,53682.942548775725,43217.20133990534,10.918486527779452,53705.027373699,-20092.742208364416,7.742684929160203,53924.87072831109,16367.779724223885,33.639545988885715,0.9519191710262044,45.0,15.0,171.0,251.0,422.0,30.0,860.0,860.0,30.0,16.0,14.0,0.5333333333333333,116.89924200400596,2828.1989519969075,107.0,28.0,79.0,0.2616822429906542,55.07376800923112,2635.06063051855,23.0,13.0,10.0,0.5652173913043478,2211.6111677242325,35027.897427642514,17.0,5.0,12.0,0.2941176470588235,2006.592085790466,32355.928933228315,86.0,43.0,43.0,0.5,93.52295236042735,16638.642451977823,0.0,0.0,0.0,0.0,53501.0,53531.0,53546.0,53653.0,53670.0,53693.0,53701.0,53717.0,53883.0,53968.0,0.02312125044080828,-0.022903763593560847,0.0511743264060485,-0.0998665122451599,0.005713844756965775
63,63,54394.79795121843,5076.660078253513,18.423712040342807,54483.62575492814,-4591.504095302277,127.39827004320286,54558.74334517826,43674.172766699085,11.46013973493066,54580.027373699,-19269.394073531792,7.701461596850229,54802.55528337807,15564.65420138401,31.172439739735474,0.9282830759748498,36.0,14.0,174.0,251.0,425.0,22.0,878.0,876.0,24.0,13.0,11.0,0.5416666666666666,102.22065405177771,1244.2574673518443,112.0,65.0,47.0,0.5803571428571429,48.04261098080066,3798.333937889749,23.0,13.0,10.0,0.5652173913043478,2164.6144858447656,32375.862662592222,18.0,4.0,14.0,0.2222222222222222,1942.040191538264,32729.516517902302,80.0,39.0,41.0,0.4875,89.79090031580581,15342.88210733932,0.0,0.0,0.0,0.0,54383.0,54405.0,54419.0,54531.0,54546.0,54569.0,54576.0,54593.0,54765.0,54844.0,0.02013541432282461,-0.01046337103999421,0.04956280448419283,-0.10078366678928566,0.005768897860115749
64,64,55260.25461675993,4498.3097359105905,17.90374669604832,55307.78076469755,-977.2178801034833,38.718100258104386,55423.08741328633,43107.21028522707,10.943476089842296,55445.45203459914,-17609.64434608349,7.344791955558804,55664.4108511954,17540.858129200227,36.33702730611619,0.9588499073927608,60.0,19.0,158.0,254.0,412.0,41.0,866.0,864.0,41.0,22.0,19.0,0.5365853658536586,93.7597574662638,3917.758200017872,63.0,10.0,53.0,0.1587301587301587,43.33477817171836,1163.4276876352246,24.0,13.0,11.0,0.5416666666666666,2136.9332201848724,37773.420775029925,16.0,4.0,12.0,0.25,1912.4712976317232,29254.407542134977,91.0,45.0,46.0,0.4945054945054945,95.24427728084616,17902.828940117586,0.0,0.0,0.0,0.0,55238.0,55279.0,55298.0,55356.0,55410.0,55434.0,55442.0,55456.0,55620.0,55710.0,0.020843330711037413,-0.044345052473998316,0.049572524086932246,-0.10860362992266057,0.005429852780252138
65,65,55876.15067819971,560.404357256127,5.095930801728113,56195.50702770762,-5795.897025420448,135.04216624579502,56264.27833589374,43607.54186798555,11.53742741086068,56285.027373699,-21901.5379882841,8.108826735570586,56505.176942317594,15746.241880762977,30.140097392417072,0.885011895559225,245.0,238.0,179.0,248.0,427.0,7.0,617.0,841.0,4.0,1.0,3.0,0.25,54.227781170913346,3196.222311529631,119.0,77.0,42.0,0.6470588235294118,53.890970388700254,4855.3273046966215,22.0,12.0,10.0,0.5454545454545454,2186.4739710727927,30607.246136196223,20.0,5.0,15.0,0.25,2038.3138166043984,35999.87587829757,80.0,38.0,42.0,0.475,92.09607635991593,15081.683131169491,0.0,0.0,0.0,0.0,55875.0,55882.0,56120.0,56237.0,56252.0,56274.0,56281.0,56299.0,56468.0,56547.0,0.0967654524251479,-0.009298124199297843,0.0501398124593212,-0.09306715435668325,0.00584876550590962
66,66,56905.66926434108,4489.202679105408,16.524221103491005,56971.55452807776,-1972.624401167364,59.107032156173744,57066.52543457518,43388.821590234234,11.200243360196431,57087.81550645931,-21134.851628742013,7.947419072206976,57306.85371753983,17282.671029154924,35.276712306950365,0.962675371136497,51.0,16.0,163.0,252.0,415.0,35.0,1028.0,802.0,35.0,20.0,15.0,0.5714285714285714,105.08440696187508,3110.7122603316257,97.0,35.0,62.0,0.3608247422680412,42.90782591376199,2041.531363532279,24.0,14.0,10.0,0.5833333333333334,2239.3777445950573,33525.53620138322,16.0,4.0,12.0,0.25,2027.6836231159537,32077.682746856168,91.0,45.0,46.0,0.4945054945054945,97.6842515248156,17570.246342384973,0.0,0.0,0.0,0.0,56886.0,56921.0,56937.0,57034.0,57053.0,57077.0,57084.0,57100.0,57263.0,57352.0,0.023408256314864342,-0.021751645112151052,0.051611859057704546,-0.09594028189715025,0.005652150142765987
67,67,57724.58549148859,4161.333446827994,15.594186078311928,57810.59282080908,-3608.011307910934,122.17563227836892,57886.978490402726,43717.0149728406,11.40439549039244,57908.027373699,-19529.58026766758,7.67269027066776,58127.31392313862,16881.73001075581,35.119096307829906,0.9384489817917672,33.0,13.0,172.0,253.0,425.0,20.0,820.0,821.0,20.0,10.0,10.0,0.5,102.76480570066066,1155.2348059006604,111.0,64.0,47.0,0.5765765765765766,55.90167701836581,3420.1134198404334,23.0,13.0,10.0,0.5652173913043478,2169.65021416872,33682.35700602071,17.0,4.0,13.0,0.2352941176470588,1980.645442828967,32120.474827354697,91.0,45.0,46.0,0.4945054945054945,94.01453451569772,16856.707752355294,0.0,0.0,0.0,0.0,57715.0,57735.0,57748.0,57858.0,57874.0,57897.0,57904.0,57920.0,58084.0,58173.0,0.024695162503498458,-0.01549376436149068,0.0496294226748241,-0.10141771690342198,0.005569010667496666
68,68,58554.335881817504,3951.728248222931,16.29457609952625,58665.71245330532,-5252.415641756066,94.27471983196972,58714.41413496888,42792.197963646904,11.473209078725448,58736.027373699,-19820.819870361913,7.797864724591218,58957.66397121256,16218.503219524664,30.873981346734784,0.9455667328417277,41.0,18.0,169.0,249.0,418.0,23.0,829.0,827.0,23.0,15.0,8.0,0.6521739130434783,95.49068846190607,831.2052687159188,108.0,87.0,21.0,0.8055555555555556,54.43985923160126,4215.446745124402,23.0,12.0,11.0,0.5217391304347826,2111.1541195446484,32725.203062366443,19.0,5.0,14.0,0.2631578947368421,1943.5673841093287,33614.65837316612,81.0,40.0,41.0,0.4938271604938271,104.14440550245212,16314.11975279939,0.0,0.0,0.0,0.0,58539.0,58562.0,58580.0,58687.0,58702.0,58725.0,58732.0,58749.0,58918.0,58998.0,0.024164285209856643,-0.010364727954659756,0.04933502414010445,-0.09805686126109983,0.0064213327267511194
69,69,59372.41772181243,4838.449471215068,20.240565746890343,59469.65770590734,-4688.09639279425,129.9462354440669,59534.94481036631,43206.211127567374,11.31646640597559,59556.60271279886,-21555.349888971443,8.084141197124254,59776.885602595496,16181.26712217232,31.16870650598065,0.939669966299588,36.0,14.0,173.0,248.0,421.0,22.0,820.0,820.0,23.0,12.0,11.0,0.5217391304347826,106.51298922155208,1101.6432436300934,111.0,73.0,38.0,0.6576576576576577,36.06148306301654,3777.274017049092,23.0,13.0,10.0,0.5652173913043478,2209.961028173265,31193.984281667013,18.0,5.0,13.0,0.2777777777777778,1995.011183545831,35346.9226958694,81.0,39.0,42.0,0.4814814814814814,110.95033149053724,15999.540430265077,0.0,0.0,0.0,0.0,59361.0,59383.0,59397.0,59508.0,59522.0,59545.0,59552.0,59570.0,59739.0,59818.0,0.022013868255774866,-0.007692137712535979,0.051149151256246514,-0.09255294828531438,0.00685671465978755
70,70,60171.99614610666,4184.542953083641,17.88645514675936,60271.80838410242,-2566.585085764831,105.39743901820708,60336.54202755863,43423.80561378562,11.245368101350778,60358.027373699,-21032.478730859784,7.883532050917315,60576.98564798366,16752.901839979557,34.179471626426675,0.9585411760046898,48.0,13.0,168.0,251.0,419.0,35.0,800.0,802.0,35.0,18.0,17.0,0.5142857142857142,81.03015663905288,2324.9658603989487,106.0,71.0,35.0,0.6698113207547169,44.06486657533469,2319.207495547768,24.0,14.0,10.0,0.5833333333333334,2229.6878107977896,32329.09397676439,17.0,4.0,13.0,0.2352941176470588,2035.9450284039951,33472.72435899875,87.0,43.0,44.0,0.4942528735632184,101.91654193709904,16870.997074362855,0.0,0.0,0.0,0.0,60154.0,60189.0,60202.0,60307.0,60323.0,60347.0,60354.0,60370.0,60535.0,60621.0,0.01936415937117834,-0.017168675536896744,0.05134713043413997,-0.09680005169418127,0.0060835157342044935
71,71,61009.11627420805,4885.678987296803,18.838652360797763,61111.41154758763,-3764.233247811539,108.10913372956897,61171.56851382867,43842.76005972237,11.24186046895058,61193.027373699,-19820.29846523447,7.769841645565963,61412.54639837629,17134.47532003205,33.62916991678156,0.9481767463725989,50.0,20.0,164.0,250.0,414.0,30.0,836.0,836.0,31.0,18.0,13.0,0.5806451612903226,94.33943137229444,2217.2671785849643,105.0,72.0,33.0,0.6857142857142857,53.29630185543413,3648.6742496908664,23.0,13.0,10.0,0.5652173913043478,2206.617677440101,32345.39356681652,17.0,4.0,13.0,0.2352941176470588,1987.870894250234,33175.64218346874,85.0,42.0,43.0,0.4941176470588235,101.00438822641038,17362.890172060004,0.0,0.0,0.0,0.0,60992.0,61022.0,61042.0,61144.0,61159.0,61182.0,61189.0,61206.0,61372.0,61456.0,0.019309379846196465,-0.014158607702224534,0.05033026375242476,-0.10029470029106939,0.005894804850448228
72,72,61898.85296969461,4467.4854528553715,16.936172613757883,61978.43822489439,-2729.0644757171754,99.37065061745564,62063.879064872184,43789.5964810721,11.319514057197596,62085.027373699,-19800.33508185261,7.860603330537026,62304.153630400695,15484.40627643372,34.19379472977106,0.949347709644637,43.0,15.0,170.0,252.0,422.0,28.0,888.0,891.0,29.0,16.0,13.0,0.5517241379310345,108.5869602736954,2285.1217057076833,109.0,52.0,57.0,0.4770642201834862,51.502772375330416,2778.848821057814,23.0,13.0,10.0,0.5652173913043478,2183.455779713971,34244.18424774076,17.0,4.0,13.0,0.2352941176470588,1980.349490079833,31692.622554294063,89.0,44.0,45.0,0.4943820224719101,89.44489646250264,15739.026911051878,0.0,0.0,0.0,0.0,61884.0,61912.0,61927.0,62034.0,62051.0,62074.0,62081.0,62097.0,62262.0,62349.0,0.02430605794234709,-0.018871951481393975,0.04986243206551954,-0.10001595841147465,0.00577644985966508
73,73,62826.19827244502,3562.443319625541,13.144424643459384,62951.753390998565,-2228.042595419698,25.479654008636032,62994.86390698865,43133.29457301324,11.129717518766324,63016.45203459914,-19693.989146378255,8.053409570684437,63237.46054905593,17098.783345888834,35.42439938649014,0.9637814711612448,54.0,18.0,166.0,254.0,420.0,36.0,929.0,932.0,37.0,18.0,19.0,0.4864864864864865,97.74847726404352,3641.244340025234,106.0,92.0,14.0,0.8679245283018868,102.11198117894074,1003.2761728824784,23.0,13.0,10.0,0.5652173913043478,2192.8362375391907,35269.01459282451,17.0,4.0,13.0,0.2352941176470588,1979.195256223159,30946.46540467989,91.0,45.0,46.0,0.4945054945054945,98.7184860915544,17541.078395472057,0.0,0.0,0.0,0.0,62808.0,62844.0,62862.0,62966.0,62982.0,63005.0,63013.0,63028.0,63193.0,63282.0,0.027438605612486813,-0.045830354136342635,0.0508385983321376,-0.10049742799757433,0.0057734216578216304
74,74,63739.39728720114,2548.731410435211,9.384345188501252,63861.89050520403,-5065.113555491364,71.3430312241936,63904.907820274435,45097.12954121192,11.678057024422992,63925.039127814176,-22978.918298018845,8.327525868376336,64149.87001164996,15138.725078197134,29.88962903153313,0.9343627140533096,34.0,15.0,176.0,252.0,428.0,19.0,909.0,909.0,20.0,12.0,8.0,0.6,111.92136237698612,831.3119184501597,117.0,101.0,16.0,0.8632478632478633,102.0325892863664,3160.4936456566816,22.0,13.0,9.0,0.5909090909090909,2277.807773162501,30893.76904618884,19.0,4.0,15.0,0.2105263157894736,2089.34074377377,35041.948420809815,80.0,40.0,40.0,0.5,94.1673655515681,15158.789877430398,0.0,0.0,0.0,0.0,63728.0,63747.0,63762.0,63878.0,63892.0,63914.0,63921.0,63938.0,64111.0,64190.0,0.04391257624037948,-0.020144185943422203,0.05050893030965376,-0.09092424267655388,0.006220296957977551
75,75,64612.50862105443,2664.788714055983,10.110268486344395,64735.178051898714,-3848.83211875442,22.93168860777651,64776.97748630895,42590.7692975043,11.319229578827104,64798.027373699,-22483.665760588596,8.880337342135286,65020.59442490004,17139.329941885855,32.95004369254364,0.9541953183736568,50.0,20.0,163.0,251.0,414.0,30.0,875.0,872.0,30.0,15.0,15.0,0.5,92.6706885777176,2449.0683745320603,104.0,90.0,14.0,0.8653846153846154,130.67685609919948,1830.4528756051373,23.0,13.0,10.0,0.5652173913043478,2218.820091054669,32485.144746275942,17.0,4.0,13.0,0.2352941176470588,1980.3499660943708,33084.950056093076,83.0,41.0,42.0,0.4939759036144578,98.65236693174288,17526.495158695263,0.0,0.0,0.0,0.0,64598.0,64628.0,64648.0,64748.0,64764.0,64787.0,64794.0,64811.0,64980.0,65062.0,0.03477599859565104,-0.033952339844194046,0.052096267046875935,-0.08807949678587143,0.005755905701462217
76,76,65499.87080329321,4475.300986918626,15.287792405172624,65592.12762652038,-4774.380364351255,119.75437383324432,65660.33803294206,44555.103984238056,11.408112937941295,65681.45203459915,-19176.894698108434,7.748029562061859,65904.5017820553,16508.752518224563,31.94391574586263,0.9311392074797324,33.0,16.0,172.0,252.0,424.0,17.0,889.0,884.0,17.0,11.0,6.0,0.6470588235294118,102.4911226142712,353.60510313202076,112.0,71.0,41.0,0.6339285714285714,55.1518918742547,4353.519329783386,23.0,12.0,11.0,0.5217391304347826,2180.080975591944,34642.96527410171,19.0,4.0,15.0,0.2105263157894736,1995.0455461237211,32952.07181038555,82.0,40.0,42.0,0.4878048780487805,100.2585502180135,16548.245922111826,0.0,0.0,0.0,0.0,65489.0,65506.0,65522.0,65633.0,65648.0,65671.0,65678.0,65694.0,65866.0,65946.0,0.02290150381256017,-0.011551633440447255,0.04892999411163255,-0.1040338166074671,0.0060730542848307124
77,77,66403.53447272691,5108.624404964465,19.725877915994907,66487.78722094109,-3245.366767281708,117.206408439647,66566.55948821882,43776.527040721405,11.152575545028384,66588.027373699,-18781.045450940208,7.613638993424281,66810.59215243795,16161.040630070123,32.76402289916283,0.9475027490490244,47.0,16.0,165.0,254.0,419.0,31.0,904.0,906.0,31.0,16.0,15.0,0.5161290322580645,94.95639604680518,2590.680982407882,104.0,54.0,50.0,0.5192307692307693,48.141346653017145,3086.040300304523,23.0,13.0,10.0,0.5652173913043478,2212.8589254987746,33617.68423600194,17.0,4.0,13.0,0.2352941176470588,1956.7019971493833,31755.319851115804,86.0,43.0,43.0,0.5,89.3132048734183,16212.475464548212,0.0,0.0,0.0,0.0,66388.0,66419.0,66435.0,66538.0,66554.0,66577.0,66584.0,66600.0,66769.0,66854.0,0.018587468664662123,-0.014833869360577675,0.05054898309864437,-0.10418493487280431,0.0055264513540815696
78,78,67275.21251829402,4386.6630865171865,17.629814965362044,67374.65770590733,-3308.689692467466,129.94623544063535,67439.80862750071,43633.56273838797,11.25909570814238,67461.027373699,-21266.628464546407,7.985661039394768,67681.95673226024,16807.67830309487,32.589672340583164,0.9487743564309704,39.0,13.0,172.0,250.0,422.0,26.0,875.0,873.0,29.0,14.0,15.0,0.4827586206896552,92.45850333707104,1676.0933076764672,112.0,75.0,37.0,0.6696428571428571,50.69345149454166,2491.6478152371437,23.0,13.0,10.0,0.5652173913043478,2243.273189335478,32118.704118007943,18.0,4.0,14.0,0.2222222222222222,2046.8003993310033,34431.15592870182,84.0,41.0,43.0,0.4880952380952381,103.40669399197424,17002.816197745648,0.0,0.0,0.0,0.0,67263.0,67289.0,67302.0,67411.0,67427.0,67450.0,67457.0,67474.0,67643.0,67724.0,0.021077183616232297,-0.015321307286673008,0.05141164389406803,-0.09624470577191979,0.006152348475930403
79,79,68101.12030992727,4867.115150063163,19.12442339682177,68146.68483389584,-2439.423063879918,73.89099662505737,68262.98076001284,43814.18355329608,10.920996618755414,68285.027373699,-20343.88180088865,7.844605160324888,68503.85696073817,17460.696851123685,34.50911711229534,0.9490231520184932,49.0,13.0,166.0,253.0,419.0,36.0,823.0,824.0,36.0,20.0,16.0,0.5555555555555556,90.34307197773708,2539.151686009576,102.0,17.0,85.0,0.1666666666666666,57.71469338826091,2367.4044791047454,24.0,13.0,11.0,0.5416666666666666,2239.409421096823,36042.63268680315,16.0,4.0,12.0,0.25,2019.7233563379607,32186.37945988936,91.0,46.0,45.0,0.5054945054945055,96.9716960494455,17845.615408499874,0.0,0.0,0.0,0.0,68081.0,68117.0,68130.0,68232.0,68250.0,68274.0,68281.0,68296.0,68461.0,68549.0,0.01856193436815742,-0.023659157053498265,0.05111151776622242,-0.09927915311864112,0.005553712825797378
80,80,68920.76738927244,4211.193386933453,17.962877875362818,69028.38372318486,-3539.1732537336165,122.30233913094386,69084.74582151951,43921.86241294546,11.273515293921132,69106.45203459915,-18958.902083637793,7.501987580141345,69327.44844463433,16465.169908524418,32.88410333708943,0.9478987085481858,42.0,14.0,170.0,251.0,421.0,28.0,819.0,822.0,28.0,14.0,14.0,0.5,82.06653610291166,1720.5102927874275,109.0,80.0,29.0,0.7339449541284404,46.97704578414248,3329.063089269098,23.0,13.0,10.0,0.5652173913043478,2187.4705784611074,33875.1154496314,18.0,4.0,14.0,0.2222222222222222,1985.518167868047,32781.94260423491,86.0,42.0,44.0,0.4883720930232558,98.2854933917232,16553.125434952675,0.0,0.0,0.0,0.0,68907.0,68935.0,68949.0,69056.0,69072.0,69095.0,69103.0,69119.0,69286.0,69370.0,0.019487714897527333,-0.013273451853362789,0.0498036845044252,-0.10472748680851196,0.005969297246112134
81,81,69741.88879755774,4333.6062411473395,16.649643259816276,69812.13612791742,-1915.5509704911208,51.80397978213382,69904.32720761109,42275.13180443123,10.776366500070402,69927.027373699,-18587.00728169232,7.5676169898991,70146.54490704514,18142.315416263977,35.193318398217116,0.9654471678335445,54.0,17.0,163.0,252.0,415.0,37.0,823.0,820.0,37.0,21.0,16.0,0.5675675675675675,105.40719938606294,3134.533031038911,98.0,38.0,60.0,0.3877551020408163,52.03161546453609,1881.4325287143529,24.0,13.0,11.0,0.5416666666666666,2122.939124805648,36952.30482846941,16.0,5.0,11.0,0.3125,1908.1546472158816,30064.740980492163,88.0,44.0,44.0,0.5,105.83502434861462,18581.61670012494,0.0,0.0,0.0,0.0,69721.0,69758.0,69775.0,69872.0,69891.0,69915.0,69923.0,69938.0,70103.0,70190.0,0.02432320647529711,-0.027162741303195865,0.05021720889308083,-0.10266067141940383,0.005833600724069491
82,82,70572.80706130154,4850.081388813718,17.0078108935542,70661.68507960632,-3720.5563002263607,112.110477637075,70735.31242212786,42853.102207600394,11.30299602207177,70757.027373699,-20676.67261506122,7.893026601096711,70978.64785276564,17184.880346506314,32.95093054564951,0.949357691451883,41.0,15.0,170.0,252.0,422.0,26.0,830.0,830.0,26.0,15.0,11.0,0.5769230769230769,106.67606168970336,1793.09799529162,110.0,65.0,45.0,0.5909090909090909,44.69518324288762,3219.463065118423,24.0,13.0,11.0,0.5416666666666666,2146.920183584276,33497.95968520049,18.0,5.0,13.0,0.2777777777777778,1991.0400097029703,33525.910204733686,84.0,41.0,43.0,0.4880952380952381,99.26146084520472,17315.48728128266,0.0,0.0,0.0,0.0,70558.0,70584.0,70599.0,70706.0,70722.0,70746.0,70753.0,70769.0,70938.0,71021.0,0.021994695168568144,-0.012013037738514625,0.050099527758424446,-0.09629402403231287,0.005776092637466899
83,83,71364.48878531472,4364.016035334521,15.889078904677689,71419.32830714076,-1938.151239799519,63.69913502160141,71528.77661116696,42937.62035329425,11.09240817948448,71550.24718723922,-22386.42650439885,8.219049918387975,71769.28035873534,18575.40500503127,34.78216767577717,0.9582815395352812,46.0,14.0,169.0,251.0,420.0,32.0,787.0,793.0,32.0,17.0,15.0,0.53125,95.71129989076668,2787.068636985783,104.0,27.0,77.0,0.2596153846153846,49.11917287769252,1865.7296282247744,24.0,14.0,10.0,0.5833333333333334,2247.4284566184892,33202.30756181443,17.0,4.0,13.0,0.2352941176470588,2085.9594811936577,33682.7526440648,88.0,43.0,45.0,0.4886363636363636,96.26200899245408,18856.626133513048,0.0,0.0,0.0,0.0,71347.0,71379.0,71393.0,71495.0,71515.0,71539.0,71546.0,71562.0,71727.0,71813.0,0.021931931302683675,-0.02534331267294361,0.05234170962727939,-0.09317965423305834,0.005182229349313294
84,84,72164.56862859924,1942.8184398767155,8.683450861593393,72286.47940829814,-4385.2975452924165,33.12355021123273,72333.03550800237,42541.34067354409,11.211238212411049,72355.027373699,-21595.28410355711,8.446079506848259,72575.50280997063,16827.959365633524,32.035142186944114,0.9519491011397668,42.0,14.0,174.0,251.0,425.0,28.0,805.0,805.0,28.0,14.0,14.0,0.5,85.03983749834723,1690.2280034875298,114.0,94.0,20.0,0.8245614035087719,66.57936096740279,3456.315815156221,23.0,13.0,10.0,0.5652173913043478,2187.7384503557073,33672.431523040825,17.0,5.0,12.0,0.2941176470588235,1969.6408230898296,32758.317120518142,85.0,43.0,42.0,0.5058823529411764,94.4010780448781,16788.270953751904,0.0,0.0,0.0,0.0,72151.0,72179.0,72193.0,72305.0,72320.0,72343.0,72351.0,72367.0,72534.0,72618.0,0.04377137654908379,-0.01518240445026934,0.05142617547350203,-0.09120698823153692,0.005609775730601438
85,85,73000.05309986824,4736.4089195971155,16.519662904310266,73103.01514065506,-2808.225890135894,124.8503046419164,73163.66016534218,43647.19595213102,11.349632583294811,73185.027373699,-19619.930728476967,7.840709455298331,73404.94148571626,16926.506226314603,33.104980526911234,0.9513822134644304,46.0,15.0,168.0,251.0,419.0,31.0,834.0,830.0,31.0,17.0,14.0,0.5483870967741935,99.44672577245252,2542.9221269847267,109.0,77.0,32.0,0.7064220183486238,36.57885734786344,2252.36905073634,23.0,13.0,10.0,0.5652173913043478,2197.741495556156,33231.07391563194,17.0,4.0,13.0,0.2352941176470588,1977.546765698379,32298.806831928316,86.0,42.0,44.0,0.4883720930232558,101.97343843185264,17010.416791808057,0.0,0.0,0.0,0.0,72983.0,73014.0,73029.0,73134.0,73151.0,73174.0,73181.0,73197.0,73365.0,73448.0,0.020996228885767656,-0.013025610751738114,0.05035240976227831,-0.10079274963127709,0.006024482375064547
86,86,73865.29339883666,4910.083183369902,20.494968854407983,73974.65770590733,-2475.9142790479837,129.9462354423486,74033.8883474225,43128.665156787734,11.119316916721573,74056.027373699,-19366.8714432388,7.629973822932875,74277.1302332767,16386.643364450483,32.917052367620286,0.9570952530185224,53.0,18.0,168.0,252.0,420.0,35.0,867.0,871.0,36.0,18.0,18.0,0.5,96.19470599315324,3463.952368331753,107.0,77.0,30.0,0.719626168224299,44.38608795903515,2036.2187041126344,23.0,13.0,10.0,0.5652173913043478,2164.1248695108684,34237.40542714367,17.0,5.0,12.0,0.2941176470588235,1955.6173422751297,32176.10699587058,85.0,41.0,44.0,0.4823529411764706,93.77895257244516,16478.690455094973,0.0,0.0,0.0,0.0,73847.0,73882.0,73900.0,74004.0,74021.0,74044.0,74052.0,74068.0,74237.0,74320.0,0.019591257907596714,-0.01792715052158514,0.05017834105561858,-0.10097745255379688,0.005722889702713072
87,87,74697.1169507497,4195.503004588575,16.7128207094975,74783.15957011438,-1376.4176648127354,84.04439720504314,74863.04452955807,42556.3324831082,10.974281213422564,74885.027373699,-20521.28290991689,7.773999397734966,75103.71599909196,17878.937961737152,34.97057514153479,0.9587360642182372,52.0,16.0,167.0,251.0,418.0,36.0,830.0,829.0,36.0,19.0,17.0,0.5277777777777778,102.8583221466531,3404.9611121027356,105.0,54.0,51.0,0.5142857142857142,52.50449525624857,1204.5774219213436,24.0,13.0,11.0,0.5416666666666666,2182.9879993024547,34735.787025490805,16.0,4.0,12.0,0.25,2003.985162784701,32260.868723859927,89.0,44.0,45.0,0.4943820224719101,102.99521507257826,18233.173410964337,0.0,0.0,0.0,0.0,74678.0,74714.0,74730.0,74833.0,74850.0,74874.0,74881.0,74897.0,75061.0,75148.0,0.024516326655983346,-0.03814575807801182,0.05129643162199054,-0.09765399032709975,0.0057607009595871455
88,88,75524.0281718078,4418.60109684119,16.862648753354936,75609.40116537425,-3998.6597241623663,135.04216624551088,75687.34453094954,44566.59470199631,11.510543835306976,75708.45203459915,-20846.608791669743,7.82504379858958,75928.9560344965,15823.115450303763,31.54271019452553,0.9353123837337596,34.0,13.0,174.0,250.0,424.0,21.0,824.0,824.0,22.0,12.0,10.0,0.5454545454545454,75.05018978647534,707.2247524994364,112.0,62.0,50.0,0.5535714285714286,59.94404427536371,3562.1042243871884,23.0,13.0,10.0,0.5652173913043478,2208.807972667893,34698.65524012789,18.0,4.0,14.0,0.2222222222222222,2053.1986636608217,34202.80073285484,82.0,39.0,43.0,0.4756097560975609,93.12830327463344,15887.887168654112,0.0,0.0,0.0,0.0,75513.0,75534.0,75547.0,75658.0,75674.0,75697.0,75705.0,75721.0,75891.0,75971.0,0.016985056614440237,-0.014991034099036947,0.04956196423436749,-0.09849077536684409,0.005885585779053746
89,89,76354.75332668365,4419.366014128429,17.635992341084737,76430.48094866883,-2015.026757742581,92.00688386521696,76516.69742255389,43530.29750699148,11.122613402888003,76538.45203459915,-18432.31017558337,7.490715814746649,76758.13832792471,17390.381831046976,35.124391316003255,0.9587714089773702,48.0,14.0,164.0,253.0,417.0,34.0,835.0,830.0,34.0,17.0,17.0,0.5,98.32914077325556,3054.109030741484,99.0,44.0,55.0,0.4444444444444444,50.39194155509405,2150.5404841780382,23.0,13.0,10.0,0.5652173913043478,2176.856537929989,35280.58715273978,17.0,4.0,13.0,0.2352941176470588,1962.5777009499664,30544.253630805502,90.0,44.0,46.0,0.4888888888888889,104.13667718390474,17815.487559587076,0.0,0.0,0.0,0.0,76338.0,76372.0,76386.0,76485.0,76504.0,76527.0,76535.0,76550.0,76715.0,76803.0,0.02224960332746906,-0.025008075630493242,0.05000784884551639,-0.10647486301254433,0.005988176579193331
90,90,77164.44968386303,4251.546667124675,17.535737380844722,77264.50702770762,-4371.233179509189,132.99709976425916,77327.3639106177,42743.27782847434,11.387087860237417,77348.60271279886,-20460.520536105934,7.695239271287954,77569.15923289559,16626.07699468078,33.349469510044315,0.9396238408739084,32.0,14.0,172.0,252.0,424.0,18.0,811.0,810.0,19.0,8.0,11.0,0.4210526315789473,90.76240042874936,856.7139927594876,111.0,77.0,34.0,0.6936936936936937,52.69229295578381,3896.271739219681,22.0,12.0,10.0,0.5454545454545454,2147.728996736956,32848.59656407055,18.0,5.0,13.0,0.2777777777777778,1978.177530337076,33522.30588181976,86.0,42.0,44.0,0.4883720930232558,88.59481302700637,16539.715641459,0.0,0.0,0.0,0.0,77157.0,77175.0,77189.0,77299.0,77315.0,77337.0,77344.0,77361.0,77528.0,77613.0,0.021348089891750396,-0.012054331304673208,0.050247175833253506,-0.09668265901868225,0.005328666110192483
91,91,77967.15869669651,4332.692806375931,21.777975050956275,78066.26041870618,-2160.090086445375,89.31867979285079,78134.52676838859,42653.61203780083,11.16269985794975,78156.027373699,-21448.93353485577,8.046981055233442,78375.14833790997,16560.859913564258,33.98637237390005,0.9662168054643544,58.0,19.0,163.0,251.0,414.0,39.0,803.0,807.0,41.0,21.0,20.0,0.5121951219512195,84.84948612499221,3160.2186993657124,101.0,62.0,39.0,0.6138613861386139,42.18585163947294,1911.126371238352,24.0,14.0,10.0,0.5833333333333334,2226.659110643212,31664.32032834614,17.0,4.0,13.0,0.2352941176470588,2027.4871892306012,33351.87247485034,89.0,44.0,45.0,0.4943820224719101,92.01957393311476,16811.83472531805,0.0,0.0,0.0,0.0,77947.0,77986.0,78005.0,78105.0,78121.0,78145.0,78152.0,78168.0,78331.0,78419.0,0.019583545364704576,-0.019529672352181202,0.052203295436501,-0.09452624700131669,0.005556449025798814
92,92,78799.60289830284,4262.513554615913,15.022691375680068,78908.60606582386,-3208.959868942081,109.56251223715324,78964.4408354352,43673.37811957279,11.31421314486929,78986.027373699,-19625.334810137785,7.497834954514394,79206.18994192021,16206.246140607942,34.0326385467531,0.951423385255733,39.0,13.0,173.0,252.0,425.0,26.0,828.0,830.0,26.0,14.0,12.0,0.5384615384615384,102.0236976838112,2007.970520782812,113.0,86.0,27.0,0.7610619469026548,53.07284220185432,2432.248720573371,23.0,12.0,11.0,0.5217391304347826,2152.9517581527884,35612.960489477264,17.0,4.0,13.0,0.2352941176470588,1999.3964650053515,32382.184974638785,88.0,43.0,45.0,0.4886363636363636,103.1037722979337,16356.626953996672,0.0,0.0,0.0,0.0,78786.0,78812.0,78825.0,78935.0,78952.0,78975.0,78982.0,78998.0,79164.0,79250.0,0.023935102229370946,-0.016538954792024618,0.04929666196780677,-0.10187833656588273,0.0063619774377970785
93,93,79651.390588316,5339.21789925146,19.40865438097996,79696.80813841116,-2490.622424848654,61.15116962073376,79816.98671117202,43391.04288944366,11.087272826940795,79838.45203459915,-19169.77419236694,7.703570813196735,80059.48797661994,16438.6372311605,33.881857020350076,0.9563702447916228,52.0,15.0,167.0,254.0,421.0,37.0,856.0,853.0,38.0,21.0,17.0,0.5526315789473685,96.36676579850013,3206.601979526562,100.0,14.0,86.0,0.14,63.43438064320337,2895.944422855255,24.0,13.0,11.0,0.5416666666666666,2187.0588221318485,36242.31631813575,17.0,4.0,13.0,0.2352941176470588,1998.7995166773571,30424.69807873796,89.0,44.0,45.0,0.4943820224719101,94.79929633666708,16489.52832267644,0.0,0.0,0.0,0.0,79631.0,79668.0,79683.0,79783.0,79804.0,79828.0,79835.0,79850.0,80017.0,80104.0,0.018048854273583853,-0.02546928832340295,0.05040346293829053,-0.10426828697195835,0.00576685859074552
94,94,80511.23585316632,4524.791120998615,17.856065221418877,80602.10974050646,-3045.172496031034,114.65844303864608,80675.15078327661,43032.40210015149,11.159566709437794,80697.027373699,-20409.077439368823,7.825276161665076,80917.21482900393,16020.17510275298,33.37290236117319,0.9435790554119116,43.0,13.0,171.0,252.0,423.0,30.0,857.0,858.0,30.0,16.0,14.0,0.5333333333333333,89.08275117728871,2062.1447161232163,108.0,64.0,44.0,0.5925925925925926,48.624500320577134,2646.154224611456,23.0,13.0,10.0,0.5652173913043478,2180.3932557448234,34052.370861201816,18.0,5.0,13.0,0.2777777777777778,1981.437439887484,33257.20547916376,88.0,43.0,45.0,0.4886363636363636,94.54826804339986,16035.07288007985,0.0,0.0,0.0,0.0,80495.0,80525.0,80538.0,80646.0,80662.0,80685.0,80693.0,80709.0,80875.0,80961.0,0.019687704646491676,-0.015967732660121067,0.05066863919588508,-0.09708608562900149,0.005901824882497835
95,95,81352.6222596158,4787.182722484801,18.527124369607147,81434.98643600574,-3869.525731366177,101.91861603453609,81513.71959519513,43161.78646355141,11.071072849628663,81535.60271279886,-20750.35547648087,7.986998866111405,81756.4136041443,16455.755438516066,32.749463909397704,0.946268579962172,40.0,14.0,170.0,251.0,421.0,26.0,843.0,839.0,27.0,16.0,11.0,0.5925925925925926,100.64790009444624,1627.9727529099205,110.0,59.0,51.0,0.5363636363636364,43.377608163039255,3168.6340750288537,23.0,13.0,10.0,0.5652173913043478,2218.0696394767424,32313.063301032405,17.0,5.0,12.0,0.2941176470588235,1980.2943571914548,33688.00997052622,86.0,42.0,44.0,0.4883720930232558,97.27769309651256,16625.28894090255,0.0,0.0,0.0,0.0,81338.0,81364.0,81378.0,81486.0,81501.0,81524.0,81531.0,81548.0,81715.0,81799.0,0.021024453405907317,-0.011210058072859573,0.05138966250504536,-0.09543423771395074,0.005911469300815326
96,96,82149.93996519309,4892.604155387327,17.53875077969211,82218.7241075211,-3029.004455620056,91.72675443110604,82308.02410315556,43846.069575706584,11.266552109324872,82329.04525665831,-20968.20704494494,8.097119992233694,82550.42846791107,16521.74554840982,33.14147435700011,0.9576275588703184,44.0,13.0,164.0,252.0,416.0,31.0,796.0,794.0,31.0,17.0,14.0,0.5483870967741935,89.7746323676478,2306.918297861797,102.0,42.0,60.0,0.4117647058823529,44.38679444799348,2610.720087194839,23.0,13.0,10.0,0.5652173913043478,2217.775075702288,33816.55676569226,17.0,4.0,13.0,0.2352941176470588,2022.56864132542,32864.84687041365,85.0,42.0,43.0,0.4941176470588235,101.5612304862391,16781.2773600413,0.0,0.0,0.0,0.0,82133.0,82164.0,82177.0,82279.0,82295.0,82318.0,82325.0,82341.0,82509.0,82593.0,0.018349048792102966,-0.014653921807753574,0.050580932274282384,-0.09645882630737497,0.0061471247204877896
97,97,82875.05026204589,3824.882242474651,14.525914741206549,82995.60271279886,-1540.5225924901522,20.38372320691232,83037.95558528778,42900.22605189924,10.988315658670103,83060.027373699,-19570.13064949058,7.873664640216265,83277.93087200148,17871.64947319911,37.048407334159485,0.9650911783842386,55.0,16.0,160.0,253.0,413.0,39.0,725.0,730.0,39.0,19.0,20.0,0.4871794871794871,96.75046624626114,3945.867035826989,99.0,87.0,12.0,0.8787878787878788,120.05787889792508,11.875103686104351,24.0,13.0,11.0,0.5416666666666666,2202.253028923522,36186.47828825109,16.0,4.0,12.0,0.25,1962.6692453690664,30826.8706123137,91.0,45.0,46.0,0.4945054945054945,110.77800594123303,18584.868736172142,0.0,0.0,0.0,0.0,82856.0,82895.0,82911.0,83007.0,83025.0,83049.0,83056.0,83071.0,83234.0,83324.0,0.02529501828105035,-0.07793321531484944,0.051334298944236585,-0.10028902108633371,0.006198532827501973
98,98,0.0,0.0,0.0,0.0,0.0,0.0,0.0,0.0,0.0,0.0,0.0,0.0,0.0,0.0,0.0,0.0,0.0,0.0,0.0,0.0,0.0,0.0,0.0,0.0,0.0,0.0,0.0,0.0,0.0,0.0,0.0,0.0,0.0,0.0,0.0,0.0,0.0,0.0,0.0,0.0,0.0,0.0,0.0,0.0,0.0,0.0,0.0,0.0,0.0,0.0,0.0,0.0,0.0,0.0,0.0,0.0,0.0,0.0,,83357.0,83613.0,83728.0,83741.0,83763.0,83770.0,83789.0,83956.0,84034.0,,,,,
99,99,84307.39268402796,3055.629861031076,9.909752693297149,84431.17805189872,-4265.637426380409,22.93168860777651,84471.51087546712,43416.287250190435,11.351517031820803,84492.027373699,-25847.34875200299,9.236774645987634,84708.87844264397,15661.384163960722,32.78342552597217,0.9487987791444074,46.0,17.0,166.0,247.0,413.0,29.0,1435.0,1433.0,30.0,15.0,15.0,0.5,115.9315666817194,2701.678964149372,106.0,93.0,13.0,0.8773584905660378,164.7940393719941,1792.2865356086843,23.0,14.0,9.0,0.6086956521739131,2347.1135816806327,29122.864877006585,18.0,5.0,13.0,0.2777777777777778,2128.6264491484594,36334.832242974066,85.0,42.0,43.0,0.4941176470588235,95.58463202076928,15903.748282505729,0.0,0.0,0.0,0.0,84293.0,84322.0,84339.0,84444.0,84458.0,84481.0,84488.0,84505.0,84667.0,84752.0,0.03794031736638418,-0.03863292232781947,0.05406067009265832,-0.08235376361312514,0.00610320460950855
100,100,85041.9163358592,5099.02409911612,18.166636858906156,85140.65770590733,-4003.0952295294032,129.9462354439947,85204.48220106337,44238.74760765596,11.424486494586109,85226.027373699,-20408.91423733771,7.900334733669027,85444.8995654175,15717.35988697345,33.11151562522243,0.9468226850038703,41.0,14.0,171.0,249.0,420.0,27.0,731.0,733.0,27.0,15.0,12.0,0.5555555555555556,111.2083519339157,1768.2483697260627,109.0,74.0,35.0,0.6788990825688074,42.795344601326015,3181.1015854343964,23.0,12.0,11.0,0.5217391304347826,2184.4710773403526,34878.12421909664,17.0,4.0,13.0,0.2352941176470588,1997.601257717942,34135.95071178151,85.0,41.0,44.0,0.4823529411764706,96.83418134259476,15657.59845443815,0.0,0.0,0.0,0.0,85027.0,85054.0,85068.0,85176.0,85192.0,85215.0,85222.0,85239.0,85405.0,85488.0,0.02180973256298061,-0.010690563713208732,0.04937913470593611,-0.09787885991815132,0.0061609699109104795
101,101,85797.1588361467,3927.1589979209457,12.88311004038668,85924.17805189872,-4940.065726678226,22.93168860777651,85964.47342413788,41189.51847788563,11.28811269436672,85986.027373699,-21880.300520819,8.65022848900075,86206.47392117078,15928.741799312236,32.52883216992948,0.9519534236512076,51.0,13.0,168.0,250.0,418.0,38.0,760.0,760.0,39.0,19.0,20.0,0.4871794871794871,87.00508961253664,3787.149359265251,107.0,94.0,13.0,0.8785046728971962,169.63934447021862,2378.182835846203,23.0,12.0,11.0,0.5217391304347826,2149.880559613415,33739.63826445314,18.0,5.0,13.0,0.2777777777777778,1936.7399065579864,32318.446272661276,85.0,42.0,43.0,0.4941176470588235,98.61065366520252,16080.143406953528,0.0,0.0,0.0,0.0,85779.0,85817.0,85830.0,85937.0,85952.0,85975.0,85982.0,85998.0,86165.0,86248.0,0.02215471531929252,-0.03433949138654206,0.05219484565636938,-0.08851523335866378,0.006190737153480653
102,102,86588.06912423491,4112.682359151621,14.261154586808464,86702.1644878875,-1199.05288702923,78.98692741590534,86752.78514848661,42580.28124196335,11.43176134980758,86774.027373699,-20410.397257674744,7.93525975588643,86994.41981979186,17009.64939957108,33.84733271081809,0.9698778696843544,48.0,11.0,169.0,252.0,421.0,37.0,790.0,789.0,37.0,19.0,18.0,0.5135135135135135,100.27826276382828,3292.7336919715253,106.0,87.0,19.0,0.8207547169811321,52.89221991036776,769.1474550253733,24.0,14.0,10.0,0.5833333333333334,2156.054733668275,33591.022383334304,17.0,4.0,13.0,0.2352941176470588,1972.465644854184,31069.83528525305,87.0,43.0,44.0,0.4942528735632184,101.66692053352992,17308.554218821806,0.0,0.0,0.0,0.0,86569.0,86606.0,86617.0,86720.0,86739.0,86763.0,86770.0,86786.0,86952.0,87038.0,0.02438269090747724,-0.044111665534131164,0.050635051502277505,-0.09664023781371991,0.00597701446662937
103,103,87376.56693673338,4544.31850743072,17.81980644872272,87469.26041870618,-2110.961745523351,94.1543842031362,87540.89047286563,42775.24618761927,11.087137149013358,87562.23597354881,-22189.716157568724,8.230486842490773,87781.58352935435,17019.93735641453,33.98618882599496,0.9664218723591692,51.0,14.0,167.0,250.0,417.0,37.0,783.0,787.0,37.0,20.0,17.0,0.5405405405405406,82.32592251526579,2900.956623223863,106.0,62.0,44.0,0.5849056603773585,46.74772904959525,1512.6931685763088,23.0,13.0,10.0,0.5652173913043478,2226.374292445061,32149.626222949824,17.0,4.0,13.0,0.2352941176470588,2079.0133956045765,34319.40278599032,86.0,43.0,43.0,0.5,91.35416305826008,17353.719886087387,0.0,0.0,0.0,0.0,87357.0,87394.0,87408.0,87512.0,87528.0,87551.0,87558.0,87575.0,87739.0,87825.0,0.018116230713284984,-0.0221452279505925,0.05204819354352321,-0.09369265387810932,0.005367479394618936
104,104,88155.38571152394,4539.610801858948,15.972745869168527,88222.76719927922,-1259.4997915438908,53.640457403908016,88318.55548795691,43194.97097044402,11.113969823384496,88340.02737369911,-22094.729431436113,8.100894411534554,88557.18034551288,17143.66648077004,35.84622847261003,0.9658855913346172,54.0,19.0,162.0,251.0,413.0,35.0,780.0,778.0,36.0,19.0,17.0,0.5277777777777778,115.73138597476716,3794.331678519559,98.0,34.0,64.0,0.3469387755102041,57.07592779923478,980.0607543764822,24.0,14.0,10.0,0.5833333333333334,2257.5167581765,33286.70903745564,16.0,4.0,12.0,0.25,2079.181096257044,33144.90140565433,90.0,44.0,46.0,0.4888888888888889,103.70088061427867,17616.617313740284,0.0,0.0,0.0,0.0,88136.0,88171.0,88190.0,88252.0,88305.0,88329.0,88336.0,88352.0,88514.0,88603.0,0.025493680191124694,-0.04531634557022935,0.05226341649172994,-0.09410303496628523,0.006048932457394654
105,105,88921.50678199713,3983.378127652684,26.36446755537775,89058.95018756537,-1149.644848719148,5.320354858772935,89092.71603907838,43863.9226688917,11.025923257394425,89114.45203459915,-20311.312518598563,7.727731985690709,89332.33753104058,18231.78769143201,37.41766314580888,0.9732766837036628,147.0,101.0,75.0,252.0,327.0,46.0,776.0,775.0,49.0,21.0,28.0,0.4285714285714285,80.47441837390166,5125.953328889091,11.0,8.0,3.0,0.7272727272727273,415.7591599879705,4653.169991331385,24.0,14.0,10.0,0.5833333333333334,2238.0682794027794,35907.873907151574,17.0,4.0,13.0,0.2352941176470588,2067.407471155247,31928.601978433333,91.0,44.0,47.0,0.4835164835164835,97.54938847570013,18972.84628281102,0.0,0.0,0.0,0.0,88904.0,88950.0,89051.0,89062.0,89079.0,89103.0,89111.0,89126.0,89288.0,89378.0,0.020202555668829624,-0.3616413890352134,0.05102298525138559,-0.10178601059198777,0.005350511432378255
106,106,89743.13137558992,3134.623233821151,12.016918246374956,89869.60271279886,-2699.623883007953,20.383723206912453,89910.14771004568,41999.407148475526,11.139665184081542,89932.027373699,-19688.722906658433,8.04982037541712,90152.46377015612,15750.47899052053,33.111290035188674,0.9660134314624272,50.0,15.0,168.0,252.0,420.0,35.0,814.0,817.0,35.0,17.0,18.0,0.4857142857142857,73.5722878958313,2914.3346006245547,106.0,95.0,11.0,0.8962264150943396,164.00927892921808,419.98474433274225,24.0,13.0,11.0,0.5416666666666666,2144.8124897222315,35470.88299160977,16.0,4.0,12.0,0.25,1915.8312720507183,30556.82748484912,87.0,43.0,44.0,0.4942528735632184,95.88152901755691,15999.086216791657,0.0,0.0,0.0,0.0,89726.0,89761.0,89776.0,89881.0,89897.0,89921.0,89928.0,89944.0,90110.0,90196.0,0.0234708551579724,-0.0607526403813249,0.05106768488754925,-0.09730602036167682,0.006087530993518576
107,107,90587.1206600828,4060.6654355798823,15.73713291981174,90696.9864360057,-1976.7408959426352,101.91861603355852,90751.79574230856,42784.91849568855,11.390781164329296,90773.027373699,-19976.066935558614,7.724640763121111,90993.50071224802,16840.607122107347,34.60243071332115,0.9608669278230236,45.0,12.0,170.0,253.0,423.0,33.0,844.0,842.0,33.0,17.0,16.0,0.5151515151515151,90.485701501603,2838.3493731270746,108.0,83.0,25.0,0.7685185185185185,47.54232888603304,1266.2326268451195,24.0,14.0,10.0,0.5833333333333334,2155.504008429511,33348.95935080003,17.0,4.0,13.0,0.2352941176470588,1975.9240328647863,31409.842128767603,87.0,43.0,44.0,0.4942528735632184,95.05212085244936,17147.170337918884,0.0,0.0,0.0,0.0,90570.0,90603.0,90615.0,90720.0,90738.0,90762.0,90769.0,90785.0,90952.0,91038.0,0.022283466327651595,-0.024050865231561795,0.0503799956670882,-0.09891456807984166,0.005644221741131328
108,108,91396.31229291623,3513.5330704341586,10.98295177855127,91518.75339099858,-3066.9291302298416,25.47965400864057,91561.97094124138,42273.64400318746,11.265856928947208,91582.60271279886,-25180.225910114154,9.341979554346254,91801.74297756195,16427.63621400136,32.52499906390099,0.9581657344752998,46.0,13.0,169.0,250.0,419.0,33.0,810.0,809.0,33.0,16.0,17.0,0.4848484848484848,101.5640429155912,3226.163912734929,109.0,94.0,15.0,0.8623853211009175,90.82809101455058,1616.5791711227057,23.0,14.0,9.0,0.6086956521739131,2269.941158301852,29513.736813089607,18.0,5.0,13.0,0.2777777777777778,2046.9028615261295,35525.61152092396,86.0,43.0,43.0,0.5,92.16779745767762,16471.99648277099,0.0,0.0,0.0,0.0,91380.0,91413.0,91426.0,91533.0,91548.0,91571.0,91578.0,91595.0,91759.0,91845.0,0.02890652823798274,-0.029615321110385014,0.05369636831238624,-0.08129009123400871,0.005610533144088163
109,109,92171.81975527311,5113.07096688977,19.0506386755194,92253.5891488046,-1995.9414419409395,81.53489276850142,92335.27404417007,44156.84905646816,11.273297913020228,92356.0745472018,-23378.190331161135,8.605748186507785,92574.3348664946,17490.942653742055,35.024798391092524,0.9696447543421076,56.0,19.0,161.0,249.0,410.0,37.0,773.0,773.0,37.0,20.0,17.0,0.5405405405405406,109.35713354529656,3964.971979781747,99.0,47.0,52.0,0.4747474747474747,46.6619964105849,1659.043750793283,23.0,13.0,10.0,0.5652173913043478,2267.1771086020644,33427.45932803166,17.0,4.0,13.0,0.2352941176470588,2103.9446994183263,35237.02616366882,89.0,44.0,45.0,0.4943820224719101,105.11989710805229,17902.704378500195,0.0,0.0,0.0,0.0,92152.0,92189.0,92208.0,92305.0,92322.0,92345.0,92352.0,92369.0,92531.0,92618.0,0.021387759773617503,-0.023378439582480315,0.05134372485914424,-0.08999604629850017,0.006009961795030108
110,110,92931.47300142595,4302.510546315623,15.826343700821283,93056.027373699,-1942.6563784340076,17.8357578060484,93096.66731908532,43879.63015225183,11.23170011341943,93118.027373699,-21412.163783220265,8.168155933700254,93335.21022147556,17977.26983245101,37.38919813088792,0.9670251049787156,61.0,21.0,157.0,251.0,408.0,40.0,763.0,762.0,42.0,20.0,22.0,0.4761904761904761,83.8997525402205,4332.983751797381,95.0,84.0,11.0,0.8842105263157894,152.47602355475695,35.9981928588295,24.0,14.0,10.0,0.5833333333333334,2268.482441725198,34732.92397347416,17.0,4.0,13.0,0.2352941176470588,2037.6441885636025,32428.921903945466,94.0,47.0,47.0,0.5,117.8332781962877,18826.987949869366,0.0,0.0,0.0,0.0,92912.0,92952.0,92973.0,93066.0,93083.0,93107.0,93114.0,93130.0,93290.0,93381.0,0.019500185214436378,-0.07848841681289473,0.05169784781353229,-0.09516292744596,0.0065545702598058175
111,111,93697.29281474825,4925.408355161038,16.755858224190806,93739.98619029528,-3228.378806028763,84.08285822851387,93859.80206743068,42990.307627565686,10.995014518170782,93882.027373699,-18725.22512789145,7.628335233165664,94100.10796239309,17176.310618658015,33.807934398775245,0.9415819962675702,37.0,11.0,172.0,250.0,422.0,26.0,761.0,764.0,26.0,13.0,13.0,0.5,102.51967611160414,1798.144950485556,107.0,19.0,88.0,0.1775700934579439,62.55238212779353,3675.77699944695,24.0,13.0,11.0,0.5416666666666666,2171.4200144170286,35427.216958046716,16.0,4.0,12.0,0.25,1923.5886647370892,30619.53868868993,86.0,42.0,44.0,0.4883720930232558,99.97293583038147,17713.44905650111,0.0,0.0,0.0,0.0,93684.0,93710.0,93721.0,93829.0,93847.0,93871.0,93878.0,93893.0,94060.0,94143.0,0.020814452065518577,-0.01937578762782778,0.0505095249196286,-0.10272713153509064,0.005820396361590273
112,112,94455.36500261888,4789.974559729801,15.555640083692785,94548.9590622946,-3030.8623609522156,119.75437377902593,94619.05834565124,43097.99264825081,11.42406415114464,94640.027373699,-22145.175821470715,8.08819995606662,94857.93343179376,16420.608050143564,32.85686128156258,0.9519265931850056,41.0,14.0,171.0,248.0,419.0,27.0,762.0,759.0,29.0,15.0,14.0,0.5172413793103449,102.07031945909866,2268.5827081089396,109.0,69.0,40.0,0.6330275229357798,51.217159618312145,2560.2208931301284,23.0,13.0,10.0,0.5652173913043478,2206.0449426589576,32230.028415530516,17.0,4.0,13.0,0.2352941176470588,2043.6858306596168,34327.836497933335,84.0,41.0,43.0,0.4880952380952381,96.13255223265254,16652.43801140943,0.0,0.0,0.0,0.0,94441.0,94468.0,94482.0,94589.0,94606.0,94629.0,94636.0,94653.0,94818.0,94901.0,0.021309156903926516,-0.016898543555841673,0.05118672140170995,-0.092285825460829,0.005854384438084926
113,113,95230.86273627444,4188.699160792654,16.478654773171257,95284.89115304605,-1271.8388026041823,35.52010853702203,95394.99112567116,43668.47613171945,10.942204824846732,95417.027373699,-21138.86744457841,7.75488977258573,95633.3408799733,17852.223063680296,35.802708190053515,0.970546518621195,49.0,12.0,168.0,250.0,418.0,37.0,775.0,776.0,37.0,20.0,17.0,0.5405405405405406,108.16792151773078,3754.454516701908,60.0,25.0,35.0,0.4166666666666667,43.45640356636874,1210.926447030747,24.0,13.0,11.0,0.5416666666666666,2243.507040758713,36296.73007529589,16.0,4.0,12.0,0.25,2065.27072424796,32631.76254529524,90.0,44.0,46.0,0.4888888888888889,108.4066918665146,18448.36269619477,0.0,0.0,0.0,0.0,95211.0,95248.0,95260.0,95315.0,95382.0,95406.0,95413.0,95428.0,95590.0,95678.0,0.0258237503734361,-0.03416816932883995,0.051375894913106394,-0.09770015965437402,0.006072447755095784
114,114,96028.70326343123,4288.552365871078,19.340935898114235,96144.28779240511,-4252.531742544495,91.72675443089722,96193.5975717556,44312.21416417738,11.4964575785347,96215.027373699,-20607.182272451093,7.847022342151158,96435.2290302668,16076.60261144377,32.86971194456942,0.960785461567891,49.0,18.0,168.0,250.0,418.0,31.0,794.0,798.0,31.0,18.0,13.0,0.5806451612903226,89.0798293113557,1957.816312565644,107.0,85.0,22.0,0.794392523364486,47.17628201877948,3311.0051536992823,23.0,13.0,10.0,0.5652173913043478,2220.0936467763995,32314.858345574845,17.0,4.0,13.0,0.2352941176470588,2005.7548456841955,33975.79091187312,86.0,42.0,44.0,0.4883720930232558,91.7707254217518,15958.183427774118,0.0,0.0,0.0,0.0,96011.0,96042.0,96060.0,96165.0,96181.0,96204.0,96211.0,96228.0,96393.0,96478.0,0.020771538204888414,-0.011093693092706143,0.050101167108258716,-0.09733280460985722,0.005708340725945845
115,115,96851.65054403654,3735.766498486221,19.42772512434996,96929.10949479598,-2042.822475427074,43.90443607964789,97020.52218864392,42057.20339009051,11.107562934647424,97042.027373699,-19304.261803032354,7.721723191545744,97260.37398932528,16429.89786703366,35.46852293067177,0.9676536699236348,59.0,17.0,166.0,251.0,417.0,42.0,830.0,827.0,44.0,24.0,20.0,0.5454545454545454,78.95895927539227,3053.9897940657884,102.0,43.0,59.0,0.4215686274509804,57.70859956147362,1940.510345215507,24.0,14.0,10.0,0.5833333333333334,2158.3919632670854,33642.69622777955,16.0,4.0,12.0,0.25,1944.2216152832443,29896.92094347357,90.0,44.0,46.0,0.4888888888888889,98.58055311548796,17029.15984201011,0.0,0.0,0.0,0.0,96829.0,96871.0,96888.0,96969.0,97007.0,97031.0,97038.0,97054.0,97217.0,97305.0,0.02113594607890708,-0.028249444215366296,0.05132038721755913,-0.100714631573109,0.006000070962905274
116,116,97683.69864360055,5172.112624417859,10.191861603456228,97784.50702770762,-4690.298310493964,135.042166205111,97853.69349453929,43533.900973231706,11.375618066217204,97874.60271279886,-21595.337781468417,8.08107754557966,98093.45370267204,16354.100137823434,33.013760407325876,0.915043218654001,31.0,15.0,179.0,248.0,427.0,16.0,826.0,833.0,16.0,6.0,10.0,0.375,79.82707754719166,497.66782056339935,117.0,76.0,41.0,0.6495726495726496,36.37707217533989,4679.967934786375,22.0,13.0,9.0,0.5909090909090909,2237.8312496622657,30121.53670338351,18.0,5.0,13.0,0.2777777777777778,2007.4773586796312,35271.32475695108,84.0,40.0,44.0,0.4761904761904761,107.42755740691432,16537.190526374994,0.0,0.0,0.0,0.0,97678.0,97694.0,97709.0,97826.0,97841.0,97863.0,97870.0,97888.0,98054.0,98136.0,0.015434133659488227,-0.007755812054416811,0.05140433546348792,-0.09295883116041397,0.006568845518956926
117,117,98517.03776609256,4553.2318960452385,18.305881005319613,98599.66738013696,-3297.302131201716,119.75437360027888,98683.99176433322,43439.59824110884,11.068568716434132,98706.027373699,-19508.048767449036,7.507090773763831,98924.21001732178,14866.650589683564,33.0940303111287,0.9477433051243482,41.0,14.0,173.0,250.0,423.0,27.0,835.0,831.0,27.0,13.0,14.0,0.4814814814814814,84.80466405674206,1870.6141200629509,110.0,55.0,55.0,0.5,49.52609821977227,3650.944434535226,24.0,13.0,11.0,0.5416666666666666,2189.766739818346,34810.26040116057,17.0,5.0,12.0,0.2941176470588235,1988.873890247862,32490.240459330493,86.0,42.0,44.0,0.4883720930232558,87.95820073296066,14966.56836129784,0.0,0.0,0.0,0.0,98504.0,98531.0,98545.0,98655.0,98671.0,98695.0,98702.0,98718.0,98883.0,98968.0,0.018625158127878377,-0.01502018809593353,0.05040946114796411,-0.10195145162680135,0.005916477299466339
118,118,99352.25402073664,4550.5521926949505,18.038672782606987,99432.5617751056,-4407.358007336406,99.37065063369822,99516.586720564,43004.973802796216,11.353037019870792,99538.027373699,-19533.898901328845,7.831281554559021,99757.85236714844,15063.015260627368,31.614568363353005,0.9416171006755628,38.0,14.0,173.0,250.0,423.0,24.0,837.0,832.0,25.0,14.0,11.0,0.56,86.82882964188398,992.620457223916,112.0,57.0,55.0,0.5089285714285714,41.15515048528271,3819.6755255829903,23.0,13.0,10.0,0.5652173913043478,2172.4736231016627,32158.502845363502,17.0,4.0,13.0,0.2352941176470588,1948.2017256898043,32118.034501535432,83.0,41.0,42.0,0.4939759036144578,104.89200504159004,15152.105616436367,0.0,0.0,0.0,0.0,99339.0,99363.0,99377.0,99487.0,99504.0,99527.0,99534.0,99550.0,99717.0,99800.0,0.019080943578950973,-0.009337827881641702,0.05051679912802102,-0.09973440200191026,0.006963546356868083
119,119,100188.42422370025,4549.838955856944,14.651655729697875,100263.37309234284,-3520.4990764163895,107.01454683629038,100350.3840816242,43085.867486883486,11.33191092549175,100371.12379231988,-21104.85970839106,8.18117232823941,100589.3544681828,16505.706225981616,34.267764860460694,0.9413258476622108,33.0,11.0,174.0,250.0,424.0,22.0,834.0,834.0,22.0,11.0,11.0,0.5,117.77182233296696,1589.4098117257008,113.0,54.0,59.0,0.4778761061946903,58.14106465210778,2837.6493488590213,23.0,13.0,10.0,0.5652173913043478,2173.232702592903,33086.53917278602,18.0,4.0,14.0,0.2222222222222222,2008.767657486228,33213.4252268502,88.0,43.0,45.0,0.4886363636363636,96.62581010847444,16833.85818707761,0.0,0.0,0.0,0.0,100177.0,100199.0,100210.0,100322.0,100337.0,100360.0,100367.0,100384.0,100547.0,100634.0,0.025884833172251282,-0.01651500636418037,0.050439571705374026,-0.09518033691015554,0.0058540851742760235
120,120,100989.63238484268,4278.001800727083,14.152010144368427,101103.5891488046,-4186.621567350531,81.53489282764981,101150.5380863758,43814.28864468863,11.615360265397168,101171.027373699,-22865.191006717167,8.166102496235263,101390.83846324346,16225.148628188144,33.57572757320147,0.9521045493210064,43.0,13.0,168.0,251.0,419.0,30.0,802.0,800.0,30.0,17.0,13.0,0.5666666666666667,115.88582340697296,2059.325735733345,108.0,89.0,19.0,0.8240740740740741,64.96712817485083,2802.715350540877,23.0,14.0,9.0,0.6086956521739131,2255.1715916964677,29669.13147376886,18.0,4.0,14.0,0.2222222222222222,2086.86632176729,34856.374898439135,88.0,44.0,44.0,0.5,93.9156696652528,16058.485074484255,0.0,0.0,0.0,0.0,100973.0,101003.0,101016.0,101122.0,101137.0,101160.0,101167.0,101184.0,101348.0,101435.0,0.027088773872717208,-0.0155177933160949,0.05147114472141156,-0.091268265423815,0.005788277926902438
121,121,101781.38420443112,2035.1029768494907,8.165933560225499,101902.32873009844,-4898.783804723156,28.027619409504627,101946.05111576057,43772.228317372865,11.627759379110948,101966.027373699,-24788.009142757623,9.836293127518756,102187.46947319052,15256.19912023738,31.439074464353908,0.9475758026639588,39.0,14.0,172.0,249.0,421.0,25.0,794.0,795.0,27.0,13.0,14.0,0.4814814814814814,105.65620002133706,1786.223866860799,111.0,95.0,16.0,0.8558558558558559,109.8606308473793,3091.1460429533854,23.0,14.0,9.0,0.6086956521739131,2242.897650402278,29829.851555907637,19.0,4.0,15.0,0.2105263157894736,2006.4426741016784,34606.41799464697,83.0,41.0,42.0,0.4939759036144578,87.96932635822813,15284.22042585864,0.0,0.0,0.0,0.0,101769.0,101794.0,101808.0,101918.0,101932.0,101955.0,101962.0,101980.0,102147.0,102229.0,0.05191688146655934,-0.02242610313634525,0.051240198103236365,-0.08094408318741105,0.005766136484252925
122,122,102570.27874822349,4626.588079621865,17.434268697729845,102675.93144289729,-2009.971059812497,48.411342616409456,102733.38701800274,42428.00855083858,11.202801010794088,102755.027373699,-19759.930250495847,7.925323500037736,102972.66152992264,17455.512634726892,36.50264843798379,0.969499625107169,60.0,20.0,157.0,252.0,409.0,40.0,792.0,788.0,40.0,20.0,20.0,0.5,99.80363524081612,4603.9352112004135,95.0,68.0,27.0,0.7157894736842105,61.285555854423514,1766.445478794325,24.0,13.0,11.0,0.5416666666666666,2126.629978324886,35677.779182404614,16.0,4.0,12.0,0.25,1940.818626280629,30761.93499928791,91.0,45.0,46.0,0.4945054945054945,87.14753945300497,17695.40083443411,0.0,0.0,0.0,0.0,102550.0,102590.0,102610.0,102703.0,102720.0,102744.0,102751.0,102767.0,102929.0,103019.0,0.021571757312998815,-0.030490765304919676,0.0501232570408458,-0.09821991280722901,0.004992551137090594
123,123,103342.0037748016,4457.136215299723,17.68454073056771,103434.5617751056,-2088.37342610454,95.56173409465713,103504.97484152469,43812.04227715456,11.439875248556904,103525.61672390542,-22815.530338178767,8.276673475842854,103745.42433817367,17469.997178186466,34.90000715083698,0.964189575402942,56.0,21.0,159.0,251.0,410.0,35.0,761.0,771.0,36.0,20.0,16.0,0.5555555555555556,92.20865936461732,2860.9482547782786,102.0,62.0,40.0,0.6078431372549019,39.20437872542913,1709.5678493090134,24.0,14.0,10.0,0.5833333333333334,2251.757193293779,32533.717725308692,17.0,4.0,13.0,0.2352941176470588,2068.971593037163,33821.808432634614,88.0,44.0,44.0,0.5,97.14587849059656,17924.047297461086,0.0,0.0,0.0,0.0,103323.0,103358.0,103379.0,103474.0,103491.0,103515.0,103522.0,103538.0,103702.0,103789.0,0.020687871070239817,-0.018772686070114085,0.05139585091809198,-0.09068259919319137,0.005560726627471678
124,124,104110.15957374129,3276.5857329194628,11.135009064896892,104234.027373699,-2311.4343252301273,17.8357578060484,104274.1815439791,42811.14060548321,11.23932439756693,104295.45203459916,-21667.668285720672,8.2459817109187,104513.33456107038,16921.163501785108,34.0210724043412,0.9641909926474612,43.0,12.0,169.0,249.0,418.0,31.0,775.0,770.0,32.0,16.0,16.0,0.5,106.23702423542012,3094.7809176373507,106.0,96.0,10.0,0.9056603773584906,161.2473264103357,51.93950880645809,23.0,13.0,10.0,0.5652173913043478,2214.8684047266183,34868.718686830805,17.0,4.0,13.0,0.2352941176470588,2040.583156697159,32844.74193843891,85.0,41.0,44.0,0.4823529411764706,118.25602563640015,17733.262074593807,0.0,0.0,0.0,0.0,104095.0,104126.0,104138.0,104244.0,104261.0,104284.0,104292.0,104307.0,104473.0,104556.0,0.032423086985965154,-0.06976072157891912,0.051735795248654036,-0.09417640743752455,0.006988646237235677
125,125,104892.95922724498,4673.556620106787,17.225359271093325,104962.8905052038,-1989.5180744399684,71.34303122262367,105057.7000590694,42965.754959419995,11.328215198986827,105078.4520345992,-21074.004196853315,8.370541713831258,105297.36738433316,16384.498464389064,33.410769978925074,0.969013676501325,49.0,14.0,168.0,249.0,417.0,35.0,781.0,783.0,35.0,19.0,16.0,0.5428571428571428,90.2014267854884,3354.6109421746087,104.0,40.0,64.0,0.3846153846153846,51.507095283674865,1718.470795059586,24.0,14.0,10.0,0.5833333333333334,2194.385662834339,32395.191874180673,18.0,4.0,14.0,0.2222222222222222,2017.7248718352544,31854.07264210784,86.0,42.0,44.0,0.4883720930232558,87.79321944829911,16417.27542574654,0.0,0.0,0.0,0.0,104874.0,104909.0,104923.0,105026.0,105044.0,105068.0,105075.0,105091.0,105256.0,105340.0,0.01930038172586157,-0.025889232143906836,0.051072898984479094,-0.09574473142301702,0.00535830984629243
126,126,105687.23740341926,4718.885321085184,20.32382656934637,105771.0404734558,-112.25416254405552,0.9306551091509,105852.65067037327,42378.29791698095,10.971737000745572,105875.027373699,-18306.345216883416,7.375523575066675,106090.14357149962,17444.070018571398,38.57050868824427,0.9697482224090396,102.0,59.0,117.0,252.0,369.0,43.0,799.0,796.0,43.0,20.0,23.0,0.4651162790697674,100.68657123042016,5218.970750042896,4.0,2.0,2.0,0.5,56.83918143750896,19.448699067773532,25.0,14.0,11.0,0.56,2139.192810891584,35810.898447127336,15.0,4.0,11.0,0.2666666666666666,1915.5150702872445,29046.54941273969,97.0,48.0,49.0,0.4948453608247423,84.91522754333928,17820.901691284842,0.0,0.0,0.0,0.0,105667.0,105710.0,105769.0,105773.0,105839.0,105864.0,105871.0,105886.0,106044.0,106138.0,0.021336939632867716,-0.5063436415126409,0.05047849762824975,-0.10463667365567979,0.004867856380588727
127,127,106491.59627343604,4227.958338850243,15.91231885949606,106583.5344014066,-2659.8617157851377,103.55078932061512,106655.68703473176,43347.51667725763,11.355217738546855,106677.027373699,-21935.512181237176,8.181389537049254,106894.59044112032,17277.209747829536,34.22315196846518,0.957331071529658,41.0,12.0,172.0,249.0,421.0,29.0,799.0,802.0,29.0,15.0,14.0,0.5172413793103449,96.1969645071819,2094.6634912425984,109.0,67.0,42.0,0.6146788990825688,42.779253100048514,2287.678114903287,24.0,14.0,10.0,0.5833333333333334,2226.479805574993,32014.831973075372,17.0,4.0,13.0,0.2352941176470588,2038.6244654706145,33984.921754031006,88.0,44.0,44.0,0.5,80.3173838984673,17120.46835773132,0.0,0.0,0.0,0.0,106477.0,106506.0,106518.0,106626.0,106642.0,106666.0,106673.0,106690.0,106852.0,106939.0,0.022752580985304086,-0.016083262090721487,0.05136349152714256,-0.09293717186209029,0.004648747400230945
128,128,107281.7608073089,3633.406164745179,12.451182797346402,107405.17805189916,-2550.06147297342,22.931688607511763,107446.71050776,42708.69053969455,11.283647970722718,107468.02737369902,-22562.281834484307,8.471288554962419,107686.95276092636,17639.140055316562,34.95543346565159,0.9688784536677256,50.0,15.0,165.0,251.0,416.0,35.0,795.0,791.0,35.0,17.0,18.0,0.4857142857142857,93.09533110729286,3362.611353607147,104.0,91.0,13.0,0.875,132.50772369684717,999.087584404645,24.0,14.0,10.0,0.5833333333333334,2239.7416671090105,32571.231160320527,17.0,4.0,13.0,0.2352941176470588,2036.8521260070272,33310.049724327066,88.0,44.0,44.0,0.5,93.8761878696964,17696.095787691447,0.0,0.0,0.0,0.0,107265.0,107300.0,107315.0,107418.0,107433.0,107457.0,107464.0,107480.0,107643.0,107731.0,0.02562205459180254,-0.05196256055048769,0.052442293097872836,-0.09027686742632086,0.005322038805480284
129,129,107856.73043364838,272.14986773198285,2.5479653999284086,108189.80838410703,-6327.502906795099,124.8503046423388,108244.34375196505,43278.32576479247,11.325883423112934,108265.60271279886,-19913.902399317132,7.909703525364942,108485.52766537116,15441.562784797188,30.263732400623557,0.9035645642543084,247.0,245.0,176.0,247.0,423.0,2.0,571.0,798.0,2.0,1.0,1.0,0.5,36.804735667378345,2869.5193940989607,117.0,88.0,29.0,0.7521367521367521,48.90962879564261,5931.37282906385,22.0,12.0,10.0,0.5454545454545454,2146.8632639081784,31122.930338354556,19.0,5.0,14.0,0.2631578947368421,1943.414416265899,35075.91147744589,78.0,38.0,40.0,0.4871794871794871,89.25338794100668,15089.232659760954,0.0,0.0,0.0,0.0,107856.0,107858.0,108103.0,108218.0,108232.0,108254.0,108261.0,108279.0,108449.0,108526.0,0.13523701471581895,-0.007729688870331234,0.049605968483528586,-0.09759083766186083,0.005780074801035039
130,130,108889.02791214932,4609.456560186046,16.205377221522884,108997.10974050646,-3327.0574714774434,94.81179513112396,109053.00465236304,42806.23028571713,11.342813089663068,109075.027373699,-19643.49436358764,7.6598603903531854,109292.31387772708,16660.709646273666,34.562091850995714,0.9589538263354104,46.0,15.0,169.0,250.0,419.0,31.0,1030.0,809.0,33.0,18.0,15.0,0.5454545454545454,90.48204379308731,2340.449956258016,107.0,80.0,27.0,0.7476635514018691,41.00902642588926,2977.8511434717807,24.0,13.0,11.0,0.5416666666666666,2145.355358967563,33793.503249373454,18.0,5.0,13.0,0.2777777777777778,1954.8198357891135,32122.54507326352,90.0,44.0,46.0,0.4888888888888889,97.81101820163616,16834.125098897748,0.0,0.0,0.0,0.0,108872.0,108903.0,108918.0,109023.0,109040.0,109064.0,109071.0,109087.0,109249.0,109337.0,0.01962965538597793,-0.012325914649042242,0.05011782968619382,-0.09951487243596968,0.005870759426115596
131,131,109679.1326465472,4507.109680868727,17.0506412869609,109768.24393963366,-739.5334755016635,47.89429338420475,109844.24725341678,42804.53969280219,11.071002114635077,109866.027373699,-22121.43573308848,8.114372732837873,110082.59042377851,18048.015718351817,36.57587492773617,0.9724748393759032,71.0,31.0,148.0,251.0,399.0,40.0,791.0,791.0,40.0,20.0,20.0,0.5,99.06016586012552,4356.335705003362,59.0,38.0,21.0,0.6440677966101694,46.15809619849065,864.3497316686737,24.0,13.0,11.0,0.5416666666666666,2201.409243642672,35161.95527470063,16.0,4.0,12.0,0.25,2064.0918568658235,33318.874773886644,92.0,46.0,46.0,0.5,92.80864110905048,18376.523845250413,0.0,0.0,0.0,0.0,109659.0,109699.0,109730.0,109789.0,109831.0,109855.0,109862.0,109878.0,110038.0,110129.0,0.021978645489947803,-0.06241515459077663,0.05142934042607754,-0.09330731882734113,0.0051423182779411925
132,132,110459.20759194264,4533.9670039914745,15.93125065339172,110520.917878903,-1877.0189949925225,53.507273418145175,110621.52976363582,43326.27870518217,11.156185605861465,110643.027373699,-21247.991205616698,8.034799867622116,110860.2898172673,17382.095830135484,35.00936558470543,0.9681869691845268,51.0,16.0,164.0,249.0,413.0,35.0,779.0,777.0,36.0,20.0,16.0,0.5555555555555556,96.37839899273352,3120.617087002587,101.0,32.0,69.0,0.3168316831683168,47.582533745786165,1698.809036275813,24.0,14.0,10.0,0.5833333333333334,2233.6682153908346,33578.31285310753,16.0,4.0,12.0,0.25,2040.9878616134924,32399.704244729808,88.0,43.0,45.0,0.4886363636363636,115.42032199277752,17970.514106373692,0.0,0.0,0.0,0.0,110440.0,110475.0,110491.0,110589.0,110608.0,110632.0,110639.0,110655.0,110818.0,110904.0,0.021256969648849863,-0.025350054460144513,0.051554582626171165,-0.09605556788229361,0.006640184424289754
133,133,111253.50640255268,4719.754607808859,17.218140550931164,111340.5617751056,-1687.5461629360802,95.97182350693082,111416.56098193915,43008.02449389822,11.250427910862074,111438.027373699,-19601.760896012336,7.859294989919811,111656.3755729848,17578.40585069737,35.649061261611436,0.9694650749250712,49.0,14.0,165.0,251.0,416.0,35.0,795.0,795.0,35.0,18.0,17.0,0.5142857142857142,102.08603439547588,3369.0907685949524,101.0,56.0,45.0,0.5544554455445545,45.53982480308579,1562.895637071765,24.0,14.0,10.0,0.5833333333333334,2172.1875567075754,33472.43560823715,17.0,4.0,13.0,0.2352941176470588,1956.1108861557548,31164.668323370977,91.0,45.0,46.0,0.4945054945054945,88.7454940040885,17793.157848589624,0.0,0.0,0.0,0.0,111236.0,111271.0,111285.0,111386.0,111403.0,111427.0,111434.0,111450.0,111612.0,111701.0,0.021629521633725193,-0.026985824627074644,0.05050656435093305,-0.09979261029317495,0.005048551885640289
134,134,112050.53566274037,4302.2519897848015,15.176450406348616,112146.08236680747,-4618.40149037449,132.4942008449288,112213.90785350165,42467.21289064127,11.503583341441416,112235.027373699,-20613.257558463527,7.974313319146423,112453.15725838197,15225.214556848854,32.43504318483647,0.939494601339716,29.0,15.0,176.0,248.0,424.0,14.0,799.0,797.0,14.0,8.0,6.0,0.5714285714285714,96.10015926687537,340.12294756202556,116.0,76.0,40.0,0.6551724137931034,36.31563840854218,4020.7795798978777,23.0,13.0,10.0,0.5652173913043478,2148.950635870609,30547.424793196,18.0,4.0,14.0,0.2222222222222222,1961.546428450692,34063.18303881392,84.0,40.0,44.0,0.4761904761904761,77.30331711972255,14731.761583077274,0.0,0.0,0.0,0.0,112043.0,112057.0,112072.0,112186.0,112201.0,112224.0,112231.0,112248.0,112414.0,112496.0,0.02233717585465799,-0.007863248460366633,0.05060258231225211,-0.09515945856142992,0.0050773220194094875
