Unnamed: 0,cycle,p_center,p_height,p_width,q_center,q_height,q_width,r_center,r_height,r_width,s_center,s_height,s_width,t_center,t_height,t_width,r_squared,pr_interval,pr_segment,qrs_duration,st_segment,qt_interval,p_duration,pp_interval,rr_interval,fwhm_p,rise_time_p,decay_time_p,rise_decay_symmetry_p,sharpness_deriv_p,sharpness_diff_p,fwhm_q,rise_time_q,decay_time_q,rise_decay_symmetry_q,sharpness_deriv_q,sharpness_diff_q,fwhm_r,rise_time_r,decay_time_r,rise_decay_symmetry_r,sharpness_deriv_r,sharpness_diff_r,fwhm_s,rise_time_s,decay_time_s,rise_decay_symmetry_s,sharpness_deriv_s,sharpness_diff_s,fwhm_t,rise_time_t,decay_time_t,rise_decay_symmetry_t,sharpness_deriv_t,sharpness_diff_t,Average_Heart_Rate,SDNN,RMSSD,NN50,p_on,p_off,q_on,q_off,r_on,r_off,s_on,s_off,t_on,t_off,sharpness_deriv_p_norm,sharpness_deriv_q_norm,sharpness_deriv_r_norm,sharpness_deriv_s_norm,sharpness_deriv_t_norm
0,0,,,,,,,,,,,,,,,,,,,,,,,,,,,,,,,,,,,,,,,,,,,,,,,,,,,,,,,72.80844457150755,323.62891542390696,463.70212654479184,548.0,,,,,,,,,,,,,,,
1,1,1353.3972872011518,4056.0194541724695,12.956760646450658,1464.09138592966,-3359.430184170591,53.50727341814519,1509.3487551733945,43179.173613939805,11.15972875068155,1527.8766954992802,-22106.36032190463,12.218344310819782,1764.434793539766,14530.731481076438,38.803875743816214,0.9224596990410496,53.0,25.0,151.0,268.0,419.0,28.0,,,35.0,12.0,23.0,0.3428571428571428,182.18046680849068,4514.775385279059,89.0,69.0,20.0,0.7752808988764045,124.51375058863444,2594.764837486012,24.0,15.0,9.0,0.625,1928.6573900259505,23787.9515212171,23.0,4.0,19.0,0.1739130434782608,1920.7846347059,38010.919277954454,99.0,48.0,51.0,0.4848484848484848,162.07992815091723,14460.523451818011,,,,,1342.0,1370.0,1395.0,1479.0,1494.0,1518.0,1525.0,1546.0,1720.0,1814.0,0.04491607322570402,-0.03706394946837557,0.044666380308012885,-0.08688832565542882,0.011154285547289622
2,2,2237.2466090014395,4209.521528471348,15.03557814721467,2352.6165225036,-3373.720593323398,63.69913502160143,2391.104902525797,39789.73735513942,10.735265274613608,2413.6986436005755,-19053.674899020167,10.191861603456228,2648.752656965132,13760.708507127556,36.472222520225614,0.7992488025351768,70.0,44.0,138.0,267.0,405.0,26.0,883.0,884.0,32.0,14.0,18.0,0.4375,187.2114073956587,3833.015874263867,94.0,79.0,15.0,0.8404255319148937,198.1523062129765,1442.4206720947604,23.0,13.0,10.0,0.5652173913043478,1922.6632003999252,30219.522347609287,23.0,6.0,17.0,0.2608695652173913,1627.4120646274937,34173.5978973405,94.0,45.0,49.0,0.4787234042553192,173.50935969312778,14228.544615134764,,,,,2223.0,2249.0,2293.0,2367.0,2378.0,2401.0,2408.0,2431.0,2606.0,2698.0,0.04447332223613617,-0.058734059543970665,0.04832058033556197,-0.08541197817493901,0.01260904259422806
3,3,4033.870141811884,3408.9155112519684,14.527526440758978,4122.7533909985605,-1995.4218090696893,25.47965400864057,4178.566064979578,39636.82048871634,11.165738134671514,4197.233505759609,-19236.249526329662,12.739827004319348,4425.67267856716,10025.013742887788,47.87576671718919,0.9513283869285534,99.0,77.0,97.0,272.0,369.0,22.0,1797.0,1785.0,42.0,18.0,24.0,0.4285714285714285,180.38745274167053,3398.966204192936,72.0,47.0,25.0,0.6527777777777778,124.48300329763951,1135.8615071212294,25.0,16.0,9.0,0.64,1732.5635614597886,21233.849465565378,23.0,3.0,20.0,0.1304347826086956,1758.3167931938665,33050.96692937277,114.0,54.0,60.0,0.4736842105263157,116.95685122230958,10495.567610111995,,,,,4018.0,4040.0,4117.0,4147.0,4163.0,4188.0,4194.0,4214.0,4373.0,4486.0,0.05291637535346862,-0.06238430527913108,0.043710962183584036,-0.09140642466646974,0.01166650283200701
4,4,4877.972626301007,5636.791014136824,17.8357578060484,4945.890259493641,-3765.59231151337,102.4200098942882,5035.099832260717,42786.909148283135,10.9514730493119,5053.13364647957,-22287.565541581447,12.739827004304592,5289.023166947513,13571.657589490484,37.16657997337143,0.9045768192264222,49.0,34.0,157.0,266.0,423.0,15.0,845.0,857.0,16.0,11.0,5.0,0.6875,255.8244730699319,3466.1165545434205,94.0,30.0,64.0,0.3191489361702128,99.22996738489064,4388.983999077869,23.0,15.0,8.0,0.6521739130434783,1911.663437881572,20964.846926290367,24.0,3.0,21.0,0.125,1916.098442737876,38635.385827816426,101.0,50.0,51.0,0.495049504950495,115.0051218323723,13523.587467242976,,,,,4867.0,4882.0,4916.0,5010.0,5020.0,5043.0,5050.0,5073.0,5245.0,5339.0,0.04538477165967931,-0.026351755361697846,0.044678699067896545,-0.08597163468405963,0.008473918611196696
5,5,5759.184281777676,3639.3755280461983,7.058369014590909,5878.767200703312,-4703.871543587788,58.60320421987331,5917.45851942494,43599.56012558693,11.221743768531532,5936.369156835659,-21727.921671411845,12.739827004320276,6176.047532526813,13502.253763248704,35.90794035066074,0.9174282676925924,49.0,36.0,156.0,267.0,423.0,13.0,884.0,883.0,13.0,8.0,5.0,0.6153846153846154,266.96229980124093,3856.214972173587,97.0,83.0,14.0,0.8556701030927835,238.89470269964585,1669.741399164266,23.0,14.0,9.0,0.6086956521739131,1877.9079264825225,24844.300193184157,24.0,3.0,21.0,0.125,1915.4624721195007,39126.32621342761,97.0,47.0,50.0,0.4845360824742268,123.95253352002686,13440.41143602105,,,,,5751.0,5764.0,5800.0,5892.0,5903.0,5926.0,5933.0,5956.0,6131.0,6223.0,0.07335387561518276,-0.050786825381169624,0.04307171726213011,-0.0881567276008611,0.009180136567823127
6,6,6634.2466090014395,4208.846281351293,22.200132079875093,6724.767200703312,-2065.256753663029,58.60320421987331,6787.100309803325,37483.61055128458,10.549780227603035,6809.698643600575,-19302.239388938757,10.191861603456228,7050.835512095537,15053.228476513674,37.7862400925882,0.923713676458622,73.0,52.0,133.0,270.0,403.0,21.0,871.0,870.0,42.0,16.0,26.0,0.3809523809523809,220.19508063307543,4198.4005183032095,74.0,36.0,38.0,0.4864864864864865,129.4866670940208,1713.8642252144557,23.0,13.0,10.0,0.5652173913043478,1844.8552936063463,29594.146988191787,23.0,6.0,17.0,0.2608695652173913,1582.0177214803325,32242.84347616836,99.0,55.0,44.0,0.5555555555555556,117.46993724464726,15356.322166862525,,,,,6619.0,6640.0,6692.0,6755.0,6774.0,6797.0,6804.0,6825.0,6996.0,7095.0,0.05231720664371224,-0.06269761222877379,0.04921765183431942,-0.08196032023035191,0.007803637434184037
7,7,7486.972626301007,4381.563349143487,17.621893820872643,7557.862885794529,-3034.713668086388,96.82268523283416,7644.114234333265,43617.71309359385,11.142694303478132,7661.916276053918,-21996.136593417184,12.739827004319377,7899.519299642995,13811.213743268998,36.81298423642848,0.9112851472592634,50.0,35.0,155.0,267.0,422.0,15.0,854.0,856.0,17.0,11.0,6.0,0.6470588235294118,249.4049129496767,3781.368040543936,92.0,33.0,59.0,0.358695652173913,128.28281810165163,3220.2940750618563,24.0,15.0,9.0,0.625,1933.2074364456123,22310.07446695734,24.0,3.0,21.0,0.125,1877.7828695635592,37150.25868373607,97.0,47.0,50.0,0.4845360824742268,152.37099269617835,14258.07582966919,,,,,7477.0,7492.0,7527.0,7612.0,7629.0,7653.0,7659.0,7682.0,7854.0,7949.0,0.05692144403171317,-0.04227180292186954,0.04432161384292161,-0.08536875835393412,0.011032411454093782
8,8,8379.39728720115,4857.011936409148,19.762937991733505,8445.164242193954,-2875.0417656501604,107.0145468309324,8537.231126799928,42753.19519848088,11.1188922266955,8554.876695499283,-22359.62502388014,12.203753197912684,8794.561529395105,14580.61598620046,38.23827645172711,0.8929468358899687,53.0,37.0,153.0,269.0,422.0,16.0,892.0,893.0,16.0,11.0,5.0,0.6875,260.38471404648374,4737.537128457397,92.0,26.0,66.0,0.2826086956521739,128.96064769627284,3219.9048997204973,24.0,15.0,9.0,0.625,1926.274378704068,21024.95528437342,23.0,3.0,20.0,0.1304347826086956,1928.907782871848,37551.87393808752,93.0,45.0,48.0,0.4838709677419355,149.53675612592772,15483.60378583606,,,,,8368.0,8384.0,8421.0,8511.0,8522.0,8546.0,8552.0,8574.0,8752.0,8843.0,0.05361006261783856,-0.044855225839513936,0.045055682265650016,-0.08626744772382226,0.010255859990240047
9,9,9337.39728720115,5473.11792896856,20.383723206912453,9404.73958129388,-3144.5347376757613,99.31511736974883,9494.551513526249,42970.86817281557,10.776050464931217,9513.372543805066,-21200.73726795183,12.73982700432016,9753.735618448412,14058.731719838366,37.116565476302746,0.9157548920452352,54.0,36.0,152.0,270.0,422.0,18.0,958.0,958.0,18.0,11.0,7.0,0.6111111111111112,228.8499104807455,4380.333908098975,94.0,28.0,66.0,0.2978723404255319,132.5399433016768,3720.3834769484342,23.0,15.0,8.0,0.6521739130434783,1987.5777370547437,20948.138941263303,23.0,3.0,20.0,0.1304347826086956,1921.2304299724483,38533.23275368223,95.0,46.0,49.0,0.4842105263157895,135.35102239102585,14318.435140259762,,,,,9326.0,9344.0,9380.0,9470.0,9480.0,9503.0,9510.0,9532.0,9710.0,9802.0,0.041813444082662694,-0.04214930168004499,0.04625407448277096,-0.0906209253805849,0.00962754145169661
10,10,10273.54796540086,5229.085426678621,15.28779240518434,10336.314920393665,-3055.75721510366,107.20255730306135,10424.75807448443,37814.0407026714,10.640217035398004,10447.69864357968,-18385.954762708658,10.191861603339088,10686.155983601568,14475.333746044347,35.776431355452395,0.9082903968791848,46.0,30.0,157.0,269.0,426.0,16.0,937.0,931.0,19.0,14.0,5.0,0.7368421052631579,190.0111426048088,2246.2374336508474,93.0,29.0,64.0,0.3118279569892473,139.46710018946726,3368.144193740897,23.0,14.0,9.0,0.6086956521739131,1850.054423184754,28440.036720281772,22.0,6.0,16.0,0.2727272727272727,1593.7399783212725,33182.42635224544,92.0,44.0,48.0,0.4782608695652174,145.6061630792896,14956.953887646368,,,,,10261.0,10277.0,10307.0,10399.0,10411.0,10434.0,10442.0,10464.0,10642.0,10733.0,0.03633735674605319,-0.04564076605959552,0.04892506563187931,-0.0866824703362035,0.010058915782793552
11,11,11206.972626301009,3758.759223346201,15.8470325226906,11297.821948101297,-1970.098980692981,22.93168860777651,11365.57629580654,42038.513493272054,10.848749641599571,11383.876695499284,-21607.991178159908,12.73982700382902,11620.92857323002,14353.957822313614,41.96540118649743,0.9307474649853767,68.0,46.0,136.0,272.0,408.0,22.0,933.0,939.0,22.0,10.0,12.0,0.4545454545454545,235.90961596951092,5152.016424595426,70.0,40.0,30.0,0.5714285714285714,152.98175564174338,2044.8010114156664,25.0,16.0,9.0,0.64,1928.954491613373,20268.03362194872,21.0,3.0,18.0,0.1428571428571428,1871.6039457069992,36679.753693715465,107.0,53.0,54.0,0.4953271028037383,142.68185403953188,15022.221719619436,,,,,11197.0,11219.0,11265.0,11303.0,11350.0,11375.0,11381.0,11401.0,11573.0,11673.0,0.0627626304191665,-0.07765181198557453,0.04588541152679168,-0.08661628608950502,0.00994024476076759
12,12,12184.39728720115,5152.325113903371,20.383723206894206,12249.302811083133,-4051.3272948638814,94.13132635448343,12338.78478546235,43013.22065580122,11.06179282686881,12357.086589486084,-22260.64449381047,12.739827003815508,12599.561529395103,14239.00489353568,37.707824579489774,0.9081747277847696,49.0,32.0,156.0,271.0,427.0,17.0,977.0,974.0,18.0,12.0,6.0,0.6666666666666666,253.31897578528495,2868.6641906401837,95.0,30.0,65.0,0.3157894736842105,134.02188893912745,4161.911049801638,23.0,15.0,8.0,0.6521739130434783,1915.002049778334,20356.39633302658,24.0,3.0,21.0,0.125,1927.1443451760613,39032.75851167527,97.0,48.0,49.0,0.4948453608247423,146.9620097339414,15256.348333708018,,,,,12172.0,12189.0,12221.0,12313.0,12324.0,12347.0,12354.0,12377.0,12554.0,12648.0,0.049165953270633576,-0.033080982893935844,0.044521243017408334,-0.08657181267648834,0.010321087100732734
13,13,13096.54796540086,5534.393401540318,15.28779240518434,13165.314920393665,-3823.417625573846,112.11047763801852,13251.85390761332,40779.684083494394,10.268110602597549,13275.066624465324,-17850.605461556355,12.73982700432022,13521.958816596258,12962.872008750806,29.931998887645697,0.7674137323798094,49.0,33.0,156.0,266.0,422.0,16.0,913.0,914.0,16.0,9.0,7.0,0.5625,254.98393416864084,3726.235578445788,94.0,30.0,64.0,0.3191489361702128,147.26782674048167,4141.1970439316465,22.0,13.0,9.0,0.5909090909090909,1936.8739343917148,28817.68175892548,26.0,7.0,19.0,0.2692307692307692,1558.2138239872404,34841.139423557936,84.0,46.0,38.0,0.5476190476190477,154.79113685259605,12529.784628751762,,,,,13088.0,13104.0,13137.0,13228.0,13239.0,13261.0,13268.0,13293.0,13477.0,13559.0,0.04607260736066836,-0.038517326947348225,0.047496050494801795,-0.0872919312088915,0.011941114341644481
14,14,14812.707291275216,3242.0321527068986,13.460768072741706,14914.369913176432,-3173.3240070328466,38.21948101296085,14954.681315887545,35649.97860929747,11.436611634899458,14977.69864359997,-19542.11912093957,10.19186160344497,15211.068814170492,10567.35304363897,41.68784705288595,0.942463516301994,58.0,34.0,140.0,271.0,411.0,24.0,1717.0,1703.0,31.0,17.0,14.0,0.5483870967741935,214.92292355953728,2598.2686368234454,73.0,63.0,10.0,0.863013698630137,181.4406208663634,1677.165323787406,24.0,14.0,10.0,0.5833333333333334,1648.0452585250791,26385.827951582036,23.0,6.0,17.0,0.2608695652173913,1485.0908111650683,31194.78651801394,105.0,50.0,55.0,0.4761904761904761,133.4968656734587,10689.549398712788,,,,,14796.0,14820.0,14854.0,14923.0,14941.0,14965.0,14972.0,14994.0,15162.0,15265.0,0.06629265640690508,-0.05717683427984268,0.046228506238016956,-0.07599435874760271,0.01263295218037759
15,15,15571.821948101297,4226.2252270060935,18.37403365686917,15670.835757806046,-3676.5449914609394,70.15182270958509,15724.93683296101,43321.82596696328,10.82373780618923,15743.45203459914,-22340.702597789,13.502199315549069,15980.185828611742,14306.50707585721,38.53448642730364,0.9259346179878766,52.0,20.0,151.0,268.0,419.0,32.0,757.0,769.0,40.0,16.0,24.0,0.4,165.90023646021595,2655.2280572872496,92.0,63.0,29.0,0.6847826086956522,122.03453756664946,3587.1241261965993,22.0,15.0,7.0,0.6818181818181818,1883.151149589943,20997.640639932863,24.0,3.0,21.0,0.125,1982.0674271843095,39399.90278171073,101.0,49.0,52.0,0.4851485148514851,181.22899321282287,14802.414520691857,,,,,15559.0,15591.0,15611.0,15700.0,15710.0,15732.0,15740.0,15762.0,15933.0,16030.0,0.039254944436016626,-0.03319272247452,0.04346887758207634,-0.08872001310202614,0.012667591904291852
16,16,,,,,,,,,,,,,,,,,,,,,,,,,,,,,,,,,,,,,,,,,,,,,,,,,,,,,,,,,,,,16043.0,16310.0,16413.0,16422.0,16443.0,16451.0,16478.0,16658.0,16736.0,,,,,
17,17,,,,,,,,,,,,,,,,,,,,,,,,,,,,,,,,,,,,,,,,,,,,,,,,,,,,,,,,,,,,16735.0,16757.0,17121.0,17129.0,17147.0,17156.0,17190.0,17382.0,17428.0,,,,,
18,18,17735.178051898707,3468.5965948712287,16.23396530324812,17825.178051898707,-2034.4463952367807,22.93168860777651,17881.00694865589,43729.75569501462,10.646250255664183,17898.876695499283,-22042.482079441597,12.73982700431998,18135.79650714653,15161.082370154649,39.33819827887409,0.9396724205647944,90.0,66.0,97.0,269.0,366.0,24.0,2171.0,2156.0,45.0,24.0,21.0,0.5333333333333333,186.03985004436484,2969.7936268060957,89.0,59.0,30.0,0.6629213483146067,121.0747852794462,1231.2014688471704,24.0,15.0,9.0,0.625,2054.7661172930507,22398.627040718893,22.0,3.0,19.0,0.1363636363636363,1927.4235476470224,37835.60900266149,98.0,48.0,50.0,0.4897959183673469,146.89896036314937,15574.69954113854,,,,,17730.0,17754.0,17820.0,17840.0,17866.0,17890.0,17896.0,17917.0,18090.0,18186.0,0.05363548194663195,-0.059512398833863014,0.04698782521502408,-0.08744131176791002,0.009689213261734357
19,19,19120.972626301005,3211.19306942977,10.441347693033528,19222.753390998565,-2660.673811064995,25.47965400864057,19279.352122008757,42230.99750969464,11.032068695014956,19296.876695499283,-21521.125927285037,12.68925302737468,19542.56152939511,13253.03916919333,38.331656248579094,0.9279411689811212,67.0,48.0,137.0,276.0,413.0,19.0,1379.0,1398.0,20.0,10.0,10.0,0.5,229.05378191422352,4410.958765420714,84.0,59.0,25.0,0.7023809523809523,134.11406838833938,1453.8749286213274,25.0,15.0,10.0,0.6,1850.5554542883144,22961.517068316847,23.0,3.0,20.0,0.1304347826086956,1891.380492077896,35250.766798813806,99.0,50.0,49.0,0.5050505050505051,100.85772915423264,13849.527955193267,,,,,19111.0,19130.0,19178.0,19237.0,19264.0,19289.0,19294.0,19315.0,19495.0,19591.0,0.07132980700998397,-0.050406054222278826,0.04381983764090576,-0.08788482993261776,0.007610158535460779
20,20,20079.972626301005,3153.287402123144,14.263545534259702,20197.04118340374,-3386.762455536016,61.67895383751592,20237.23738492456,45629.67969253495,10.88370968474763,20254.876695499283,-20941.538981865426,12.739827004242894,20502.260172995684,15123.090223148414,35.343877420994744,0.9123524714775164,53.0,33.0,151.0,271.0,422.0,20.0,959.0,958.0,21.0,11.0,10.0,0.5238095238095238,200.2416415444996,3497.282230869481,93.0,77.0,16.0,0.8279569892473119,114.80172147461892,1823.0052070376023,23.0,14.0,9.0,0.6086956521739131,2078.911139982614,26139.950546466294,24.0,3.0,21.0,0.125,1908.8526239120476,36297.499917124704,92.0,49.0,43.0,0.532608695652174,129.45222117784712,15249.319858340568,,,,,20070.0,20090.0,20123.0,20212.0,20223.0,20246.0,20252.0,20274.0,20454.0,20545.0,0.06350250262937486,-0.03389718735276622,0.04556050259372575,-0.09115149682003033,0.008559905367733565
21,21,21020.246609001435,3471.7233248871507,16.63477865783557,21107.821948101293,-2025.9806567839096,22.93168860777651,21175.189522763452,44024.95024115543,10.660099398021549,21192.876695499283,-21138.02052539686,12.48520572789491,21441.260172995684,15359.635982504897,36.409895116061755,0.9393928925955712,89.0,52.0,115.0,274.0,389.0,37.0,939.0,938.0,38.0,14.0,24.0,0.3684210526315789,195.3324412934201,4790.108871159052,80.0,39.0,41.0,0.4875,137.13641447092945,1831.6503402916885,25.0,15.0,10.0,0.6,2030.788879166885,24314.009361351724,22.0,3.0,19.0,0.1363636363636363,1915.64889445865,36569.58141300744,92.0,49.0,43.0,0.532608695652174,147.5163261454707,15897.890396029885,,,,,21006.0,21043.0,21095.0,21135.0,21160.0,21185.0,21190.0,21210.0,21393.0,21484.0,0.056263827216061185,-0.06768890611651895,0.04612813570584032,-0.0906257467276579,0.009604155092835298
22,22,22031.397287201147,5127.979504769961,20.38372320691244,22098.5889030941,-2432.933758492991,104.46658111022576,22188.88090308699,42296.08191399782,11.288208579677264,22206.876695499283,-22784.33686957581,11.208859643426845,22450.365906084033,14372.796249791803,36.366538398936235,0.9210374394698468,52.0,35.0,153.0,273.0,426.0,17.0,1012.0,1014.0,18.0,12.0,6.0,0.6666666666666666,272.44021215948163,4846.22660970147,93.0,29.0,64.0,0.3118279569892473,111.1070580228641,2503.1438457217087,25.0,16.0,9.0,0.64,1986.4518685170715,20443.5917818002,23.0,4.0,19.0,0.1739130434782608,1929.4964983688103,37837.14356691521,96.0,47.0,49.0,0.4895833333333333,125.0305000001626,14654.348325726394,,,,,22020.0,22037.0,22072.0,22157.0,22173.0,22198.0,22204.0,22225.0,22405.0,22498.0,0.053128178828730166,-0.04566793388229612,0.04696538730363246,-0.08468521640168028,0.008699107524186445
23,23,23029.246609001435,3910.2466506436217,17.611895446786423,23138.191861603453,-2719.925657041138,61.15116962010107,23181.126583015837,42412.13732570231,10.650966164106158,23201.75774417206,-18819.488428412125,12.739827004258174,23444.56152939511,14425.695594977977,37.352829714112794,0.930695835586416,89.0,56.0,115.0,274.0,389.0,33.0,997.0,993.0,35.0,14.0,21.0,0.4,208.94195697477733,4260.646525404544,85.0,66.0,19.0,0.7764705882352941,176.84352319114214,1972.4039674625617,23.0,14.0,9.0,0.6086956521739131,1928.0753551032672,27829.536113347127,22.0,5.0,17.0,0.2272727272727272,1684.400276120757,35216.416050077605,96.0,48.0,48.0,0.5,140.96988691251366,15249.769062763717,,,,,23015.0,23048.0,23104.0,23156.0,23167.0,23190.0,23197.0,23219.0,23399.0,23493.0,0.05343446990495746,-0.06501777823718931,0.04546046194976428,-0.08950297892145608,0.009772137917674456
24,24,23933.972626301005,4876.301569642561,17.8357578060484,23995.314920393663,-4052.294463591154,111.33005507784968,24084.550958460615,37843.551359730445,10.747042129380954,24106.61833691672,-19386.12128732845,10.191861603456124,24346.964289469684,13649.440917098978,35.1508432845981,0.888720420691253,48.0,32.0,153.0,271.0,424.0,16.0,906.0,904.0,18.0,13.0,5.0,0.7222222222222222,183.9035235665053,1497.517494016491,93.0,27.0,66.0,0.2903225806451613,112.02912856470574,4370.9261178623765,23.0,14.0,9.0,0.6086956521739131,1920.0826800469856,24704.50110697991,23.0,6.0,17.0,0.2608695652173913,1634.1484657906171,34437.5092746206,92.0,45.0,47.0,0.4891304347826087,133.72807865150753,14166.496296051408,,,,,23922.0,23938.0,23970.0,24061.0,24071.0,24094.0,24101.0,24123.0,24303.0,24394.0,0.037713730568141555,-0.027645850905273363,0.050737380902632655,-0.0842947612660797,0.009797330122436238
25,25,24808.397287201147,4066.357043886291,16.473188989764385,24900.50032424935,-3547.312000121553,73.89099662505764,24962.845569651752,43262.33748889178,11.05530122932963,24980.876695499283,-21461.490956463284,12.739827004320285,25225.052837818737,14371.875900864972,36.24092550836541,0.9091009104083356,52.0,36.0,152.0,270.0,422.0,16.0,874.0,877.0,16.0,11.0,5.0,0.6875,225.7607662340696,3950.2099903659,92.0,55.0,37.0,0.5978260869565217,145.27825872382127,2997.725944092229,24.0,15.0,9.0,0.625,1952.10545467217,20450.39518190475,23.0,3.0,20.0,0.1304347826086956,1885.6326964875968,37884.97722814971,94.0,46.0,48.0,0.4893617021276595,131.90794048037944,15076.968772019723,,,,,24797.0,24813.0,24849.0,24936.0,24948.0,24972.0,24978.0,25001.0,25182.0,25271.0,0.05551916956566754,-0.04095446318757502,0.04512251459305454,-0.08786121618077633,0.009178199240673972
26,26,25712.972626301005,5509.3703623547,17.8357578060484,25779.16424219457,-2765.809106537487,106.00687983009306,25869.564658845047,43517.83004018123,10.98447376719322,25886.876695499283,-22705.44669642873,12.484341111951782,26130.33155436098,14263.360205617377,37.607610439585386,0.9097458411135502,52.0,36.0,151.0,272.0,423.0,16.0,905.0,907.0,16.0,10.0,6.0,0.625,270.77132008552155,5094.780376517507,90.0,25.0,65.0,0.2777777777777778,89.33991023325055,3408.437497690097,24.0,16.0,8.0,0.6666666666666666,2006.544326460204,18130.84541405372,23.0,3.0,20.0,0.1304347826086956,1956.753016283261,38592.06061981376,99.0,49.0,50.0,0.494949494949495,163.47767228873974,14990.708090685646,,,,,25703.0,25719.0,25755.0,25843.0,25854.0,25878.0,25884.0,25906.0,26086.0,26178.0,0.04914741654249473,-0.03230154605467153,0.04610855652976046,-0.08617989517867679,0.01146137164960308
27,27,26587.69864360057,5407.547420353025,10.191861603456228,26657.739581296108,-4551.130795085323,109.56251223715434,26742.21233992729,40773.824174193935,10.324451482899503,26764.367481311707,-18950.10577973727,12.73982700183094,27006.83551209554,13021.326223597476,33.123273095551205,0.8815311163713749,45.0,35.0,159.0,267.0,426.0,10.0,876.0,873.0,12.0,9.0,3.0,0.75,195.57874337391405,2138.2566440231813,97.0,35.0,62.0,0.3608247422680412,105.73319371054664,4602.90509692121,22.0,13.0,9.0,0.5909090909090909,1930.64490462932,27265.897818909332,26.0,6.0,20.0,0.2307692307692307,1692.8872023766655,36925.29770120674,88.0,43.0,45.0,0.4886363636363636,140.48183932146523,13242.6895633257,,,,,26580.0,26590.0,26625.0,26719.0,26729.0,26751.0,26758.0,26784.0,26964.0,27051.0,0.03616773523571726,-0.023232290714370555,0.047350106195122116,-0.08933391834608198,0.010788596868641658
28,28,27441.54796540086,4306.135854369372,15.28779240518434,27513.6165225036,-3812.587110405345,63.69913502160143,27594.081854800523,39718.15744355363,10.549277586555798,27615.49178434705,-19573.134066219696,12.73982700421705,27858.83551209554,13237.47641023593,34.770404332912406,0.9179534681662858,49.0,33.0,154.0,271.0,425.0,16.0,853.0,851.0,19.0,15.0,4.0,0.7894736842105263,181.49285581529233,2017.5740658436816,95.0,39.0,56.0,0.4105263157894737,108.78099832186425,3475.042562665792,23.0,14.0,9.0,0.6086956521739131,1839.553951421988,24608.842366161072,22.0,5.0,17.0,0.2272727272727272,1678.4690215251562,35937.8020156812,95.0,50.0,45.0,0.5263157894736842,110.8079608598716,13626.99166251915,,,,,27429.0,27445.0,27478.0,27570.0,27580.0,27603.0,27610.0,27632.0,27810.0,27903.0,0.04214749881407811,-0.028532068952596055,0.046315188564230655,-0.08575371812437248,0.008370776832825094
29,29,28301.123304500717,4036.846501868915,7.391910079621266,28418.191861603453,-3662.727930874939,61.15116962073736,28460.00099775531,42524.88961649347,11.416203183461755,28477.876695499283,-22747.85304743571,11.98888334077868,28723.410851195396,14204.780084334272,35.840187129368594,0.9114259891939752,51.0,37.0,151.0,273.0,424.0,14.0,860.0,866.0,15.0,8.0,7.0,0.5333333333333333,269.6308854484537,4113.227433140257,94.0,77.0,17.0,0.8191489361702128,138.81063330188306,1880.7468181035383,25.0,16.0,9.0,0.64,1891.0490434665992,19591.99160742256,23.0,3.0,20.0,0.1304347826086956,1920.2139491342816,38023.78945490661,95.0,49.0,46.0,0.5157894736842106,153.81502570142328,14581.137833335164,,,,,28294.0,28308.0,28345.0,28432.0,28444.0,28469.0,28475.0,28496.0,28675.0,28769.0,0.06679245428916464,-0.037898155670198656,0.04446922873923575,-0.08441297493570458,0.01082839894656715
30,30,29171.397287201147,3753.091186811612,13.416887369443518,29284.890505204028,-3863.856360960014,71.3430312241936,29325.24248182242,42264.87261356166,10.585207762568793,29346.895034333877,-18921.12504182828,12.739827004299924,29589.83551209554,13472.398928053595,34.896017987042036,0.9106908435970767,51.0,34.0,155.0,268.0,423.0,17.0,869.0,866.0,18.0,12.0,6.0,0.6666666666666666,241.75777537147576,3546.4837848997295,94.0,77.0,17.0,0.8191489361702128,199.73533450269096,2733.7116634912636,22.0,13.0,9.0,0.5909090909090909,1928.5587450533455,28370.08774249622,25.0,6.0,19.0,0.24,1649.9748611452071,36371.65928515516,94.0,49.0,45.0,0.5212765957446809,149.52519203801998,13548.01917393546,,,,,29160.0,29177.0,29211.0,29301.0,29312.0,29334.0,29341.0,29366.0,29542.0,29634.0,0.06441564122422984,-0.051693260784949235,0.04563029830201175,-0.08720278828545684,0.011098631567883835
31,31,30007.397287201147,3529.972855751002,10.941728143252712,30122.191861603424,-4068.387741417772,61.15116962073736,30161.71838000365,42611.279506120656,11.151441364069456,30181.186485688817,-20675.288577751417,12.739827003198018,30421.6642406166,14311.11925414717,37.7894317159419,0.907335654557292,50.0,33.0,155.0,270.0,425.0,17.0,836.0,836.0,17.0,11.0,6.0,0.6470588235294118,232.80735504601483,4017.4487929471,93.0,78.0,15.0,0.8387096774193549,164.266756339408,1776.1312640469623,23.0,15.0,8.0,0.6521739130434783,1913.2977311360137,23064.613190855827,24.0,4.0,20.0,0.1666666666666666,1774.6487171930885,37364.5088746252,96.0,47.0,49.0,0.4895833333333333,145.30474895991858,15102.601198727936,,,,,29996.0,30013.0,30046.0,30136.0,30147.0,30170.0,30177.0,30201.0,30376.0,30471.0,0.06595159922171273,-0.04037637678117758,0.04490120346799698,-0.08583429007625944,0.010153276370596327
32,32,30850.972626301005,3263.3331162279687,9.15949842631243,30968.191861603453,-4838.039304679515,61.15116962073736,31007.013739262453,44216.077227597045,11.15377980795028,31025.45203459914,-21701.3921246959,13.443704159410885,31266.50056725829,13174.744486942573,37.03376198021194,0.9012913722009224,49.0,35.0,156.0,270.0,426.0,14.0,844.0,846.0,16.0,11.0,5.0,0.6875,257.6927878874845,3433.922864098742,94.0,79.0,15.0,0.8404255319148937,181.0780223767286,2169.426682730603,24.0,15.0,9.0,0.625,1862.322590981609,21518.143691290832,25.0,3.0,22.0,0.12,1935.4044715948328,39024.80769584205,97.0,48.0,49.0,0.4948453608247423,139.48651968169506,13887.767635113796,,,,,30841.0,30855.0,30890.0,30982.0,30992.0,31016.0,31022.0,31046.0,31220.0,31316.0,0.07896613024457252,-0.03742797670155011,0.04211867510081283,-0.08918342475330732,0.010587417450102315
33,33,31714.067085700204,5587.80869413726,10.191861603456228,31778.314920393663,-2591.6170610273207,100.98083650569168,31868.973721771978,42120.103983615685,10.60093223287647,31889.10155344758,-19982.761374135443,12.739827004320285,32131.56152939511,13745.61938204055,37.157954112501606,0.9081357414032436,50.0,36.0,154.0,273.0,427.0,14.0,865.0,862.0,14.0,11.0,3.0,0.7857142857142857,251.81906173809065,4048.3422923079265,87.0,25.0,62.0,0.2873563218390804,96.37466283597377,3668.692437982712,22.0,14.0,8.0,0.6363636363636364,1920.7980947485385,25798.774351867614,22.0,4.0,18.0,0.1818181818181818,1779.5104980346475,37299.64863573476,96.0,48.0,48.0,0.5,150.37644660330534,14542.692333093168,,,,,31703.0,31717.0,31753.0,31843.0,31855.0,31877.0,31885.0,31907.0,32085.0,32180.0,0.04506579869176618,-0.03718707685840388,0.045602881120514575,-0.0890522818501924,0.010939954208231671
34,34,32541.821948101293,3618.316501078442,14.471642586408352,32639.73982700428,-1834.1172527644703,57.18545251776761,32694.898901451452,41515.777140212595,10.624900038818414,32715.88734039366,-19111.403175180774,12.739827004304232,32950.89280286493,13736.209394883464,42.34538717866838,0.9155885770647147,64.0,32.0,138.0,274.0,412.0,32.0,825.0,826.0,36.0,13.0,23.0,0.3611111111111111,195.16036645555607,4167.90005797981,84.0,60.0,24.0,0.7142857142857143,109.50173934175416,1041.1934340039,23.0,14.0,9.0,0.6086956521739131,1905.3264360605644,28132.225217625768,20.0,5.0,15.0,0.25,1676.3671338730703,34468.91771163908,109.0,54.0,55.0,0.4954128440366973,155.25133789731856,14434.89777890192,,,,,32529.0,32561.0,32593.0,32657.0,32681.0,32704.0,32711.0,32731.0,32904.0,33005.0,0.05393678701058583,-0.05970269304032108,0.045894032758332884,-0.0877155444059755,0.011302342111583374
35,35,33328.54796540086,3531.9645993341505,15.28779240518434,33406.04118340374,-2885.6389695351527,66.24710042246546,33484.75635545478,40841.237676075536,10.785883569426682,33504.98407763439,-20793.425219393936,12.739827003774945,33741.86437831457,13624.453958632404,39.05625632110483,0.9202702595130274,49.0,22.0,154.0,270.0,424.0,27.0,788.0,789.0,28.0,10.0,18.0,0.3571428571428571,143.4571415853006,3081.5427943882137,94.0,41.0,53.0,0.4361702127659574,112.58406892614012,2503.2445411316357,23.0,15.0,8.0,0.6521739130434783,1904.7791204529033,23625.013835668655,23.0,5.0,18.0,0.217391304347826,1727.4010740674662,36225.47250347489,97.0,46.0,51.0,0.4742268041237113,135.03060798636847,14137.298848153594,,,,,33320.0,33347.0,33369.0,33451.0,33470.0,33493.0,33500.0,33523.0,33697.0,33793.0,0.040616811848098726,-0.03901529959732845,0.04663862382331051,-0.08307438797800022,0.009910900531966903
36,36,34126.39728720114,4207.342392940293,20.382928607242825,34221.73982700431,-2508.513300208135,75.91889685018324,34280.636353545655,38029.375741463155,11.075673779124433,34301.96277179,-20555.18573139131,10.19186160345595,34541.986190295254,13680.27638199689,37.964652833386616,0.9314309018344984,56.0,25.0,146.0,272.0,418.0,31.0,797.0,797.0,41.0,12.0,29.0,0.2926829268292683,184.96401023355028,3558.2576909918957,91.0,58.0,33.0,0.6373626373626373,132.85838152441576,1411.1536231193809,25.0,15.0,10.0,0.6,1858.615825962645,23984.827526908368,21.0,5.0,16.0,0.238095238095238,1682.9026950667533,34668.7855234925,96.0,48.0,48.0,0.5,119.47587900159154,13961.71456704938,,,,,34115.0,34146.0,34171.0,34239.0,34266.0,34291.0,34297.0,34317.0,34495.0,34589.0,0.04396219583742709,-0.052962996653592505,0.0488731615948197,-0.08187241492528433,0.008733440441219494
37,37,34924.72434271912,5685.427363159764,19.052981903985778,34980.16424219396,-3170.2710773176254,70.16997073260923,35071.30127906965,41945.4139167228,10.94498347875905,35089.87669549929,-22069.06409115968,12.3585952016792,35326.56634170427,13521.123026088002,41.03929662150851,0.9263092402100572,50.0,22.0,151.0,271.0,422.0,28.0,799.0,789.0,36.0,20.0,16.0,0.5555555555555556,163.4280851564004,2426.8126964251705,86.0,25.0,61.0,0.2906976744186046,108.72853048434987,3430.36279034425,24.0,15.0,9.0,0.625,1856.3527583762743,23203.12353142484,22.0,4.0,18.0,0.1818181818181818,1903.8152537678832,37841.8482507935,106.0,54.0,52.0,0.5094339622641509,157.42721645934424,14515.693074321862,,,,,34906.0,34934.0,34956.0,35041.0,35056.0,35080.0,35087.0,35107.0,35279.0,35378.0,0.028745083652880005,-0.03429628818250626,0.04425639384705615,-0.08626624336690855,0.011643057766400034
38,38,35691.821948101286,3883.5363039435874,14.143202384945152,35806.616522503595,-4049.9076664190434,63.69913502160143,35844.02176177168,41884.550028385645,10.452038747618268,35866.217474617704,-18723.655733231473,12.739827004320285,36100.16174551582,12723.018119296212,39.24150325761347,0.9241719689285576,52.0,22.0,154.0,266.0,420.0,30.0,766.0,775.0,33.0,14.0,19.0,0.4242424242424242,197.95005982202977,3163.4342182834916,91.0,77.0,14.0,0.8461538461538461,200.705386108673,1629.860684868027,22.0,13.0,9.0,0.5909090909090909,1934.8338731758024,28253.417096101337,25.0,6.0,19.0,0.24,1657.5870147126004,35858.757531538344,99.0,47.0,52.0,0.4747474747474747,118.74727993739864,13102.165563370148,,,,,35679.0,35709.0,35731.0,35821.0,35831.0,35853.0,35860.0,35885.0,36053.0,36151.0,0.050971600193622194,-0.04955801530313359,0.04619445289168782,-0.0885290265068616,0.00933326344613956
39,39,36453.35249330637,4008.063386316174,13.732358172089242,36542.01469916265,-2939.364037115616,61.2428780743312,36597.25924479949,40628.75681309396,10.723496924792588,36617.24264020458,-21624.10185017581,12.739827004320285,36849.97364620299,13205.849977160293,43.60682445729056,0.9246885889302764,34.0,18.0,151.0,272.0,423.0,16.0,766.0,752.0,17.0,7.0,10.0,0.4117647058823529,210.5772732530487,2700.481427238103,86.0,62.0,24.0,0.7209302325581395,123.57735025405876,2543.0102390600073,23.0,14.0,9.0,0.6086956521739131,1895.5340063308165,24740.74183815073,20.0,4.0,16.0,0.2,1795.58168052466,37331.52255737197,109.0,53.0,56.0,0.4862385321100917,142.1043584498063,13786.424498263434,,,,,36447.0,36463.0,36481.0,36566.0,36583.0,36606.0,36613.0,36632.0,36803.0,36904.0,0.05253840894132941,-0.042042206645259435,0.04665498417908564,-0.08303612760268521,0.010760712767112896
40,40,37191.41594575329,3447.489508541846,8.022088831033022,37291.616522503595,-4743.294921867241,63.69913502160143,37331.232186937385,40759.17580886631,11.168861871228168,37350.59393130525,-22543.003455549668,12.739827004314913,37588.94465312703,11366.211222197262,32.40433667021282,0.9084671761112004,28.0,18.0,156.0,264.0,420.0,10.0,738.0,734.0,10.0,5.0,5.0,0.5,261.3552072880677,2309.7781252087866,99.0,84.0,15.0,0.8484848484848485,202.50584474450895,2130.0382091079027,22.0,14.0,8.0,0.6363636363636364,1851.7470478214511,21008.18599661451,24.0,5.0,19.0,0.2083333333333333,1772.0855528052416,38474.08141221694,89.0,44.0,45.0,0.4943820224719101,127.90801331537612,11292.537058812542,,,,,37186.0,37196.0,37214.0,37306.0,37317.0,37339.0,37346.0,37370.0,37548.0,37634.0,0.07581029808517409,-0.04269307476769559,0.04543141540704663,-0.07860911507641132,0.01125335530150825
41,41,,,,,,,,,,,,,,,,,,,,,,,,,,,,,,,,,,,,,,,,,,,,,,,,,,,,,,,,,,,,37653.0,37926.0,38018.0,38028.0,38050.0,38057.0,38082.0,38260.0,38342.0,,,,,
42,42,,,,,,,,,,,,,,,,,,,,,,,,,,,,,,,,,,,,,,,,,,,,,,,,,,,,,,,,,,,,38343.0,38604.0,38715.0,38724.0,38744.0,38751.0,38782.0,38969.0,39027.0,,,,,
43,43,39309.00367090558,5887.2962289225725,10.191861603456228,39367.82325847092,-3288.751994357976,114.65844303888257,39452.66014865026,42695.64610674437,10.838085428430457,39469.87669549929,-22373.10395404079,12.69039915111716,39705.87842023414,10876.257904432809,34.230638668199575,0.8976806817884054,27.0,17.0,156.0,264.0,420.0,10.0,2118.0,2120.0,10.0,3.0,7.0,0.3,246.6737889972852,3177.8646756762664,97.0,37.0,60.0,0.3814432989690721,130.70251938374014,3800.09290623025,25.0,16.0,9.0,0.64,1988.596024770924,16639.7562881588,23.0,3.0,20.0,0.1304347826086956,1931.3805314189265,38711.92917481405,92.0,44.0,48.0,0.4782608695652174,135.01740078516997,10986.182508350848,,,,,39306.0,39316.0,39333.0,39427.0,39438.0,39461.0,39467.0,39489.0,39665.0,39753.0,0.04189933365089541,-0.0397422851002347,0.04657608459183846,-0.08632599818900413,0.012413957260993348
44,44,,,,,,,,,,,,,,,,,,,,,,,,,,,,,,,,,,,,,,,,,,,,,,,,,,,,,,,,,,,40046.0,40078.0,40103.0,40173.0,40197.0,40222.0,40227.0,40247.0,40416.0,40517.0,,,,,
45,45,40871.1361203088,4585.030193147107,18.186336967802724,40952.53415569612,-2882.7819252041995,67.05676049961349,41016.97190161953,42971.70682746759,11.192200095089085,41033.87669549929,-23935.20038238432,12.18221911733808,41264.82703125662,12909.686805371235,42.51236898596497,0.920871506573031,56.0,21.0,147.0,268.0,415.0,35.0,1564.0,1564.0,37.0,24.0,13.0,0.6486486486486487,161.81354190037473,2376.8570660360656,93.0,54.0,39.0,0.5806451612903226,101.65858618306773,2537.1012080401365,25.0,16.0,9.0,0.64,1973.5405383886668,17933.166489410065,23.0,3.0,20.0,0.1304347826086956,1963.590506083858,37733.51042941445,111.0,53.0,58.0,0.4774774774774775,135.411469133903,13159.414936896172,,,,,40849.0,40884.0,40905.0,40991.0,41001.0,41025.0,41031.0,41052.0,41218.0,41320.0,0.03529170694278634,-0.03526405701876559,0.04592651035046102,-0.08203777176350732,0.010489136659579021
46,46,41691.61069206086,4741.242786173,18.37267152016545,41786.06413476901,-4008.675194138698,73.89099662505764,41836.6903811329,43667.11094582197,11.217929553393155,41853.87669549929,-23373.889516740903,12.300243966229448,42092.03001491389,12648.722348595213,38.185576120069385,0.9312386050759196,63.0,31.0,139.0,270.0,409.0,32.0,819.0,821.0,32.0,22.0,10.0,0.6875,178.1617092052305,2503.8970920031834,91.0,65.0,26.0,0.7142857142857143,124.56266972846076,3564.743710589597,24.0,16.0,8.0,0.6666666666666666,1954.933927887404,17866.632555890123,24.0,3.0,21.0,0.125,1983.3227741616124,38881.66354678264,99.0,48.0,51.0,0.4848484848484848,133.95206268735691,12734.123671990956,,,,,41670.0,41702.0,41733.0,41812.0,41821.0,41845.0,41851.0,41872.0,42049.0,42142.0,0.037577006122700096,-0.03107327575718547,0.044769023769694806,-0.0848520642121249,0.01059016547250196
47,47,42493.027373699,3869.816634060953,14.7874397726783,42597.7672007033,-3761.5973042251862,58.60320421987331,42637.09141863488,42526.09558114089,10.736512331648733,42657.72184573257,-19576.017041732593,12.739827004320285,42895.12381087214,12541.352802696263,36.26261978115907,0.9291415084696696,54.0,23.0,151.0,266.0,417.0,31.0,803.0,801.0,35.0,22.0,13.0,0.6285714285714286,195.0287139584873,1507.721401895693,94.0,78.0,16.0,0.8297872340425532,158.43982982183633,1410.289821032747,23.0,14.0,9.0,0.6086956521739131,1958.232130176909,27479.970384745655,24.0,5.0,19.0,0.2083333333333333,1657.429692527763,36052.079363036406,96.0,47.0,49.0,0.4895833333333333,138.0405091867205,12370.68501706826,,,,,42472.0,42503.0,42526.0,42611.0,42623.0,42646.0,42653.0,42677.0,42850.0,42943.0,0.05039740442529076,-0.04212035925373244,0.04604777615759602,-0.08466633886732,0.011006827681065092
48,48,43261.027373699,3836.7938216417074,12.8509572332415,43348.32873009842,-2300.4003592499307,28.027619409504627,43401.00946289836,36506.140521843154,10.547849182941754,43423.69864360057,-19968.83558695054,10.191861603456228,43654.28754999155,13189.215190414405,42.665228757152846,0.9358234850978412,54.0,32.0,134.0,270.0,404.0,22.0,768.0,764.0,22.0,12.0,10.0,0.5454545454545454,231.72758955561983,4128.970860101129,63.0,47.0,16.0,0.746031746031746,121.21375458033056,1796.019895918882,23.0,13.0,10.0,0.5652173913043478,1857.811025132196,29467.38952907747,24.0,7.0,17.0,0.2916666666666667,1609.329545138954,32321.89651204524,111.0,55.0,56.0,0.4954954954954955,136.96182079926257,13510.25665380374,,,,,43249.0,43271.0,43303.0,43364.0,43388.0,43411.0,43418.0,43437.0,43602.0,43707.0,0.060396153749139175,-0.05269246028976172,0.05089037073148255,-0.08059205746531545,0.010384379875673196
49,49,44004.19748935263,4195.919361361919,15.879721851432492,44091.31516610417,-2143.661626956521,62.93773815015788,44147.151452350474,42919.60414551787,11.221840688469252,44164.87669549929,-22916.9352325038,12.739827004320285,44409.26017299569,13453.534076365817,38.041884162702125,0.925025843144116,52.0,34.0,133.0,271.0,404.0,18.0,743.0,745.0,20.0,9.0,11.0,0.45,234.4853563667985,3896.045640737604,74.0,56.0,18.0,0.7567567567567568,128.9338617062881,1918.02018829938,24.0,15.0,9.0,0.625,1902.249775505555,22289.388831572596,22.0,3.0,19.0,0.1363636363636363,1899.464000418823,36904.39300505798,97.0,54.0,43.0,0.5567010309278351,127.21489550808067,13528.281059448424,,,,,43996.0,44014.0,44048.0,44108.0,44132.0,44156.0,44162.0,44181.0,44355.0,44452.0,0.05588414270447009,-0.06014655488764935,0.04432123299777005,-0.08288473049069642,0.009455871950520606
50,50,44762.626700683875,4113.223130938147,16.85975849536192,44817.67126990158,-2557.7017795334086,28.027619409504627,44904.43459899746,41793.77208380016,10.877999339145829,44921.87669549929,-22482.4187464916,12.33642084017733,45154.47074002052,13388.358058472037,42.63972934408818,0.9326325135422509,50.0,32.0,135.0,272.0,407.0,18.0,755.0,757.0,18.0,11.0,7.0,0.6111111111111112,250.6328607292314,5011.328997902303,81.0,25.0,56.0,0.3086419753086419,100.47598468530164,2588.4966405552627,26.0,16.0,10.0,0.6153846153846154,1886.083159050407,22234.424397119343,21.0,3.0,18.0,0.1428571428571428,1933.7305094917135,36642.610016132254,104.0,49.0,55.0,0.4711538461538461,122.5272609769094,13852.74215581122,,,,,44752.0,44770.0,44802.0,44862.0,44889.0,44913.0,44919.0,44937.0,45111.0,45209.0,0.060933446290346735,-0.039283698157973314,0.045128330490692384,-0.08601078608561517,0.009151776524185145
51,51,45543.93758292967,5314.1540215023715,20.383723205655684,45599.302263904465,-3003.6014175109112,83.57200726941467,45689.81687379378,42104.168511003554,11.001849970745129,45707.87669549929,-22758.490405947658,12.73982700431643,45939.93484726366,12933.43635326028,41.221067787911856,0.9211036204068128,35.0,19.0,151.0,269.0,420.0,16.0,785.0,786.0,21.0,8.0,13.0,0.3809523809523809,213.29523100845,2905.8427748480226,92.0,27.0,65.0,0.2934782608695652,129.15641151119164,2664.80365258134,24.0,16.0,8.0,0.6666666666666666,1901.5655965183844,19323.992258065085,22.0,3.0,19.0,0.1363636363636363,1927.9368658915232,38403.4376266109,106.0,51.0,55.0,0.4811320754716981,121.85748922386124,13570.259538360988,,,,,45539.0,45555.0,45574.0,45663.0,45675.0,45698.0,45705.0,45725.0,45892.0,45994.0,0.04013719401910542,-0.043000516233017275,0.045163357068111365,-0.08471286238685147,0.009421895766560386
52,52,46375.821948101286,3805.0957175540934,15.764223487748986,46490.7672007033,-3419.3420790542978,56.66541771715302,46529.33342940028,42633.7535607722,10.83606918410685,46549.39382418322,-19533.902417514677,12.739827004320285,46782.444980593515,11943.236249722446,41.7758345301994,0.94031289613019,51.0,18.0,154.0,269.0,423.0,33.0,825.0,840.0,40.0,15.0,25.0,0.375,206.97359592049415,3734.3728980383166,92.0,78.0,14.0,0.8478260869565217,180.74873745689493,899.6247581113098,23.0,14.0,9.0,0.6086956521739131,1876.1170682482204,27865.41420852884,23.0,4.0,19.0,0.1739130434782608,1782.0775323025755,37042.01856503193,109.0,53.0,56.0,0.4862385321100917,152.15361527613592,12142.481526840802,,,,,46363.0,46396.0,46414.0,46504.0,46515.0,46538.0,46545.0,46568.0,46737.0,46837.0,0.05439379486977434,-0.0528606770770608,0.04400543962365202,-0.09122998027801715,0.012739730848049823
53,53,47175.821948101286,3128.131676489721,13.26706324910936,47291.191861603445,-4782.991731576422,61.15116962073736,47328.95748118719,37830.72921883428,10.991507612172642,47351.69864360057,-19621.12531094165,10.191861603456228,47580.32423391034,12161.620762631908,39.85798959209632,0.911748559342863,49.0,30.0,157.0,265.0,422.0,19.0,800.0,801.0,35.0,14.0,21.0,0.4,192.70413710049857,2854.1709176884387,96.0,80.0,16.0,0.8333333333333334,161.4756543834105,1961.0853957147576,22.0,13.0,9.0,0.5909090909090909,1791.4038271104312,27125.88585653729,25.0,7.0,18.0,0.28,1592.4418642933667,34507.64754829044,108.0,53.0,55.0,0.4907407407407407,129.10345675200006,12372.19986212664,,,,,47163.0,47182.0,47212.0,47305.0,47316.0,47338.0,47346.0,47369.0,47528.0,47634.0,0.0616035886688582,-0.03376038752427236,0.047353140267213475,-0.08115955833610355,0.010615645666956372
54,54,47979.972626301,3228.610617437786,15.90106836416284,48086.10974050647,-3710.673860053857,60.214197884287906,48137.57196844799,41766.58408892456,10.954323091114349,48156.820586462614,-21957.698719557404,12.739827004320285,48388.1042300239,12710.239883018154,40.53769338627322,0.9202707155196168,52.0,20.0,153.0,268.0,421.0,32.0,805.0,807.0,34.0,10.0,24.0,0.2941176470588235,188.4856186052799,3874.1516168950375,92.0,65.0,27.0,0.7065217391304348,90.35354930788608,3657.626624042028,23.0,15.0,8.0,0.6521739130434783,1933.1018260563137,20214.098954948087,22.0,4.0,18.0,0.1818181818181818,1812.270152506663,38302.162690863646,109.0,53.0,56.0,0.4862385321100917,138.30847815707455,12965.557824451998,,,,,47970.0,48002.0,48022.0,48112.0,48123.0,48145.0,48153.0,48175.0,48340.0,48443.0,0.05837979271556179,-0.024349633709542635,0.046283455260324326,-0.08253461237686535,0.010881657579245627
55,55,48777.753390998565,4325.265157568729,17.06565066220585,48874.647985210744,-2714.4833756544276,50.959307749926325,48923.0890690528,42376.05090112319,10.574119582504704,48943.54038750296,-20279.764390738816,12.73982700431954,49170.88598829061,13074.898795203011,46.81106997802888,0.9310269175905416,71.0,34.0,135.0,269.0,404.0,37.0,805.0,786.0,39.0,24.0,15.0,0.6153846153846154,179.49032206800544,2376.800583754917,70.0,52.0,18.0,0.7428571428571429,124.30933447627062,3044.369937978589,22.0,14.0,8.0,0.6363636363636364,1959.4744235808637,27562.627204320303,22.0,5.0,17.0,0.2272727272727272,1712.9899365239798,36309.43137818766,118.0,57.0,61.0,0.4830508474576271,174.32591632523392,13241.191354390132,,,,,48755.0,48792.0,48826.0,48893.0,48909.0,48931.0,48939.0,48961.0,49119.0,49230.0,0.04149810833074997,-0.04579484095985713,0.046240137575654254,-0.08446794072746984,0.013332869267729364
56,56,49526.41069203093,4564.45471689106,13.188649556590075,49609.96715663321,-3114.151091520255,60.64474925397208,49667.14344136195,40179.02045681879,10.485180102720989,49688.77864889641,-19167.758300956142,12.739827004320285,49918.6398292214,13191.985564274066,42.924541828926195,0.9333884880562788,37.0,21.0,150.0,268.0,418.0,16.0,746.0,744.0,17.0,8.0,9.0,0.4705882352941176,252.5873398831627,3957.0201179375554,87.0,60.0,27.0,0.6896551724137931,137.78174178801734,2872.554732179034,22.0,13.0,9.0,0.5909090909090909,1891.9769636974845,28427.109578778676,23.0,6.0,17.0,0.2608695652173913,1611.4572227750002,34348.28960720183,111.0,54.0,57.0,0.4864864864864865,133.78966923409376,13292.77511008793,,,,,49519.0,49535.0,49556.0,49635.0,49654.0,49676.0,49683.0,49706.0,49871.0,49974.0,0.05533790026406591,-0.044243756240085176,0.04708867817548789,-0.08407124075091328,0.010141738601990049
57,57,50249.25852362883,4854.832681304604,7.64389620259217,50335.92934536961,-4646.730757939059,95.66083278838462,50387.87578338275,41001.58610840166,10.987402763652469,50406.798376873805,-21981.568375650884,12.739827004320285,50640.09281141729,11007.990813920766,34.579977859634056,0.8991084724939415,24.0,17.0,157.0,263.0,420.0,7.0,720.0,720.0,7.0,4.0,3.0,0.5714285714285714,254.97765182803232,1911.721852704852,96.0,68.0,28.0,0.7083333333333334,139.2864515925343,4296.674103998403,23.0,15.0,8.0,0.6521739130434783,1911.814332131563,19163.988355346493,24.0,4.0,20.0,0.1666666666666666,1799.476012152788,39033.34523241305,97.0,48.0,49.0,0.4948453608247423,110.10197606115156,11144.774908030276,,,,,50245.0,50252.0,50269.0,50364.0,50374.0,50395.0,50403.0,50426.0,50597.0,50689.0,0.052520378881422955,-0.029975150024468235,0.046627814033267656,-0.08186294905808807,0.010002004718419277
58,58,50959.13040132087,3628.0038870410494,7.64389620259217,51058.04118340374,-4750.141946550412,66.24710042246546,51097.534461908355,38054.33683763223,11.484415559453051,51118.69864360057,-21979.290355760433,10.191861603456228,51350.811826974656,11684.336385567483,35.994031504493165,0.8883296065466361,27.0,18.0,157.0,262.0,419.0,9.0,711.0,711.0,9.0,6.0,3.0,0.6666666666666666,211.01429915280727,2161.2082101943915,95.0,79.0,16.0,0.8315789473684211,161.12430042376,2006.765045640877,24.0,15.0,9.0,0.625,1889.512132192959,21372.581557690617,24.0,6.0,18.0,0.25,1683.7047385212534,36044.15300255065,92.0,43.0,49.0,0.4673913043478261,130.29511717944678,12149.820057545068,,,,,50953.0,50962.0,50980.0,51073.0,51083.0,51107.0,51113.0,51137.0,51310.0,51399.0,0.05816264417646687,-0.033919891707819304,0.04965300381543913,-0.07660414468659041,0.011151263784256295
59,59,51686.679277213865,3986.259024585559,14.210081760616692,51783.37520031314,-3882.1089663335015,61.15116962073736,51830.56619734204,43965.432227273435,11.228280756172104,51847.87669549929,-24031.708217597738,12.73982700137866,52079.289123539165,12707.634656459955,40.367478915513296,0.9267163573821476,38.0,24.0,148.0,266.0,414.0,14.0,729.0,732.0,14.0,6.0,8.0,0.4285714285714285,222.54983171911695,3415.3464295560357,86.0,65.0,21.0,0.7558139534883721,146.69357887131258,3471.7425722081025,24.0,16.0,8.0,0.6666666666666666,1983.8767251512631,17054.116813816072,24.0,3.0,21.0,0.125,1972.6453796180367,39254.89709050719,106.0,51.0,55.0,0.4811320754716981,141.0092943739557,13058.811406778756,,,,,51681.0,51695.0,51719.0,51804.0,51815.0,51839.0,51845.0,51867.0,52035.0,52133.0,0.05582924500051897,-0.03778708432541987,0.04512355786463959,-0.08208510863050195,0.011096423385312961
60,60,52469.45203459914,6126.720013196486,15.28779240518434,52549.54455838664,-4359.721866050313,97.7919786000468,52614.907233510334,42795.29973442348,10.762817789781815,52634.24406630007,-21067.476929126376,12.739827004320285,52868.2626330596,11840.644578899875,37.03495987325552,0.9161299816122476,50.0,20.0,156.0,265.0,421.0,30.0,784.0,784.0,31.0,21.0,10.0,0.6774193548387096,171.27045715633173,1323.5772886869877,94.0,53.0,41.0,0.5638297872340425,96.28179207306452,4318.231723789966,22.0,14.0,8.0,0.6363636363636364,1953.3370484087368,22858.351478958062,24.0,4.0,20.0,0.1666666666666666,1852.4528919630916,39786.79104247184,99.0,47.0,52.0,0.4747474747474747,151.51572281926346,11849.650067002183,,,,,52448.0,52478.0,52498.0,52591.0,52601.0,52623.0,52630.0,52654.0,52823.0,52919.0,0.02795467342842961,-0.022084388644794662,0.045643728646151314,-0.08792950851186283,0.012796239411599747
61,61,53238.39728720114,3490.042881159387,11.969171775850176,53356.34253980316,-4625.15624750827,56.055238819009254,53393.142669651745,38156.06802642916,10.92067436839434,53415.69864360057,-19507.258846046596,10.191861603456228,53645.11801783872,12550.145351529323,40.94287041242513,0.9279337362804612,50.0,26.0,156.0,266.0,422.0,24.0,763.0,780.0,34.0,13.0,21.0,0.3823529411764705,183.00892506500907,2507.207205666604,94.0,80.0,14.0,0.851063829787234,235.8829689697184,1365.0807924607907,22.0,13.0,9.0,0.5909090909090909,1835.1011196750876,28718.032209383193,23.0,6.0,17.0,0.2608695652173913,1596.84086879016,33985.36834478751,113.0,57.0,56.0,0.504424778761062,103.68324075447588,12542.885905767129,,,,,53227.0,53251.0,53277.0,53369.0,53380.0,53402.0,53410.0,53433.0,53598.0,53699.0,0.05243744311938476,-0.051000000074980525,0.048094607610091995,-0.08185880350451087,0.008261517125922477
62,62,54015.821948101286,4169.76592838219,15.90439902913512,54122.68507960633,-3545.595973533776,76.22755573027634,54173.50196952384,42940.38569993047,11.043926065304904,54191.87669549929,-22396.353446358895,12.739827001295602,54435.68483389583,12520.180084407397,36.580113609279394,0.9295289802083015,52.0,30.0,155.0,267.0,422.0,22.0,777.0,779.0,27.0,14.0,13.0,0.5185185185185185,178.35838463597398,2811.228392804339,93.0,68.0,25.0,0.7311827956989247,115.23518250927812,3666.570758682126,24.0,16.0,8.0,0.6666666666666666,1951.6965138316411,18421.46730661811,23.0,4.0,19.0,0.1739130434782608,1895.8140139881937,39275.16133359592,95.0,54.0,41.0,0.5684210526315789,117.8362153104704,12588.76224010822,,,,,54003.0,54025.0,54055.0,54148.0,54158.0,54182.0,54189.0,54210.0,54383.0,54477.0,0.042774195889977565,-0.03250093450281846,0.04545130375563444,-0.08464833431606729,0.009411702908109392
63,63,54812.246609001435,4665.165103783386,14.588388169419972,54930.041183402696,-3574.422402799966,55.7720340903984,54969.93930705158,44679.33407754402,11.088314670012112,54987.87669549932,-22617.87148851145,12.73982700430672,55218.85806329261,12588.284918788291,41.246198905658176,0.9313701224999096,56.0,30.0,153.0,267.0,420.0,26.0,796.0,796.0,37.0,14.0,23.0,0.3783783783783784,217.82017388978937,4510.051763493082,93.0,77.0,16.0,0.8279569892473119,172.49927971369678,1713.4354849199358,23.0,15.0,8.0,0.6521739130434783,1970.548627796862,22395.440244988495,23.0,3.0,20.0,0.1304347826086956,1938.435022750388,38415.75715640058,105.0,50.0,55.0,0.4761904761904761,121.20862339983644,12912.316827064158,,,,,54798.0,54824.0,54854.0,54945.0,54955.0,54978.0,54985.0,55007.0,55170.0,55274.0,0.04669077493380462,-0.04825934382533308,0.04410425241291289,-0.08570368894946633,0.009628684461926176
64,64,55603.12330450071,3540.1277565833066,12.739827004319816,55715.10974050647,-3643.6741856311114,51.137174096847424,55764.79805929313,41258.18216792304,10.559263001504767,55786.180464634424,-19206.724971681117,12.739827004216991,56014.43822489439,13586.572244642151,43.46786277789524,0.9207559376974253,53.0,28.0,155.0,266.0,421.0,25.0,793.0,796.0,26.0,7.0,19.0,0.2692307692307692,208.02597835106565,4669.757145698312,92.0,66.0,26.0,0.717391304347826,123.28081928714552,3581.579145277236,23.0,14.0,9.0,0.6086956521739131,1928.7524313242857,27228.053246958458,23.0,5.0,18.0,0.217391304347826,1652.3642620866658,35316.84404879283,117.0,59.0,58.0,0.5042735042735043,106.3998632561513,13675.376465152123,,,,,55596.0,55621.0,55649.0,55741.0,55751.0,55774.0,55781.0,55804.0,55961.0,56070.0,0.05876227996693496,-0.03383420498279057,0.046748361900050724,-0.08603050569646588,0.007831251425326206
65,65,56403.39728720114,3612.9203292325983,11.156245823218436,56517.6700611231,-4535.375676138202,58.60320421987331,56562.00781506929,43314.42265006218,11.226607302772576,56579.87669549966,-23738.490524445097,12.739827004320254,56815.22757305221,12252.502866553064,36.77860971578008,0.9287507440419724,51.0,30.0,155.0,267.0,422.0,21.0,799.0,796.0,22.0,11.0,11.0,0.5,185.58991116457568,3476.763436433404,98.0,79.0,19.0,0.8061224489795918,134.5634826516359,3549.220011234444,23.0,15.0,8.0,0.6521739130434783,1921.5259169657045,19280.985000207445,23.0,3.0,20.0,0.1304347826086956,1934.5238006746308,39492.76322378434,96.0,46.0,50.0,0.4791666666666667,117.24665796615918,12533.937009047062,,,,,56392.0,56413.0,56443.0,56537.0,56547.0,56569.0,56577.0,56598.0,56770.0,56865.0,0.05136839294875785,-0.02966975445046583,0.044362265485788394,-0.08149312605544667,0.00956920061502043
66,66,57201.39728720114,5432.2672216507935,20.383723206912453,57269.5889030941,-2893.7425821946613,89.7043857495249,57361.408639407215,42773.80157640798,10.644466492417656,57380.13496069393,-22064.01879715916,12.739827004320285,57612.48239476246,12579.419544817005,39.61516311379503,0.923324819087592,56.0,29.0,152.0,267.0,419.0,27.0,798.0,800.0,28.0,11.0,17.0,0.3928571428571428,172.02181191077392,4403.256467868683,92.0,25.0,67.0,0.2717391304347826,111.75715418251283,2928.4108870820983,22.0,14.0,8.0,0.6363636363636364,1951.762606302182,24867.398081264713,22.0,3.0,19.0,0.1363636363636363,1899.788204374972,38861.41081521826,105.0,51.0,54.0,0.4857142857142857,113.61393820508115,12315.940700915597,,,,,57190.0,57217.0,57246.0,57336.0,57347.0,57369.0,57377.0,57398.0,57562.0,57665.0,0.031666669714841236,-0.0386202818696314,0.045629860671039406,-0.08610345294935927,0.009031731376817984
67,67,57991.972626301,3912.1502324996018,12.93308274277372,58110.88482143769,-3758.87402704314,60.34035012430763,58150.499495791235,41979.42605487096,10.644488181930823,58171.262162640465,-19147.078269283295,12.739827004320285,58403.59861441833,12905.335869556982,40.310123744978206,0.926231992975246,54.0,27.0,152.0,269.0,421.0,27.0,791.0,789.0,29.0,11.0,18.0,0.3793103448275862,224.11527395306777,4346.643603613033,93.0,77.0,16.0,0.8279569892473119,153.18343605862754,2179.906664582119,22.0,13.0,9.0,0.5909090909090909,1872.590301642373,29331.215818555163,22.0,4.0,18.0,0.1818181818181818,1739.606197877582,36503.72058108006,106.0,52.0,54.0,0.490566037735849,79.77898752870017,13149.955625768458,,,,,57982.0,58009.0,58036.0,58127.0,58137.0,58159.0,58167.0,58188.0,58353.0,58457.0,0.057286980466972795,-0.04075247932134797,0.044607334535606225,-0.09085491652626425,0.006181860614483863
68,68,58779.246609001435,4526.352981581134,16.802147152318348,58896.19186159556,-2071.6920895597536,43.18392721359421,58936.34197418355,41764.13241573794,11.076183343593456,58954.45203459914,-22392.257815963763,12.419558570090071,59187.28754669468,13857.403595471158,43.22717011663602,0.9337371023631884,73.0,40.0,134.0,268.0,402.0,33.0,786.0,786.0,43.0,17.0,26.0,0.3953488372093023,204.3628603576611,4359.908099112868,76.0,61.0,15.0,0.8026315789473685,112.0041368782146,718.068422091327,24.0,15.0,9.0,0.625,1852.1183746137976,22633.084293490276,23.0,3.0,20.0,0.1304347826086956,1921.1862568918611,36413.802536047675,116.0,61.0,55.0,0.5258620689655172,129.2621246168564,14548.881924462188,,,,,58765.0,58798.0,58838.0,58910.0,58921.0,58945.0,58951.0,58972.0,59131.0,59240.0,0.04514956327738134,-0.05406408483319358,0.044347105218828044,-0.0857968978689688,0.009328019042405716
69,69,59563.821948101286,4290.425037175741,14.560794465104763,59682.465844163475,-3752.9506336122895,68.79506582248361,59722.30269050967,43804.56180912501,10.828631122768355,59741.05312810923,-22151.89471858445,12.739827004309952,59975.801563567264,13265.50835164422,39.35874907786366,0.9363704295350048,52.0,28.0,157.0,267.0,424.0,24.0,785.0,786.0,26.0,14.0,12.0,0.5384615384615384,188.2518250906498,3766.696610199574,103.0,86.0,17.0,0.8349514563106796,145.1116296420976,2591.95407745348,22.0,14.0,8.0,0.6363636363636364,1964.3588835243384,24147.469560161197,23.0,4.0,19.0,0.1739130434782608,1907.473212014069,39906.67973441331,104.0,52.0,52.0,0.5,117.8055201632294,13178.607524548444,,,,,59551.0,59575.0,59603.0,59698.0,59708.0,59730.0,59738.0,59760.0,59931.0,60027.0,0.043877197121376665,-0.03866601077627946,0.04484370582415321,-0.0861088063231803,0.008880588443384288
70,70,60345.972626301,4775.071322791087,17.835757806044494,60418.16424265659,-3321.79287447895,86.92327563351051,60502.42135122872,38154.73128412723,10.49517111567272,60524.69864360057,-19590.42255016238,10.191861603456228,60754.273695044045,13093.387338763258,40.374362795780286,0.917911644710078,50.0,29.0,155.0,266.0,421.0,21.0,783.0,781.0,22.0,10.0,12.0,0.4545454545454545,196.0221794645021,3159.292602018692,92.0,32.0,60.0,0.3478260869565217,136.94105630070965,3870.951318520883,23.0,13.0,10.0,0.5652173913043478,1879.1183616387125,30602.934337698323,23.0,6.0,17.0,0.2608695652173913,1631.4041633711668,33813.54906097705,105.0,51.0,54.0,0.4857142857142857,130.55028126559034,13299.175808062364,,,,,60336.0,60357.0,60386.0,60478.0,60489.0,60512.0,60519.0,60541.0,60709.0,60807.0,0.04105115216371779,-0.04122504366627313,0.04924994354292427,-0.08327559853259237,0.009970703370173233
71,71,61122.821948101286,4379.949792143218,15.666040555880915,61223.71245330532,-2657.869533588025,57.66121522863629,61282.33995051104,42769.51050081185,11.319233252478842,61299.87669645056,-24168.818552041485,12.739827003945468,61533.020849542765,13257.631332530527,41.113242679773386,0.9374899794459828,56.0,30.0,152.0,268.0,420.0,26.0,776.0,778.0,31.0,13.0,18.0,0.4193548387096774,217.41181532072804,4941.530661370931,86.0,59.0,27.0,0.686046511627907,131.81428509761247,1753.678812802079,24.0,15.0,9.0,0.625,1861.932948505092,20809.3961050803,22.0,3.0,19.0,0.1363636363636363,1901.6320082093685,38202.53377792501,110.0,56.0,54.0,0.509090909090909,142.94294106119827,13223.528390874975,,,,,61110.0,61136.0,61166.0,61245.0,61267.0,61291.0,61297.0,61318.0,61489.0,61586.0,0.04963796975726132,-0.04959396367347952,0.04353411873792077,-0.07868121497601056,0.010781936642819158
72,72,61902.246609001435,4733.704187248702,16.902844955332128,62018.46584430388,-3728.224944416284,68.79506582332952,62059.77845181979,43146.51280600996,11.050566238874152,62077.87669549929,-22809.773517471935,12.739827001698927,62312.692193692375,13263.256313219306,38.64643893143936,0.9357237654466102,56.0,29.0,153.0,267.0,420.0,27.0,779.0,778.0,33.0,14.0,19.0,0.4242424242424242,198.8517895934014,4252.180225606153,93.0,75.0,18.0,0.8064516129032258,146.8254143923593,2367.065860434299,22.0,15.0,7.0,0.6818181818181818,1941.3341141557917,19502.297668605977,23.0,3.0,20.0,0.1304347826086956,1929.730068715216,39637.29276189376,99.0,47.0,52.0,0.4747474747474747,133.892978301052,12985.93657623247,,,,,61888.0,61915.0,61944.0,62034.0,62045.0,62067.0,62075.0,62097.0,62267.0,62364.0,0.04200765018841977,-0.039382123284234204,0.04499399807544538,-0.08460101838525808,0.010095030597245015
73,73,62679.972626301,5686.176949720332,17.8357578060484,62760.78754085226,-3133.9814243983883,91.84376197730752,62838.15636710505,38507.06652192457,10.544036421342602,62860.69864360057,-19529.138064415496,10.191861603456228,63088.666508691495,12870.21285838977,40.806964897861114,0.9259358109157731,53.0,26.0,155.0,265.0,420.0,27.0,779.0,779.0,28.0,10.0,18.0,0.3571428571428571,216.42130600628056,4764.868207009563,91.0,38.0,53.0,0.4175824175824176,119.98478707303016,3106.747990932735,22.0,13.0,9.0,0.5909090909090909,1906.4906538263429,29666.643540761943,23.0,6.0,17.0,0.2608695652173913,1610.2860991866437,33784.18366434587,109.0,54.0,55.0,0.4954128440366973,99.59923306648986,13054.459401953602,,,,,62670.0,62697.0,62723.0,62809.0,62825.0,62847.0,62855.0,62878.0,63040.0,63143.0,0.038060951658728276,-0.03828509835410493,0.049510150370474314,-0.08245556428938275,0.007738740156233205
74,74,63459.821948101286,5104.547947202346,18.529760754183712,63532.29648695435,-3246.137978077209,92.70075911766696,63614.986935699366,39211.66946490849,10.284524322849888,63636.61022499533,-19100.899056427705,12.739827004320285,63867.38749089987,12806.440805918,39.32403281522121,0.921961524420933,52.0,28.0,155.0,265.0,420.0,24.0,779.0,777.0,26.0,14.0,12.0,0.5384615384615384,192.29759724755732,2902.6833474106515,95.0,35.0,60.0,0.3684210526315789,137.01941559392947,3442.780687835692,23.0,14.0,9.0,0.6086956521739131,1911.394633062234,25751.03856112112,23.0,6.0,17.0,0.2608695652173913,1603.3138150266634,34555.8831460473,107.0,53.0,54.0,0.4953271028037383,136.85947425973856,12935.99830830107,,,,,63447.0,63471.0,63499.0,63591.0,63601.0,63624.0,63631.0,63654.0,63819.0,63919.0,0.03767181721800655,-0.042209978910104876,0.048745556084338344,-0.08393918057417968,0.010686768973038493
75,75,64217.37179005958,4025.700088529543,15.37167205242893,64318.43847060489,-2525.9796754663917,60.22327006292383,64372.07769470988,41494.18545841495,11.090324305355692,64389.87669549929,-23030.07578036015,12.739827004320285,64623.06676504092,12758.680930639071,38.67807277837108,0.9408562205599352,69.0,42.0,135.0,268.0,403.0,27.0,757.0,756.0,37.0,17.0,20.0,0.4594594594594595,163.63557998405906,2606.0182499019847,70.0,48.0,22.0,0.6857142857142857,95.85139853108132,2150.639171361989,23.0,15.0,8.0,0.6521739130434783,1863.5135652086656,20286.044885753785,20.0,3.0,17.0,0.15,1898.092132609615,37103.534201032,101.0,50.0,51.0,0.495049504950495,135.46244349281872,12579.669505622129,,,,,64201.0,64228.0,64270.0,64339.0,64357.0,64380.0,64387.0,64405.0,64579.0,64673.0,0.04064773241561316,-0.037946227145863126,0.044910233677830834,-0.08241797164333657,0.010617276521706506
76,76,64963.821948101286,4425.8636997961885,15.840914699259391,65078.31013449798,-2954.8734767482138,55.123985501656534,65122.66400699419,42381.02884845428,11.183734683310217,65139.87669549929,-23611.45362835679,12.579207728730234,65369.80718350516,13599.808047751025,43.86948851990608,0.9333054951387704,69.0,42.0,137.0,268.0,405.0,27.0,747.0,750.0,33.0,15.0,18.0,0.4545454545454545,191.7981303811317,4120.020302541098,95.0,75.0,20.0,0.7894736842105263,103.08635323286514,1901.540780324396,24.0,16.0,8.0,0.6666666666666666,1938.0560004919275,16491.097765358347,22.0,3.0,19.0,0.1363636363636363,1943.6169511269516,37608.309370580115,109.0,53.0,56.0,0.4862385321100917,148.2122071454034,14356.48492679382,,,,,64951.0,64978.0,65020.0,65097.0,65107.0,65131.0,65137.0,65157.0,65323.0,65425.0,0.043335751706489296,-0.034886892465632695,0.04572932873862056,-0.08231670026417663,0.01089811022515961
77,77,65738.24660900142,4491.374600508972,14.084539583270816,65835.67779716698,-2718.1831394357273,59.241682335538485,65897.3814827463,41910.46570592509,11.49289775056995,65913.8766955027,-26264.07320952902,11.585061350187416,66145.84137484302,13410.767857897525,39.174078006930145,0.9220937807229704,56.0,32.0,151.0,265.0,416.0,24.0,774.0,775.0,26.0,15.0,11.0,0.5769230769230769,230.11604021715823,3624.019174395488,92.0,57.0,35.0,0.6195652173913043,137.98772878585496,1908.1804548970983,24.0,16.0,8.0,0.6666666666666666,1923.473339044805,17236.706420785726,22.0,3.0,19.0,0.1363636363636363,1977.1243121909831,37950.98996743496,105.0,53.0,52.0,0.5047619047619047,135.67549095138966,13913.386761396709,,,,,65724.0,65748.0,65780.0,65870.0,65881.0,65905.0,65911.0,65931.0,66102.0,66196.0,0.05123510298853295,-0.0507646916000296,0.045894821416238143,-0.0752786628493577,0.010116906980198835
78,78,66575.54503462702,4599.390857703774,16.070730959608266,66664.727730354,-1573.1368069175553,22.93168860777651,66733.0782246644,42137.9354276796,10.793693290763724,66750.87669549929,-22395.291452874266,12.602200180398432,66981.51074414016,13402.802775160915,43.51940421615518,0.9314477968626804,91.0,64.0,116.0,268.0,384.0,27.0,838.0,836.0,43.0,18.0,25.0,0.4186046511627907,214.68970471963812,4297.692053761911,39.0,33.0,6.0,0.8461538461538461,124.25839489303937,1487.6782014122562,24.0,16.0,8.0,0.6666666666666666,1927.4016178759575,22289.330366425347,21.0,3.0,18.0,0.1428571428571428,1921.063542216991,37021.88107066337,111.0,54.0,57.0,0.4864864864864865,175.3329553645646,14027.486456511968,,,,,66561.0,66588.0,66652.0,66670.0,66718.0,66741.0,66748.0,66768.0,66935.0,67036.0,0.046677856125239385,-0.07898765978053393,0.04574029549178825,-0.08577979644781256,0.013081812685441053
79,79,67398.54796540085,3455.4119653217795,11.145490214202956,67520.19186155265,-3277.3013459557255,55.92627642397157,67558.36226646336,40857.25733207448,10.657758900616638,67579.07134834188,-19294.85057571787,12.739827004320244,67810.72164623928,12729.505609772286,38.91117895928707,0.9106292640946656,53.0,25.0,154.0,266.0,420.0,28.0,824.0,826.0,30.0,10.0,20.0,0.3333333333333333,195.9358803544804,3917.723191056345,94.0,79.0,15.0,0.8404255319148937,160.7081610000512,1283.6157897969788,22.0,13.0,9.0,0.5909090909090909,1852.7250258755755,27478.91742160698,23.0,5.0,18.0,0.217391304347826,1694.9358943751731,36038.43760625807,105.0,52.0,53.0,0.4952380952380952,103.50110269087284,12885.561682643456,,,,,67390.0,67418.0,67443.0,67534.0,67545.0,67567.0,67574.0,67597.0,67768.0,67863.0,0.056704057959188724,-0.04903673603233625,0.04534628966445863,-0.08784395026661733,0.008130803022814673
80,80,68199.24660900142,3911.3284931595103,14.993812450832738,68298.73840000335,-2949.0412387545725,51.19424173023815,68355.00085521888,42260.5639714155,11.218783167803542,68372.87669549929,-22749.994080808072,12.457097439100874,68604.19091390303,13904.410611416615,41.102070383966435,0.9271128817164468,57.0,31.0,148.0,267.0,415.0,26.0,799.0,796.0,42.0,19.0,23.0,0.4523809523809524,198.5821913163351,2716.5613624349153,84.0,61.0,23.0,0.7261904761904762,146.6409674264279,2677.15177142061,24.0,15.0,9.0,0.625,1897.0111328141709,21237.4198030466,21.0,3.0,18.0,0.1428571428571428,1882.5940239324225,37099.441849874056,105.0,51.0,54.0,0.4857142857142857,137.31093132424004,14309.5195420458,,,,,68185.0,68211.0,68242.0,68322.0,68340.0,68364.0,68370.0,68390.0,68558.0,68657.0,0.05077103384786878,-0.04972496332006423,0.04488844810725396,-0.08275140719797293,0.009875350718677494
81,81,69012.67126990156,5408.146617830871,20.3910660493334,69082.71220759483,-3005.469258136461,84.92440126248377,69168.07427238855,41843.94313961577,11.08197940040296,69185.87669549929,-23403.54946965688,12.328527216342897,69416.80912053208,13397.401060789554,41.1047226327412,0.9192802394746136,65.0,36.0,142.0,266.0,408.0,29.0,813.0,813.0,42.0,19.0,23.0,0.4523809523809524,193.6169048096784,2439.5404038882657,91.0,32.0,59.0,0.3516483516483517,117.6672239184985,3452.220698782633,23.0,15.0,8.0,0.6521739130434783,1893.2789318257012,19631.632227676004,22.0,3.0,19.0,0.1363636363636363,1934.6220156850757,38707.451534824686,110.0,55.0,55.0,0.5,112.52072628464096,13346.01149346868,,,,,68997.0,69026.0,69062.0,69137.0,69153.0,69176.0,69183.0,69204.0,69366.0,69470.0,0.03580097184704939,-0.039151032272230914,0.04524618833145385,-0.08266361554230685,0.008398698058980832
82,82,69838.09593080172,6159.579005009021,21.71920608858978,69899.73958129388,-3012.4233176772523,98.39153045835737,69990.31563651464,37547.74013355965,10.533507137633856,70012.69864360048,-20731.154256968817,10.191861603431272,70242.17116695603,12724.99724306212,40.16302981893693,0.9199767850857452,54.0,25.0,154.0,265.0,419.0,29.0,825.0,824.0,39.0,19.0,20.0,0.4871794871794871,187.6238675036476,2692.105213319934,91.0,25.0,66.0,0.2747252747252747,136.49431115618418,2682.490439531143,22.0,13.0,9.0,0.5909090909090909,1839.86084720882,27810.34203806491,23.0,6.0,17.0,0.2608695652173913,1635.7562851194511,34549.509693541215,106.0,52.0,54.0,0.490566037735849,116.21893022847289,12825.028143969348,,,,,69821.0,69850.0,69875.0,69966.0,69977.0,69999.0,70007.0,70029.0,70199.0,70294.0,0.030460501821808,-0.045310468271580424,0.04900057475268339,-0.07890329042193049,0.009133120267812819
83,83,70624.82194810128,4447.545406051721,14.110513347394752,70725.38349437345,-4199.836136361404,68.79506582332952,70781.04110510813,40232.45343575579,10.413272206731802,70803.22848774989,-19248.753830079033,12.739827004320285,71032.86879514034,13179.383174212802,38.66244787480626,0.917280459032211,51.0,26.0,158.0,263.0,421.0,25.0,788.0,790.0,27.0,13.0,14.0,0.4814814814814814,206.75546333691096,2723.36202479997,95.0,62.0,33.0,0.6526315789473685,156.27376034895482,3467.954480928385,22.0,13.0,9.0,0.5909090909090909,1905.4350685897,26917.17061270089,24.0,6.0,18.0,0.25,1678.6360113408678,36201.60173900621,102.0,50.0,52.0,0.4901960784313725,146.79196713284438,13594.066143879136,,,,,70612.0,70637.0,70663.0,70757.0,70768.0,70790.0,70797.0,70821.0,70984.0,71084.0,0.046487544130652675,-0.03720948991222908,0.04736064808059363,-0.0872075161934769,0.01113799979805293
84,84,71420.82194810128,3639.0490449528984,13.720759097092294,71525.50656817287,-3570.233012576838,58.93244285510346,71577.87998090938,43015.57957985492,11.06612460988763,71595.87669549929,-22009.610607286388,12.739827004320285,71828.75976706758,13436.36798213094,41.0040111709644,0.9266111046147266,53.0,31.0,153.0,267.0,420.0,22.0,796.0,796.0,27.0,14.0,13.0,0.5185185185185185,190.27642723884668,2335.3494370496123,93.0,66.0,27.0,0.7096774193548387,116.58917324815027,3016.6121404744117,23.0,15.0,8.0,0.6521739130434783,1923.4950971269725,21525.708811686152,22.0,3.0,19.0,0.1363636363636363,1862.0676574434488,37397.80723718742,108.0,54.0,54.0,0.5,130.68469038302797,13998.257947458753,,,,,71408.0,71430.0,71461.0,71553.0,71563.0,71586.0,71593.0,71614.0,71782.0,71881.0,0.052287403903705704,-0.0326559002836628,0.04471624271750565,-0.08460248073752846,0.009726191672989746
85,85,72222.972626301,5161.134954814686,17.8357578060484,72296.88858040974,-3246.785881242493,92.4712406849877,72382.42792779565,36796.15824769465,10.807154914259174,72404.69864360057,-20600.72400223518,10.191861603456132,72634.83814058163,13474.629355816398,38.951918681600695,0.9203440584734296,52.0,32.0,156.0,265.0,421.0,20.0,803.0,806.0,24.0,10.0,14.0,0.4166666666666667,202.6454677124572,3838.685135571978,97.0,37.0,60.0,0.3814432989690721,153.56050920940163,3526.167854021152,24.0,14.0,10.0,0.5833333333333334,1769.114379039524,26348.054775396216,23.0,7.0,16.0,0.3043478260869565,1612.6026890813455,33781.75184955953,99.0,47.0,52.0,0.4747474747474747,129.76751883176863,13872.36914580567,,,,,72213.0,72233.0,72265.0,72356.0,72368.0,72392.0,72399.0,72421.0,72593.0,72686.0,0.03926374130624401,-0.04729616144278553,0.048078779505476295,-0.07827893276500272,0.009630507482252472
86,86,73052.82194810128,3726.4323746647938,13.63590718859164,73170.1918616033,-4058.2586500842294,61.151169620708146,73209.90697928844,44359.06281945717,11.052484839275891,73228.30730944946,-22330.1758875008,12.739827002871005,73460.68812785325,12927.316768654906,39.248143822693784,0.9249176966411832,70.0,46.0,138.0,263.0,401.0,24.0,829.0,826.0,26.0,14.0,12.0,0.5384615384615384,202.53878488498916,2785.203791591753,94.0,79.0,15.0,0.8404255319148937,178.799349800582,1569.272748462202,23.0,15.0,8.0,0.6521739130434783,1998.407942897272,22728.817076474283,24.0,3.0,21.0,0.125,1936.6936877217308,39441.52345086899,101.0,49.0,52.0,0.4851485148514851,146.43731948865133,13101.031501782052,,,,,73040.0,73064.0,73110.0,73184.0,73195.0,73218.0,73225.0,73248.0,73416.0,73511.0,0.05435192820403946,-0.0440581454306445,0.04505072505771498,-0.08672988952163986,0.011327742803032451
87,87,73886.54796540085,5628.757701348972,15.28779240518434,73963.2875466947,-2880.9279883239647,94.27471976607048,74046.38861779739,41343.486819357386,10.681649760249991,74066.38138283028,-20115.8564517024,12.739827004320285,74299.35777348708,13213.490748589138,38.941950769336295,0.9132135560849728,52.0,26.0,155.0,265.0,420.0,26.0,835.0,837.0,27.0,9.0,18.0,0.3333333333333333,199.67104229554116,4818.749683463832,93.0,34.0,59.0,0.3655913978494624,107.04720008720356,3430.4057068015786,23.0,14.0,9.0,0.6086956521739131,1883.618485452785,26590.476869302427,23.0,4.0,19.0,0.1739130434782608,1769.5469235739245,37400.74349930877,100.0,48.0,52.0,0.48,112.3117840047044,13352.507892375575,,,,,73878.0,73904.0,73930.0,74016.0,74032.0,74055.0,74062.0,74085.0,74257.0,74350.0,0.03547337670045534,-0.03715719397397376,0.04556022315396142,-0.08796776452558987,0.008499781484063659
88,88,74744.54796540085,4229.966968301125,14.129098285170246,74858.68070133399,-4051.644641535855,76.4389620259217,74905.60296633403,42504.78616628373,10.907166438876574,74923.8766954993,-21856.600021020095,12.73982700431834,75158.97686739366,12751.784840137894,36.00236311470152,0.9049465873573456,52.0,31.0,155.0,265.0,420.0,21.0,858.0,859.0,21.0,9.0,12.0,0.4285714285714285,210.2299352087549,4144.977758984796,94.0,72.0,22.0,0.7659574468085106,100.90834855474932,3933.0020706980113,22.0,15.0,7.0,0.6818181818181818,1932.6986524737056,18783.90814762698,23.0,3.0,20.0,0.1304347826086956,1881.114271047926,39533.06390058632,97.0,47.0,50.0,0.4845360824742268,118.84510287277148,12667.61738815452,,,,,74736.0,74757.0,74788.0,74881.0,74891.0,74913.0,74921.0,74943.0,75118.0,75208.0,0.049700136380305876,-0.024905527873860637,0.04547014176033637,-0.08606618912542695,0.009319879872713278
89,89,75621.24660900142,4378.795106161889,13.530019386032883,75739.76720070194,-3428.996123124147,58.60320421986521,75777.36005892091,43789.816586259105,10.859646573447158,75795.87669549929,-21628.05507978665,12.739826997373145,76031.91682770126,13425.906089392318,37.35559087577093,0.9256234229136008,55.0,29.0,152.0,267.0,419.0,26.0,875.0,872.0,31.0,15.0,16.0,0.4838709677419355,204.70851892610375,3891.880687095795,98.0,84.0,14.0,0.8571428571428571,270.2391103276529,144.5361178884042,22.0,14.0,8.0,0.6363636363636364,1946.59163803095,25228.40179519231,22.0,3.0,19.0,0.1363636363636363,1907.548374619568,39025.28984898173,93.0,43.0,50.0,0.4623655913978494,149.63350404727407,14214.941138264814,,,,,75607.0,75633.0,75662.0,75753.0,75763.0,75785.0,75793.0,75814.0,75990.0,76081.0,0.04674996522171948,-0.07880997837974776,0.04445306671235921,-0.08819786927592682,0.011145132630228816
90,90,76508.12330450071,5946.842642647044,12.739827004320285,76577.3149203969,-3527.397935479106,108.62682621698356,76666.82114447896,38622.12924216605,10.266712485425105,76689.69864360057,-18184.834799403023,10.191861603456228,76917.86288579454,12767.43238867032,40.29971436902824,0.898046444309326,51.0,30.0,154.0,266.0,420.0,21.0,889.0,890.0,22.0,8.0,14.0,0.3636363636363636,212.02396692503007,3646.8809269119897,92.0,25.0,67.0,0.2717391304347826,92.76798884294544,4257.05015601693,22.0,13.0,9.0,0.5909090909090909,1933.7352008599037,29555.860374712614,24.0,7.0,17.0,0.2916666666666667,1593.308252814698,33404.53568800397,108.0,53.0,55.0,0.4907407407407407,152.36645116428355,13019.983194947712,,,,,76501.0,76522.0,76552.0,76644.0,76654.0,76676.0,76684.0,76706.0,76868.0,76972.0,0.035653199464960865,-0.02629926947279491,0.05006806301991065,-0.0876174169515691,0.011933993188755154
91,91,77335.12330450071,2896.192802850841,7.990195774720134,77457.34253980305,-4242.214581172908,56.055238819009254,77494.09560799331,41477.81082459893,10.902120535846956,77514.79578026832,-19741.582761179652,12.739827003763716,77747.97954004277,13006.0425784878,36.31884768928132,0.9045434310482356,47.0,32.0,158.0,263.0,421.0,15.0,827.0,827.0,16.0,7.0,9.0,0.4375,188.0101319199546,3482.366049502431,97.0,84.0,13.0,0.865979381443299,226.47204640452577,980.219527531704,23.0,14.0,9.0,0.6086956521739131,1878.3204639153037,26008.127021449745,23.0,5.0,18.0,0.217391304347826,1698.4915952096928,36365.15390076088,98.0,47.0,51.0,0.4795918367346938,112.0081558081376,12923.768934910531,,,,,77328.0,77343.0,77375.0,77470.0,77480.0,77503.0,77510.0,77533.0,77707.0,77796.0,0.06491630382303573,-0.0533853349638692,0.045284946977031455,-0.08603624216745426,0.008612009005214303
92,92,78167.39728720114,3805.931417311704,13.466238247044368,78284.61652250327,-3638.726257466598,63.566403314742075,78325.5420226824,41608.13126079103,11.469876404079224,78343.45203459915,-23183.0811155912,11.774325744002953,78584.2601729957,13060.293671661851,35.13818642955411,0.9190014165110092,53.0,29.0,152.0,266.0,418.0,24.0,831.0,830.0,26.0,12.0,14.0,0.4615384615384615,203.35368401311172,3598.1367651284054,94.0,79.0,15.0,0.8404255319148937,169.58859790956038,1854.390069107254,24.0,16.0,8.0,0.6666666666666666,1928.1742172983468,16727.753920672672,23.0,3.0,20.0,0.1304347826086956,1940.7430139395171,37810.710608968904,91.0,48.0,43.0,0.5274725274725275,122.7584928448934,13379.145544506657,,,,,78156.0,78180.0,78209.0,78299.0,78310.0,78334.0,78340.0,78361.0,78536.0,78627.0,0.05343072738729205,-0.04660658315847964,0.046341283755642754,-0.08371376540775329,0.00939936696149904
93,93,79017.24660900142,5438.3312274313585,21.4074537180414,79082.73958129382,-2996.189486108629,88.59369837395197,79173.50505948631,43486.80608424703,10.823802707099992,79191.87669549929,-21839.92134300936,12.739827004318636,79425.23306241707,13560.732895075129,40.85066140811499,0.917486467635512,55.0,28.0,152.0,268.0,420.0,27.0,849.0,849.0,31.0,15.0,16.0,0.4838709677419355,182.04114873607944,3322.1573217766563,91.0,26.0,65.0,0.2857142857142857,108.62252550460204,3358.698580267782,23.0,15.0,8.0,0.6521739130434783,2004.680859404544,20868.107808985187,22.0,3.0,19.0,0.1363636363636363,1908.0510984180544,38575.35039227361,109.0,55.0,54.0,0.5045871559633027,154.6860615030135,13441.77099526281,,,,,79003.0,79030.0,79058.0,79148.0,79159.0,79182.0,79189.0,79210.0,79380.0,79478.0,0.033473714844334965,-0.03625355672870947,0.04609859955042166,-0.0873652916808143,0.01140691013530626
94,94,79858.54796540085,5785.756925408058,15.28779240518434,79924.89025952281,-3456.9082206423686,114.13414784455615,80016.35738081766,40103.43010414467,10.224143280090772,80038.568892538,-18379.303986125386,12.739827004320285,80270.11600085945,12992.416640202118,36.897028134175166,0.9086288066720172,49.0,27.0,157.0,264.0,421.0,22.0,843.0,843.0,24.0,10.0,14.0,0.4166666666666667,265.0086550892309,2940.0094579439938,95.0,27.0,68.0,0.2842105263157894,117.90547829988805,4254.060727034239,22.0,13.0,9.0,0.5909090909090909,1882.3800481927772,28357.341965892985,24.0,7.0,17.0,0.2916666666666667,1608.2046260502111,34697.53153576633,97.0,46.0,51.0,0.4742268041237113,131.91386870822635,12802.117414589457,,,,,79850.0,79872.0,79899.0,79993.0,80003.0,80025.0,80032.0,80056.0,80227.0,80320.0,0.045803627512495323,-0.03410720527546394,0.046938130810866334,-0.0875008448232997,0.010153143357491205
95,95,80681.24660900142,3962.919652331702,14.545015286375584,80796.31516610413,-4000.134582730113,64.07397558954277,80838.93174079881,43820.70689116466,11.283906735998256,80856.87669549929,-22038.026485067217,12.739826976530011,81092.21504839443,13971.48366131702,38.30664067125391,0.9267449762150942,56.0,26.0,152.0,267.0,419.0,30.0,821.0,822.0,31.0,14.0,17.0,0.4516129032258064,186.63749649206892,3681.750242270583,93.0,75.0,18.0,0.8064516129032258,175.5971859130876,2964.666447978498,24.0,15.0,9.0,0.625,1899.2004699096904,21186.09967629995,24.0,3.0,21.0,0.125,1905.7894912033091,38105.03056330631,98.0,47.0,51.0,0.4795918367346938,177.98564949561188,14284.96749286395,,,,,80667.0,80697.0,80723.0,80813.0,80824.0,80848.0,80854.0,80875.0,81048.0,81142.0,0.04709595774475397,-0.043897819506173115,0.043340251781575356,-0.08647732102938782,0.012739208935154286
96,96,81516.972626301,5776.815821348691,17.8357578060484,81584.73958129382,-3690.672632551643,96.80972004408736,81677.22179228516,42739.49310110152,10.963089202309147,81694.87669549929,-22578.724067337876,12.733350505570249,81930.59054617328,13271.31948174344,36.696700479816286,0.9101023154920528,53.0,36.0,153.0,267.0,420.0,17.0,837.0,838.0,21.0,10.0,11.0,0.4761904761904761,221.82675317290344,4011.0853145999295,96.0,29.0,67.0,0.3020833333333333,118.72271880646356,3989.678960695565,24.0,15.0,9.0,0.625,1897.9982378567224,20114.64212643341,23.0,3.0,20.0,0.1304347826086956,1944.8509839905844,38762.956789716096,97.0,47.0,50.0,0.4845360824742268,185.49512579172327,13183.00278275479,,,,,81507.0,81524.0,81560.0,81651.0,81662.0,81686.0,81692.0,81713.0,81886.0,81980.0,0.03839948512000758,-0.032168314729226336,0.044408534124795354,-0.08613644323701991,0.01397714266821003
97,97,82377.39728720114,5479.586176907089,20.383723206912453,82445.89025949354,-3404.531055936196,108.80949834251032,82534.07226882667,40627.330214667534,10.304054195356652,82556.18992709085,-18472.717527140157,12.739827004317911,82787.91642458976,13134.66307243097,37.90507590716667,0.9121534370714972,54.0,31.0,154.0,265.0,419.0,23.0,860.0,858.0,26.0,13.0,13.0,0.5,234.62569134281512,3599.31291389795,92.0,27.0,65.0,0.2934782608695652,104.06016693981572,3642.9628486641327,22.0,13.0,9.0,0.5909090909090909,1934.8728302403176,27860.72234073207,25.0,6.0,19.0,0.24,1626.9114911916054,35337.598215088794,98.0,46.0,52.0,0.4693877551020408,119.80324738025242,13083.156652410924,,,,,82366.0,82389.0,82420.0,82511.0,82521.0,82543.0,82550.0,82574.0,82744.0,82839.0,0.04281814059820988,-0.03056519832837909,0.04762490717496809,-0.08807104254159376,0.009121151164639595
98,98,83208.82194810128,4872.618257062449,21.553988033502225,83274.89025949354,-3474.75070437419,107.5460070941717,83363.14332655675,37473.31346591947,10.652725083095213,83385.6986436005,-18771.645524752417,10.191861603456198,83616.14485677227,13032.829994607402,38.54613302392719,0.9077876774272068,51.0,27.0,155.0,266.0,421.0,24.0,831.0,830.0,26.0,14.0,12.0,0.5384615384615384,208.3889917286225,1759.5331721424634,92.0,28.0,64.0,0.3043478260869565,141.11949149860277,3843.5524652849704,23.0,13.0,10.0,0.5652173913043478,1802.8109225435169,28443.264036688925,23.0,6.0,17.0,0.2608695652173913,1607.4013205613728,33559.06983912535,101.0,48.0,53.0,0.4752475247524752,145.57178697916785,13261.520656539313,,,,,83196.0,83220.0,83247.0,83339.0,83350.0,83373.0,83380.0,83402.0,83569.0,83668.0,0.04276735437392007,-0.04061283916597369,0.04810919440532271,-0.08562921766458048,0.011169622180247968
99,99,84009.972626301,3513.9256702400226,12.871629402310017,84129.19186160344,-2898.7370625375697,55.39410441740818,84170.38647090552,43250.21932208562,11.433194463620264,84187.87669549929,-23138.367465991243,11.938950617623348,84421.81381422168,13371.719119499963,39.49000326159391,0.9342218393659768,56.0,31.0,149.0,267.0,416.0,25.0,802.0,806.0,25.0,10.0,15.0,0.4,178.32591782626358,4131.7989629241165,92.0,77.0,15.0,0.8369565217391305,126.57530392898342,1282.397673793682,24.0,15.0,9.0,0.625,1910.3382258690808,22600.149578907483,22.0,3.0,19.0,0.1363636363636363,1917.564099686172,37698.35264025229,101.0,50.0,51.0,0.495049504950495,139.95458660308176,13871.465592452949,,,,,84000.0,84025.0,84056.0,84143.0,84155.0,84179.0,84185.0,84205.0,84380.0,84472.0,0.05074834659609713,-0.04366567273893367,0.04416944597766632,-0.08287378539149776,0.010466461743051882
100,100,84893.39728720114,3947.0805497105857,14.514662984440236,84998.10257890889,-3320.8521832171546,45.86337721555302,85054.36668937557,42774.38618727107,11.342295575453075,85071.87669549929,-24097.79160457367,11.97756451990374,85305.29455128581,12963.184972818051,40.07407929845334,0.9263245943328476,55.0,30.0,151.0,269.0,420.0,25.0,883.0,883.0,30.0,12.0,18.0,0.4,208.377134206762,4478.713985706898,91.0,62.0,29.0,0.6813186813186813,100.52005188361882,3019.064644191234,24.0,15.0,9.0,0.625,1909.4507112513863,21449.649306436033,21.0,3.0,18.0,0.1428571428571428,1974.7688774456603,38103.51634246751,105.0,52.0,53.0,0.4952380952380952,154.68409259740994,12944.2040068623,,,,,84882.0,84907.0,84937.0,85023.0,85039.0,85063.0,85069.0,85088.0,85261.0,85357.0,0.05279272403550036,-0.030269354472211896,0.04464004937187401,-0.08194812661052545,0.011932568494684015
101,101,85846.24660900142,3990.300694553017,14.633727959772544,85959.31516610416,-2963.0694153591203,60.516165427757386,86001.31159837365,43349.471107476915,10.899981563014542,86020.64777391613,-19978.578649090658,12.739827004318917,86257.60142817993,12941.301005955193,38.6897277222553,0.9270352819908856,71.0,46.0,137.0,268.0,405.0,25.0,952.0,948.0,35.0,15.0,20.0,0.4285714285714285,202.8378336589554,3255.960170388361,91.0,73.0,18.0,0.8021978021978022,150.05734041257432,2166.5380312371462,23.0,14.0,9.0,0.6086956521739131,1927.988257816192,27532.122719783685,23.0,4.0,19.0,0.1739130434782608,1740.182949248753,36301.30999753826,98.0,46.0,52.0,0.4693877551020408,138.95913434249832,13467.714667649852,,,,,85832.0,85857.0,85903.0,85976.0,85987.0,86010.0,86017.0,86040.0,86213.0,86308.0,0.05083271893164351,-0.05064253292033915,0.04447547360003782,-0.08710244005911597,0.010737647959703089
102,102,86736.82194810128,3774.019791770242,12.421044177939107,86853.59624974198,-2680.587162781954,58.60320419698107,86891.33884521128,42301.641274697075,10.763924168337835,86910.97565592629,-19414.005966894336,12.7398270043169,87145.01236986011,13876.247152281065,38.82641744497738,0.9229195137471226,70.0,44.0,134.0,267.0,401.0,26.0,891.0,890.0,33.0,14.0,19.0,0.4242424242424242,183.07473415330844,2855.4915697186925,93.0,80.0,13.0,0.8602150537634409,240.87285754682625,161.28797062301828,23.0,14.0,9.0,0.6086956521739131,1895.6825817241663,28242.82465171134,21.0,4.0,17.0,0.1904761904761904,1736.4248428123133,36080.64375981271,98.0,47.0,51.0,0.4795918367346938,139.51113174596085,14467.218460176868,,,,,86724.0,86750.0,86794.0,86867.0,86877.0,86900.0,86907.0,86928.0,87099.0,87195.0,0.04850921411502068,-0.0898582448245573,0.0448134522586025,-0.08944186201309227,0.010053952644035108
103,103,87581.69864360057,4496.6844296875115,10.191861603456228,87668.58914880459,-4306.843501599103,81.53489282764981,87743.48211921043,41456.07065840846,10.964282605513676,87762.89853349316,-21434.422961508044,12.739827004045958,87999.25915578101,12796.700453023876,35.098321318034465,0.8960570912714562,47.0,34.0,159.0,265.0,424.0,13.0,847.0,852.0,14.0,6.0,8.0,0.4285714285714285,214.07536993188555,2494.2212623215064,99.0,49.0,50.0,0.494949494949495,109.6963889283511,4162.435899614081,23.0,14.0,9.0,0.6086956521739131,1828.1959668899792,23158.955268847603,23.0,4.0,19.0,0.1739130434782608,1805.319868941033,38455.00042713767,91.0,43.0,48.0,0.4725274725274725,124.12945036435272,13191.438145224964,,,,,87576.0,87589.0,87623.0,87718.0,87729.0,87752.0,87759.0,87782.0,87956.0,88047.0,0.047607381233724315,-0.025470251911317777,0.04409959597845218,-0.08422526102909456,0.009700113776987004
104,104,88442.972626301,6091.666955236812,17.8357578060484,88509.04093769325,-3993.8194073129785,108.11777961469218,88602.40349539317,42729.15680582454,10.812883341775851,88620.45203459915,-22223.546247102815,12.464510273049456,88866.10949479598,14244.800709542616,34.84273158692754,0.8792587854485813,49.0,32.0,157.0,267.0,424.0,17.0,860.0,858.0,20.0,10.0,10.0,0.5,210.47006241663772,3580.870824588911,99.0,30.0,69.0,0.303030303030303,127.39234485850676,4455.105523964835,23.0,14.0,9.0,0.6086956521739131,1887.0883930128773,21691.28550009094,24.0,3.0,21.0,0.125,1993.7544882935017,39564.21600668786,96.0,56.0,40.0,0.5833333333333334,120.15086150859705,14272.530765098714,,,,,88433.0,88450.0,88482.0,88578.0,88588.0,88611.0,88617.0,88639.0,88810.0,88906.0,0.03455048740570154,-0.03189737238124537,0.04416395113033549,-0.0897136067360725,0.008434716915913592
105,105,89301.24660900142,4469.608497154004,15.305604702359748,89406.83575780604,-2643.33686012848,71.78048678708166,89455.17671035706,38676.533442138934,10.640236153969648,89477.69864360057,-19098.54943267412,10.191861603456228,89710.46057921709,14016.627865881976,39.09829094029064,0.9242709878309082,54.0,27.0,153.0,267.0,420.0,27.0,857.0,855.0,40.0,17.0,23.0,0.425,188.32945223999644,3032.385114104831,91.0,67.0,24.0,0.7362637362637363,114.4501046243016,2426.2925498328623,23.0,13.0,10.0,0.5652173913043478,1871.2513730335263,30272.29567343568,22.0,6.0,16.0,0.2727272727272727,1621.8380760753926,33671.58118307772,101.0,49.0,52.0,0.4851485148514851,149.65229498228751,14492.962966175568,,,,,89287.0,89314.0,89341.0,89431.0,89442.0,89465.0,89472.0,89494.0,89664.0,89761.0,0.04213555893316251,-0.04329758584713214,0.04838208615136011,-0.08491943756213886,0.010676768793053126
106,106,90138.24660900142,4991.435188182085,18.74626653852164,90201.89025949354,-2953.3664366121934,92.46641013588903,90291.7771193521,37972.800770820904,10.66556161787258,90314.69864360055,-19248.885185607916,10.191861603456228,90546.34667698444,13748.900586066313,38.72897238995298,0.9213996450968396,51.0,24.0,156.0,266.0,422.0,27.0,837.0,836.0,36.0,15.0,21.0,0.4166666666666667,154.34479052671406,2270.0781635585013,93.0,28.0,65.0,0.3010752688172043,115.9301007728356,2765.7636629159992,23.0,14.0,9.0,0.6086956521739131,1848.743231553207,28046.21518394672,25.0,7.0,18.0,0.28,1612.7198715252418,32872.94872916353,102.0,50.0,52.0,0.4901960784313725,155.82330816740068,13898.860281641384,,,,,90124.0,90151.0,90175.0,90266.0,90278.0,90301.0,90309.0,90331.0,90502.0,90597.0,0.030921926201134847,-0.039253544475781006,0.0486859856008783,-0.08378250771276077,0.011333510428122397
107,107,90976.69864360055,4207.9275798905555,10.191861603456228,91077.3890971905,-4927.6774759250275,76.4389620259217,91135.02956689456,44561.00885926113,11.278131075595445,91151.87669549928,-24316.397860974783,12.73982700432028,91389.60454713638,13218.825127198106,34.281750679776486,0.8974296073813051,45.0,32.0,161.0,264.0,425.0,13.0,841.0,842.0,20.0,12.0,8.0,0.6,183.71095243817177,1618.583789750249,101.0,67.0,34.0,0.6633663366336634,128.14670225863856,4002.1836842531097,23.0,15.0,8.0,0.6521739130434783,1941.4689468888027,17569.911190136532,25.0,3.0,22.0,0.12,1956.2720596734584,39559.30721445164,90.0,43.0,47.0,0.4777777777777778,149.61493326226395,13173.382647423869,,,,,90966.0,90979.0,91011.0,91110.0,91120.0,91143.0,91149.0,91172.0,91348.0,91436.0,0.04365829709525323,-0.026005497089596506,0.04356878348559442,-0.08045073414484083,0.011318323059923608
108,108,91837.67126990156,4496.537664617613,16.56529454718596,91950.890505204,-3842.619455823963,71.34303122417973,91992.44239522706,44897.041300521465,11.060012954810905,92009.87669552473,-23264.437903624093,12.739827003629255,92248.545242483,13617.738652484895,36.68864685783524,0.92177536852443,73.0,50.0,135.0,268.0,403.0,23.0,858.0,858.0,38.0,19.0,19.0,0.5,173.25186735530752,2379.2657260160504,93.0,76.0,17.0,0.8172043010752689,160.4541518148063,2672.247549097979,23.0,15.0,8.0,0.6521739130434783,1914.4745132188584,22460.51785245668,24.0,3.0,21.0,0.125,1987.9112130651877,39911.03541875319,94.0,45.0,49.0,0.4787234042553192,123.22388590513305,13937.91211080188,,,,,91821.0,91844.0,91894.0,91967.0,91977.0,92000.0,92007.0,92029.0,92205.0,92297.0,0.038530060299192655,-0.04175645120716241,0.04264144045493311,-0.08544849530860638,0.00904877741082568
109,109,92683.82194810128,4175.683783622701,14.27358181166137,92800.46584430388,-4978.659741252871,68.79506582332952,92838.53225329133,40968.66458092666,10.37542146222594,92861.1653835097,-18285.61186350152,12.739827004320285,93098.0706364874,12606.907677071826,34.38637649590208,0.9237443503116668,51.0,28.0,158.0,264.0,422.0,23.0,847.0,847.0,28.0,14.0,14.0,0.5,185.10385242641067,2587.2800167043806,96.0,79.0,17.0,0.8229166666666666,130.47053330166213,3373.1831627537485,21.0,13.0,8.0,0.6190476190476191,1950.001004279481,25433.0754289608,25.0,6.0,19.0,0.24,1607.4786967926598,35996.60534212769,92.0,45.0,47.0,0.4891304347826087,126.38880760478156,12750.15764956841,,,,,92671.0,92694.0,92722.0,92816.0,92826.0,92847.0,92855.0,92880.0,93054.0,93144.0,0.0443289918533582,-0.026205955032554493,0.047597377757519634,-0.0879094836307459,0.010025361559095478
110,110,93502.82194810128,5548.925224440271,22.11024255890091,93570.3149203945,-3460.5147422275963,91.15933701532812,93660.28764223776,43033.200047447615,10.999544661101,93677.9480587313,-23115.846952705935,12.739827004320206,93912.15811881504,13748.723799740925,39.244977762590935,0.9162713659703546,55.0,31.0,152.0,265.0,417.0,24.0,819.0,820.0,34.0,14.0,20.0,0.4117647058823529,205.7021707758848,3292.178064499951,94.0,29.0,65.0,0.3085106382978723,137.9128775304672,3534.559573230824,23.0,15.0,8.0,0.6521739130434783,1884.0514977700575,20842.096269884343,23.0,3.0,20.0,0.1304347826086956,1935.5701296102227,38584.065991751544,94.0,43.0,51.0,0.4574468085106383,130.13880192915477,14456.726649556413,,,,,93490.0,93514.0,93545.0,93634.0,93645.0,93668.0,93675.0,93697.0,93871.0,93962.0,0.03707063304256984,-0.03985328420872155,0.04378134778944482,-0.08373347226127249,0.00946551867829413
111,111,94337.67126990156,4349.419562256066,16.521966478262467,94452.61652250358,-3515.3454353586803,60.276063104017155,94493.67591237304,43229.91589812205,11.217711674096671,94511.87669549928,-23322.94865665461,12.326698070498733,94747.2032677353,14453.694671070349,38.70108407684659,0.9222558641961665,69.0,39.0,139.0,267.0,406.0,30.0,834.0,834.0,39.0,17.0,22.0,0.4358974358974359,165.477965532008,3443.707871378922,91.0,75.0,16.0,0.8241758241758241,145.5101032914114,1943.886854317607,24.0,16.0,8.0,0.6666666666666666,1969.3147389999124,19288.480942509123,22.0,3.0,19.0,0.1363636363636363,1955.210421489082,39250.33121821049,103.0,51.0,52.0,0.4951456310679611,111.21058480742867,14389.144352512429,,,,,94322.0,94352.0,94391.0,94467.0,94479.0,94501.0,94509.0,94530.0,94703.0,94797.0,0.03804598824358388,-0.041392832074997665,0.045554442984365395,-0.08383204243478933,0.0076942669219394215
112,112,95173.39728720114,3460.097075700049,11.345606505982332,95294.7672007033,-3999.928155258388,58.60320421987331,95330.7349771135,41960.53241880302,10.509779768156529,95351.83321461677,-18816.01598560713,12.739827004301794,95586.46026746892,14138.474982730577,37.353429619020616,0.9152189823262084,53.0,30.0,155.0,265.0,420.0,23.0,837.0,838.0,25.0,12.0,13.0,0.48,227.1981017141697,3138.0692807457835,95.0,82.0,13.0,0.8631578947368421,256.88455318544027,1001.2054814144624,22.0,14.0,8.0,0.6363636363636364,1975.8124244207925,26011.74742373714,23.0,5.0,18.0,0.217391304347826,1674.0438588314137,36155.32117012961,97.0,45.0,52.0,0.4639175257731959,121.80935776282745,13877.017729806454,,,,,95162.0,95185.0,95215.0,95308.0,95317.0,95339.0,95347.0,95370.0,95543.0,95635.0,0.06566234898718927,-0.06422229180485017,0.04708740119644924,-0.08896909208155086,0.00861545236750154
113,113,96025.972626301,5720.637669394928,17.8357578060484,96100.31492039368,-3868.8341298486416,112.11047763801152,96186.9111064574,41820.74284638774,10.761571960906451,96206.2903748392,-20866.58471242516,12.73982700411599,96440.75897684226,13158.157033147698,37.36077930688105,0.8963453980595656,54.0,36.0,156.0,264.0,420.0,18.0,853.0,855.0,23.0,10.0,13.0,0.4347826086956521,207.0658431100597,3695.249934720817,93.0,30.0,63.0,0.3225806451612903,115.12421242453648,4618.6311705449225,23.0,15.0,8.0,0.6521739130434783,1896.919960864644,21987.451337928036,24.0,4.0,20.0,0.1666666666666666,1828.0749180401583,38941.58465736123,96.0,46.0,50.0,0.4791666666666667,124.77995672015052,13632.247648341125,,,,,96016.0,96034.0,96070.0,96163.0,96172.0,96195.0,96202.0,96226.0,96397.0,96490.0,0.036196287035945254,-0.029756823001621014,0.04535835166372446,-0.08760776826845161,0.00948308766993797
114,114,96958.82194810128,5025.976000325659,17.864298975656478,97030.41085119564,-2243.151940234475,81.53489282719899,97115.84705398988,43234.293370148414,10.887295454365752,97133.87669549928,-21769.2159687622,12.739827004228996,97368.85705774454,14003.64316480375,40.161666582088905,0.921322694574291,66.0,42.0,140.0,268.0,408.0,24.0,932.0,929.0,32.0,14.0,18.0,0.4375,224.19109979581245,3863.345534369478,87.0,28.0,59.0,0.3218390804597701,113.2719155921998,2687.5957475284954,23.0,15.0,8.0,0.6521739130434783,1962.6544239568875,22042.38622689854,22.0,3.0,19.0,0.1363636363636363,1915.961178419416,37680.718452748704,105.0,51.0,54.0,0.4857142857142857,150.59542338657508,13794.495326962153,,,,,96946.0,96970.0,97012.0,97085.0,97101.0,97124.0,97131.0,97152.0,97324.0,97420.0,0.04460648036944187,-0.05049676464642853,0.04539577892840093,-0.08801241079002248,0.010754017480613628
115,115,97871.39728720114,4521.589173545983,14.310302584948191,97989.04118340374,-3409.3096664094523,65.68444572239524,98029.18045435484,43083.56688463785,10.80710668410039,98049.29808935328,-19582.94350945468,12.73982700426178,98284.06514562789,13826.350800811966,39.92431631642475,0.9269996220373976,55.0,26.0,153.0,267.0,420.0,29.0,913.0,914.0,30.0,11.0,19.0,0.3666666666666666,190.7751717046696,4926.793861120298,92.0,76.0,16.0,0.8260869565217391,159.34245168058987,1919.0367461323592,23.0,14.0,9.0,0.6086956521739131,1934.9255149815756,27531.40657480207,23.0,4.0,19.0,0.1739130434782608,1788.28837174481,37459.27863609939,98.0,46.0,52.0,0.4693877551020408,136.22273184657237,14147.565204292525,,,,,97860.0,97889.0,97915.0,98004.0,98015.0,98038.0,98045.0,98068.0,98239.0,98335.0,0.04219206221140548,-0.046737453406044786,0.04491098706294685,-0.09131867080561312,0.009852399509389893
116,116,98760.972626301,3803.74216382052,14.208551503265664,98880.19186160344,-4442.112952261717,61.15116962073736,98918.28199337434,38765.31520697082,11.062515121845031,98940.69864360055,-19176.322132521705,10.191861603456228,99174.19658357366,13317.23958201692,38.600054752866,0.9160467890372856,54.0,29.0,154.0,267.0,421.0,25.0,890.0,890.0,26.0,10.0,16.0,0.3846153846153846,183.41778974015335,4037.1205043381383,92.0,77.0,15.0,0.8369565217391305,179.1838624028637,1886.704461584254,23.0,13.0,10.0,0.5652173913043478,1814.864598072687,29906.416698067173,24.0,6.0,18.0,0.25,1538.3409632016494,33796.74945999669,103.0,50.0,53.0,0.4854368932038835,108.35215390180171,13337.329114523964,,,,,98751.0,98776.0,98805.0,98894.0,98905.0,98928.0,98935.0,98959.0,99129.0,99226.0,0.04822035296838483,-0.04033752953346934,0.046816712011317166,-0.08022085531159963,0.00813623222999729
117,117,99629.82194810128,3528.041427829375,12.225694554448175,99743.67087833153,-4134.848430929515,63.69913502160143,99786.85451508508,43371.2581242047,11.40709693871104,99804.87669549928,-22544.38200527783,12.739827000434197,100044.83551209555,13210.113620100758,35.115061300635084,0.9134544849482538,52.0,34.0,155.0,265.0,420.0,18.0,868.0,867.0,27.0,13.0,14.0,0.4814814814814814,172.32942078090315,2925.7333422880547,96.0,78.0,18.0,0.8125,138.7389522031364,2305.2684653654223,25.0,16.0,9.0,0.64,1879.7594055758088,19804.276053304748,23.0,3.0,20.0,0.1304347826086956,1885.1425201012028,38287.58274676613,93.0,47.0,46.0,0.5053763440860215,136.52802152210728,13388.75842341576,,,,,99617.0,99635.0,99669.0,99761.0,99772.0,99795.0,99802.0,99824.0,100001.0,100089.0,0.04884563413047241,-0.03355357627267315,0.04334113158978779,-0.08361917038399523,0.01033511334182347
118,118,100495.54796540084,6033.254206505053,15.28779240518434,100567.86633502178,-5182.996757133122,108.27928047179203,100653.6723640366,42394.20683004049,10.788278875004494,100672.65264506702,-21845.35118367856,12.739827004318908,100920.53415569612,13656.243810244412,32.61389659272253,0.8820325615092756,47.0,33.0,158.0,267.0,425.0,14.0,867.0,867.0,16.0,10.0,6.0,0.625,205.42613006807235,2249.1831804262747,98.0,36.0,62.0,0.3673469387755102,144.51481380268936,6333.315077218507,22.0,15.0,7.0,0.6818181818181818,1968.8697431605697,19292.62683403919,23.0,4.0,19.0,0.1739130434782608,1852.452716947271,40423.23821980162,91.0,53.0,38.0,0.5824175824175825,125.7868690536358,12856.639836965896,,,,,100487.0,100501.0,100534.0,100630.0,100639.0,100661.0,100669.0,100692.0,100869.0,100959.0,0.03404897639595261,-0.0278824820030613,0.04644195257747883,-0.08479848647758542,0.009210941954571367
119,119,101340.82194810128,5509.728739888017,20.870015979943087,101409.73958153864,-3671.3177030471034,100.98372618165652,101495.1832942849,38614.18244127434,10.60383050277536,101517.69864360055,-19575.6719275636,10.191861603456228,101758.2601729957,13524.83188940866,35.21574539978885,0.9093077467423862,52.0,28.0,156.0,265.0,421.0,24.0,844.0,843.0,25.0,13.0,12.0,0.52,199.0434329681028,3097.0729801627476,94.0,32.0,62.0,0.3404255319148936,113.2553850454956,4151.5073337827935,22.0,13.0,9.0,0.5909090909090909,1889.1604508984487,29865.275782548844,24.0,6.0,18.0,0.25,1583.6200059164707,34377.024757638465,94.0,49.0,45.0,0.5212765957446809,113.75124004035496,13336.792106366662,,,,,101328.0,101352.0,101380.0,101471.0,101482.0,101504.0,101512.0,101536.0,101710.0,101801.0,0.03612581351367005,-0.03084870180303285,0.04892400489824026,-0.0808973511497528,0.0084105474264293
120,120,102155.60271279886,4442.997336713027,17.680584261880497,102245.4110969059,-2515.368844867251,61.66273912761632,102299.7426374091,38062.91553617748,11.02258845809556,102321.69864360055,-20164.6671666692,10.191861603456228,102552.6031158854,13680.855199409832,41.595970904977094,0.9350683835737724,52.0,18.0,152.0,268.0,420.0,34.0,822.0,804.0,35.0,23.0,12.0,0.6571428571428571,166.42764932872282,2488.1166832762524,85.0,61.0,24.0,0.7176470588235294,118.67162086487,1790.7578469331684,23.0,14.0,9.0,0.6086956521739131,1853.951002870601,27124.185077953294,23.0,6.0,17.0,0.2608695652173913,1626.3318072608963,33358.18891675747,107.0,54.0,53.0,0.5046728971962616,144.45449335175792,14179.147478923358,,,,,102133.0,102167.0,102185.0,102269.0,102286.0,102309.0,102316.0,102337.0,102507.0,102605.0,0.03745841753122626,-0.0471786160137214,0.04870754057472253,-0.0806525490264035,0.010558878903856057
121,121,102947.50762823476,4628.538759208634,16.194861621277166,103029.46584430388,-2168.9539925569816,61.9734888125334,103091.60942033152,42193.073827433946,11.039693379127304,103109.87669549928,-22011.36801657587,12.425424180828909,103343.18836204112,14229.975580828515,40.298300668548066,0.93602641492935,53.0,34.0,136.0,268.0,404.0,19.0,789.0,791.0,19.0,10.0,9.0,0.5263157894736842,203.80780791177975,4537.903095896968,90.0,53.0,37.0,0.5888888888888889,140.2071188475066,1620.1328744737625,25.0,16.0,9.0,0.64,1950.607343781306,19733.237502853553,21.0,3.0,18.0,0.1428571428571428,1911.166205376006,37853.20473499787,104.0,51.0,53.0,0.4903846153846153,119.63717973132268,14727.470248998045,,,,,102938.0,102957.0,102991.0,103065.0,103076.0,103101.0,103107.0,103127.0,103299.0,103395.0,0.044032861884606075,-0.06464273531326328,0.04623051052784452,-0.08682632555762931,0.008407405835081342
122,122,103776.27997090638,5861.528455869161,17.8357578060484,103851.07381471932,-3961.704155704479,99.7246092917508,103922.49384815294,42763.31590179982,11.12986708494732,103940.45203459916,-22649.157445073637,12.3830927258303,104178.369688451,13306.438365912849,35.529985860499636,0.9195671676181788,33.0,18.0,155.0,267.0,422.0,15.0,831.0,831.0,22.0,9.0,13.0,0.4090909090909091,212.8247244335197,2332.367438910593,94.0,47.0,47.0,0.5,157.56269334457295,4525.048244154793,24.0,15.0,9.0,0.625,1859.9651136184184,21629.86552873101,24.0,3.0,21.0,0.125,1983.3225977057484,39238.55171309613,95.0,46.0,49.0,0.4842105263157895,138.4349076145565,13362.0815216116,,,,,103771.0,103786.0,103804.0,103898.0,103907.0,103931.0,103937.0,103959.0,104136.0,104226.0,0.03630874200063259,-0.03977144358891554,0.04349440810178465,-0.08756716900023741,0.010403603414207794
123,123,104647.60271279886,3807.4195608848145,15.017269344878637,104737.20542560794,-2969.4556882068673,40.767446413824906,104791.31350204028,38197.13916630883,10.663328421852723,104813.69864360055,-20619.246479081332,10.191861603456228,105045.62808340132,13184.942927571608,39.55809557166726,0.9264813291193036,55.0,22.0,150.0,266.0,416.0,33.0,872.0,870.0,33.0,22.0,11.0,0.6666666666666666,222.0129766680572,2646.5096656986825,84.0,60.0,24.0,0.7142857142857143,124.32774481516468,2127.375315699947,23.0,13.0,10.0,0.5652173913043478,1898.9011238786711,30632.75865861879,23.0,6.0,17.0,0.2608695652173913,1606.0513877219882,33522.96398556997,102.0,50.0,52.0,0.4901960784313725,191.4161024917681,13914.155821017896,,,,,104626.0,104659.0,104681.0,104760.0,104778.0,104801.0,104808.0,104831.0,105004.0,105097.0,0.05831061513390532,-0.04186886684617985,0.04971317657091886,-0.07789088652445965,0.014517780133237403
124,124,105460.52936628342,3704.7658141408815,10.15690668383497,105563.8778746927,-4215.200490096159,58.60320421987331,105602.91989386005,43483.82917636228,11.094283202248398,105620.95766039623,-21930.57606924206,12.739827004320285,105857.75661741268,13264.708028412926,37.60047963409456,0.925304498134808,32.0,18.0,152.0,270.0,422.0,14.0,811.0,810.0,14.0,7.0,7.0,0.5,242.84744724262248,2443.668252774619,95.0,80.0,15.0,0.8421052631578947,177.81590705527546,1889.9685138889051,22.0,14.0,8.0,0.6363636363636364,1931.7384781368532,22341.00997804126,24.0,3.0,21.0,0.125,1911.427207207804,37569.038414474024,94.0,44.0,50.0,0.4680851063829787,148.86026710056268,13578.508044618397,,,,,105454.0,105468.0,105486.0,105578.0,105589.0,105611.0,105618.0,105638.0,105815.0,105908.0,0.06555001299021047,-0.04218444827786093,0.04442429553069219,-0.087158093849099,0.011222279961360994
125,125,106256.3967695095,4215.914633230108,16.53613474262423,106343.70061481952,-2451.4849183437796,55.67937255645867,106400.85271240862,38013.502892063225,11.473135162141435,106421.1218550919,-21556.12467778692,10.19186160345614,106651.2790145148,13749.572930530045,42.91139673432152,0.9243593840482516,43.0,24.0,144.0,271.0,415.0,19.0,796.0,798.0,32.0,20.0,12.0,0.625,195.10221469493547,3929.620155063927,90.0,59.0,31.0,0.6555555555555556,131.6686450826292,1191.2137462998908,25.0,15.0,10.0,0.6,1833.774695804831,23202.82957711741,18.0,4.0,14.0,0.2222222222222222,1747.9300562428762,35135.749816196636,111.0,55.0,56.0,0.4954954954954955,121.149523044633,14151.28536098424,,,,,106248.0,106267.0,106291.0,106369.0,106386.0,106411.0,106417.0,106435.0,106603.0,106706.0,0.0462775534298364,-0.053709751219511645,0.0482400872398345,-0.08108739777535602,0.008811148073961501
126,126,107075.2546933216,3805.3685571193273,15.70870496129788,107181.34253980315,-3649.4784381536288,56.055238819009254,107219.88875276226,43019.39695816541,11.372459628184709,107237.87669549928,-23268.360686664997,12.33036068901949,107474.2494885466,13828.742407322228,38.88465959797604,0.9293856455185902,50.0,30.0,139.0,269.0,408.0,20.0,819.0,819.0,21.0,9.0,12.0,0.4285714285714285,186.35190902963305,3490.5370354410297,90.0,76.0,14.0,0.8444444444444444,206.1697002599177,1079.922127766967,24.0,16.0,8.0,0.6666666666666666,1892.6282717692377,19424.026428222416,22.0,3.0,19.0,0.1363636363636363,1964.5214330961269,38885.43887659379,98.0,47.0,51.0,0.4795918367346938,157.42706055175617,14266.03561707944,,,,,107067.0,107087.0,107117.0,107194.0,107205.0,107228.0,107235.0,107256.0,107429.0,107525.0,0.04897079119471725,-0.05649292186645295,0.043994765282501305,-0.08442887144267049,0.01138404750878862
127,127,107898.33096342688,3118.5802193419377,7.708180933240378,108001.34253980315,-4839.790889744302,56.055238819009254,108037.52794920532,42019.03494845127,10.768529765996414,108058.90312327164,-19409.524860423437,12.739827004320285,108294.26958565872,12696.948043175697,35.43683947173511,0.9104069248404884,31.0,20.0,153.0,265.0,418.0,11.0,821.0,819.0,11.0,5.0,6.0,0.4545454545454545,215.70230989180345,2409.4522079630533,94.0,81.0,13.0,0.8617021276595744,243.86196056526177,1582.6157834347548,22.0,14.0,8.0,0.6363636363636364,1951.626883222051,25101.21727863566,23.0,5.0,18.0,0.217391304347826,1671.3987671237653,36447.37064967284,94.0,45.0,49.0,0.4787234042553192,120.82602621183857,12931.134421516512,,,,,107893.0,107904.0,107924.0,108014.0,108024.0,108046.0,108054.0,108077.0,108251.0,108342.0,0.06916683064747955,-0.05038687954101785,0.04644625669333664,-0.08611229688222787,0.0095161471718221
128,128,108678.0112932219,3917.543186998372,18.36255502857686,108760.34253980315,-2568.3030157203357,56.055238819009254,108819.90103143606,37811.95632586161,10.6861741613786,108842.69864360055,-18996.819006446287,10.191861603456228,109072.28754669469,13627.791406856331,42.253385467499065,0.930047600199998,57.0,38.0,126.0,270.0,396.0,19.0,783.0,783.0,21.0,7.0,14.0,0.3333333333333333,227.68967366493968,3259.936771362375,86.0,51.0,35.0,0.5930232558139535,133.07311019547174,2351.3388892345997,24.0,14.0,10.0,0.5833333333333334,1828.6850406231868,29111.142549302676,22.0,6.0,16.0,0.2727272727272727,1617.105723466565,32708.936988366517,107.0,53.0,54.0,0.4953271028037383,123.02037788220451,14262.014104636746,,,,,108672.0,108691.0,108729.0,108782.0,108806.0,108830.0,108837.0,108855.0,109021.0,109125.0,0.058120526768052266,-0.05181363311920129,0.04836261379505645,-0.08512507925236452,0.009027169128837066
129,129,109490.12330450072,3090.957599953359,12.240515469672296,109571.20542559771,-2751.397243423882,40.767446413824906,109631.95724645762,42695.98440354434,11.195227504334024,109649.87669549928,-23223.44438356468,12.73982700431991,109882.16545885062,12966.873953845885,40.760142534936854,0.921345801475503,33.0,17.0,150.0,270.0,420.0,16.0,807.0,810.0,18.0,9.0,9.0,0.5,177.80642442759293,3018.660195937191,84.0,55.0,29.0,0.6547619047619048,127.4428848138519,2519.1248360310683,25.0,16.0,9.0,0.64,1861.4901353514897,20795.764454807708,21.0,3.0,18.0,0.1428571428571428,1952.113873886828,37784.31350806991,106.0,51.0,55.0,0.4811320754716981,122.47569386712313,13338.805834001818,,,,,109483.0,109499.0,109516.0,109594.0,109616.0,109641.0,109647.0,109666.0,109832.0,109936.0,0.057524705104423285,-0.04631933288384776,0.04359871686661383,-0.08405789604871645,0.009445275268585277
130,130,110352.53408955096,6130.290173375777,12.739827004320285,110414.28794528347,-3270.183214398283,94.2747198319701,110498.06809049642,42814.00278667033,10.949027804309466,110516.3907688507,-21913.36742112144,12.739827004320285,110758.83551209555,12589.206912630443,35.055840219492524,0.90595494304097,33.0,21.0,153.0,268.0,421.0,12.0,866.0,866.0,12.0,4.0,8.0,0.3333333333333333,253.54834115978755,3092.0805207770372,92.0,34.0,58.0,0.3695652173913043,129.204980103314,4067.396407587057,24.0,15.0,9.0,0.625,1889.641923460008,22072.13163844105,24.0,3.0,21.0,0.125,1959.1766147459252,38556.53839784709,94.0,50.0,44.0,0.5319148936170213,122.37493826110786,12924.28534506594,,,,,110349.0,110361.0,110382.0,110467.0,110483.0,110507.0,110513.0,110535.0,110710.0,110803.0,0.0413599248957192,-0.03951001263000729,0.04413607232371011,-0.08940554763196967,0.009720623317290311
131,131,111210.87669549928,4495.519083775736,12.739827004320285,111313.89050513516,-5052.004395695694,71.3430312241936,111353.30017541838,42630.66908983089,10.748559718329735,111374.0178054469,-18722.295254939854,12.739827002724972,111613.06303252344,12080.532713011084,33.059327575509066,0.9071801793007724,34.0,18.0,157.0,265.0,422.0,16.0,859.0,856.0,18.0,10.0,8.0,0.5555555555555556,185.08548877754183,2163.997479530821,96.0,79.0,17.0,0.8229166666666666,170.75087203132304,3462.7395232195604,22.0,13.0,9.0,0.5909090909090909,1911.1125194330189,28143.00183398354,24.0,5.0,19.0,0.2083333333333333,1713.5445698151427,37174.69283783392,89.0,43.0,46.0,0.4831460674157303,150.074411153691,12431.802088206205,,,,,111202.0,111218.0,111236.0,111330.0,111340.0,111362.0,111369.0,111393.0,111570.0,111658.0,0.0411711051223234,-0.03379863884853361,0.04482952203743139,-0.09152427875332358,0.012422830575348428
132,132,112010.46162253524,5491.650991828306,10.191861603456228,112069.13440920938,-4003.3311232661617,88.40143014619245,112151.0263397226,37460.418877093274,10.608439449576943,112173.69864360055,-19196.860714031103,10.191861603456228,112402.95424784026,13099.993313424078,39.85789411538664,0.8886074265623519,26.0,17.0,156.0,266.0,422.0,9.0,799.0,799.0,10.0,4.0,6.0,0.4,235.0967658500989,2417.3831807797205,94.0,36.0,58.0,0.3829787234042553,148.523894317323,4317.079797545398,22.0,13.0,9.0,0.5909090909090909,1853.206154632544,28088.638387291023,23.0,7.0,16.0,0.3043478260869565,1628.2041580605014,33771.89861166413,110.0,55.0,55.0,0.5,133.23515415529812,13313.377690928864,,,,,112007.0,112016.0,112033.0,112127.0,112138.0,112160.0,112168.0,112189.0,112362.0,112455.0,0.04280985193704551,-0.037100077346624315,0.04947104731297502,-0.08481616772217537,0.010170627645952064
133,133,112849.5338424226,4323.609023021286,12.739827004320285,112929.95881659708,-4547.585468495711,66.24710042246546,112992.42474425049,41890.021327149174,11.11921792114402,113010.87669549928,-21813.553375476346,12.739827004320285,113247.63775410852,12664.230253034795,35.74336722443297,0.9035431188191192,32.0,18.0,156.0,266.0,422.0,14.0,839.0,840.0,14.0,8.0,6.0,0.5714285714285714,200.4192867414989,1948.1693781692736,95.0,57.0,38.0,0.6,137.0751422448064,4083.78674372314,24.0,15.0,9.0,0.625,1799.241366512815,21828.11151428477,24.0,4.0,20.0,0.1666666666666666,1871.526033771654,38016.374008738625,95.0,46.0,49.0,0.4842105263157895,133.00833010318033,13199.21908134283,,,,,112842.0,112856.0,112874.0,112967.0,112977.0,113001.0,113008.0,113030.0,113202.0,113296.0,0.0463546277367717,-0.030142400444020518,0.04295155050080425,-0.08579647715148038,0.010502677813466543
134,134,113713.39728720114,5432.989917905702,20.383723206912453,113784.28754669469,-2857.90857299537,94.27471983196064,113869.58651944192,42935.84405377078,10.818495918523483,113888.56311925311,-21048.56587368691,12.73982700431761,114123.79756863714,13378.665250814967,38.66477678221534,0.9255031254318934,51.0,19.0,154.0,267.0,421.0,32.0,859.0,877.0,37.0,12.0,25.0,0.3243243243243243,214.46797547321896,4421.046344008222,91.0,32.0,59.0,0.3516483516483517,99.68513912452354,3119.8729886754395,23.0,15.0,8.0,0.6521739130434783,2028.3050040701544,22819.38081341696,23.0,4.0,19.0,0.1739130434782608,1786.1254455057046,37259.271990103625,101.0,49.0,52.0,0.4851485148514851,120.94577625142726,13313.330036693553,,,,,113702.0,113734.0,113753.0,113837.0,113855.0,113878.0,113885.0,113907.0,114079.0,114174.0,0.0394751285597621,-0.03488045071366425,0.04724036638315537,-0.08485734639710364,0.009040197507300647
135,135,114560.3601721786,2684.177217983458,10.440950817355228,114667.34253980312,-3959.967571414867,56.055238819009254,114702.68884114412,40552.91389134176,10.567957952901097,114724.73176702695,-18373.85757286475,12.739827004078078,114959.02853649588,13669.650147005234,37.3124337347043,0.9149105728561704,31.0,17.0,157.0,266.0,423.0,14.0,852.0,834.0,23.0,14.0,9.0,0.6086956521739131,166.05282410007413,1670.2888965901157,96.0,83.0,13.0,0.8645833333333334,218.49033040905317,566.3916780518305,23.0,14.0,9.0,0.6086956521739131,1883.389524164878,26307.48452507391,23.0,6.0,17.0,0.2608695652173913,1612.720932596793,34862.75296444776,102.0,52.0,50.0,0.5098039215686274,144.7186453071792,13691.070135963502,,,,,114554.0,114568.0,114585.0,114680.0,114689.0,114712.0,114719.0,114742.0,114914.0,115008.0,0.06186358448598437,-0.05517477768914865,0.04644276683079463,-0.08777258265997034,0.010586858021299423
136,136,115405.87669549928,4102.428247646605,12.739827004320285,115510.04118340374,-4336.333650150902,66.24710042246546,115549.92585197992,43571.49623148857,11.101105118060088,115568.45203459916,-21076.67706299053,13.505346262408723,115806.3409075496,12594.54522760966,34.671246887791455,0.9104540568724696,49.0,22.0,153.0,265.0,418.0,27.0,846.0,846.0,27.0,20.0,7.0,0.7407407407407407,174.80997017127967,2172.904324056537,94.0,78.0,16.0,0.8297872340425532,153.9694239829238,2688.712945975768,23.0,15.0,8.0,0.6521739130434783,1841.72957453626,21062.20000177272,24.0,3.0,21.0,0.125,1934.9834041035172,38437.88955725584,93.0,45.0,48.0,0.4838709677419355,139.0543818389669,12976.128519070244,,,,,115386.0,115413.0,115435.0,115525.0,115535.0,115558.0,115565.0,115588.0,115764.0,115853.0,0.04261134128831162,-0.03550682129304458,0.042269137712219886,-0.0918068535339112,0.011040841834775661
137,137,116289.972626301,6658.405070125634,17.8357578060484,116357.46559859402,-3872.0633704808542,117.20640831012976,116448.60930579632,42051.429233825205,10.806083059602487,116467.1949952272,-22063.77537559124,12.739827004319883,116705.16991263004,12499.300142170025,35.40887975302973,0.8996931736319811,51.0,29.0,156.0,266.0,422.0,22.0,879.0,899.0,24.0,11.0,13.0,0.4583333333333333,190.9038161052132,3902.706973692524,95.0,27.0,68.0,0.2842105263157894,120.48835095688143,4500.609625566034,22.0,15.0,7.0,0.6818181818181818,1949.577072335154,18652.45381211182,23.0,3.0,20.0,0.1304347826086956,1902.6612511870007,39413.615614246795,90.0,42.0,48.0,0.4666666666666667,110.2290261276566,12543.444507275,,,,,116280.0,116302.0,116331.0,116425.0,116434.0,116456.0,116464.0,116487.0,116664.0,116753.0,0.028671102778313116,-0.031117349957503027,0.04636173152390642,-0.08623461845482168,0.008818815843598067
138,138,117169.39728720114,5372.72881431511,20.383723206898377,117237.89025949354,-3536.6426937998463,102.11721206749708,117325.94133590872,40756.53486093688,10.308233151432804,117347.91320645274,-18304.41048858744,12.739827004306042,117582.37179029392,13067.04818586825,38.38057501044535,0.9073927348796276,51.0,33.0,157.0,265.0,422.0,18.0,879.0,878.0,24.0,11.0,13.0,0.4583333333333333,227.6606286152339,3344.605885586843,94.0,30.0,64.0,0.3191489361702128,121.37371525057848,3581.750377488537,22.0,13.0,9.0,0.5909090909090909,1903.7710282481776,27829.061436307584,24.0,6.0,18.0,0.25,1623.7246445919347,35119.44732162485,98.0,46.0,52.0,0.4693877551020408,140.29302658454168,13357.803470572468,,,,,117158.0,117176.0,117209.0,117302.0,117313.0,117335.0,117342.0,117366.0,117539.0,117631.0,0.04237337049445981,-0.03431890800372935,0.046710816676244174,-0.08870674341598195,0.010736397737957816
139,139,118015.12330450072,3394.416105180439,12.733172251647725,118134.31516610416,-4577.467305644739,73.89099662505764,118173.89198903488,37998.24986151318,10.784201575056343,118196.69864360055,-18538.046337907348,10.191861603456204,118431.64119347643,12747.35628546082,35.737086771513255,0.9050588823779208,50.0,27.0,156.0,266.0,422.0,23.0,847.0,848.0,24.0,7.0,17.0,0.2916666666666667,191.0785113325031,3525.123560065681,96.0,78.0,18.0,0.8125,130.2643576294754,3420.223731156377,22.0,13.0,9.0,0.5909090909090909,1827.0113121747968,27659.042720950216,23.0,6.0,17.0,0.2608695652173913,1580.6087471881938,33924.9457227558,90.0,42.0,48.0,0.4666666666666667,158.8967439959714,13367.938871506589,,,,,118008.0,118031.0,118058.0,118151.0,118161.0,118183.0,118191.0,118214.0,118390.0,118480.0,0.05629201176629046,-0.028457736326994384,0.04808145951019969,-0.08526296236276533,0.012465074360336453
