Unnamed: 0,cycle,p_center,p_height,p_width,q_center,q_height,q_width,r_center,r_height,r_width,s_center,s_height,s_width,t_center,t_height,t_width,r_squared,pr_interval,pr_segment,qrs_duration,st_segment,qt_interval,p_duration,pp_interval,rr_interval,fwhm_p,rise_time_p,decay_time_p,rise_decay_symmetry_p,sharpness_deriv_p,sharpness_diff_p,fwhm_q,rise_time_q,decay_time_q,rise_decay_symmetry_q,sharpness_deriv_q,sharpness_diff_q,fwhm_r,rise_time_r,decay_time_r,rise_decay_symmetry_r,sharpness_deriv_r,sharpness_diff_r,fwhm_s,rise_time_s,decay_time_s,rise_decay_symmetry_s,sharpness_deriv_s,sharpness_diff_s,fwhm_t,rise_time_t,decay_time_t,rise_decay_symmetry_t,sharpness_deriv_t,sharpness_diff_t,Average_Heart_Rate,SDNN,RMSSD,NN50,p_on,p_off,q_on,q_off,r_on,r_off,s_on,s_off,t_on,t_off,sharpness_deriv_p_norm,sharpness_deriv_q_norm,sharpness_deriv_r_norm,sharpness_deriv_s_norm,sharpness_deriv_t_norm
0,0,0.0,0.0,0.0,0.0,0.0,0.0,0.0,0.0,0.0,0.0,0.0,0.0,0.0,0.0,0.0,0.0,0.0,0.0,0.0,0.0,0.0,0.0,0.0,0.0,0.0,0.0,0.0,0.0,0.0,0.0,0.0,0.0,0.0,0.0,0.0,0.0,0.0,0.0,0.0,0.0,0.0,0.0,0.0,0.0,0.0,0.0,0.0,0.0,0.0,0.0,0.0,0.0,0.0,0.0,84.99945012375404,679.9497156139226,1075.7240289605434,348.0,,,,,,,,,,,,,,,
1,1,1315.097034625804,3234.069185632816,10.46215424450568,1429.972626301008,-3401.5267196381023,17.83575780604817,1461.5850779133111,46515.87759691117,11.697879636570844,1546.9212361711686,-250.47323663081391,5.364590515806231,1683.744995227843,15754.9755246344,36.097884139282634,0.9785943268049478,113.0,85.0,141.0,175.0,316.0,28.0,,,28.0,14.0,14.0,0.5,120.11890134923937,3116.354841062895,22.0,18.0,4.0,0.8181818181818182,620.3372128724113,5451.8978441406925,28.0,14.0,14.0,0.5,1795.2356108063404,45795.99087713299,15.0,7.0,8.0,0.4666666666666667,22.779386798976944,80.33131860324147,92.0,46.0,46.0,0.5,70.17229983403304,15837.678117159518,0.0,0.0,0.0,0.0,1301.0,1329.0,1414.0,1434.0,1448.0,1476.0,1540.0,1555.0,1639.0,1730.0,0.037141722843426275,-0.18237023078225612,0.03859403935927355,-0.09094539243149845,0.004453977076912115
2,2,2013.0252740820008,3518.9106109351037,12.87595240900806,2128.397287201152,-4364.478199961275,14.778645778042506,2161.939414793894,47225.04078862677,12.79816490860576,2223.6586467388947,-90.60309172657942,1.986745032060017,2383.756338452786,16054.746420977184,37.85543274369242,0.9797038801941396,114.0,82.0,116.0,204.0,320.0,32.0,698.0,699.0,33.0,17.0,16.0,0.5151515151515151,107.9593036664884,3357.5003113798857,23.0,18.0,5.0,0.782608695652174,537.3552789482989,3987.647277443888,30.0,15.0,15.0,0.5,1734.8525161546868,48128.90071692095,7.0,4.0,3.0,0.5714285714285714,82.90758936799016,1137.544443669851,94.0,47.0,47.0,0.5,86.55154805525883,16601.105940726004,0.0,0.0,0.0,0.0,1997.0,2029.0,2111.0,2133.0,2147.0,2177.0,2220.0,2227.0,2338.0,2431.0,0.03067975166263165,-0.12312016564845407,0.036735860619362175,-0.9150635788256252,0.005391025543833586
3,3,0.0,0.0,0.0,0.0,0.0,0.0,0.0,0.0,0.0,0.0,0.0,0.0,0.0,0.0,0.0,0.0,0.0,0.0,0.0,0.0,0.0,0.0,0.0,0.0,0.0,0.0,0.0,0.0,0.0,0.0,0.0,0.0,0.0,0.0,0.0,0.0,0.0,0.0,0.0,0.0,0.0,0.0,0.0,0.0,0.0,0.0,0.0,0.0,0.0,0.0,0.0,0.0,0.0,0.0,0.0,0.0,0.0,0.0,2714.0,2752.0,2832.0,2850.0,2866.0,2896.0,2773.0,,3057.0,3151.0,,,,,
4,4,3452.23559269808,4119.8966260802,18.389486685230224,3566.5479654008636,-2522.9798436515366,9.322464974707277,3599.8187332709417,48223.62610292747,11.53033622795407,3627.737198170819,7527.246036153848,15.3896710253424,3821.851591527258,17104.03071410181,40.19686659943583,0.9874250121260064,121.0,81.0,351.0,-35.0,316.0,40.0,1439.0,1439.0,41.0,20.0,21.0,0.4878048780487805,101.79797087094012,4169.1500189012895,17.0,14.0,3.0,0.8235294117647058,571.0679625950603,5661.564722547992,30.0,14.0,16.0,0.4666666666666667,1735.157880000332,51852.361533634474,67.0,52.0,15.0,0.7761194029850746,842.1157465825992,2868.2390326830337,97.0,48.0,49.0,0.4948453608247423,78.3115532242844,17760.23673330608,0.0,0.0,0.0,0.0,3433.0,3473.0,3554.0,3570.0,3586.0,3616.0,3571.0,3905.0,3775.0,3870.0,0.024708865321165577,-0.22634662105288456,0.03598148916252893,0.11187567704547759,0.004578543767447672
5,5,4164.120213736963,3669.6928090386073,13.670670262731958,4281.397287201151,-3193.411462020709,20.383723206910545,4313.109826144864,47277.90132989261,11.242201337709464,4352.73777297058,4484.011902007039,8.557950179399203,4531.751219219659,16258.236748033114,40.11414413794777,0.9797648794817776,118.0,83.0,349.0,-33.0,316.0,35.0,713.0,713.0,35.0,17.0,18.0,0.4857142857142857,104.53461848926987,3642.6939705128902,22.0,17.0,5.0,0.7727272727272727,561.7756855907137,4180.945881577694,27.0,13.0,14.0,0.4814814814814814,1846.598763559188,47345.36409101103,74.0,64.0,10.0,0.8648648648648649,193.89078973663513,2483.204877534119,96.0,47.0,49.0,0.4895833333333333,82.01181243478301,16922.476933111044,0.0,0.0,0.0,0.0,4147.0,4182.0,4265.0,4286.0,4300.0,4327.0,4198.0,4614.0,4486.0,4581.0,0.028485931637601034,-0.17591710065299146,0.03905839116406867,0.04324047169675215,0.005044323914443221
6,6,4855.748104625137,2456.4588649952934,9.008689399361316,4964.602713362877,-3137.6245576671445,20.383723206912453,5002.65557890044,45490.895332588494,10.896125067075356,5066.435317206373,-74.64132704508468,1.8092702141421897,5222.8604622074645,16203.451229573278,36.613303229080685,0.9699813362638996,110.0,84.0,117.0,199.0,316.0,26.0,691.0,690.0,26.0,13.0,13.0,0.5,101.5649700196882,2320.7360286897433,25.0,14.0,11.0,0.56,247.40991455756233,1136.2817741344977,26.0,13.0,13.0,0.5,1852.069547596608,44416.36763784477,7.0,3.0,4.0,0.4285714285714285,83.49485728927128,1072.9219750382297,90.0,44.0,46.0,0.4888888888888889,86.79655971745166,16763.03630815111,0.0,0.0,0.0,0.0,4843.0,4869.0,4953.0,4976.0,4990.0,5016.0,5063.0,5070.0,5179.0,5269.0,0.04134609028752566,-0.07885261923801173,0.040712971992657915,-1.1186143199040246,0.0053566711491091065
7,7,5557.3861968281735,3295.2467111379124,11.98621410520932,5673.397287200472,-3681.677489556816,20.38372320331359,5706.103712983168,46283.46028724381,11.711494855717625,5774.821948101295,-1146.1915009986476,8.144433638282665,5929.054313728479,16319.91863981013,36.69310741530256,0.9809192979843552,110.0,79.0,144.0,179.0,323.0,31.0,702.0,703.0,31.0,15.0,16.0,0.4838709677419355,104.77054107119362,3270.400219624111,31.0,26.0,5.0,0.8387096774193549,509.07461730952696,3316.0778802803957,27.0,13.0,14.0,0.4814814814814814,1784.3592468016843,46633.16834444565,35.0,13.0,22.0,0.3714285714285714,43.789486810502304,1243.3413306494576,93.0,46.0,47.0,0.4946236559139785,81.00677558028013,16662.21387573062,0.0,0.0,0.0,0.0,5542.0,5573.0,5652.0,5678.0,5693.0,5720.0,5762.0,5796.0,5884.0,5975.0,0.0317944452283557,-0.138272463775964,0.03855284880878865,-0.03820433738371785,0.004963675209916523
8,8,6286.966358633851,3243.3700213309,11.251384742998964,6403.821948101295,-4126.223569919397,22.93168860777651,6438.224401308257,47982.14660844153,12.943178042739378,6501.632620626759,-242.10411216502817,3.718179357658749,6661.241937103539,16238.287056154311,37.48309294048415,0.975536006785541,110.0,81.0,125.0,200.0,325.0,29.0,730.0,732.0,29.0,15.0,14.0,0.5172413793103449,116.73112981096556,3158.5926586459564,74.0,69.0,5.0,0.9324324324324323,528.0502558262323,3617.5185089730207,29.0,14.0,15.0,0.4827586206896552,1724.517496337409,48762.83299104039,13.0,7.0,6.0,0.5384615384615384,71.36244701749382,987.4950582742176,93.0,46.0,47.0,0.4946236559139785,86.11389323347079,16721.006350653184,0.0,0.0,0.0,0.0,6272.0,6301.0,6382.0,6409.0,6424.0,6453.0,6495.0,6507.0,6617.0,6707.0,0.03599069148547706,-0.12797422313123652,0.03594081587075167,-0.2947593346487656,0.005303138990933999
9,9,7030.401242645936,3084.1760010480925,11.03936753276336,7147.397287201151,-4416.578743002855,20.383723206904317,7181.463258428388,47493.66954372454,13.08762834258565,7244.530383973487,-416.1069431955291,4.494359066757588,7403.737857392881,16394.388969749885,37.774263801969774,0.9737780717815426,98.0,68.0,138.0,200.0,338.0,30.0,742.0,743.0,30.0,15.0,15.0,0.5,107.28601172641297,3003.4210482534027,44.0,39.0,5.0,0.8863636363636364,509.1371919898487,3344.272239496306,29.0,14.0,15.0,0.4827586206896552,1716.6629281357534,49207.04055850731,16.0,8.0,8.0,0.5,69.80370754091061,1067.745872912662,94.0,47.0,47.0,0.5,86.2540538011206,16979.61208906459,0.0,0.0,0.0,0.0,7015.0,7045.0,7113.0,7152.0,7167.0,7196.0,7237.0,7251.0,7358.0,7451.0,0.034785956342943486,-0.11527864023628472,0.03614508932722762,-0.167754248474796,0.005261193568133116
10,10,7792.630283911343,2952.8313364710666,12.163684358865014,7908.397287201151,-4349.228366186838,12.572874277960407,7941.044239576888,46662.33998891008,12.320322969399449,8004.123304364774,-611.9775736064944,4.385899258293785,8164.2568570535395,16761.38541595484,37.14763603005728,0.9752862363276282,117.0,85.0,119.0,198.0,317.0,32.0,762.0,760.0,33.0,17.0,16.0,0.5151515151515151,90.2887965158614,2728.67047545931,19.0,14.0,5.0,0.7368421052631579,587.2813247411055,4126.596644234056,28.0,14.0,14.0,0.5,1776.0673264472937,47764.43972853267,16.0,7.0,9.0,0.4375,92.69028971070053,1514.5370564415273,93.0,46.0,47.0,0.4946236559139785,85.62197932258331,17222.536318317354,0.0,0.0,0.0,0.0,7777.0,7809.0,7894.0,7913.0,7927.0,7955.0,7997.0,8013.0,8119.0,8211.0,0.030577024634182354,-0.13503115387247444,0.038062114477529406,-0.15146027192542352,0.005108287721913572
11,11,8496.634951264787,2508.1518396995066,8.992743978582762,8606.60271279885,-3718.758030485401,20.383723206912453,8644.614586289394,44562.589702162935,10.657117205100937,8712.39728720115,-1299.7377179547632,7.829201457777538,8865.9676398502,15789.08861696141,35.666786318008974,0.975586093825577,69.0,44.0,181.0,178.0,359.0,25.0,706.0,704.0,25.0,13.0,12.0,0.52,105.94994784765024,2333.5343351911815,68.0,56.0,12.0,0.8235294117647058,240.21869247984895,1884.830727485237,26.0,13.0,13.0,0.5,1848.5779898720975,43339.52560742348,35.0,12.0,23.0,0.3428571428571428,71.12317271364947,1765.520191401765,90.0,44.0,46.0,0.4888888888888889,73.19416758332743,15886.89499836849,0.0,0.0,0.0,0.0,8484.0,8509.0,8553.0,8618.0,8632.0,8658.0,8701.0,8734.0,8822.0,8912.0,0.04224223835680688,-0.06459648369444831,0.04148273253927101,-0.05472117314989306,0.004635743668237993
12,12,9176.093025608478,2708.3683409333066,8.69024649414155,9286.288803826736,-3414.463600510124,20.383723206912453,9323.94084606678,44621.95548268008,11.18264407922192,9391.39728720115,-1058.551055796897,7.0112819119781085,9545.571106313058,16205.232738534423,35.19188252796559,0.968755174812711,98.0,74.0,145.0,184.0,329.0,24.0,679.0,679.0,24.0,12.0,12.0,0.5,123.99711285096016,2644.569797227608,75.0,64.0,11.0,0.8533333333333334,241.8826143107264,1241.4813078317975,27.0,13.0,14.0,0.4814814814814814,1783.754926716617,44443.43695848207,29.0,11.0,18.0,0.3793103448275862,65.12224499407486,1412.2223029789805,90.0,45.0,45.0,0.5,77.54693430273025,16387.233660292695,0.0,0.0,0.0,0.0,9164.0,9188.0,9262.0,9297.0,9311.0,9338.0,9380.0,9407.0,9502.0,9591.0,0.045782957575198444,-0.07084058950711583,0.039974826459790135,-0.061520173861665674,0.004785302102964025
13,13,0.0,0.0,0.0,0.0,0.0,0.0,0.0,0.0,0.0,0.0,0.0,0.0,0.0,0.0,0.0,0.0,0.0,0.0,0.0,0.0,0.0,0.0,0.0,0.0,0.0,0.0,0.0,0.0,0.0,0.0,0.0,0.0,0.0,0.0,0.0,0.0,0.0,0.0,0.0,0.0,0.0,0.0,0.0,0.0,0.0,0.0,0.0,0.0,0.0,0.0,0.0,0.0,0.0,0.0,0.0,0.0,0.0,0.0,,9617.0,9878.0,9967.0,9980.0,10009.0,10044.0,10113.0,10178.0,10259.0,,,,,
14,14,0.0,0.0,0.0,0.0,0.0,0.0,0.0,0.0,0.0,0.0,0.0,0.0,0.0,0.0,0.0,0.0,0.0,0.0,0.0,0.0,0.0,0.0,0.0,0.0,0.0,0.0,0.0,0.0,0.0,0.0,0.0,0.0,0.0,0.0,0.0,0.0,0.0,0.0,0.0,0.0,0.0,0.0,0.0,0.0,0.0,0.0,0.0,0.0,0.0,0.0,0.0,0.0,0.0,0.0,0.0,0.0,0.0,0.0,,10271.0,10519.0,10624.0,10636.0,10664.0,10694.0,10779.0,10838.0,10909.0,,,,,
15,15,0.0,0.0,0.0,0.0,0.0,0.0,0.0,0.0,0.0,0.0,0.0,0.0,0.0,0.0,0.0,0.0,0.0,0.0,0.0,0.0,0.0,0.0,0.0,0.0,0.0,0.0,0.0,0.0,0.0,0.0,0.0,0.0,0.0,0.0,0.0,0.0,0.0,0.0,0.0,0.0,0.0,0.0,0.0,0.0,0.0,0.0,0.0,0.0,0.0,0.0,0.0,0.0,0.0,0.0,0.0,0.0,0.0,0.0,,10900.0,11131.0,11262.0,11272.0,11296.0,11316.0,11446.0,11489.0,11529.0,,,,,
16,16,11509.716272000858,2707.625974695582,10.395670940708913,11834.630086497842,-18071.473641932214,38.21948101296085,11877.087696777326,46719.81384247857,13.935044574314862,11949.89050520403,-12023.812605198314,71.34303122419355,12092.931442920792,6882.397417707719,18.768713950552502,0.5030172650160458,229.0,196.0,311.0,87.0,398.0,33.0,2338.0,2553.0,33.0,17.0,16.0,0.5151515151515151,77.76007015583721,2511.15770146825,135.0,114.0,21.0,0.8444444444444444,143.6490330277705,15857.55166610899,23.0,11.0,12.0,0.4782608695652174,1630.9624336855456,34135.493084257905,124.0,40.0,84.0,0.3225806451612903,26.733359204169997,12549.148057242,44.0,16.0,28.0,0.3636363636363636,104.37739544084543,5873.484672529907,0.0,0.0,0.0,0.0,11493.0,11526.0,11722.0,11856.0,11866.0,11889.0,11910.0,12033.0,12078.0,12120.0,0.028718911283372426,-0.007948938524551419,0.034909437764125736,-0.0022233679184763934,0.015165848338297474
17,17,12098.2355763275,9303.742984456274,20.273744106116087,12404.47940829813,-10642.10874539172,33.12355021123273,12446.474272876188,44158.82066901076,11.35680389974965,12516.64389620259,-5629.0585137619955,38.47836544190704,12664.09251055356,11033.973249444063,26.42468689621579,0.8549040906482931,252.0,193.0,249.0,131.0,380.0,59.0,588.0,570.0,59.0,29.0,30.0,0.4915254237288136,98.868757735133,9068.215075541457,105.0,85.0,20.0,0.8095238095238095,126.36431161402692,9242.04553988735,26.0,12.0,14.0,0.4615384615384615,1757.2922604160408,41111.02586322707,82.0,27.0,55.0,0.3292682926829268,39.76866456122795,5822.100643739706,72.0,35.0,37.0,0.4861111111111111,88.78521829082001,10935.299699431987,0.0,0.0,0.0,0.0,12069.0,12128.0,12321.0,12423.0,12434.0,12460.0,12491.0,12570.0,12629.0,12701.0,0.01062677224642949,-0.011873991765846744,0.03979481865214874,-0.007064887398843164,0.008046531950337416
18,18,14137.596407159292,3307.014818585844,7.607792783412031,14255.75339099856,-7307.7359974372575,25.47965400864057,14295.790248522164,43832.79742230121,12.02850359565169,14362.52059170187,-3341.98736322444,24.653066122303965,14518.777076266588,12904.493866007835,30.215372536825424,0.9317473001620212,48.0,25.0,240.0,146.0,386.0,23.0,2036.0,1849.0,23.0,12.0,11.0,0.5217391304347826,172.6132163278364,3083.150925598003,97.0,83.0,14.0,0.8556701030927835,209.74785940065905,4799.884748229013,27.0,13.0,14.0,0.4814814814814814,1665.9419143206417,42960.19728714984,72.0,20.0,52.0,0.2777777777777778,45.914825504308645,3696.684013401132,82.0,41.0,41.0,0.5,70.52957826819826,12776.32896882906,0.0,0.0,0.0,0.0,14126.0,14149.0,14174.0,14270.0,14283.0,14310.0,14344.0,14414.0,14478.0,14560.0,0.05219608190375446,-0.028702167056146435,0.038006744088686546,-0.013738778910285519,0.005465505195363192
19,19,14938.637878092384,4064.854885046428,10.385967788431104,15055.753391001525,-5946.016245907321,25.47965400864037,15097.529744319509,45230.235020506894,12.370385963805395,15161.24660900144,-2701.4612327504456,11.112017770077337,15323.3488108717,14248.549481981085,34.47375878733722,0.9611950985317752,63.0,36.0,215.0,165.0,380.0,27.0,802.0,801.0,27.0,14.0,13.0,0.5185185185185185,156.2881515460737,3906.047488702888,84.0,70.0,14.0,0.8333333333333334,194.5490456692598,4299.287281224633,28.0,14.0,14.0,0.5,1651.46978423061,44079.29051936544,56.0,14.0,42.0,0.25,70.09577492617869,3134.5391715500728,90.0,44.0,46.0,0.4888888888888889,74.4517959043554,14396.811172895965,0.0,0.0,0.0,0.0,14925.0,14952.0,14988.0,15070.0,15084.0,15112.0,15147.0,15203.0,15280.0,15368.0,0.03844864231710171,-0.03271922538105561,0.03651251830731925,-0.025947355481689405,0.005225219310815334
20,20,15772.064374298576,4612.332711001461,12.266232074832669,15888.932761702572,-5198.656426927588,22.93168860777651,15926.718454963771,45766.036300974185,11.427892140774416,15991.821948101297,-2198.039285104404,9.883066704640042,16151.352477287512,14381.917429165082,35.58410092817664,0.9689667063608596,98.0,68.0,172.0,170.0,342.0,30.0,832.0,830.0,30.0,15.0,15.0,0.5,155.72202898838904,4571.23273476284,49.0,37.0,12.0,0.7551020408163265,285.0161500897437,2922.112979987151,28.0,14.0,14.0,0.5,1783.1378668553295,44905.569402730674,50.0,13.0,37.0,0.26,78.32630590693235,2583.218016512365,94.0,47.0,47.0,0.5,72.480785015129,14451.34846913549,0.0,0.0,0.0,0.0,15757.0,15787.0,15855.0,15901.0,15913.0,15941.0,15979.0,16027.0,16106.0,16197.0,0.033762097998038317,-0.05482496373744564,0.038962034097267305,-0.035634625112358695,0.005039716391928747
21,21,0.0,0.0,0.0,0.0,0.0,0.0,0.0,0.0,0.0,0.0,0.0,0.0,0.0,0.0,0.0,0.0,0.0,0.0,0.0,0.0,0.0,0.0,0.0,0.0,0.0,0.0,0.0,0.0,0.0,0.0,0.0,0.0,0.0,0.0,0.0,0.0,0.0,0.0,0.0,0.0,0.0,0.0,0.0,0.0,0.0,0.0,0.0,0.0,0.0,0.0,0.0,0.0,0.0,0.0,0.0,0.0,0.0,0.0,,16889.0,17148.0,17250.0,17262.0,17287.0,17320.0,17401.0,17460.0,17535.0,,,,,
22,22,17807.65993727196,2947.155948933111,7.506990568346524,17922.753390998565,-7448.36151869472,25.47965400864057,17962.911694642415,46033.15969002089,12.135361958413828,18028.52059170187,-3206.6934409795363,33.04413101543675,18185.839590253105,13197.312654483618,29.79983626244745,0.9370423081166214,47.0,25.0,235.0,147.0,382.0,22.0,2036.0,2036.0,22.0,11.0,11.0,0.5,157.78441767113063,2778.1456082411983,94.0,80.0,14.0,0.851063829787234,221.5132643140093,4953.217264294819,28.0,14.0,14.0,0.5,1730.0770971030672,44807.652214079535,71.0,19.0,52.0,0.2676056338028169,57.37534091757995,4060.321618764658,80.0,40.0,40.0,0.5,75.92760917460443,13109.018369391755,0.0,0.0,0.0,0.0,17797.0,17819.0,17844.0,17937.0,17949.0,17977.0,18010.0,18079.0,18147.0,18226.0,0.05353785833024872,-0.02973986476865158,0.03758327928721597,-0.017892368563941594,0.005753262892412342
23,23,18491.55816001906,4677.477726683071,11.120491462151492,18611.49101856056,-5837.8470578192455,22.93168860777651,18648.473599247613,46909.410173222495,12.66960095570669,18712.246609001435,-2227.5247985742135,10.429699297087152,18869.546573989588,14839.997384132384,34.19888975185892,0.9637852419575448,69.0,39.0,206.0,162.0,368.0,30.0,683.0,685.0,30.0,15.0,15.0,0.5,162.73127311108752,4500.358263591888,75.0,65.0,10.0,0.8666666666666667,346.0437290926163,1707.971901524995,29.0,14.0,15.0,0.4827586206896552,1695.9552708245735,48150.49644172696,54.0,14.0,40.0,0.2592592592592592,60.083395384896406,2528.2651822770695,89.0,45.0,44.0,0.5056179775280899,74.69792884442741,15003.11569583534,0.0,0.0,0.0,0.0,18477.0,18507.0,18546.0,18621.0,18634.0,18663.0,18698.0,18752.0,18826.0,18914.0,0.03479038973991754,-0.0592759155327859,0.0361538391670651,-0.02697316565155835,0.005033554043904207
24,24,19174.564850844286,3596.0179768433745,9.12039237773586,19291.753390998565,-6238.553704392994,25.47965400864057,19331.464420222743,45789.20586250954,11.550310369582254,19398.095930801723,-3250.6028647633357,15.86495684135299,19552.34927509611,14548.704310310372,31.786631552633704,0.9455260675769194,52.0,27.0,224.0,157.0,381.0,25.0,684.0,684.0,25.0,13.0,12.0,0.52,152.0167780193642,3418.161469295048,93.0,79.0,14.0,0.8494623655913979,214.7435189576597,4207.032524659845,28.0,13.0,15.0,0.4642857142857143,1767.737864555868,46396.818644523024,58.0,17.0,41.0,0.293103448275862,54.7929098956103,3346.918809015885,85.0,42.0,43.0,0.4941176470588235,80.81092927971785,14568.271144121109,0.0,0.0,0.0,0.0,19162.0,19187.0,19214.0,19306.0,19318.0,19346.0,19381.0,19438.0,19510.0,19595.0,0.042273642400644025,-0.03442200374206028,0.03860599526149949,-0.016856230113363777,0.005554510391860036
25,25,19848.97206525227,2795.4222263114107,6.741675073185324,19966.753390998565,-7778.371020550236,25.47965400864057,20004.35118479551,44128.22061331,10.712490893266793,20073.945252602018,-3400.911548863158,34.36543367780432,20225.236030990876,13102.793863788427,28.60429068245743,0.920082497032306,45.0,25.0,234.0,146.0,380.0,20.0,674.0,673.0,20.0,10.0,10.0,0.5,171.28226984205168,2707.027252826194,98.0,84.0,14.0,0.8571428571428571,249.4191730521601,5285.538018822037,26.0,12.0,14.0,0.4615384615384615,1831.4777827061723,43030.290654904726,66.0,20.0,46.0,0.303030303030303,56.93596534221444,3950.0796385634817,79.0,39.0,40.0,0.4936708860759494,86.16636078129469,13036.407189766456,0.0,0.0,0.0,0.0,19839.0,19859.0,19884.0,19981.0,19992.0,20018.0,20054.0,20118.0,20187.0,20264.0,0.061272414674923885,-0.03206573360838686,0.04150354936708597,-0.016741383750849607,0.006576182276623353
26,26,0.0,0.0,0.0,0.0,0.0,0.0,0.0,0.0,0.0,0.0,0.0,0.0,0.0,0.0,0.0,0.0,0.0,0.0,0.0,0.0,0.0,0.0,0.0,0.0,0.0,0.0,0.0,0.0,0.0,0.0,0.0,0.0,0.0,0.0,0.0,0.0,0.0,0.0,0.0,0.0,0.0,0.0,0.0,0.0,0.0,0.0,0.0,0.0,0.0,0.0,0.0,0.0,0.0,0.0,0.0,0.0,0.0,0.0,,20937.0,21189.0,21303.0,21314.0,21339.0,21365.0,21478.0,21523.0,21580.0,,,,,
27,27,0.0,0.0,0.0,0.0,0.0,0.0,0.0,0.0,0.0,0.0,0.0,0.0,0.0,0.0,0.0,0.0,0.0,0.0,0.0,0.0,0.0,0.0,0.0,0.0,0.0,0.0,0.0,0.0,0.0,0.0,0.0,0.0,0.0,0.0,0.0,0.0,0.0,0.0,0.0,0.0,0.0,0.0,0.0,0.0,0.0,0.0,0.0,0.0,0.0,0.0,0.0,0.0,0.0,0.0,0.0,0.0,0.0,0.0,,21601.0,21861.0,21966.0,21977.0,22004.0,22035.0,22119.0,22177.0,22249.0,,,,,
28,28,22512.766267222298,3501.4837125045915,8.54842043813771,22629.753390998565,-6654.202267000836,25.47965400864057,22671.050478706893,46184.25231152508,12.34818917718599,22738.095930801723,-2816.0219439467296,13.335631042841738,22891.127110307403,14853.355347517112,32.16716704807662,0.9383331228593458,48.0,24.0,230.0,154.0,384.0,24.0,2664.0,2666.0,24.0,12.0,12.0,0.5,158.06128284468423,3340.0214639092837,96.0,82.0,14.0,0.8541666666666666,189.37729831309883,4448.014328398787,29.0,14.0,15.0,0.4827586206896552,1696.280282453488,46251.13767356451,59.0,18.0,41.0,0.3050847457627119,36.33018690063796,2689.5376015067254,86.0,43.0,43.0,0.5,81.24025052096349,14890.80022844188,0.0,0.0,0.0,0.0,22501.0,22525.0,22549.0,22644.0,22657.0,22686.0,22721.0,22779.0,22850.0,22933.0,0.04514123035335323,-0.02845980490437578,0.036728542686187186,-0.01290124424588831,0.005469488113643199
29,29,0.0,0.0,0.0,0.0,0.0,0.0,0.0,0.0,0.0,0.0,0.0,0.0,0.0,0.0,0.0,0.0,0.0,0.0,0.0,0.0,0.0,0.0,0.0,0.0,0.0,0.0,0.0,0.0,0.0,0.0,0.0,0.0,0.0,0.0,0.0,0.0,0.0,0.0,0.0,0.0,0.0,0.0,0.0,0.0,0.0,0.0,0.0,0.0,0.0,0.0,0.0,0.0,0.0,0.0,0.0,0.0,0.0,0.0,,22952.0,23214.0,23316.0,23327.0,23352.0,23385.0,23465.0,23525.0,23597.0,,,,,
30,30,0.0,0.0,0.0,0.0,0.0,0.0,0.0,0.0,0.0,0.0,0.0,0.0,0.0,0.0,0.0,0.0,0.0,0.0,0.0,0.0,0.0,0.0,0.0,0.0,0.0,0.0,0.0,0.0,0.0,0.0,0.0,0.0,0.0,0.0,0.0,0.0,0.0,0.0,0.0,0.0,0.0,0.0,0.0,0.0,0.0,0.0,0.0,0.0,0.0,0.0,0.0,0.0,0.0,0.0,0.0,0.0,0.0,0.0,,24263.0,24519.0,24627.0,24639.0,24663.0,24690.0,24793.0,24842.0,24905.0,,,,,
31,31,25184.664990755584,4560.452506721211,11.633899419136393,25299.753390998565,-5594.482510025023,25.47965400864057,25340.88197229876,46082.98944566314,12.264636439222317,25406.67126990158,-2233.9144347464367,11.705706943644884,25562.799932125425,14692.461937226084,32.98862655304328,0.9642220097445964,83.0,53.0,194.0,159.0,353.0,30.0,2672.0,2670.0,30.0,15.0,15.0,0.5,158.0944596093922,4481.916330547891,67.0,53.0,14.0,0.7910447761194029,203.1654386119316,3918.590347014865,28.0,14.0,14.0,0.5,1687.6190749611217,45653.05692266101,57.0,16.0,41.0,0.2807017543859649,38.54005941664518,2281.5571543841443,86.0,43.0,43.0,0.5,73.01431020882525,14713.545557144667,0.0,0.0,0.0,0.0,25170.0,25200.0,25253.0,25314.0,25327.0,25355.0,25391.0,25447.0,25521.0,25606.0,0.034666397550767614,-0.0363153228646027,0.03662130203056831,-0.01725225407794982,0.004969508209092577
32,32,25915.106992780307,5791.90927936973,18.40639332129017,26037.972626301005,-5000.7039024336445,13.38792189441634,26071.3280369566,46183.97376960235,13.120909631959504,26137.397115919062,-781.0003924665114,6.879641659596624,26293.083575341425,16356.43053174264,39.03787055618795,0.9759063643226128,124.0,84.0,132.0,188.0,320.0,40.0,731.0,730.0,40.0,18.0,22.0,0.45,155.65876226089875,6365.512900088936,22.0,18.0,4.0,0.8181818181818182,599.7315150605217,4637.98997192113,29.0,14.0,15.0,0.4827586206896552,1690.317754478722,48255.185441167145,29.0,11.0,18.0,0.3793103448275862,54.01050571886232,1120.5372940963666,97.0,48.0,49.0,0.4948453608247423,79.71199704573888,16842.57165611064,0.0,0.0,0.0,0.0,25897.0,25937.0,26021.0,26042.0,26057.0,26086.0,26126.0,26153.0,26246.0,26341.0,0.026875207250800965,-0.11992941929008356,0.03659966036944325,-0.06915554235291661,0.004873434756504067
33,33,26669.17752405772,5595.252864245305,16.419057627953137,26790.972626301005,-5248.746308071802,14.452883680751944,26823.642036488254,46090.16092685819,12.732410696775402,26886.123257617855,-620.3790049128162,4.322662356530553,27045.34309895883,16865.937430032634,38.647882428173766,0.9707200978272053,122.0,85.0,119.0,200.0,319.0,37.0,752.0,752.0,38.0,18.0,20.0,0.4736842105263157,156.03147146826672,5844.229156203616,24.0,19.0,5.0,0.7916666666666666,629.813167635202,4435.139041441291,29.0,15.0,14.0,0.5172413793103449,1713.6745372138605,46466.450471966215,14.0,7.0,7.0,0.5,97.43171294851022,1403.4633678762182,96.0,47.0,49.0,0.4895833333333333,86.64775339945615,17444.516599133072,0.0,0.0,0.0,0.0,26652.0,26689.0,26774.0,26795.0,26809.0,26838.0,26879.0,26893.0,26999.0,27093.0,0.02788640214374162,-0.11999306704281779,0.03718091893697963,-0.15705191854808595,0.005137440700163234
34,34,27384.98230030303,5306.8623217299455,13.745635747777936,27504.110424270297,-4085.0491018715984,22.93168860777651,27537.02175455646,45331.669316597625,11.226324958900683,27602.972626301005,-1132.8658850627933,6.960909124518139,27757.808210980977,16206.75510475228,36.97847027346216,0.974789571272466,113.0,80.0,141.0,182.0,323.0,33.0,717.0,714.0,33.0,16.0,17.0,0.4848484848484848,160.60062074756726,5357.710309755737,29.0,22.0,7.0,0.7586206896551724,489.25908872413106,1735.7976014497776,27.0,13.0,14.0,0.4814814814814814,1789.21962533008,44906.71754559181,32.0,11.0,21.0,0.34375,66.28676888034181,1573.2138537796095,94.0,46.0,48.0,0.4893617021276595,75.57118088618202,16458.038505024953,0.0,0.0,0.0,0.0,27369.0,27402.0,27482.0,27511.0,27524.0,27551.0,27593.0,27623.0,27713.0,27805.0,0.030262820290241528,-0.11976822714321182,0.03946952874896622,-0.05851245920135341,0.004662943346630962
35,35,28750.09099489777,3785.264843596164,9.272406384722853,28862.753390998565,-6477.218665561813,25.47965400864057,28902.590934711512,44950.60604247408,11.394771815261782,28970.52059170187,-2986.520118886508,21.612566686873866,29125.35723744229,14631.50934967322,31.619404102645593,0.9564506787962664,56.0,30.0,222.0,152.0,374.0,26.0,1365.0,1366.0,26.0,13.0,13.0,0.5,155.81948799567496,3697.5605374579022,85.0,71.0,14.0,0.8352941176470589,209.0147476850373,4665.782024052098,27.0,13.0,14.0,0.4814814814814814,1754.9666370178247,43456.43475306301,65.0,19.0,46.0,0.2923076923076923,44.75579508767836,3195.8945480366674,84.0,41.0,43.0,0.4880952380952381,81.51638708029398,14665.728212053284,0.0,0.0,0.0,0.0,28737.0,28763.0,28793.0,28877.0,28890.0,28917.0,28952.0,29015.0,29085.0,29167.0,0.041164751855946695,-0.03226921283302206,0.03904211292189358,-0.0149859345680099,0.005571290366028749
36,36,29503.739234065168,3833.749692480629,10.105651649964509,29620.821948101293,-4409.54437114648,22.931688607776465,29654.40757165103,46966.440172399256,12.7088051250661,29718.972626301005,-888.4703139441792,6.9011197325897715,29878.01319141688,16269.24238859518,36.54565014216241,0.9785310141622278,109.0,84.0,146.0,178.0,324.0,25.0,754.0,751.0,25.0,13.0,12.0,0.52,171.49744528728667,3832.823436593226,32.0,27.0,5.0,0.84375,566.5790214242742,3799.221321119399,29.0,14.0,15.0,0.4827586206896552,1700.9135079944567,47971.96229221664,38.0,10.0,28.0,0.2631578947368421,59.995019865041975,1514.435238755032,91.0,45.0,46.0,0.4945054945054945,75.66395803802425,16591.58311906872,0.0,0.0,0.0,0.0,29491.0,29516.0,29600.0,29626.0,29640.0,29669.0,29709.0,29746.0,29833.0,29924.0,0.044733605228232616,-0.12848924372586906,0.03621550838749818,-0.0675261952182809,0.0046507364160401875
37,37,30235.946948474964,3374.210294549683,13.50001070381312,30349.972626301005,-4480.2201300582765,16.310630636196397,30384.116035066752,45792.86445349467,12.751473020455718,30463.84879461665,1916.9459900227207,-77.87873626871158,30607.02904006667,16988.93040964063,36.355337497077336,0.9816219556479108,115.0,81.0,352.0,-34.0,318.0,34.0,731.0,730.0,34.0,17.0,17.0,0.5,97.7616216551173,3289.191211520273,22.0,17.0,5.0,0.7727272727272727,528.4374357509936,3983.625442162404,29.0,14.0,15.0,0.4827586206896552,1678.9375735711146,48450.29614358591,330.0,108.0,222.0,0.3272727272727272,17.10925166024446,651.3997305959426,95.0,49.0,46.0,0.5157894736842106,77.95745019100474,17494.403676337733,0.0,0.0,0.0,0.0,30219.0,30253.0,30334.0,30354.0,30370.0,30399.0,30273.0,30686.0,30559.0,30652.0,0.028973185759355407,-0.11794898920382288,0.03666373775932217,0.008925265369652732,0.0045887203203073094
38,38,30953.51174674576,3665.165685973204,14.550043066527234,31069.54796540086,-4938.070245358864,15.28779240518434,31102.836691517015,45513.438353256795,12.154009946008248,31128.657214486324,2658.2849705007,134.46126081075138,31326.849526984093,17136.727029443755,38.02446221068868,0.9860525675468048,125.0,80.0,351.0,-37.0,314.0,45.0,720.0,719.0,45.0,20.0,25.0,0.4444444444444444,99.1306829611828,4942.732425211425,15.0,12.0,3.0,0.8,572.8477146185045,5991.881420449789,30.0,15.0,15.0,0.5,1728.8762755580735,48681.381558739806,70.0,50.0,20.0,0.7142857142857143,865.8636585782932,4365.178592017817,99.0,52.0,47.0,0.5252525252525253,67.50000662404891,18162.089422703142,0.0,0.0,0.0,0.0,30934.0,30979.0,31059.0,31073.0,31088.0,31118.0,31074.0,31410.0,31275.0,31373.0,0.027046712605807023,-0.11600639240741988,0.037986061658080834,0.32572266261401006,0.003938908900636197
39,39,31651.373330302027,2854.4613131012343,9.731527247626037,31762.656755126507,-3916.423996635367,20.383723206912453,31798.632145894822,44870.746706644786,10.96926907268025,31865.821948101293,-1712.7335732316828,8.404457379489434,32019.885946538936,16148.239283642624,34.97628581740601,0.977745898199046,102.0,75.0,152.0,172.0,324.0,27.0,695.0,696.0,27.0,13.0,14.0,0.4814814814814814,111.8622653344364,2806.0912547636763,33.0,24.0,9.0,0.7272727272727273,329.9113978600496,587.3969933480328,26.0,13.0,13.0,0.5,1806.3874416259175,43841.85395919851,41.0,13.0,28.0,0.3170731707317073,76.6980939834172,1931.54999489611,87.0,43.0,44.0,0.4942528735632184,87.47118424839137,16533.688116007783,0.0,0.0,0.0,0.0,31638.0,31665.0,31740.0,31772.0,31786.0,31812.0,31853.0,31892.0,31977.0,32064.0,0.039188572926533535,-0.08423791656456994,0.040257574794457664,-0.04478110033115009,0.00541676294932014
40,40,32329.289389324516,2242.2316300552584,7.2261656636152845,32437.178051898707,-4635.505239165382,22.93168860777651,32475.98437681227,44731.07930432208,11.074040345170292,32543.246609001435,-1793.549149688614,9.821975976200427,32698.73531323194,16205.68832634746,34.582586041150954,0.9703793676728244,49.0,27.0,199.0,177.0,376.0,22.0,679.0,677.0,22.0,11.0,11.0,0.5,125.51540902383236,2233.7216954453975,85.0,72.0,13.0,0.8470588235294118,213.27778933889343,2966.744620705186,27.0,13.0,14.0,0.4814814814814814,1784.4436218378114,44398.40178916059,38.0,14.0,24.0,0.3684210526315789,61.9741611856545,1848.299075808981,88.0,44.0,44.0,0.5,83.58889265293061,16478.62686138748,0.0,0.0,0.0,0.0,32318.0,32340.0,32367.0,32450.0,32463.0,32490.0,32529.0,32566.0,32656.0,32743.0,0.05597789601279468,-0.04600961024418859,0.039892702112050135,-0.03455392409871461,0.005157997054468244
41,41,33002.56452229529,2568.0322172768997,7.437704262298841,33110.178051898714,-5214.678511704629,22.93168860777651,33149.971854152114,46063.95679439156,11.904652767500624,33219.09593080172,-2266.1155317267744,12.399159622023562,33372.292022422625,15626.630702523458,32.88614706252532,0.9665681265646874,50.0,27.0,214.0,160.0,374.0,23.0,674.0,674.0,23.0,12.0,11.0,0.5217391304347826,136.6852362197142,2286.6052885191525,84.0,71.0,13.0,0.8452380952380952,209.75155490833336,3099.626994566087,28.0,14.0,14.0,0.5,1734.655273883118,46055.65205555988,55.0,18.0,37.0,0.3272727272727272,40.90566539890592,2027.2167318526497,86.0,42.0,44.0,0.4883720930232558,84.82280628476123,15737.622846900207,0.0,0.0,0.0,0.0,32991.0,33014.0,33041.0,33123.0,33136.0,33164.0,33202.0,33255.0,33331.0,33415.0,0.053225670340169264,-0.04022329553730582,0.037657539529785206,-0.018051006149600812,0.005428093099497364
42,42,33675.94635838099,2103.52525833771,5.928942465533473,33787.178051898714,-6157.834972247841,22.93168860777651,33827.56030392658,45628.26348878129,12.287299288443718,33894.09593080172,-2919.105067195396,14.1494666081186,34050.12936786965,15030.37381445949,32.147170016285116,0.9604778177406778,46.0,28.0,223.0,156.0,379.0,18.0,674.0,677.0,18.0,9.0,9.0,0.5,152.35537630300797,2001.160455245092,90.0,76.0,14.0,0.8444444444444444,220.2543571399737,4045.4705359997592,28.0,14.0,14.0,0.5,1669.636456758267,44787.309617087,60.0,17.0,43.0,0.2833333333333333,38.196088421706015,2941.707642645123,84.0,42.0,42.0,0.5,83.73645579795156,15189.893010437168,0.0,0.0,0.0,0.0,33667.0,33685.0,33713.0,33800.0,33814.0,33842.0,33877.0,33936.0,34008.0,34092.0,0.07242859371387121,-0.03576814872964558,0.036592154272291864,-0.013084862498081946,0.005571149249621163
43,43,34383.21462474537,3730.150930192189,14.73822703409863,34497.972626301,-4136.496905031555,13.76143798797866,34532.784760590584,45584.55810422479,12.833099928636733,34606.232851057146,2197.027650557405,81.20861601427369,34756.60109979016,17063.579496940296,36.29354997645721,0.9832472682692968,119.0,83.0,350.0,-34.0,316.0,36.0,705.0,705.0,36.0,17.0,19.0,0.4722222222222222,103.7941824206244,3752.2433448130687,18.0,14.0,4.0,0.7777777777777778,498.79757583828194,4122.301870570354,30.0,15.0,15.0,0.5,1645.0303045808507,47654.74117608594,330.0,102.0,228.0,0.3090909090909091,21.04235264215158,1192.7941290860836,92.0,48.0,44.0,0.5217391304347826,90.78704096615122,17932.420458587098,0.0,0.0,0.0,0.0,34366.0,34402.0,34485.0,34502.0,34518.0,34548.0,34504.0,34835.0,34709.0,34801.0,0.02782573262130082,-0.12058453983890431,0.036087446560733226,0.00957764579649826,0.005320515603565502
44,44,35085.585635053394,2560.201414954028,9.320395064957577,35196.89295144296,-4579.68610296257,22.93168860777651,35235.085730005114,45612.64234943513,11.460317257496014,35301.39728720114,-1170.879287974153,7.799521713617405,35455.618062801295,17026.646954733624,36.715801427650185,0.9713765182523796,72.0,45.0,183.0,175.0,358.0,27.0,703.0,703.0,27.0,14.0,13.0,0.5185185185185185,97.6777518302997,2345.7090986693843,67.0,55.0,12.0,0.8208955223880597,261.56311112588884,2394.3907222230973,27.0,13.0,14.0,0.4814814814814814,1769.9541651730722,45593.77391296538,38.0,11.0,27.0,0.2894736842105263,65.04201984797048,1734.746867723795,93.0,46.0,47.0,0.4946236559139785,78.08451217052728,17300.778839834544,0.0,0.0,0.0,0.0,35072.0,35099.0,35144.0,35209.0,35222.0,35249.0,35290.0,35327.0,35411.0,35502.0,0.03815237006735801,-0.057113763966636345,0.0388040261209509,-0.05554972277330631,0.004586018161891752
45,45,35786.541322282006,3194.410234684653,11.663629387857906,35901.39728720114,-3099.091404860497,20.383723206912453,35933.20866097862,45737.315699954175,10.915027902708747,35998.54796540086,-1250.1926360943007,5.912643950074256,36155.84428912552,16614.09892827028,36.681257682669965,0.9796205699039632,113.0,82.0,126.0,191.0,317.0,31.0,701.0,699.0,31.0,16.0,15.0,0.5161290322580645,103.2660164065098,3004.275629305286,23.0,18.0,5.0,0.782608695652174,516.0796726871492,3391.2385067716864,27.0,13.0,14.0,0.4814814814814814,1847.0985186091216,45793.888290824674,22.0,10.0,12.0,0.4545454545454545,93.46198843399053,1785.8160299521223,90.0,44.0,46.0,0.4888888888888889,90.79027571638126,17192.890089189437,0.0,0.0,0.0,0.0,35771.0,35802.0,35884.0,35906.0,35920.0,35947.0,35990.0,36010.0,36112.0,36201.0,0.0323270991575395,-0.16652612177806358,0.04038493493423297,-0.0747580698651154,0.005464652408075771
46,46,36482.4881710271,3701.596288310512,12.41103604998183,36596.972626301,-3619.1653921211546,17.835757805689887,36629.06436475665,47082.44515185235,11.848074162616982,36691.2079469041,-47.723029554520714,1.1618059309716198,36850.61628191357,17155.883247771853,37.5405912776224,0.976943592455493,113.0,81.0,113.0,204.0,317.0,32.0,696.0,695.0,32.0,15.0,17.0,0.46875,116.30375336799491,3703.349734920758,24.0,20.0,4.0,0.8333333333333334,603.3004808751011,5117.711776946972,28.0,14.0,14.0,0.5,1809.7411225267404,47619.147750375734,4.0,2.0,2.0,0.5,104.68529435824011,1223.0926907147957,93.0,46.0,47.0,0.4946236559139785,89.70724285112198,17773.510388336348,0.0,0.0,0.0,0.0,36467.0,36499.0,36580.0,36601.0,36615.0,36643.0,36689.0,36693.0,36806.0,36897.0,0.03141989139530892,-0.16669602394753036,0.038437704683558484,-2.1936011886806854,0.005228949250559446
47,47,37205.25390112301,3932.240886932658,16.60813055830917,37318.54796540086,-4476.284717657944,13.918218558448244,37352.69060860847,46497.928297031,12.478178627543569,37406.31916687395,2679.68312443259,85.13244799181209,37577.23690277458,17560.324737780342,37.63808512711958,0.9857906809258952,121.0,81.0,351.0,-35.0,316.0,40.0,722.0,723.0,41.0,19.0,22.0,0.4634146341463415,104.59075989718676,4126.523425579376,16.0,13.0,3.0,0.8125,566.9571054291537,5408.121629091398,30.0,15.0,15.0,0.5,1714.1635426699884,49054.03224969798,332.0,82.0,250.0,0.2469879518072289,173.20150795376017,790.9576344050979,97.0,50.0,47.0,0.5154639175257731,79.76567302647952,18293.116105049157,0.0,0.0,0.0,0.0,37186.0,37226.0,37307.0,37322.0,37338.0,37368.0,37324.0,37658.0,37528.0,37623.0,0.02659825857687287,-0.12665796328652518,0.036865374554320554,0.06463507060762445,0.004542380292937683
48,48,37935.17907097207,3360.6783867289837,13.6403535207046,38048.972626301,-4826.543999448082,12.47123743470284,38082.08878476843,46988.798037563,13.20075743743896,38146.12311984324,-318.1712741753731,4.179335877704745,38305.26174131291,16294.264741804956,36.92872935464712,0.9806773188671196,115.0,80.0,121.0,197.0,318.0,35.0,730.0,729.0,35.0,17.0,18.0,0.4857142857142857,94.44825041903636,3202.800328403171,21.0,17.0,4.0,0.8095238095238095,626.5374414312784,5519.120089121186,30.0,15.0,15.0,0.5,1707.9315027255152,48501.511400931966,15.0,7.0,8.0,0.4666666666666667,66.55711495983726,1081.719818787678,92.0,45.0,47.0,0.4891304347826087,86.19500088247314,16748.70035899045,0.0,0.0,0.0,0.0,37918.0,37953.0,38033.0,38053.0,38067.0,38097.0,38139.0,38154.0,38261.0,38351.0,0.028103924133890346,-0.12981078003286062,0.03634763122393957,-0.2091864362436176,0.005289898148109082
49,49,38647.13045082825,3955.496296027474,18.706884891741883,38762.54796540086,-2633.498279584026,9.460372343150985,38795.828182103694,45261.72210822115,11.422960179783953,38819.78051898705,8313.374439586278,20.191224417624653,39017.77968593022,17551.91095783817,41.38786135667732,0.9854522152339896,122.0,81.0,354.0,-38.0,316.0,41.0,712.0,715.0,41.0,19.0,22.0,0.4634146341463415,98.9881779525826,4155.371069472266,17.0,14.0,3.0,0.8235294117647058,560.2420454812632,5383.122651440652,30.0,14.0,16.0,0.4666666666666667,1712.7872078090672,52128.048832107845,62.0,46.0,16.0,0.7419354838709677,1083.2188600713462,3291.889925131234,98.0,49.0,49.0,0.5,84.19689173484633,18431.60818766238,0.0,0.0,0.0,0.0,38628.0,38669.0,38750.0,38766.0,38782.0,38812.0,38768.0,39104.0,38970.0,39066.0,0.025025476082987858,-0.21273681848379872,0.03784184799053335,0.1302983364869649,0.004797021357793891
50,50,0.0,0.0,0.0,0.0,0.0,0.0,0.0,0.0,0.0,0.0,0.0,0.0,0.0,0.0,0.0,0.0,0.0,0.0,0.0,0.0,0.0,0.0,0.0,0.0,0.0,0.0,0.0,0.0,0.0,0.0,0.0,0.0,0.0,0.0,0.0,0.0,0.0,0.0,0.0,0.0,0.0,0.0,0.0,0.0,0.0,0.0,0.0,0.0,0.0,0.0,0.0,0.0,0.0,0.0,0.0,0.0,0.0,0.0,39348.0,39381.0,39463.0,39483.0,39498.0,39526.0,39485.0,39813.0,39688.0,39781.0,,,,,
51,51,40054.057224765784,2124.028395689261,8.924263402611194,40159.753390998565,-4849.218395822463,25.47965400864057,40199.08639564593,45197.230625694785,10.66141523351398,40268.246609001435,-2079.2527835252604,10.224000317809384,40420.692186674045,15444.123709496274,34.27009602236319,0.9701143956390584,63.0,37.0,188.0,173.0,361.0,26.0,1407.0,1404.0,28.0,14.0,14.0,0.5,84.56116091004226,1986.1734500515397,73.0,59.0,14.0,0.8082191780821918,194.2047103570975,3658.862955278879,27.0,13.0,14.0,0.4814814814814814,1858.4899459148637,44586.3817623624,38.0,14.0,24.0,0.3684210526315789,60.76486553007297,2115.634748997726,88.0,44.0,44.0,0.5,72.24832138598637,15535.570763280206,0.0,0.0,0.0,0.0,40041.0,40067.0,40104.0,40174.0,40186.0,40213.0,40254.0,40292.0,40378.0,40465.0,0.03981169040944089,-0.04004866238328269,0.04111955356968942,-0.02922437618529933,0.004678046015751762
52,52,0.0,0.0,0.0,0.0,0.0,0.0,0.0,0.0,0.0,0.0,0.0,0.0,0.0,0.0,0.0,0.0,0.0,0.0,0.0,0.0,0.0,0.0,0.0,0.0,0.0,0.0,0.0,0.0,0.0,0.0,0.0,0.0,0.0,0.0,0.0,0.0,0.0,0.0,0.0,0.0,0.0,0.0,0.0,0.0,0.0,0.0,0.0,0.0,0.0,0.0,0.0,0.0,0.0,0.0,0.0,0.0,0.0,0.0,,40490.0,40746.0,40838.0,40850.0,40876.0,40913.0,40976.0,41048.0,41127.0,,,,,
53,53,41397.06733688591,2416.287667046374,9.016076838285947,41513.39728720114,-4563.719184950314,20.383723206912453,41545.47042086682,48040.41616070253,12.14532567186582,41613.246609001435,-1265.2177596621004,9.871898998382894,41768.9516969112,15238.17068807021,33.69915084667819,0.9767598022852696,107.0,81.0,161.0,160.0,321.0,26.0,1345.0,1345.0,26.0,13.0,13.0,0.5,99.17423076738926,2302.923970348757,74.0,69.0,5.0,0.9324324324324323,606.0344899404665,4218.902787016488,28.0,13.0,15.0,0.4642857142857143,1798.5260865265457,49350.38974675043,55.0,14.0,41.0,0.2545454545454545,38.10528928657524,1592.4653711490762,87.0,43.0,44.0,0.4942528735632184,79.1269007027322,15425.042493013783,0.0,0.0,0.0,0.0,41384.0,41410.0,41491.0,41518.0,41532.0,41560.0,41599.0,41652.0,41727.0,41812.0,0.041044049564105935,-0.13279399221998023,0.037437770740998605,-0.030117573829150136,0.005192677147571247
54,54,42100.798970401775,3917.259869747523,16.782420693770447,42214.54796540086,-4413.172669486236,15.28779217879718,42249.77022584461,46886.93092728621,12.569995532754708,42300.315707665846,3237.055964962691,83.32349094116789,42473.437223633686,17574.764828888834,38.23249277875762,0.985014693575628,120.0,79.0,350.0,-33.0,317.0,41.0,703.0,704.0,41.0,18.0,23.0,0.4390243902439024,101.57799872976098,4265.290892372755,16.0,12.0,4.0,0.75,494.18017650635943,4723.956915016471,30.0,15.0,15.0,0.5,1723.9822296524335,50142.5461050781,327.0,78.0,249.0,0.2385321100917431,206.6734584738441,297.98420846857516,98.0,51.0,47.0,0.5204081632653061,81.39433624721647,18361.011771195837,0.0,0.0,0.0,0.0,42083.0,42124.0,42203.0,42218.0,42235.0,42265.0,42221.0,42553.0,42423.0,42520.0,0.025930880796097892,-0.11197843672042179,0.03676892890102024,0.06384611842082444,0.004631318657159103
55,55,42820.516287583974,3088.7071721597654,12.720230462278314,42936.39728720114,-4932.697375519545,18.14974937311742,42969.63898625116,47482.016836294526,13.056565304969595,43033.2392277671,-189.27891744671345,3.752452230923235,43193.254605550545,16317.80342055976,36.68053930693399,0.9773822621992546,114.0,81.0,121.0,200.0,321.0,33.0,719.0,720.0,33.0,17.0,16.0,0.5151515151515151,93.99650824833805,2923.263127353574,26.0,21.0,5.0,0.8076923076923077,575.6231170691335,3847.524669244363,30.0,15.0,15.0,0.5,1712.331570710446,47515.989712210285,13.0,7.0,6.0,0.5384615384615384,68.06230815805955,1021.2448878740933,92.0,45.0,47.0,0.4891304347826087,85.22415326498643,16742.437174649465,0.0,0.0,0.0,0.0,42804.0,42837.0,42918.0,42941.0,42955.0,42985.0,43027.0,43039.0,43149.0,43239.0,0.030432314560467508,-0.1166954048156066,0.0360627387967557,-0.3595873701952079,0.005222771170144598
56,56,43542.57669601949,4188.773596672757,22.635021924474156,43660.12330450071,-4064.1793394220153,12.612498253917297,43693.8529833754,46540.89455760739,12.030733186161436,43751.29284705399,3330.150480059021,89.05128063581579,43918.581943101795,18004.555084431606,38.63307507700208,0.985169745256375,126.0,79.0,350.0,-34.0,316.0,47.0,724.0,725.0,47.0,19.0,28.0,0.4042553191489361,104.45707224338464,5235.041508715913,13.0,10.0,3.0,0.7692307692307693,523.5538239000624,5332.510735387374,30.0,15.0,15.0,0.5,1774.0977338557534,49894.123721951735,334.0,86.0,248.0,0.2574850299401197,148.8591206528285,236.98963921516335,100.0,53.0,47.0,0.53,82.44212067482003,18921.613064266465,0.0,0.0,0.0,0.0,43524.0,43571.0,43650.0,43663.0,43679.0,43709.0,43665.0,44000.0,43867.0,43966.0,0.024937387956789403,-0.12882153570873653,0.03811911547294843,0.04470041865801519,0.0045789590627600164
57,57,44266.26058823369,2722.326624869472,10.303171845822447,44374.602712819134,-3747.3658231144054,20.383723206912453,44412.34219133096,45247.53232434895,10.72686359273678,44480.39728719639,-1156.005542362558,7.4970990192531906,44635.25799376848,16310.77070776935,36.17664463655085,0.9746972002264652,88.0,58.0,157.0,185.0,342.0,30.0,721.0,719.0,30.0,15.0,15.0,0.5,92.496032699013,2599.830319713972,51.0,40.0,11.0,0.7843137254901961,237.83071244318268,1581.3395949345922,27.0,13.0,14.0,0.4814814814814814,1865.4407846566703,45790.78979000864,28.0,11.0,17.0,0.3928571428571428,68.1975566339682,1523.8982381792089,91.0,44.0,47.0,0.4835164835164835,76.95877776756564,16561.099400802334,0.0,0.0,0.0,0.0,44251.0,44281.0,44339.0,44386.0,44399.0,44426.0,44469.0,44496.0,44591.0,44681.0,0.033976831381667114,-0.06346610490393048,0.04122745901996572,-0.0589941433105858,0.00471827966601895
58,58,44963.58804672851,3215.0607873657095,11.361996254680616,45074.31475339004,-3164.130167453866,20.383723206912453,45108.469214784825,45007.87069124508,10.885627553429332,45173.2886722303,-1046.8274190732304,5.3196484935796065,45332.15658668128,17142.3431036043,37.47767923021551,0.974610828206403,111.0,80.0,122.0,198.0,320.0,31.0,699.0,696.0,31.0,16.0,15.0,0.5161290322580645,104.76468192519378,2989.914220928593,23.0,15.0,8.0,0.6521739130434783,378.87267308035166,900.2274546138383,27.0,13.0,14.0,0.4814814814814814,1835.8705962086829,45718.586766990906,17.0,9.0,8.0,0.5294117647058824,111.9430955412128,1809.1189098969744,93.0,45.0,48.0,0.4838709677419355,86.49019145353184,17631.923309920603,0.0,0.0,0.0,0.0,44948.0,44979.0,45059.0,45082.0,45095.0,45122.0,45165.0,45181.0,45287.0,45379.0,0.032585599108075874,-0.11973991366645499,0.04078999001758588,-0.10693557839774338,0.00504541245795895
59,59,45657.72242491335,2793.948573579456,9.552392842819872,45771.821948101286,-4035.49064110132,22.93144408199267,45804.87734850461,47976.43973705079,12.247153351104044,45870.97262562158,-648.5583085432861,6.133802860430247,46026.64900791084,16269.701457778472,36.55145472099927,0.9735460188888798,108.0,81.0,134.0,187.0,321.0,27.0,694.0,696.0,27.0,14.0,13.0,0.5185185185185185,108.05809697037924,2611.219162987687,28.0,23.0,5.0,0.8214285714285714,579.6284090533458,4227.361797117886,28.0,14.0,14.0,0.5,1779.3084402322434,47703.77695167953,27.0,10.0,17.0,0.3703703703703703,58.90947077893779,1152.835657572627,93.0,46.0,47.0,0.4946236559139785,79.14654156555807,16567.333498072832,0.0,0.0,0.0,0.0,45644.0,45671.0,45752.0,45777.0,45791.0,45819.0,45861.0,45886.0,45982.0,46073.0,0.03867576446904355,-0.143632698128414,0.03708712964080442,-0.09083141793565666,0.00486465850470283
60,60,0.0,0.0,0.0,0.0,0.0,0.0,0.0,0.0,0.0,0.0,0.0,0.0,0.0,0.0,0.0,0.0,0.0,0.0,0.0,0.0,0.0,0.0,0.0,0.0,0.0,0.0,0.0,0.0,0.0,0.0,0.0,0.0,0.0,0.0,0.0,0.0,0.0,0.0,0.0,0.0,0.0,0.0,0.0,0.0,0.0,0.0,0.0,0.0,0.0,0.0,0.0,0.0,0.0,0.0,0.0,0.0,0.0,0.0,46339.0,46374.0,46456.0,46475.0,46490.0,46519.0,46395.0,46810.0,46680.0,46775.0,,,,,
61,61,47053.629094450494,3251.097227465036,12.600422046324482,47168.39728720114,-4915.334356209314,13.213769836177104,47202.178209097656,45868.56678861451,13.282731961843044,47265.54768162526,-554.7930172740377,5.592880642805363,47425.02474594524,16438.21545816485,37.257331154354034,0.9777515701526384,115.0,82.0,128.0,192.0,320.0,33.0,1394.0,1397.0,33.0,17.0,16.0,0.5151515151515151,98.1825603782128,3048.673742849739,22.0,17.0,5.0,0.7727272727272727,546.4421832390432,3932.233173757497,30.0,15.0,15.0,0.5,1665.1702141770918,47604.92199214837,25.0,10.0,15.0,0.4,66.4038112346138,1199.9806844870495,92.0,45.0,47.0,0.4891304347826087,83.40484760213154,17056.837843838915,0.0,0.0,0.0,0.0,47037.0,47070.0,47152.0,47173.0,47187.0,47217.0,47257.0,47280.0,47381.0,47472.0,0.03019982286250118,-0.111170907946221,0.03630307922745954,-0.11969114456574698,0.005073838325966485
62,62,0.0,0.0,0.0,0.0,0.0,0.0,0.0,0.0,0.0,0.0,0.0,0.0,0.0,0.0,0.0,0.0,0.0,0.0,0.0,0.0,0.0,0.0,0.0,0.0,0.0,0.0,0.0,0.0,0.0,0.0,0.0,0.0,0.0,0.0,0.0,0.0,0.0,0.0,0.0,0.0,0.0,0.0,0.0,0.0,0.0,0.0,0.0,0.0,0.0,0.0,0.0,0.0,0.0,0.0,0.0,0.0,0.0,0.0,47743.0,47778.0,47857.0,47879.0,47893.0,47921.0,47793.0,,48082.0,48176.0,,,,,
63,63,48447.560027657426,2415.0555839131607,8.793422891236188,48558.602712798995,-4097.699540121468,20.383723206912453,48595.44402513731,44566.558605619735,10.814370197322424,48663.39728720068,-1198.144744958276,7.579164468232936,48816.832481744976,16007.680344963745,35.033241593925986,0.9686693407741724,52.0,27.0,192.0,182.0,374.0,25.0,1395.0,1394.0,25.0,13.0,12.0,0.52,103.32187012283842,2258.8098273969485,84.0,73.0,11.0,0.8690476190476191,289.6680643822438,1498.1154508731638,26.0,12.0,14.0,0.4615384615384615,1825.718680880305,45330.83667452766,28.0,11.0,17.0,0.3928571428571428,68.89212591804022,1563.9773154910704,90.0,45.0,45.0,0.5,80.50578961338373,16309.144627713713,0.0,0.0,0.0,0.0,48435.0,48460.0,48487.0,48570.0,48583.0,48609.0,48652.0,48679.0,48773.0,48861.0,0.04278239838911865,-0.07069041093570691,0.040966113112671135,-0.05749900102465442,0.005029197727496605
64,64,49119.35534564913,2188.722980946947,7.532697101035034,49226.178051898714,-4278.59954312746,22.93168860777651,49265.47115322864,43650.020754027246,10.958350190412604,49331.821948101286,-1607.514676671368,9.09419894008387,49487.752061168096,15901.785210911186,33.485004116085044,0.9630940697246304,48.0,25.0,212.0,163.0,375.0,23.0,673.0,670.0,23.0,11.0,12.0,0.4782608695652174,114.84783861774092,2192.45278572308,86.0,72.0,14.0,0.8372093023255814,185.9276397917256,2920.6520460233874,27.0,13.0,14.0,0.4814814814814814,1770.8907108466228,44345.56865997853,50.0,13.0,37.0,0.26,59.914097446766114,1970.3928193624608,87.0,43.0,44.0,0.4942528735632184,82.94654184178277,16065.118208074702,0.0,0.0,0.0,0.0,49108.0,49131.0,49156.0,49239.0,49253.0,49279.0,49319.0,49368.0,49446.0,49531.0,0.05247253289589541,-0.04345525630936263,0.04057021463576822,-0.0372712599867694,0.005216177978864165
65,65,0.0,0.0,0.0,0.0,0.0,0.0,0.0,0.0,0.0,0.0,0.0,0.0,0.0,0.0,0.0,0.0,0.0,0.0,0.0,0.0,0.0,0.0,0.0,0.0,0.0,0.0,0.0,0.0,0.0,0.0,0.0,0.0,0.0,0.0,0.0,0.0,0.0,0.0,0.0,0.0,0.0,0.0,0.0,0.0,0.0,0.0,0.0,0.0,0.0,0.0,0.0,0.0,0.0,0.0,0.0,0.0,0.0,0.0,,49564.0,49826.0,49915.0,49927.0,49953.0,49997.0,50031.0,50118.0,50204.0,,,,,
66,66,0.0,0.0,0.0,0.0,0.0,0.0,0.0,0.0,0.0,0.0,0.0,0.0,0.0,0.0,0.0,0.0,0.0,0.0,0.0,0.0,0.0,0.0,0.0,0.0,0.0,0.0,0.0,0.0,0.0,0.0,0.0,0.0,0.0,0.0,0.0,0.0,0.0,0.0,0.0,0.0,0.0,0.0,0.0,0.0,0.0,0.0,0.0,0.0,0.0,0.0,0.0,0.0,0.0,0.0,0.0,0.0,0.0,0.0,50472.0,50508.0,50590.0,50608.0,50624.0,50654.0,50610.0,50941.0,50814.0,50908.0,,,,,
67,67,51200.28343846225,3197.5911073313605,11.977698463568622,51315.39728720114,-4915.620143609939,13.281970995895607,51349.07081969073,45583.396869239215,13.31587100917779,51411.122757960235,-444.5210000906489,4.3586727330001205,51570.70295245777,16927.463983122987,38.25572891939699,0.9745866127804628,116.0,84.0,120.0,198.0,318.0,32.0,2078.0,2082.0,32.0,16.0,16.0,0.5,98.69529487768408,3048.968530511127,21.0,16.0,5.0,0.7619047619047619,559.7343700497806,3900.560833003384,30.0,15.0,15.0,0.5,1645.4811918620214,47011.84860506675,16.0,7.0,9.0,0.4375,90.85312904839265,1436.482409627665,94.0,47.0,47.0,0.5,91.04488593019518,17580.986061164444,0.0,0.0,0.0,0.0,51184.0,51216.0,51300.0,51320.0,51334.0,51364.0,51404.0,51420.0,51525.0,51618.0,0.030865514559193594,-0.11386851581227393,0.03609825736730981,-0.20438433511547358,0.005378530772298125
68,68,51901.28969880726,3367.932336712369,13.737151251590744,52017.39728720114,-4616.92244975819,16.142040061280134,52050.171489979795,46220.924986068974,12.676108547252754,52115.97254784826,-665.7461906201053,6.047530828319856,52272.24085729179,17579.10114883192,38.016990096217015,0.9777127159966676,115.0,80.0,127.0,193.0,320.0,35.0,702.0,702.0,35.0,17.0,18.0,0.4857142857142857,92.97754723044008,3299.8620703390247,25.0,20.0,5.0,0.8,570.2847139706188,4076.0086824775226,29.0,14.0,15.0,0.4827586206896552,1716.8906746363791,47628.19683196935,21.0,10.0,11.0,0.4761904761904761,66.77059764540991,1180.1249279325643,95.0,47.0,48.0,0.4947368421052631,92.5215780397597,18195.315281776788,0.0,0.0,0.0,0.0,51884.0,51919.0,51999.0,52022.0,52036.0,52065.0,52106.0,52126.0,52226.0,52319.0,0.027606714724322752,-0.12352053130121068,0.037145311893992845,-0.10029437432186707,0.005263157499148214
69,69,52595.39584012472,3243.6622190310027,12.135696745978512,52708.69344957479,-4069.858572413,20.383723206912453,52742.82194462304,45142.64861031035,11.161607185942076,52809.821948101286,-1702.2794550944225,8.263339877359526,52964.80865182577,15850.571406499812,35.49860871400091,0.9782547998282926,112.0,80.0,135.0,183.0,318.0,32.0,695.0,693.0,32.0,15.0,17.0,0.46875,102.76951542169346,3250.3968949963146,24.0,17.0,7.0,0.7083333333333334,452.1886341475757,949.4315797743604,27.0,13.0,14.0,0.4814814814814814,1792.2210992531798,44554.31426529983,33.0,13.0,20.0,0.3939393939393939,78.59881740490954,1896.1568235434136,90.0,45.0,45.0,0.5,85.83534302463207,16308.378159607724,0.0,0.0,0.0,0.0,52580.0,52612.0,52692.0,52716.0,52730.0,52757.0,52797.0,52827.0,52921.0,53010.0,0.031683174289459264,-0.11110671933729512,0.03970128369569892,-0.04617268755120457,0.005415283829416632
70,70,53280.737141032834,3063.5668849254357,10.719665376994731,53387.373955071605,-3090.932034024666,22.93168860777651,53426.13883688145,44940.160301019365,10.904125171536617,53490.12330450071,-749.8022466797416,4.4660053617311855,53648.29855367722,16779.547479426703,36.614869167541706,0.9736970836756152,103.0,74.0,130.0,196.0,326.0,29.0,685.0,683.0,29.0,15.0,14.0,0.5172413793103449,108.49820200397656,2898.041481983998,36.0,24.0,12.0,0.6666666666666666,196.12945135430903,1816.245215549833,27.0,13.0,14.0,0.4814814814814814,1820.668456379978,44828.14755675892,16.0,7.0,9.0,0.4375,96.99606807329909,1614.933439944937,92.0,45.0,47.0,0.4891304347826087,76.34904780558252,17006.576844785675,0.0,0.0,0.0,0.0,53266.0,53295.0,53369.0,53399.0,53413.0,53440.0,53483.0,53499.0,53603.0,53695.0,0.03541564655821683,-0.06345317502789966,0.040513172275860355,-0.1293621998371104,0.004550125556079126
71,71,53971.610485492405,3331.961716196961,11.274798096325735,54085.972626301,-3953.643234206048,17.835757806047024,54118.61909507745,46439.16557140366,11.949021320381462,54182.54796540086,-811.3671560841673,5.1647118749679075,54341.71174017576,16504.121315700777,36.912486775673415,0.9789568219625964,113.0,83.0,124.0,195.0,319.0,30.0,692.0,693.0,31.0,16.0,15.0,0.5161290322580645,110.62209917964282,3105.7335921317326,24.0,19.0,5.0,0.7916666666666666,578.5270253088097,4104.226578850681,28.0,14.0,14.0,0.5,1758.897646625082,45988.43805333876,20.0,9.0,11.0,0.45,80.26656519266581,1445.436176038781,91.0,45.0,46.0,0.4945054945054945,89.2407407389197,17038.581070464315,0.0,0.0,0.0,0.0,53956.0,53986.0,54069.0,54090.0,54105.0,54133.0,54174.0,54193.0,54298.0,54388.0,0.03320029118038752,-0.146327574603475,0.03787530686615474,-0.098927550358397,0.005407179154337819
72,72,54695.75622219053,3298.6315457133787,12.375108984505756,54810.39728720114,-5068.382146061292,15.612089736919186,54843.86557117722,47050.75602421555,13.017067169979049,54907.97256366384,-708.8035565074133,6.271184051427623,55067.81819858644,16668.666704584677,37.22801815499408,0.9822598656574344,112.0,81.0,134.0,188.0,322.0,31.0,723.0,724.0,31.0,16.0,15.0,0.5161290322580645,107.34986335529932,3191.115708483124,25.0,20.0,5.0,0.8,564.4033263356781,3664.033041857537,30.0,15.0,15.0,0.5,1702.856512599595,47872.15263758234,30.0,10.0,20.0,0.3333333333333333,67.00829264232804,1366.7074883915552,92.0,46.0,46.0,0.5,80.01416258742289,17056.982108031814,0.0,0.0,0.0,0.0,54680.0,54711.0,54792.0,54815.0,54829.0,54859.0,54898.0,54926.0,55022.0,55114.0,0.03254375696940208,-0.11135768970662237,0.03619190543342572,-0.0945371845656466,0.004800273711478986
73,73,55421.238754057915,2746.9604429675487,11.04168607105982,55537.39728720114,-5127.755989184665,20.383722360240345,55570.43584538004,47284.1813739073,13.024845382420391,55633.972541088,-774.366784398684,6.3604837054391465,55793.867918712174,16359.035965076706,36.64450179612681,0.9761192721448216,111.0,81.0,141.0,182.0,323.0,30.0,725.0,727.0,30.0,15.0,15.0,0.5,93.30129226974582,2674.822283635315,30.0,25.0,5.0,0.8333333333333334,590.7792192823767,3655.4666719459033,29.0,14.0,15.0,0.4827586206896552,1696.3956803725132,48805.95042419284,35.0,10.0,25.0,0.2857142857142857,63.428190901821274,1357.3824005637496,93.0,46.0,47.0,0.4946236559139785,74.38247846422358,16699.48665187013,0.0,0.0,0.0,0.0,55406.0,55436.0,55517.0,55542.0,55556.0,55585.0,55624.0,55658.0,55749.0,55840.0,0.033965284250308383,-0.11521203827335652,0.035876600399571065,-0.08190975152824372,0.004546874193749277
74,74,56171.2468546335,3644.5965705763374,17.481088936481648,56285.54796540086,-4370.010103017087,13.725626918499277,56318.53425053538,46178.32010620157,12.218217142905193,56385.29978364614,2430.682341158477,81.44766845434253,56544.32883053718,17379.656652989524,37.17445934357441,0.9838290379011728,119.0,77.0,352.0,-34.0,318.0,42.0,750.0,748.0,42.0,18.0,24.0,0.4285714285714285,89.33547972101903,3881.1026463209455,18.0,15.0,3.0,0.8333333333333334,614.7185891126588,5947.997306145942,29.0,15.0,14.0,0.5172413793103449,1742.1547883723326,47922.25568270112,332.0,94.0,238.0,0.2831325301204819,48.691841257397606,309.4978992278184,97.0,50.0,47.0,0.5154639175257731,76.8928733665977,17940.805620568703,0.0,0.0,0.0,0.0,56153.0,56195.0,56272.0,56289.0,56304.0,56333.0,56291.0,56624.0,56495.0,56590.0,0.02451176090167148,-0.1406675441524157,0.037726681792791504,0.020032169746290584,0.004424303362366548
75,75,56885.33149925362,2202.4182579393764,9.129195721871136,56994.60271279886,-4201.772340041802,20.383723206912453,57031.84183924982,45794.35548102846,10.800073797969285,57098.39720691918,-1340.421347719728,7.11446546614341,57254.350366224986,15840.694994025604,35.48874946795774,0.9737038221423044,106.0,79.0,130.0,192.0,322.0,27.0,715.0,714.0,27.0,13.0,14.0,0.4814814814814814,88.48391555979373,2151.116587028238,57.0,46.0,11.0,0.8070175438596491,288.85071951081136,1941.229219660615,26.0,13.0,13.0,0.5,1875.741199956239,45210.54211975677,22.0,11.0,11.0,0.5,88.9519455445908,1743.710975926012,90.0,44.0,46.0,0.4888888888888889,78.3912032763099,16163.057561378955,0.0,0.0,0.0,0.0,56872.0,56899.0,56978.0,57006.0,57019.0,57045.0,57087.0,57108.0,57211.0,57300.0,0.040175800051067925,-0.06874497143934688,0.04096009606977251,-0.0663611823967981,0.004948722471196846
76,76,57579.47726916062,2623.6819959375684,8.667789880782214,57687.278538357474,-4150.976709243267,22.93168860777651,57726.6981924547,46318.464945457294,11.323439842111544,57790.54796540086,-908.328121597785,5.029268585257014,57949.854780443406,16374.329458901582,35.94270935338372,0.9750237178046188,93.0,68.0,139.0,196.0,335.0,25.0,696.0,695.0,25.0,12.0,13.0,0.48,116.91208336175222,2584.6186084240853,73.0,60.0,13.0,0.821917808219178,209.09986343774537,2792.030245460526,28.0,14.0,14.0,0.5,1812.69978080997,45381.14652162134,18.0,9.0,9.0,0.5,90.63323076967342,1561.0045860937712,91.0,45.0,46.0,0.4945054945054945,85.76077721587474,16756.716015379745,0.0,0.0,0.0,0.0,57567.0,57592.0,57660.0,57700.0,57713.0,57741.0,57782.0,57799.0,57906.0,57995.0,0.044560310107236864,-0.05037365374084809,0.039135575476098576,-0.09978027610798397,0.005237513843307493
77,77,58268.09027986738,3064.9370129701992,10.937452407918478,58383.39728720114,-4627.246516803692,20.383714221008304,58416.77218723114,48362.84554324411,12.732571972428968,58481.547965391735,-624.7414367901697,5.6329300937648465,58639.136044851744,16052.449753139104,36.42771247149278,0.9769200735421426,111.0,82.0,133.0,188.0,321.0,29.0,687.0,689.0,30.0,15.0,15.0,0.5,108.15854726945442,2956.345095742369,26.0,21.0,5.0,0.8076923076923077,557.5969555375086,3415.694689637853,30.0,15.0,15.0,0.5,1740.0362769287583,48228.36396824905,25.0,10.0,15.0,0.4,62.98653359472562,1200.8215360116728,91.0,45.0,46.0,0.4945054945054945,76.75516944590406,16356.566474947347,0.0,0.0,0.0,0.0,58253.0,58282.0,58364.0,58388.0,58402.0,58432.0,58473.0,58497.0,58595.0,58685.0,0.035288995112052586,-0.12050297158636648,0.035978782004728975,-0.10082016316756774,0.00478152373165936
78,78,58950.34269275427,2796.110807034692,9.6359944700997,59066.821948101286,-5009.646515436943,22.931688534401864,59100.72662637293,48170.12358640481,13.081948992389128,59164.972626301,-784.7403918767586,6.743006932316557,59323.89321294469,16594.688907679112,35.50765977472001,0.9752567454475856,86.0,59.0,174.0,172.0,346.0,27.0,682.0,684.0,27.0,13.0,14.0,0.4814814814814814,111.33945145201064,2745.2202435121176,62.0,57.0,5.0,0.9193548387096774,580.5453945067821,3666.315733711891,30.0,15.0,15.0,0.5,1683.022295878148,47596.6571086966,42.0,10.0,32.0,0.238095238095238,56.23614752771972,1440.3541225180538,89.0,44.0,45.0,0.4943820224719101,79.14264492686289,16819.32476055898,0.0,0.0,0.0,0.0,58937.0,58964.0,59023.0,59072.0,59086.0,59116.0,59155.0,59197.0,59280.0,59369.0,0.03981939884924926,-0.11588550064717425,0.034939131780703014,-0.07166210393889277,0.004769155081312793
79,79,0.0,0.0,0.0,0.0,0.0,0.0,0.0,0.0,0.0,0.0,0.0,0.0,0.0,0.0,0.0,0.0,0.0,0.0,0.0,0.0,0.0,0.0,0.0,0.0,0.0,0.0,0.0,0.0,0.0,0.0,0.0,0.0,0.0,0.0,0.0,0.0,0.0,0.0,0.0,0.0,0.0,0.0,0.0,0.0,0.0,0.0,0.0,0.0,0.0,0.0,0.0,0.0,0.0,0.0,0.0,0.0,0.0,0.0,59621.0,59659.0,59740.0,59758.0,59774.0,59803.0,59680.0,,59964.0,60057.0,,,,,
80,80,60335.57180010786,2823.215432210088,9.77068399105758,60445.60271279886,-4066.602157825447,20.383723206912453,60483.48245716865,45584.96220851012,11.095297888015546,60550.39728720114,-1382.1457278759556,7.1884788519592,60704.82118280389,16399.661404284558,35.63255251436488,0.9734817122718272,81.0,53.0,164.0,183.0,347.0,28.0,1384.0,1384.0,29.0,15.0,14.0,0.5172413793103449,103.38236322559229,2582.869462556189,56.0,45.0,11.0,0.8035714285714286,265.35023565548767,1653.7369911603196,27.0,13.0,14.0,0.4814814814814814,1823.456228759654,46570.87608842188,28.0,11.0,17.0,0.3928571428571428,78.30228940460334,1788.2472362633775,92.0,46.0,46.0,0.5,90.51360468511284,16792.330088626546,0.0,0.0,0.0,0.0,60322.0,60350.0,60403.0,60457.0,60470.0,60497.0,60539.0,60567.0,60660.0,60750.0,0.0366186590106097,-0.06525109301505402,0.04000126665497681,-0.05665270153888635,0.005519236187490149
81,81,0.0,0.0,0.0,0.0,0.0,0.0,0.0,0.0,0.0,0.0,0.0,0.0,0.0,0.0,0.0,0.0,0.0,0.0,0.0,0.0,0.0,0.0,0.0,0.0,0.0,0.0,0.0,0.0,0.0,0.0,0.0,0.0,0.0,0.0,0.0,0.0,0.0,0.0,0.0,0.0,0.0,0.0,0.0,0.0,0.0,0.0,0.0,0.0,0.0,0.0,0.0,0.0,0.0,0.0,0.0,0.0,0.0,0.0,61014.0,61043.0,61127.0,61148.0,61163.0,61189.0,61057.0,,61351.0,61444.0,,,,,
82,82,61718.1848294422,2812.3803840388414,9.314671011438737,61828.60271279886,-4645.688945485717,20.383723206912453,61867.23908651526,45532.042400435595,11.535222284581614,61935.67126990158,-1971.9709507578257,10.696188674123963,62090.34319063164,17096.215153513185,34.79930781274541,0.975599360715845,59.0,33.0,204.0,167.0,371.0,26.0,1385.0,1383.0,26.0,13.0,13.0,0.5,115.06341360905616,2711.5168513882254,77.0,66.0,11.0,0.8571428571428571,260.799356780955,2081.690018188403,27.0,13.0,14.0,0.4814814814814814,1774.1922776906324,46248.943418139104,49.0,16.0,33.0,0.3265306122448979,42.41726596970273,1906.858092819097,89.0,44.0,45.0,0.4943820224719101,87.3395347390176,17346.763778344564,0.0,0.0,0.0,0.0,61705.0,61731.0,61764.0,61840.0,61854.0,61881.0,61920.0,61968.0,62047.0,62135.0,0.04091317599215165,-0.05613792912983929,0.03896579604506516,-0.021510086623437244,0.005108705871724466
83,83,62440.88292587391,3738.519795939928,17.579190450404983,62557.972626301,-3958.253023220803,13.00640573765732,62592.257540506995,47115.27640251586,12.95092047930794,62655.29555779776,-356.1576732085214,4.048288655444859,62815.95922646075,17971.9017792526,38.76742526472152,0.9779177054511976,120.0,82.0,118.0,202.0,320.0,38.0,723.0,725.0,38.0,18.0,20.0,0.4736842105263157,105.2990802350147,4035.0319898868015,19.0,15.0,4.0,0.7894736842105263,530.3672223431836,4317.612754835223,30.0,15.0,15.0,0.5,1720.9812808572983,48735.749587145954,14.0,7.0,7.0,0.5,80.54536378543018,1248.032996498088,94.0,46.0,48.0,0.4893617021276595,85.55726047792638,18504.945795245407,0.0,0.0,0.0,0.0,62423.0,62461.0,62543.0,62562.0,62577.0,62607.0,62648.0,62661.0,62770.0,62863.0,0.02816598172072557,-0.13399022731286325,0.03652703352845875,-0.22615085914005537,0.00476061251217702
84,84,63165.3429143197,3361.38545778574,13.234140197700713,63280.54796540086,-4185.959421625628,13.342653020629887,63314.514050432226,46202.954858063174,12.836931102956468,63395.82611835509,1890.6322634150183,79.28913139429933,63539.063100325264,17539.566624420288,36.587816766965986,0.9801339760423752,119.0,85.0,353.0,-36.0,317.0,34.0,721.0,722.0,35.0,17.0,18.0,0.4857142857142857,97.74100716981518,3217.301794832109,19.0,15.0,4.0,0.7894736842105263,585.1428693758625,5319.474633175058,30.0,15.0,15.0,0.5,1680.068354792456,47369.169832928674,333.0,110.0,223.0,0.3303303303303303,24.914349701776366,833.8448100260971,94.0,48.0,46.0,0.5106382978723404,84.77464374916441,18222.988522796277,0.0,0.0,0.0,0.0,63148.0,63182.0,63267.0,63284.0,63300.0,63330.0,63286.0,63620.0,63491.0,63584.0,0.02907759565134804,-0.13978703815256305,0.03636279021447167,0.013177787232284919,0.004833337423008669
85,85,63894.10361399229,4046.24980092653,17.397344122871313,64008.54796540086,-4212.395607762014,13.69234787888722,64042.334518860705,46006.86084594291,12.132782740647093,64098.122878658105,2269.37768360085,86.00969293303257,64265.81894688469,18316.076931856725,36.9264768089271,0.9835218440706168,122.0,78.0,351.0,-36.0,315.0,44.0,728.0,728.0,44.0,20.0,24.0,0.4545454545454545,86.19858254469088,4187.0596176702165,18.0,14.0,4.0,0.7777777777777778,552.0747532697562,5149.112355630942,29.0,14.0,15.0,0.4827586206896552,1756.0251556715996,49627.30170107469,332.0,84.0,248.0,0.253012048192771,166.44836749045982,1540.8374870675111,94.0,49.0,45.0,0.5212765957446809,85.74543563531485,19037.231062812043,0.0,0.0,0.0,0.0,63874.0,63918.0,63996.0,64012.0,64028.0,64057.0,64014.0,64347.0,64217.0,64311.0,0.02130332697821887,-0.13105956910895786,0.038168767079148666,0.07334537952552442,0.004681430196778646
86,86,64599.693346620326,2274.032817753632,8.353507724526699,64709.178051898714,-4719.038483146956,22.93168860777651,64747.515645537875,44868.275308834,10.680902560999218,64815.246609001435,-2339.646498032279,11.513794318641986,64970.509535888064,16509.260251769545,34.29968869638827,0.9696496201201036,65.0,40.0,196.0,167.0,363.0,25.0,709.0,706.0,25.0,13.0,12.0,0.52,103.11600024453638,2127.496588375684,74.0,61.0,13.0,0.8243243243243243,228.2453704623016,3567.711090079016,26.0,13.0,13.0,0.5,1841.714251650907,43196.008792323,48.0,14.0,34.0,0.2916666666666667,67.32937709184849,2687.7020196467574,89.0,45.0,44.0,0.5056179775280899,75.3048260820128,16588.931567324802,0.0,0.0,0.0,0.0,64587.0,64612.0,64652.0,64722.0,64735.0,64761.0,64801.0,64848.0,64927.0,65015.0,0.045344992138854845,-0.04836692289699087,0.04104713718042771,-0.028777585480744525,0.004561368888345027
87,87,65283.839016926584,2862.5627675356086,10.272854367874835,65392.92571243757,-3437.8269370864937,22.93168860777651,65428.7009475483,45286.55487205792,10.895512868947424,65494.3348861902,-920.1770602090317,4.756266897064981,65649.8306118069,17112.6763569281,36.91930627044571,0.9687152538537618,105.0,76.0,128.0,194.0,322.0,29.0,684.0,681.0,29.0,15.0,14.0,0.5172413793103449,103.15327593177511,2690.229359358867,28.0,19.0,9.0,0.6785714285714286,330.4836370542574,348.7488494318634,26.0,13.0,13.0,0.5,1839.4765826112716,44088.47571713821,16.0,8.0,8.0,0.5,108.87834295052762,1594.9950771745134,92.0,45.0,47.0,0.4891304347826087,85.85390554223832,17555.74207309394,0.0,0.0,0.0,0.0,65269.0,65298.0,65374.0,65402.0,65416.0,65442.0,65486.0,65502.0,65606.0,65696.0,0.036035288763495016,-0.09613155144288248,0.04061860275766395,-0.11832325283765965,0.0050169771081704706
88,88,65962.24786650002,1799.3181745024738,6.920888492983164,66070.75339099858,-5387.57846531242,25.47965400864057,66110.85876648343,45578.06126050156,11.347760221757548,66178.67126990156,-2773.388497178611,13.797321230413475,66335.79144837281,15935.342561951293,32.69342462054566,0.9667719165742028,56.0,34.0,217.0,154.0,371.0,22.0,678.0,682.0,22.0,11.0,11.0,0.5,106.99408192895984,1828.7598272518055,80.0,66.0,14.0,0.825,203.28123590663392,3818.303183743312,27.0,13.0,14.0,0.4814814814814814,1780.897230352307,44796.94293116255,62.0,16.0,46.0,0.2580645161290322,49.25634023577278,2907.07244768525,86.0,43.0,43.0,0.5,87.11547228801719,16025.042869821904,0.0,0.0,0.0,0.0,65951.0,65973.0,66007.0,66085.0,66098.0,66125.0,66163.0,66224.0,66294.0,66378.0,0.059463680990464396,-0.03773146641212693,0.03907356261104619,-0.017760346336577665,0.005466808884047601
89,89,0.0,0.0,0.0,0.0,0.0,0.0,0.0,0.0,0.0,0.0,0.0,0.0,0.0,0.0,0.0,0.0,0.0,0.0,0.0,0.0,0.0,0.0,0.0,0.0,0.0,0.0,0.0,0.0,0.0,0.0,0.0,0.0,0.0,0.0,0.0,0.0,0.0,0.0,0.0,0.0,0.0,0.0,0.0,0.0,0.0,0.0,0.0,0.0,0.0,0.0,0.0,0.0,0.0,0.0,0.0,0.0,0.0,0.0,66641.0,66668.0,66749.0,66777.0,66791.0,66820.0,66860.0,66899.0,66985.0,67074.0,,,,,
90,90,67385.8853684933,3052.380517326989,13.369799257816087,67500.39728720114,-4216.751742435928,14.14963507872102,67534.5635154766,46730.58698179698,13.16522563941377,67598.84342544951,-18.428258718241516,1.541133515874677,67758.12956645378,16953.19552160482,37.277525131332894,0.9742825122937848,114.0,80.0,118.0,204.0,322.0,34.0,1423.0,1423.0,34.0,17.0,17.0,0.5,85.37268754917883,2906.478195376728,23.0,18.0,5.0,0.782608695652174,504.480561294152,3981.4285589078304,29.0,15.0,14.0,0.5172413793103449,1685.92951075689,46736.64587699476,5.0,3.0,2.0,0.6,60.29195772491284,741.1136442536598,94.0,46.0,48.0,0.4893617021276595,81.10744513906853,17305.1082420768,0.0,0.0,0.0,0.0,67369.0,67403.0,67483.0,67505.0,67520.0,67549.0,67596.0,67601.0,67713.0,67805.0,0.027969215195994258,-0.11963724499529686,0.036077644635912925,-3.2717121376873144,0.004784198060814364
91,91,68133.06586617553,2950.6759405383,12.04444362874894,68250.39728720114,-4593.518378884383,20.38372301074695,68283.19505325811,47448.27099818625,12.714056693337538,68348.54796538387,-401.1197965129689,5.511764696182041,68507.6011526388,17470.359668630095,36.92624049730034,0.9745714430243912,67.0,35.0,189.0,180.0,369.0,32.0,748.0,749.0,32.0,16.0,16.0,0.5,93.79704149883744,2878.856798013734,74.0,69.0,5.0,0.9324324324324323,578.515957682466,4071.8524133694746,29.0,14.0,15.0,0.4827586206896552,1731.2707331652869,48351.47439897439,34.0,9.0,25.0,0.2647058823529412,51.95142859555652,1039.2065957173534,92.0,46.0,46.0,0.5,92.59838884311472,17973.80015477382,0.0,0.0,0.0,0.0,68117.0,68149.0,68184.0,68255.0,68269.0,68298.0,68340.0,68373.0,68462.0,68553.0,0.0317883235533231,-0.12594179667198127,0.036487540994517294,-0.12951599259668262,0.005300313822925183
92,92,68852.48696386378,2383.90588700085,9.609842995208764,68967.5956133781,-3661.720909871168,20.383723206912453,69001.6698602419,45805.38244290563,11.162447436468645,69069.39728720114,-1413.1758525144292,7.494689791659112,69224.09743469418,16033.125175188336,36.204360753278046,0.9765039831119996,114.0,87.0,134.0,182.0,316.0,27.0,718.0,719.0,27.0,13.0,14.0,0.4814814814814814,97.05505786493354,2387.95109917017,22.0,15.0,7.0,0.6818181818181818,461.02883538837415,1546.570581026569,26.0,13.0,13.0,0.5,1822.0198757077328,44847.65517505769,30.0,11.0,19.0,0.3666666666666666,76.4193042990336,1860.8215261594603,93.0,46.0,47.0,0.4946236559139785,84.38907380372706,16343.279145067268,0.0,0.0,0.0,0.0,68839.0,68866.0,68953.0,68975.0,68989.0,69015.0,69058.0,69087.0,69180.0,69269.0,0.040712621414361626,-0.12590496292209086,0.03977741869045192,-0.05407628793193898,0.005263420130613167
93,93,69550.30806408223,3334.082130353494,11.68660661469658,69664.20853225568,-3605.9034567247368,20.383723206627145,69695.7830159022,45385.22822496755,11.30046395882795,69763.54796540085,-599.1752118501233,5.22067552891121,69920.22290256346,16967.56023275981,36.761128707102806,0.977377479463816,111.0,81.0,127.0,193.0,320.0,30.0,698.0,694.0,30.0,15.0,15.0,0.5,113.2219022408398,3282.221898802395,26.0,21.0,5.0,0.8076923076923077,569.262398610136,4014.599287827877,27.0,13.0,14.0,0.4814814814814814,1795.726768044993,44701.327389242295,20.0,10.0,10.0,0.5,62.97397294364915,1038.4980466826469,92.0,45.0,47.0,0.4891304347826087,80.66639565166575,17374.04591009515,0.0,0.0,0.0,0.0,69535.0,69565.0,69646.0,69669.0,69683.0,69710.0,69755.0,69773.0,69876.0,69966.0,0.033958942165841464,-0.15786956180108058,0.039566326716345974,-0.10510109847368211,0.0047541540766668725
94,94,70246.811015157,3099.0968362210947,11.244893430846806,70363.39728720114,-4844.461438400822,20.383723206912453,70395.55457136355,47103.46773017285,12.205981457444588,70458.972626301,-1236.9409818193978,6.900929083058548,70620.54561168686,16662.175992176562,36.031680215953166,0.9795727013365348,100.0,71.0,158.0,176.0,334.0,29.0,697.0,700.0,30.0,15.0,15.0,0.5,107.86446854678351,2939.534663909958,42.0,37.0,5.0,0.8809523809523809,589.2060115869047,3835.517657517214,28.0,14.0,14.0,0.5,1746.2666605083048,46285.13760943346,42.0,10.0,32.0,0.238095238095238,75.74302008994302,1867.6189521973668,90.0,45.0,45.0,0.5,86.35989921407624,16996.63880814263,0.0,0.0,0.0,0.0,70232.0,70261.0,70332.0,70368.0,70382.0,70410.0,70449.0,70490.0,70577.0,70666.0,0.03480513009019389,-0.12162466748448392,0.037072995782637605,-0.061234142293946595,0.005182990460227106
95,95,70964.6676196008,2863.9823758509456,10.093684978311543,71081.39728720114,-4650.680370066321,14.978949486953562,71115.1728646661,46873.12253085278,13.141574177981978,71177.69864348901,-340.7228375997202,3.750160448508532,71339.19183556786,16866.360761495434,37.13080929705683,0.9756619448829223,114.0,87.0,140.0,181.0,321.0,27.0,719.0,719.0,27.0,14.0,13.0,0.5185185185185185,110.50646680587958,2698.767241888783,22.0,17.0,5.0,0.7727272727272727,547.779531402152,3806.878318414114,30.0,15.0,15.0,0.5,1696.5968487676687,48441.92670910013,33.0,6.0,27.0,0.1818181818181818,77.6686940973426,1309.4268884707835,92.0,45.0,47.0,0.4891304347826087,86.49496480618079,17396.79833899204,0.0,0.0,0.0,0.0,70951.0,70978.0,71065.0,71086.0,71100.0,71130.0,71172.0,71205.0,71295.0,71386.0,0.038584897636824995,-0.11778481594389605,0.03619551583428086,-0.2279527097288015,0.005128252978179024
96,96,71693.27792926837,3694.10023197676,15.218395231193751,71808.54796540085,-4528.908621992881,13.076816417225531,71842.95155093393,45928.313741540085,12.77306106036605,71913.43173418305,2877.1349459727794,83.72675995125086,72068.7668328336,17737.728394167414,37.339158417195954,0.983098537973464,121.0,84.0,349.0,-31.0,318.0,37.0,727.0,727.0,38.0,17.0,21.0,0.4473684210526316,103.12118692768108,3885.127232432385,17.0,13.0,4.0,0.7647058823529411,560.9784771318792,5249.172753227939,30.0,15.0,15.0,0.5,1674.896232825415,49078.08588390105,332.0,99.0,233.0,0.2981927710843373,24.526555683478925,1364.7769592410907,98.0,52.0,46.0,0.5306122448979592,87.90412402829564,18634.829513162826,0.0,0.0,0.0,0.0,71676.0,71713.0,71797.0,71812.0,71828.0,71858.0,71814.0,72146.0,72018.0,72115.0,0.027915102583044863,-0.1238661505351876,0.03646761869488248,0.008524645574170774,0.004955771228135425
97,97,72420.24432993408,2466.7233553201463,10.351062578948126,72536.39728720114,-3802.6662593446135,20.383723205015627,72568.65073444763,46498.77868710975,11.779734756202762,72635.54796540085,-807.5726486893786,5.723729865866817,72791.87974725668,16906.267770318114,37.89913783581582,0.9727017223664562,107.0,80.0,140.0,186.0,326.0,27.0,727.0,727.0,28.0,14.0,14.0,0.5,94.6404588448708,2423.4944416918415,32.0,27.0,5.0,0.84375,537.4589281723432,3847.27815886897,28.0,14.0,14.0,0.5,1779.6366831681305,45765.79482221912,27.0,9.0,18.0,0.3333333333333333,65.15294948447104,1350.734902984277,95.0,47.0,48.0,0.4947368421052631,99.91217235338712,17636.134486596624,0.0,0.0,0.0,0.0,72406.0,72433.0,72513.0,72541.0,72555.0,72583.0,72627.0,72653.0,72747.0,72839.0,0.03836687184266263,-0.14133739106123236,0.03827276185345221,-0.08067750881633833,0.005909771080805917
98,98,73124.41395190677,1716.7113064706168,6.598570134830621,73234.17805189872,-4446.318733669668,22.93168860777651,73272.3664827935,44647.213449865594,10.781312509404705,73338.39728720114,-1678.815249915925,7.511298518440265,73496.13582509819,16148.913241046032,35.24490532096894,0.9683873260480534,47.0,27.0,193.0,187.0,380.0,20.0,706.0,704.0,20.0,10.0,10.0,0.5,110.52247033567924,1796.8336963118936,87.0,74.0,13.0,0.8505747126436781,217.78675753882368,2875.210152887408,26.0,12.0,14.0,0.4615384615384615,1829.59512793966,44985.10967478999,29.0,11.0,18.0,0.3793103448275862,96.38762152728582,2217.5391860283426,90.0,44.0,46.0,0.4888888888888889,83.33183910971256,16443.38197813766,0.0,0.0,0.0,0.0,73114.0,73134.0,73161.0,73247.0,73260.0,73286.0,73327.0,73354.0,73452.0,73541.0,0.06438034742306332,-0.048981364266497,0.040978932089325446,-0.05741407312812586,0.005160213437639028
99,99,73825.99775407436,2351.1639511355893,8.465774678752972,73941.39728377761,-4660.667076664939,20.383723206912396,73973.81001040763,46932.31309672442,11.997857210545694,74037.12330450071,-559.8800904774284,4.436185571093143,74197.48732721861,16892.18549717173,36.46625978172637,0.97222076171868,101.0,77.0,152.0,176.0,328.0,24.0,702.0,701.0,24.0,12.0,12.0,0.5,107.90844687301076,2281.7068869875616,74.0,68.0,6.0,0.918918918918919,555.7293112909116,3342.7200366343855,28.0,14.0,14.0,0.5,1779.4285239426565,46734.895067050704,37.0,7.0,30.0,0.1891891891891892,82.38122959375913,1468.830969983287,92.0,45.0,47.0,0.4891304347826087,87.99208607901747,17431.580480818375,0.0,0.0,0.0,0.0,73814.0,73838.0,73915.0,73946.0,73960.0,73988.0,74030.0,74067.0,74153.0,74243.0,0.04589575593862437,-0.11923814813406028,0.03791478421861226,-0.14714084496826796,0.005209040955283735
100,100,74540.4954984518,3385.5800062046474,13.06940143307117,74655.39728720114,-3175.246013895403,13.38513192974558,74688.93041339173,48149.24146121525,11.813954143806912,74720.66227515347,6418.014566789041,-12.26982995610423,74912.75762795606,16924.485160208977,37.96161701536844,0.9844661909789948,117.0,84.0,352.0,-33.0,319.0,33.0,712.0,715.0,34.0,17.0,17.0,0.5,99.50422738981185,3278.4281056811506,20.0,15.0,5.0,0.75,517.5517221724239,3816.19406355145,30.0,14.0,16.0,0.4666666666666667,1710.3903803398798,49785.44701577386,69.0,56.0,13.0,0.8115942028985508,577.5859962783742,1126.9504304463717,93.0,46.0,47.0,0.4946236559139785,86.1869590850199,17534.227816881383,0.0,0.0,0.0,0.0,74524.0,74557.0,74641.0,74660.0,74675.0,74705.0,74579.0,74993.0,74868.0,74960.0,0.029390599899412666,-0.16299578675401266,0.03552268589148218,0.08999449756115821,0.0050924420015832075
101,101,75279.60467318138,2740.3403355278597,11.318854615005671,75395.82194810128,-4606.8285495049195,22.93168860129412,75429.57876345221,47576.33077724815,12.921005871885876,75492.54796540085,-851.2700329464578,5.56779246657646,75654.56733212115,16283.471890583576,36.07926429661955,0.9748441362192604,100.0,69.0,157.0,179.0,336.0,31.0,739.0,740.0,31.0,16.0,15.0,0.5161290322580645,88.20455276504664,2488.6512552073223,69.0,64.0,5.0,0.927536231884058,564.831664752568,3888.700155928887,29.0,15.0,14.0,0.5172413793103449,1689.9605305026262,46642.43621839518,38.0,9.0,29.0,0.2368421052631578,73.04184149238176,1524.8310441310248,92.0,46.0,46.0,0.5,73.50524218064699,16457.05104838616,0.0,0.0,0.0,0.0,75264.0,75295.0,75364.0,75401.0,75415.0,75444.0,75484.0,75521.0,75610.0,75700.0,0.0321874446109834,-0.12260748553650182,0.03552103541601395,-0.08580337456443256,0.004514101333828793
102,102,76054.25827699619,2431.2716699333723,13.407399427444572,76168.39728720114,-4095.04055986395,18.917360709421885,76201.55971845971,47700.583881753875,12.367944475534133,76263.23660511401,-266.4382762378029,2.569793249075558,76425.55509682093,17083.571968953107,37.77365987881945,0.9697993219854266,116.0,78.0,116.0,205.0,321.0,38.0,772.0,772.0,40.0,18.0,22.0,0.45,60.023549813326134,2148.2209952922776,22.0,17.0,5.0,0.7727272727272727,545.6486701275624,3436.947571266058,29.0,15.0,14.0,0.5172413793103449,1768.7427765855102,47084.95569434168,9.0,4.0,5.0,0.4444444444444444,106.0311300413846,1355.651326974365,95.0,47.0,48.0,0.4947368421052631,83.16799305886798,17529.457370423803,0.0,0.0,0.0,0.0,76036.0,76074.0,76152.0,76173.0,76187.0,76216.0,76259.0,76268.0,76380.0,76473.0,0.024688129490264263,-0.13324621872504494,0.03708010746723959,-0.39795757403395426,0.004868302320499111
103,103,76784.29227581195,2234.3014184263334,9.198417731413988,76894.17805189872,-4131.483396134551,22.93168860777651,76932.76272942388,45815.31197844824,10.864344678201649,76999.39728720114,-1561.8627286933886,7.481285470906766,77156.43495571715,16434.206327912114,36.13869144010474,0.974606644000681,69.0,43.0,177.0,185.0,362.0,26.0,733.0,732.0,27.0,13.0,14.0,0.4814814814814814,92.04920728930465,2219.2150471105306,80.0,67.0,13.0,0.8375,212.38646726145575,2728.443236718183,26.0,13.0,13.0,0.5,1857.59745310646,44817.60845679078,30.0,11.0,19.0,0.3666666666666666,85.14541626173467,2047.257189214989,92.0,45.0,47.0,0.4891304347826087,90.0455453294926,16856.72769664134,0.0,0.0,0.0,0.0,76771.0,76797.0,76840.0,76907.0,76920.0,76946.0,76988.0,77017.0,77112.0,77202.0,0.04119820474094175,-0.05140683064590462,0.04054534112919025,-0.05451530067111914,0.005479153877760305
104,104,77500.89958883208,3003.5160956345853,11.739965707887244,77615.26555806329,-3960.7954022792615,17.835757806037353,77647.76778137645,46162.9501657025,11.44645873039803,77711.27398270041,-190.34751193665377,2.745543714319745,77872.28916244052,17157.689277896767,36.95131283776468,0.9752208412845794,108.0,78.0,124.0,200.0,324.0,30.0,717.0,715.0,30.0,15.0,15.0,0.5,102.87903888326588,2884.848732721582,40.0,34.0,6.0,0.85,524.648496448807,3081.7727610165857,28.0,14.0,14.0,0.5,1827.75022337343,45906.43235962665,11.0,4.0,7.0,0.3636363636363636,87.87275131793123,1342.6169292519746,92.0,45.0,47.0,0.4891304347826087,84.56047997326417,17587.13333923877,0.0,0.0,0.0,0.0,77486.0,77516.0,77594.0,77620.0,77634.0,77662.0,77707.0,77718.0,77828.0,77918.0,0.03425286750844913,-0.13246038817023853,0.03959344489060376,-0.4616438135906637,0.004928430548174014
105,105,0.0,0.0,0.0,0.0,0.0,0.0,0.0,0.0,0.0,0.0,0.0,0.0,0.0,0.0,0.0,0.0,0.0,0.0,0.0,0.0,0.0,0.0,0.0,0.0,0.0,0.0,0.0,0.0,0.0,0.0,0.0,0.0,0.0,0.0,0.0,0.0,0.0,0.0,0.0,0.0,0.0,0.0,0.0,0.0,0.0,0.0,0.0,0.0,0.0,0.0,0.0,0.0,0.0,0.0,0.0,0.0,0.0,0.0,78192.0,78226.0,78309.0,78329.0,78344.0,78373.0,,,78536.0,78630.0,,,,,
106,106,78930.86418912231,2892.6448417225492,11.767979830273504,79046.39728720114,-4978.32761876894,16.65209127758671,79079.79142289342,47074.17888437962,13.055151578335112,79145.39717834357,-824.7679799741092,7.066280144150898,79303.57580695322,17033.41723832034,36.92058514737272,0.9760663112653152,111.0,79.0,138.0,186.0,324.0,32.0,1429.0,1431.0,33.0,17.0,16.0,0.5151515151515151,85.32133299646557,2640.725573679147,28.0,23.0,5.0,0.8214285714285714,558.9205296800023,3794.6863366875423,30.0,15.0,15.0,0.5,1705.9448165780996,47685.343659160346,31.0,11.0,20.0,0.3548387096774194,52.11923976983762,1198.4708287602152,92.0,46.0,46.0,0.5,88.89518581082265,17526.717853150098,0.0,0.0,0.0,0.0,78915.0,78947.0,79026.0,79051.0,79065.0,79095.0,79134.0,79164.0,79259.0,79350.0,0.029495958773029782,-0.11227074079512155,0.036239502355805815,-0.06319260814595849,0.005218869740995588
107,107,0.0,0.0,0.0,0.0,0.0,0.0,0.0,0.0,0.0,0.0,0.0,0.0,0.0,0.0,0.0,0.0,0.0,0.0,0.0,0.0,0.0,0.0,0.0,0.0,0.0,0.0,0.0,0.0,0.0,0.0,0.0,0.0,0.0,0.0,0.0,0.0,0.0,0.0,0.0,0.0,0.0,0.0,0.0,0.0,0.0,0.0,0.0,0.0,0.0,0.0,0.0,0.0,0.0,0.0,0.0,0.0,0.0,0.0,79629.0,79665.0,79747.0,79767.0,79781.0,79811.0,79618.0,,79972.0,80066.0,,,,,
108,108,80347.49059436908,2982.7455605255363,10.533071128170514,80464.02349094432,-4137.082799300636,20.38372320691087,80497.64933567285,46586.98383660877,11.623006171006212,80563.12330450071,-530.6018061205518,4.627382691892141,80720.04649964653,17008.423853072465,37.35339401701108,0.972592495927711,86.0,58.0,157.0,190.0,347.0,28.0,1418.0,1419.0,28.0,14.0,14.0,0.5,114.1758246450574,2984.8025617194744,52.0,46.0,6.0,0.8846153846153846,479.22316697423435,2059.838454997346,28.0,14.0,14.0,0.5,1812.1348831209584,45884.722890886515,20.0,7.0,13.0,0.35,76.41521887828821,1352.7495888513008,93.0,46.0,47.0,0.4946236559139785,88.95724876350906,17542.815355181003,0.0,0.0,0.0,0.0,80333.0,80361.0,80419.0,80470.0,80484.0,80512.0,80556.0,80576.0,80675.0,80766.0,0.03827876777559951,-0.11583601059549639,0.03889787949090095,-0.14401613035769956,0.005230187672412661
109,109,81039.80338705331,2360.626493698585,7.748581329189045,81149.17805189872,-4122.482850650667,22.93168860777651,81188.19211021281,45682.75265394402,10.690268522358831,81253.54794502388,-1145.6341585934322,5.651256434719508,81411.36982176497,16678.845595092855,35.519547169243985,0.9690515998764232,69.0,46.0,165.0,195.0,360.0,23.0,693.0,691.0,23.0,12.0,11.0,0.5217391304347826,119.90271035304418,2236.0971299205053,79.0,66.0,13.0,0.8354430379746836,190.7343603208664,2814.8505997755697,27.0,13.0,14.0,0.4814814814814814,1877.531063999702,45550.5833592524,19.0,10.0,9.0,0.5263157894736842,98.67556707254316,1722.2745389498702,90.0,44.0,46.0,0.4888888888888889,83.1589269878281,17087.453863169078,0.0,0.0,0.0,0.0,81028.0,81051.0,81097.0,81162.0,81175.0,81202.0,81245.0,81262.0,81368.0,81457.0,0.0507927495828376,-0.046266865680414423,0.041099341763014476,-0.08613183042105992,0.004985892249778642
110,110,81725.35009927947,1837.628314238214,7.122441213114341,81836.17805189872,-4833.561145657416,22.93168860777651,81875.10436730555,44795.31327744124,10.977285982491502,81942.24660900142,-1942.8401140689416,10.6600985690257,82099.12566520573,16707.573487987964,34.37681426472333,0.9674729129153709,53.0,31.0,209.0,168.0,377.0,22.0,686.0,686.0,22.0,11.0,11.0,0.5,105.66796253425537,1869.0078131113385,83.0,70.0,13.0,0.8433734939759037,200.00281595140092,3105.545514690314,27.0,13.0,14.0,0.4814814814814814,1806.688769058868,44721.853361401976,50.0,14.0,36.0,0.28,61.61183051303363,2198.3013117121855,89.0,44.0,45.0,0.4943820224719101,79.85573910632617,16776.315744497097,0.0,0.0,0.0,0.0,81714.0,81736.0,81767.0,81849.0,81862.0,81889.0,81928.0,81976.0,82056.0,82144.0,0.05750235872810866,-0.0413779426647138,0.04033209362481923,-0.03171224953966919,0.004779613219342656
111,111,82425.94648471345,3235.129633774037,11.710957897428422,82542.972626301,-4257.872514621334,17.835757799577117,82575.87212592394,47783.60428543485,12.563118605822837,82639.27398270041,-155.65403955749974,2.8391715812988005,82798.21203715572,17076.071391180212,37.78066103899386,0.9742795999610367,113.0,82.0,122.0,200.0,322.0,31.0,698.0,701.0,32.0,16.0,16.0,0.5,103.10042505200305,3078.967905155116,43.0,39.0,4.0,0.9069767441860463,591.7688683484776,4839.177705813667,28.0,14.0,14.0,0.5,1767.6614341938791,48227.39276689,10.0,4.0,6.0,0.4,79.94612621917427,1214.896936544374,92.0,45.0,47.0,0.4891304347826087,88.24128996713274,17701.88974249529,0.0,0.0,0.0,0.0,82410.0,82441.0,82523.0,82547.0,82562.0,82590.0,82635.0,82645.0,82754.0,82845.0,0.03186902434315381,-0.1389822889991119,0.03699305359291803,-0.5136142078062907,0.005167540469098141
112,112,83146.74046411611,2807.1036479376226,10.953871572258752,83265.39728720114,-4895.142937706258,20.383723206912453,83298.54088337887,47275.46545215315,12.945970024616331,83362.97130030408,-692.2502114930882,6.11011022483868,83522.87493423244,16633.96720043212,36.25912961979566,0.9746984220002136,62.0,33.0,179.0,195.0,374.0,29.0,723.0,722.0,29.0,15.0,14.0,0.5172413793103449,98.38659308635592,2673.1342855172857,78.0,73.0,5.0,0.935897435897436,562.7588821910807,3826.5568731460567,29.0,15.0,14.0,0.5172413793103449,1694.027393443659,46727.82294566835,22.0,10.0,12.0,0.4545454545454545,66.27094238246418,1212.6943587639005,91.0,45.0,46.0,0.4945054945054945,98.54363477634918,17308.389954654405,0.0,0.0,0.0,0.0,83132.0,83161.0,83194.0,83270.0,83284.0,83313.0,83353.0,83373.0,83479.0,83568.0,0.03504914866917739,-0.11496270677946241,0.03583311929859603,-0.09573264302733388,0.005924241258200221
113,113,0.0,0.0,0.0,0.0,0.0,0.0,0.0,0.0,0.0,0.0,0.0,0.0,0.0,0.0,0.0,0.0,0.0,0.0,0.0,0.0,0.0,0.0,0.0,0.0,0.0,0.0,0.0,0.0,0.0,0.0,0.0,0.0,0.0,0.0,0.0,0.0,0.0,0.0,0.0,0.0,0.0,0.0,0.0,0.0,0.0,0.0,0.0,0.0,0.0,0.0,0.0,0.0,0.0,0.0,0.0,0.0,0.0,0.0,83851.0,83887.0,83971.0,83992.0,84006.0,84036.0,83906.0,84327.0,84198.0,84291.0,,,,,
114,114,84582.31014016717,3150.705968465697,11.011521179879033,84698.9818123665,-4265.338512221961,20.383723206912453,84733.31898441444,46146.63547198877,11.777650970646096,84801.82194809076,-1313.4964271213685,7.740433729595399,84956.27271416695,16899.103121751286,36.053584053993056,0.9726243515791484,87.0,57.0,160.0,188.0,348.0,30.0,1435.0,1435.0,30.0,15.0,15.0,0.5,108.2682789011474,3091.6450737277787,53.0,46.0,7.0,0.8679245283018868,447.74818677458353,1539.02834352044,28.0,13.0,15.0,0.4642857142857143,1772.3435247447233,47024.50249803041,27.0,13.0,14.0,0.4814814814814814,61.8308408926029,1344.3258515544271,90.0,44.0,46.0,0.4888888888888889,81.14883505562618,17260.58554917005,0.0,0.0,0.0,0.0,84567.0,84597.0,84654.0,84706.0,84720.0,84748.0,84789.0,84814.0,84913.0,85002.0,0.03436318081876454,-0.10497365812621896,0.03840677671551038,-0.04707347474717544,0.004801961055032403
115,115,85285.78942001522,3239.5714069510436,11.583526773154794,85397.60271279886,-3452.3041993550582,20.383723206912453,85435.87155328099,45260.86351254218,10.793430627425431,85502.39240959047,-787.4840376574169,5.227643528905876,85657.95303568832,17052.241898309203,36.30196957658719,0.9710967397406254,97.0,66.0,143.0,193.0,336.0,31.0,704.0,703.0,31.0,16.0,15.0,0.5161290322580645,102.91900193141504,3083.6441331057604,77.0,65.0,12.0,0.8441558441558441,224.95045601864615,1584.691890585878,26.0,13.0,13.0,0.5,1856.3885263760344,44732.460937072814,17.0,8.0,9.0,0.4705882352941176,85.74809152275459,1467.2373628058108,90.0,44.0,46.0,0.4888888888888889,95.66624978933656,17679.70717830484,0.0,0.0,0.0,0.0,85270.0,85301.0,85367.0,85409.0,85423.0,85449.0,85494.0,85510.0,85614.0,85703.0,0.03176932655677386,-0.06515951174310486,0.041015313944719876,-0.10888867256006274,0.0056101860599820745
116,116,0.0,0.0,0.0,0.0,0.0,0.0,0.0,0.0,0.0,0.0,0.0,0.0,0.0,0.0,0.0,0.0,0.0,0.0,0.0,0.0,0.0,0.0,0.0,0.0,0.0,0.0,0.0,0.0,0.0,0.0,0.0,0.0,0.0,0.0,0.0,0.0,0.0,0.0,0.0,0.0,0.0,0.0,0.0,0.0,0.0,0.0,0.0,0.0,0.0,0.0,0.0,0.0,0.0,0.0,0.0,0.0,0.0,0.0,,85736.0,86054.0,86083.0,86097.0,86124.0,86166.0,86206.0,86290.0,86375.0,,,,,
117,117,86641.6653196107,2685.6832232915003,9.617147828074565,86750.17805189872,-4012.702754804505,22.93168860777651,86789.94821380785,44424.193707931976,11.280989818594737,86855.82194810128,-2092.760767269498,9.547174286195684,87014.17998154354,17427.28383184624,33.606550455158505,0.969147115879116,64.0,37.0,202.0,163.0,365.0,27.0,1355.0,1354.0,27.0,14.0,13.0,0.5185185185185185,101.81169914237262,2485.3399992481673,73.0,60.0,13.0,0.821917808219178,186.65187154182632,2626.115301828842,27.0,13.0,14.0,0.4814814814814814,1750.6596766612604,44135.62227445995,52.0,13.0,39.0,0.25,73.26745610100761,2419.5228864917876,87.0,43.0,44.0,0.4942528735632184,90.78087650209756,17645.48149851556,0.0,0.0,0.0,0.0,86628.0,86655.0,86692.0,86763.0,86777.0,86804.0,86843.0,86894.0,86972.0,87057.0,0.037909049831124524,-0.04651524993181805,0.03940779855614304,-0.035009952999359,0.0052091236579395435
118,118,87335.26109628714,2994.673173987356,11.07028683387229,87453.39728720114,-4060.1862320045225,20.383721667439875,87486.29035009693,46260.33121708384,12.414070671388243,87551.54796540085,-667.3353047552728,5.739560243661975,87709.76591290404,17301.842018813648,36.52581767906364,0.9716207170327212,114.0,84.0,132.0,190.0,322.0,30.0,694.0,696.0,30.0,15.0,15.0,0.5,102.41858827495597,2931.406738379819,27.0,22.0,5.0,0.8148148148148148,545.1050188126649,3763.818437065215,29.0,14.0,15.0,0.4827586206896552,1711.9000688435265,47255.117293817224,25.0,10.0,15.0,0.4,63.633462329442025,1201.7200049299086,91.0,45.0,46.0,0.4945054945054945,91.23546367467594,17772.692106338473,0.0,0.0,0.0,0.0,87320.0,87350.0,87434.0,87458.0,87472.0,87501.0,87543.0,87566.0,87666.0,87756.0,0.03420025569554469,-0.1342561615809296,0.037005789275700765,-0.09535455696110351,0.0052731647633511205
119,119,88060.56935489792,2958.001253869856,11.542682937751175,88177.39728720114,-4921.945777549699,20.383723206912453,88211.35612817398,46447.15302002634,13.136210871484128,88272.7102069482,-183.4468328380942,2.428267737496469,88434.69959020898,17052.402021429916,37.21573327830806,0.9703310441915728,85.0,54.0,146.0,205.0,351.0,31.0,725.0,725.0,31.0,16.0,15.0,0.5161290322580645,94.89769614682298,2754.6701310449157,61.0,55.0,6.0,0.9016393442622952,518.6076976414596,2900.0935420678793,29.0,14.0,15.0,0.4827586206896552,1662.8752340597566,47868.78956419858,9.0,5.0,4.0,0.5555555555555556,92.1778469953399,1089.7650253974127,92.0,46.0,46.0,0.5,92.63043142117112,17690.48037402155,0.0,0.0,0.0,0.0,88045.0,88076.0,88130.0,88182.0,88197.0,88226.0,88269.0,88276.0,88390.0,88481.0,0.03208169571350635,-0.10536639798166142,0.03580144585703207,-0.5024771786422384,0.005432104597625694
120,120,88801.89737821528,2684.1971917926476,11.66832625801355,88918.39728720114,-4963.846408919411,17.657843464317413,88951.68270521318,45705.22674640393,13.16430147103314,89018.821947538,-671.4776474066108,7.909660682832009,89177.00874266184,17048.227155270193,36.38198377071202,0.9730778518199368,113.0,81.0,147.0,176.0,323.0,32.0,741.0,740.0,32.0,16.0,16.0,0.5,83.4858920385254,2506.427317150997,27.0,22.0,5.0,0.8148148148148148,556.4963140490254,3736.921918158403,30.0,15.0,15.0,0.5,1648.461094618527,46048.09133222538,41.0,13.0,28.0,0.3170731707317073,32.19953663972683,985.9438045989014,91.0,45.0,46.0,0.4945054945054945,92.0568611918235,17549.055778681075,0.0,0.0,0.0,0.0,88786.0,88818.0,88899.0,88923.0,88937.0,88967.0,89006.0,89046.0,89133.0,89222.0,0.031102741741104778,-0.1121098978906904,0.036067233705349186,-0.04795325170404149,0.005399790861149193
121,121,89549.11101264924,3008.3010280771005,13.595655959613527,89666.39728720114,-4574.177107693784,14.428332133429326,89699.01598871642,45412.88483324823,12.67561178919424,89761.86085199384,-281.25657237413327,3.5091232250169044,89921.6271412804,17629.040934929653,38.82203823142788,0.9701542279042112,118.0,83.0,117.0,203.0,320.0,35.0,746.0,748.0,35.0,17.0,18.0,0.4857142857142857,84.70426131666031,2939.265581221962,22.0,17.0,5.0,0.7727272727272727,575.4383975732271,4246.941618919739,29.0,14.0,15.0,0.4827586206896552,1699.575838743821,46560.65103632826,11.0,6.0,5.0,0.5454545454545454,84.38238509593934,1122.4339640842684,96.0,48.0,48.0,0.5,85.69198255505957,18161.068478162495,0.0,0.0,0.0,0.0,89532.0,89567.0,89650.0,89671.0,89685.0,89714.0,89756.0,89767.0,89876.0,89970.0,0.028156843522672028,-0.12580151227754988,0.03742496969713553,-0.300019247136711,0.004860841997664889
122,122,90271.84083934486,2809.462031115806,10.661331572941275,90387.42801164628,-3866.251572706573,20.38372320691197,90420.20291812472,45360.27632474966,11.269524189289568,90485.49090170396,-1137.5366303046294,5.569695504258086,90642.43151022424,17166.995071173485,37.976471293563066,0.9727733495778432,113.0,83.0,124.0,196.0,320.0,30.0,725.0,721.0,30.0,15.0,15.0,0.5,95.8475297136402,2658.3120675736827,25.0,18.0,7.0,0.72,478.7140598942897,1964.880713499325,27.0,13.0,14.0,0.4814814814814814,1795.8819141445072,45701.22251615598,18.0,9.0,9.0,0.5,105.34410712571638,1787.165710674128,94.0,46.0,48.0,0.4893617021276595,95.23914882849029,17862.747819997083,0.0,0.0,0.0,0.0,90257.0,90287.0,90370.0,90393.0,90407.0,90434.0,90476.0,90494.0,90597.0,90690.0,0.03411597261400731,-0.1238186524833834,0.03959151177314656,-0.092607221885686,0.005547805450728776
123,123,91651.32285377268,2253.4164310560436,7.748115587815063,91761.17805189872,-4403.785240907516,22.93168860777651,91800.35401224469,45097.71513305065,11.328237397618928,91865.39728720114,-1841.9890471420613,8.953763183529437,92024.3152152428,16414.968992644666,33.81014036564253,0.9667253689638036,57.0,34.0,203.0,168.0,371.0,23.0,1379.0,1380.0,23.0,11.0,12.0,0.4782608695652174,115.95259584468536,2270.547784872164,79.0,66.0,13.0,0.8354430379746836,217.4706117540705,2961.715108616938,27.0,13.0,14.0,0.4814814814814814,1769.6155709694067,45692.49976568627,47.0,11.0,36.0,0.2340425531914893,75.69134613890985,2461.252134277326,88.0,44.0,44.0,0.5,94.51703345982386,16779.906449432707,0.0,0.0,0.0,0.0,91640.0,91663.0,91697.0,91774.0,91787.0,91814.0,91854.0,91900.0,91981.0,92068.0,0.05145635500241081,-0.04938265602371994,0.03923958377377999,-0.04109218035598462,0.005757978190648774
124,124,92335.3511674482,3175.85292043302,9.965405323199946,92452.972626301,-5116.4014263433155,17.835757805937288,92485.28407614952,46119.985283143054,12.58740017378964,92550.39728720114,-1365.3783581908854,7.918598466700307,92708.84775223468,16525.300937783813,35.55094615579685,0.9749276759205298,92.0,64.0,169.0,171.0,340.0,28.0,684.0,685.0,28.0,14.0,14.0,0.5,121.93390330872413,3093.7966928956257,54.0,49.0,5.0,0.9074074074074074,626.8065413115473,4536.077651415363,29.0,14.0,15.0,0.4827586206896552,1708.6990955991544,47594.88315883573,45.0,12.0,33.0,0.2666666666666666,61.02984957058614,1798.9879982612842,90.0,45.0,45.0,0.5,81.4758318125628,16859.22267954275,0.0,0.0,0.0,0.0,92321.0,92349.0,92413.0,92457.0,92471.0,92500.0,92539.0,92582.0,92665.0,92753.0,0.038394064953139816,-0.12250925779283997,0.037048994814482025,-0.04469812283494091,0.0049303690213758624
125,125,93034.085364632,3846.1746241402184,10.83069487682826,93152.39728720114,-4594.607495761124,14.88269230546892,93185.97445823546,45832.53471707429,13.067484040087065,93247.69862792637,-301.72723724678565,3.194131371814818,93408.84053191823,17087.087552830766,37.817833731074096,0.9708596614839562,114.0,88.0,119.0,202.0,321.0,26.0,699.0,700.0,26.0,13.0,13.0,0.5,158.78851409723663,3899.8557411355614,23.0,18.0,5.0,0.782608695652174,538.9193691673215,3860.8612941567735,30.0,15.0,15.0,0.5,1662.623967871776,46932.217385139826,12.0,6.0,6.0,0.5,87.12002435544584,1224.655159246413,93.0,46.0,47.0,0.4946236559139785,84.68228470811397,17651.08998861887,0.0,0.0,0.0,0.0,93021.0,93047.0,93135.0,93157.0,93171.0,93201.0,93242.0,93254.0,93364.0,93456.0,0.04128479063342906,-0.11729388629268458,0.03627606411330307,-0.288737686230791,0.004955922678238101
126,126,93742.64997925457,4650.145729268297,18.70721477694915,93861.972626301,-4628.30095747478,13.988307150474055,93895.17752084722,45361.88327796137,12.327840477977782,93958.13514963922,1727.961213122432,80.24237663888341,94119.42055440492,17960.820253301124,37.388017340936194,0.9832313339192136,122.0,86.0,353.0,-35.0,318.0,36.0,709.0,710.0,36.0,17.0,19.0,0.4722222222222222,149.11616703795067,5221.2177583262755,19.0,15.0,4.0,0.7894736842105263,575.1506033394803,4526.664197102517,29.0,14.0,15.0,0.4827586206896552,1704.079943391536,48119.9967771075,333.0,90.0,243.0,0.2702702702702703,85.23713744822655,883.644210630355,96.0,49.0,47.0,0.5104166666666666,71.24971070770115,18278.485135662657,0.0,0.0,0.0,0.0,93726.0,93762.0,93848.0,93866.0,93881.0,93910.0,93868.0,94201.0,94071.0,94166.0,0.03206698794392712,-0.1242681944463017,0.037566340289479264,0.0493281543595546,0.00396695193776608
127,127,94439.20181535608,3290.1323946192465,8.28526554306096,94553.75339099858,-5655.68574438083,25.47965400864057,94593.05597844475,44533.98170331581,10.822208496019584,94660.67126990156,-2333.3330496232497,12.777983631995786,94815.72547116362,15715.146661025648,33.63844565019667,0.9677057633510524,56.0,33.0,207.0,169.0,376.0,23.0,697.0,698.0,23.0,11.0,12.0,0.4782608695652174,162.1290669511075,3291.161013901027,85.0,71.0,14.0,0.8352941176470589,207.7823710818779,4308.590544374189,27.0,13.0,14.0,0.4814814814814814,1804.8670784406431,43888.184425971696,47.0,16.0,31.0,0.3404255319148936,60.67623315348107,2359.742418180912,86.0,42.0,44.0,0.4883720930232558,71.90014367103474,15710.357867090312,0.0,0.0,0.0,0.0,94428.0,94451.0,94484.0,94568.0,94580.0,94607.0,94645.0,94691.0,94774.0,94860.0,0.049277368660378795,-0.036738669804686146,0.040527862306690185,-0.026004103084760286,0.004575213023582573
128,128,0.0,0.0,0.0,0.0,0.0,0.0,0.0,0.0,0.0,0.0,0.0,0.0,0.0,0.0,0.0,0.0,0.0,0.0,0.0,0.0,0.0,0.0,0.0,0.0,0.0,0.0,0.0,0.0,0.0,0.0,0.0,0.0,0.0,0.0,0.0,0.0,0.0,0.0,0.0,0.0,0.0,0.0,0.0,0.0,0.0,0.0,0.0,0.0,0.0,0.0,0.0,0.0,0.0,0.0,0.0,0.0,0.0,0.0,,95570.0,95842.0,95939.0,95951.0,95977.0,96010.0,96084.0,96150.0,96228.0,,,,,
129,129,96521.71815929846,5366.831546256924,14.647174568570676,96644.82194810128,-4614.166221073816,22.93168860777651,96678.85604996837,47294.60485030714,12.9152221166494,96743.39728720114,-816.7402548123166,7.260937677320562,96902.4472055324,16519.94473886179,36.47645868266248,0.9710901600390668,70.0,35.0,194.0,179.0,373.0,35.0,2083.0,2085.0,35.0,17.0,18.0,0.4857142857142857,160.19171247207973,5556.128139253841,78.0,73.0,5.0,0.935897435897436,545.484298801471,3454.8056867707433,30.0,15.0,15.0,0.5,1682.7150150698833,47090.85507386435,38.0,11.0,27.0,0.2894736842105263,53.03312150164094,1392.232239618935,92.0,45.0,47.0,0.4891304347826087,81.7390702090154,16904.047153645366,0.0,0.0,0.0,0.0,96505.0,96540.0,96575.0,96650.0,96664.0,96694.0,96732.0,96769.0,96858.0,96948.0,0.02984847038543716,-0.11821947295919588,0.035579428571099594,-0.06493266517618594,0.00494790215712593
130,130,97277.07569296467,4955.936823461121,15.600573373955294,97397.82194810128,-4988.044899037585,15.840575478153092,97431.54282706854,46019.75625697407,12.927526735337455,97493.88053442635,-948.2668957828472,6.055471256441153,97655.23459908472,17484.57127100558,38.07799976586701,0.968380830335274,119.0,83.0,124.0,200.0,324.0,36.0,753.0,753.0,36.0,17.0,19.0,0.4722222222222222,142.37119769238606,5067.541128516046,26.0,21.0,5.0,0.8076923076923077,571.8523425498247,3808.221630624054,29.0,15.0,14.0,0.5172413793103449,1665.375444553549,45953.6938408494,20.0,10.0,10.0,0.5,88.3026800292654,1418.5675649496973,94.0,46.0,48.0,0.4893617021276595,90.5566736242931,17984.395948075202,0.0,0.0,0.0,0.0,97260.0,97296.0,97379.0,97403.0,97417.0,97446.0,97484.0,97503.0,97610.0,97703.0,0.028727403670363385,-0.11464458603012181,0.03618827173386364,-0.09312007033248441,0.005179233292066015
131,131,98014.64831384046,4212.082603029201,12.32511645820231,98128.75339099858,-4654.080500769796,25.47965400864057,98168.9355478579,45977.77921181791,11.228866286927431,98234.82194810128,-1726.5844141394036,8.741340088902813,98393.1325896957,16524.656617089604,36.150023371298026,0.9706182269798412,80.0,50.0,177.0,182.0,359.0,30.0,739.0,738.0,30.0,15.0,15.0,0.5,149.74512455871036,4285.83435592752,69.0,55.0,14.0,0.7971014492753623,192.27485867191737,3505.9139761516735,27.0,13.0,14.0,0.4814814814814814,1811.805447775176,45365.15616732698,36.0,13.0,23.0,0.3611111111111111,60.01282170084037,1961.189759307795,93.0,46.0,47.0,0.4946236559139785,79.77453311154343,16817.613746717303,0.0,0.0,0.0,0.0,98000.0,98030.0,98080.0,98143.0,98156.0,98183.0,98222.0,98257.0,98349.0,98439.0,0.03555132666463337,-0.04131317854087711,0.039406110491510604,-0.03475811620293878,0.00482760610160223
132,132,0.0,0.0,0.0,0.0,0.0,0.0,0.0,0.0,0.0,0.0,0.0,0.0,0.0,0.0,0.0,0.0,0.0,0.0,0.0,0.0,0.0,0.0,0.0,0.0,0.0,0.0,0.0,0.0,0.0,0.0,0.0,0.0,0.0,0.0,0.0,0.0,0.0,0.0,0.0,0.0,0.0,0.0,0.0,0.0,0.0,0.0,0.0,0.0,0.0,0.0,0.0,0.0,0.0,0.0,0.0,0.0,0.0,0.0,,99143.0,99403.0,99507.0,99519.0,99544.0,99576.0,99669.0,99722.0,99793.0,,,,,
133,133,100064.10023879864,4878.146033150017,12.230665929846966,100182.73627594538,-5302.492746634328,22.93168860777651,100220.34677463373,46694.363331088614,12.396101190127457,100286.67126990156,-2161.627363157326,11.495689341391856,100443.94455063134,15919.026157017151,34.30558893753316,0.972404967064852,81.0,50.0,194.0,164.0,358.0,31.0,2049.0,2051.0,31.0,15.0,16.0,0.4838709677419355,164.40330715252685,4952.92423088521,64.0,54.0,10.0,0.84375,349.3805603377959,1477.82165660302,29.0,14.0,15.0,0.4827586206896552,1714.3069373979138,47616.1207958036,53.0,16.0,37.0,0.3018867924528302,39.555384595861064,2203.568356043097,88.0,44.0,44.0,0.5,82.79090140754839,16150.900311551268,0.0,0.0,0.0,0.0,100049.0,100080.0,100130.0,100193.0,100206.0,100235.0,100271.0,100324.0,100401.0,100488.0,0.033702006056256784,-0.06588987048771723,0.03671335928155907,-0.018298891506483107,0.005200751640894436
134,134,100783.86997979558,4904.942045718884,12.855738648024728,100906.39728720114,-5118.732632276917,20.383723149685448,100939.65229889438,47351.72047140609,13.060135236491025,101001.54796540084,-912.5298002307982,5.927695017150428,101163.82643404804,16656.03263261743,36.357509350196615,0.9731800683639622,109.0,78.0,154.0,178.0,332.0,31.0,720.0,719.0,31.0,15.0,16.0,0.4838709677419355,163.79899648046575,4983.95843813952,70.0,65.0,5.0,0.9285714285714286,571.4895598261667,3607.582793008967,30.0,15.0,15.0,0.5,1679.6224070294884,47037.54066822525,40.0,9.0,31.0,0.225,76.252414044488,1697.093471085605,92.0,46.0,46.0,0.5,79.63986709272007,16943.572246412805,0.0,0.0,0.0,0.0,100769.0,100800.0,100878.0,100911.0,100925.0,100955.0,100993.0,101032.0,101119.0,101210.0,0.03339468539152919,-0.11164669086690633,0.035471201263822055,-0.08356156042816591,0.004781442787087346
135,135,101493.1429150459,5833.202956612643,16.394442402391054,101617.972626301,-4663.789872909989,16.19265957740474,101650.64888877491,46569.108064942,12.573750375517296,101716.27293177736,-533.2443025832512,5.750925638245332,101873.02140513444,17492.306906517144,37.23877299265162,0.9727415156927112,124.0,87.0,125.0,195.0,320.0,37.0,710.0,711.0,37.0,17.0,20.0,0.4594594594594595,161.33254268105455,6287.21652123693,26.0,21.0,5.0,0.8076923076923077,607.3306225607564,4627.848061941279,28.0,14.0,14.0,0.5,1736.770396402359,46796.25539228853,20.0,10.0,10.0,0.5,62.86786924613712,1022.1170495720046,93.0,46.0,47.0,0.4946236559139785,92.1830667575024,18045.36301647654,0.0,0.0,0.0,0.0,101476.0,101513.0,101600.0,101622.0,101637.0,101665.0,101706.0,101725.0,101828.0,101920.0,0.02765762547283985,-0.1302225527115805,0.037294474138958845,-0.11789693568516292,0.005269920499917456
136,136,102174.5013840403,3059.781829781024,8.128808117430383,102290.32873009844,-7522.564523514273,28.027619409504627,102329.8264898407,44775.23236013982,10.692369510909286,102397.52059170186,-3988.791100397551,33.12355021123273,102554.20030554502,13616.58016717751,28.842424508259036,0.9211324256027336,51.0,28.0,240.0,140.0,380.0,23.0,681.0,680.0,23.0,12.0,11.0,0.5217391304347826,144.37961549739757,2875.564141498419,94.0,78.0,16.0,0.8297872340425532,174.46771778722962,6398.06575103045,25.0,12.0,13.0,0.48,1856.9207193855489,42088.00906016184,76.0,19.0,57.0,0.25,65.69290881653527,4667.124643138683,79.0,39.0,40.0,0.4936708860759494,76.71466165182731,13475.235596735853,0.0,0.0,0.0,0.0,102163.0,102186.0,102214.0,102306.0,102318.0,102343.0,102379.0,102454.0,102516.0,102594.0,0.04718624514079496,-0.02319258508742236,0.04147205098680029,-0.01646937810555881,0.005633915469961132
137,137,0.0,0.0,0.0,0.0,0.0,0.0,0.0,0.0,0.0,0.0,0.0,0.0,0.0,0.0,0.0,0.0,0.0,0.0,0.0,0.0,0.0,0.0,0.0,0.0,0.0,0.0,0.0,0.0,0.0,0.0,0.0,0.0,0.0,0.0,0.0,0.0,0.0,0.0,0.0,0.0,0.0,0.0,0.0,0.0,0.0,0.0,0.0,0.0,0.0,0.0,0.0,0.0,0.0,0.0,0.0,0.0,0.0,0.0,,102602.0,102856.0,102967.0,102977.0,103001.0,103014.0,103137.0,103184.0,103246.0,,,,,
138,138,0.0,0.0,0.0,0.0,0.0,0.0,0.0,0.0,0.0,0.0,0.0,0.0,0.0,0.0,0.0,0.0,0.0,0.0,0.0,0.0,0.0,0.0,0.0,0.0,0.0,0.0,0.0,0.0,0.0,0.0,0.0,0.0,0.0,0.0,0.0,0.0,0.0,0.0,0.0,0.0,0.0,0.0,0.0,0.0,0.0,0.0,0.0,0.0,0.0,0.0,0.0,0.0,0.0,0.0,0.0,0.0,0.0,0.0,,103263.0,103523.0,103632.0,103643.0,103669.0,103697.0,103798.0,103849.0,103914.0,,,,,
139,139,104189.65893744623,4616.534059545856,11.10175989897423,104311.69377824616,-5358.060064562976,22.93168860777651,104347.35072705724,46426.69061041456,12.72408593167304,104413.24660900142,-1764.0504023378996,9.764311052248193,104570.10420714044,15861.231631601211,34.33151677315549,0.961465028937804,66.0,36.0,205.0,168.0,373.0,30.0,2015.0,2017.0,30.0,15.0,15.0,0.5,163.36729682042812,4476.507358901401,80.0,72.0,8.0,0.9,434.2185904903614,812.0267868164224,29.0,14.0,15.0,0.4827586206896552,1686.015807813213,47413.85249968759,48.0,14.0,34.0,0.2916666666666667,43.90644503443579,1883.492596032936,88.0,43.0,45.0,0.4886363636363636,81.65822436803538,16070.14323113629,0.0,0.0,0.0,0.0,104175.0,104205.0,104241.0,104320.0,104333.0,104362.0,104399.0,104446.0,104528.0,104614.0,0.03538743453709061,-0.08104026182203278,0.036315657774560424,-0.02488956379945068,0.005148290262992136
140,140,104920.42204744637,5438.713869016981,16.58239533179011,105043.39728720114,-4760.421208200096,20.383723206912453,105076.30143312842,46812.13393137154,12.78611728347319,105139.972626301,-1355.586183028949,6.687913265912077,105300.763151104,17107.00851657072,36.033337576299765,0.9731081774047936,115.0,77.0,145.0,183.0,328.0,38.0,730.0,729.0,38.0,17.0,21.0,0.4473684210526316,146.54486923336464,5782.948686936424,37.0,32.0,5.0,0.8648648648648649,564.317030918779,3843.553481895384,29.0,14.0,15.0,0.4827586206896552,1716.0625201460164,48029.64572556312,34.0,10.0,24.0,0.2941176470588235,82.24485686099113,1944.492315059999,92.0,46.0,46.0,0.5,89.5257707499677,17546.769772854383,0.0,0.0,0.0,0.0,104903.0,104941.0,105018.0,105048.0,105062.0,105091.0,105130.0,105163.0,105256.0,105346.0,0.026944765391721526,-0.11854350828172744,0.03665849804373013,-0.06067106458493223,0.005233280305159635
141,141,105635.00105547278,5167.376223759666,12.52540668645771,105754.27185506624,-4327.039154826859,22.93168860777651,105789.97850093132,45974.7720229344,11.25835925393487,105856.39728720114,-1422.5823521525208,8.020268285210292,106012.34527348576,16843.142510728692,36.538147929914366,0.9738098123486068,115.0,84.0,145.0,178.0,323.0,31.0,715.0,714.0,31.0,15.0,16.0,0.4838709677419355,171.23959111837783,5204.575107322882,31.0,21.0,10.0,0.6774193548387096,341.4553152536516,1129.5626609192138,27.0,13.0,14.0,0.4814814814814814,1817.2185820689235,45614.36366732677,35.0,11.0,24.0,0.3142857142857143,68.96170699067224,1930.474171858245,92.0,45.0,47.0,0.4891304347826087,81.79761278680483,17181.470315300034,0.0,0.0,0.0,0.0,105620.0,105651.0,105735.0,105764.0,105777.0,105804.0,105845.0,105880.0,105968.0,106058.0,0.033138595624413,-0.07891200033925148,0.03952642943313365,-0.048476425204014184,0.004856434168071763
142,142,0.0,0.0,0.0,0.0,0.0,0.0,0.0,0.0,0.0,0.0,0.0,0.0,0.0,0.0,0.0,0.0,0.0,0.0,0.0,0.0,0.0,0.0,0.0,0.0,0.0,0.0,0.0,0.0,0.0,0.0,0.0,0.0,0.0,0.0,0.0,0.0,0.0,0.0,0.0,0.0,0.0,0.0,0.0,0.0,0.0,0.0,0.0,0.0,0.0,0.0,0.0,0.0,0.0,0.0,0.0,0.0,0.0,0.0,,106750.0,107012.0,107115.0,107127.0,107153.0,107185.0,107273.0,107329.0,107400.0,,,,,
143,143,107675.87131643528,4272.486891560113,10.095215529652696,107792.17805190977,-5732.126760306765,22.93168860777651,107832.340752174,44467.94069688876,12.317395304025911,107899.09593080172,-3301.288868061854,13.50942913018158,108057.0538605962,15153.401996310256,31.7538829975217,0.9590117796209434,60.0,32.0,219.0,158.0,377.0,28.0,2041.0,2042.0,28.0,14.0,14.0,0.5,167.94213369095476,4180.167522078807,86.0,73.0,13.0,0.8488372093023255,225.721875805587,3810.2942455219945,29.0,14.0,15.0,0.4827586206896552,1653.4414945204646,45441.13286307787,60.0,17.0,43.0,0.2833333333333333,50.06712530785866,3180.1027786310656,84.0,42.0,42.0,0.5,76.99998025645594,15109.326626383456,0.0,0.0,0.0,0.0,107662.0,107690.0,107722.0,107805.0,107818.0,107847.0,107882.0,107941.0,108016.0,108099.0,0.039307817192536815,-0.03937838174979701,0.03718277636895718,-0.015165932854961721,0.005081365905504578
144,144,108370.66914710292,5219.248564494327,12.962021209711194,108494.82192228876,-5472.422549954709,22.931688570753,108527.97048702964,45933.9494258313,12.886420754493072,108594.24660796208,-1458.86451647499,9.259655428295764,108750.43532386876,16413.507887075277,35.064304059881266,0.957113718858904,85.0,53.0,174.0,181.0,355.0,32.0,695.0,696.0,32.0,16.0,16.0,0.5,166.79705413745822,5245.812722440436,67.0,62.0,5.0,0.9253731343283582,587.7267240058977,3488.2741337796833,29.0,14.0,15.0,0.4827586206896552,1642.6452819734764,45938.477555986145,35.0,14.0,21.0,0.4,55.64649093168303,1619.6791578281427,90.0,44.0,46.0,0.4888888888888889,80.87361191241975,16683.020908390474,0.0,0.0,0.0,0.0,108355.0,108387.0,108440.0,108500.0,108514.0,108543.0,108580.0,108614.0,108706.0,108795.0,0.031958059110683217,-0.10739790625465533,0.03576102866194481,-0.038143700325332444,0.004927259454153808
145,145,109065.73137848072,4767.066333629611,11.942826170873394,109182.17805189872,-5331.609889622528,22.93168860777651,109221.61309696994,44667.51098478213,11.875287256726414,109289.24660900142,-1872.4188508437885,9.797728112933791,109444.29644766924,16497.739282513976,35.66208050470021,0.9647540927699088,76.0,45.0,188.0,175.0,363.0,31.0,695.0,693.0,31.0,15.0,16.0,0.4838709677419355,154.3632339287366,4685.178588805503,76.0,63.0,13.0,0.8289473684210527,222.35114167529056,3463.21457995106,28.0,14.0,14.0,0.5,1687.249214635237,43790.51291728005,41.0,14.0,27.0,0.3414634146341463,50.10738887985911,1905.371641749458,92.0,45.0,47.0,0.4891304347826087,84.01854908401819,16743.311781145378,0.0,0.0,0.0,0.0,109051.0,109082.0,109127.0,109195.0,109208.0,109236.0,109275.0,109315.0,109400.0,109490.0,0.03238118019037623,-0.04170431563420946,0.03777352212909445,-0.02676077997039961,0.005092731049100152
146,146,0.0,0.0,0.0,0.0,0.0,0.0,0.0,0.0,0.0,0.0,0.0,0.0,0.0,0.0,0.0,0.0,0.0,0.0,0.0,0.0,0.0,0.0,0.0,0.0,0.0,0.0,0.0,0.0,0.0,0.0,0.0,0.0,0.0,0.0,0.0,0.0,0.0,0.0,0.0,0.0,0.0,0.0,0.0,0.0,0.0,0.0,0.0,0.0,0.0,0.0,0.0,0.0,0.0,0.0,0.0,0.0,0.0,0.0,,110828.0,111082.0,111199.0,111209.0,111234.0,111256.0,111375.0,111420.0,111475.0,,,,,
147,147,0.0,0.0,0.0,0.0,0.0,0.0,0.0,0.0,0.0,0.0,0.0,0.0,0.0,0.0,0.0,0.0,0.0,0.0,0.0,0.0,0.0,0.0,0.0,0.0,0.0,0.0,0.0,0.0,0.0,0.0,0.0,0.0,0.0,0.0,0.0,0.0,0.0,0.0,0.0,0.0,0.0,0.0,0.0,0.0,0.0,0.0,0.0,0.0,0.0,0.0,0.0,0.0,0.0,0.0,0.0,0.0,0.0,0.0,,111501.0,111766.0,111868.0,111879.0,111907.0,111938.0,112025.0,112082.0,112154.0,,,,,
148,148,112436.15227295358,5828.450404111838,16.984889237571952,112559.54796540084,-4478.6828689298945,12.445909800570709,112593.15771033414,45299.213827065185,13.15124509868976,112653.85205492243,-101.21255368124268,1.955581323379023,112814.0126628377,16913.71482876458,37.97167684141442,0.9704897406833066,127.0,89.0,112.0,204.0,316.0,38.0,3371.0,3371.0,38.0,18.0,20.0,0.4736842105263157,161.7853080124278,6255.5928540565,21.0,17.0,4.0,0.8095238095238095,609.7185339434963,5339.318061686177,30.0,15.0,15.0,0.5,1638.9383957615096,46803.71274764391,7.0,4.0,3.0,0.5714285714285714,87.1198894536726,1159.6741745641507,94.0,46.0,48.0,0.4893617021276595,93.48957784807008,17578.199339813138,0.0,0.0,0.0,0.0,112418.0,112456.0,112545.0,112563.0,112578.0,112608.0,112650.0,112657.0,112769.0,112861.0,0.027757859601634766,-0.13613791192346203,0.03618028343755236,-0.8607616968943071,0.0055274420075402675
149,149,113148.02885719568,5066.748950098993,13.35690463810989,113265.17805189872,-4937.997635295142,22.93168860777651,113304.41901930748,44748.54429491769,11.232364226156358,113375.67126990156,-2162.433277913388,11.326124700313466,113527.89845307186,16360.81908854759,34.68656275929725,0.9723107107480558,99.0,66.0,176.0,165.0,341.0,33.0,711.0,713.0,33.0,16.0,17.0,0.4848484848484848,154.33404035465483,5183.395630341594,56.0,43.0,13.0,0.7678571428571429,219.53789865882243,3660.62016864803,27.0,13.0,14.0,0.4814814814814814,1765.296546705042,45438.12410907626,47.0,16.0,31.0,0.3404255319148936,44.21996997690529,2115.3178082517197,88.0,43.0,45.0,0.4886363636363636,75.31271866141311,16455.239803479453,0.0,0.0,0.0,0.0,113132.0,113165.0,113231.0,113278.0,113291.0,113318.0,113360.0,113407.0,113485.0,113572.0,0.030460171181688304,-0.04445889100667841,0.03944925079731667,-0.020449171971481488,0.004603236442736003
150,150,0.0,0.0,0.0,0.0,0.0,0.0,0.0,0.0,0.0,0.0,0.0,0.0,0.0,0.0,0.0,0.0,0.0,0.0,0.0,0.0,0.0,0.0,0.0,0.0,0.0,0.0,0.0,0.0,0.0,0.0,0.0,0.0,0.0,0.0,0.0,0.0,0.0,0.0,0.0,0.0,0.0,0.0,0.0,0.0,0.0,0.0,0.0,0.0,0.0,0.0,0.0,0.0,0.0,0.0,0.0,0.0,0.0,0.0,,114291.0,114558.0,114656.0,114667.0,114693.0,114727.0,114806.0,114866.0,114942.0,,,,,
151,151,115219.27539036638,4854.217585510171,12.401777248268116,115336.17805189872,-5920.114534093845,22.93168860777651,115376.19980122952,45907.73726545848,11.958316977619878,115439.82194810128,-2144.097234462043,9.822448383233898,115600.70167699036,16075.87764638151,34.068009294412576,0.9692567071356848,80.0,50.0,191.0,168.0,359.0,30.0,2072.0,2071.0,30.0,14.0,16.0,0.4666666666666667,163.48908195787817,5024.1728132637145,70.0,56.0,14.0,0.8,224.44250443863973,4125.050728056461,28.0,13.0,15.0,0.4642857142857143,1729.3379376121663,46434.13423102207,50.0,13.0,37.0,0.26,70.23554055061041,2438.3894641080005,86.0,43.0,43.0,0.5,83.02385486182496,16290.56333733976,0.0,0.0,0.0,0.0,115205.0,115235.0,115285.0,115349.0,115363.0,115391.0,115427.0,115476.0,115558.0,115644.0,0.03367980093144005,-0.037911851729570255,0.03766985786322648,-0.03275762844227193,0.005164499051814608
152,152,115969.52201142814,4681.714973971167,12.698422301255512,116090.17035370458,-5515.83760991337,22.931688607641288,116124.8926254035,46958.95182463592,12.758785132239815,116192.24660900142,-1579.184819641351,9.792020881505415,116349.65330833584,16442.933498119866,35.72742506196237,0.9679389503948064,69.0,37.0,199.0,173.0,372.0,32.0,750.0,749.0,32.0,16.0,16.0,0.5,155.75837994338755,4622.737985164855,75.0,68.0,7.0,0.9066666666666666,474.6449657292445,1146.8216873151891,29.0,14.0,15.0,0.4827586206896552,1688.7921149442047,46835.724899657616,45.0,15.0,30.0,0.3333333333333333,37.01938606335193,1658.042040226867,91.0,45.0,46.0,0.4945054945054945,85.92300534741322,16813.319755555818,0.0,0.0,0.0,0.0,115954.0,115986.0,116023.0,116097.0,116111.0,116140.0,116178.0,116222.0,116306.0,116395.0,0.03326951358836541,-0.08605129434488538,0.03596315610388517,-0.023442085817263248,0.005225527753745274
153,153,116752.49144977026,5256.024246241829,16.814601024629674,116873.39728720114,-4670.605715720504,13.408906686365016,116906.49586492946,46491.7580092603,12.56514645914984,116971.67548319024,-614.0927696629892,5.514253056696303,117131.63214804592,17024.79069683783,37.749217835733205,0.9720656926450072,123.0,84.0,123.0,198.0,321.0,39.0,782.0,781.0,39.0,18.0,21.0,0.4615384615384615,139.97408757472311,5557.7140908323545,21.0,16.0,5.0,0.7619047619047619,568.904632335976,3749.60659795243,29.0,14.0,15.0,0.4827586206896552,1750.753043439509,48753.996455575194,20.0,10.0,10.0,0.5,62.89099569868975,1041.5300711590191,94.0,47.0,47.0,0.5,86.16104729793466,17618.991839968927,0.0,0.0,0.0,0.0,116734.0,116773.0,116857.0,116878.0,116892.0,116921.0,116962.0,116980.0,117086.0,117178.0,0.026631172349482143,-0.12180532182820204,0.03765727772846945,-0.10241285813087164,0.005060916685098404
154,154,117471.31373616224,3657.1595005505033,10.010266723293451,117586.75339099858,-6078.5885841355375,25.47965400864057,117624.96084312433,44789.31449313722,10.582498642841834,117692.67126990156,-2670.364997121796,20.23158726867524,117849.29307883394,15258.713972202262,32.208368277203384,0.9578885637211124,58.0,31.0,212.0,164.0,376.0,27.0,719.0,719.0,27.0,13.0,14.0,0.4814814814814814,147.36394569293705,3691.96603750154,86.0,72.0,14.0,0.8372093023255814,218.01883405045993,4151.270852040865,25.0,12.0,13.0,0.48,1858.7512719619392,43701.58058964589,52.0,16.0,36.0,0.3076923076923077,71.63260390872595,3265.7688023631863,84.0,41.0,43.0,0.4880952380952381,74.01197113347965,15163.212017712634,0.0,0.0,0.0,0.0,117458.0,117485.0,117516.0,117601.0,117613.0,117638.0,117677.0,117728.0,117808.0,117892.0,0.04029464552222967,-0.03586668698379516,0.04149988212583034,-0.026825023540202872,0.004850472409949607
155,155,0.0,0.0,0.0,0.0,0.0,0.0,0.0,0.0,0.0,0.0,0.0,0.0,0.0,0.0,0.0,0.0,0.0,0.0,0.0,0.0,0.0,0.0,0.0,0.0,0.0,0.0,0.0,0.0,0.0,0.0,0.0,0.0,0.0,0.0,0.0,0.0,0.0,0.0,0.0,0.0,0.0,0.0,0.0,0.0,0.0,0.0,0.0,0.0,0.0,0.0,0.0,0.0,0.0,0.0,0.0,0.0,0.0,0.0,,117909.0,118171.0,118272.0,118283.0,118308.0,118340.0,118428.0,118486.0,118556.0,,,,,
