Unnamed: 0,cycle,p_center,p_height,p_width,q_center,q_height,q_width,r_center,r_height,r_width,s_center,s_height,s_width,t_center,t_height,t_width,r_squared,pr_interval,pr_segment,qrs_duration,st_segment,qt_interval,p_duration,pp_interval,rr_interval,fwhm_p,rise_time_p,decay_time_p,rise_decay_symmetry_p,sharpness_deriv_p,sharpness_diff_p,fwhm_q,rise_time_q,decay_time_q,rise_decay_symmetry_q,sharpness_deriv_q,sharpness_diff_q,fwhm_r,rise_time_r,decay_time_r,rise_decay_symmetry_r,sharpness_deriv_r,sharpness_diff_r,fwhm_s,rise_time_s,decay_time_s,rise_decay_symmetry_s,sharpness_deriv_s,sharpness_diff_s,fwhm_t,rise_time_t,decay_time_t,rise_decay_symmetry_t,sharpness_deriv_t,sharpness_diff_t,Average_Heart_Rate,SDNN,RMSSD,NN50,p_on,p_off,q_on,q_off,r_on,r_off,s_on,s_off,t_on,t_off,sharpness_deriv_p_norm,sharpness_deriv_q_norm,sharpness_deriv_r_norm,sharpness_deriv_s_norm,sharpness_deriv_t_norm
0,0,0.0,0.0,0.0,0.0,0.0,0.0,0.0,0.0,0.0,0.0,0.0,0.0,0.0,0.0,0.0,0.0,0.0,0.0,0.0,0.0,0.0,0.0,0.0,0.0,0.0,0.0,0.0,0.0,0.0,0.0,0.0,0.0,0.0,0.0,0.0,0.0,0.0,0.0,0.0,0.0,0.0,0.0,0.0,0.0,0.0,0.0,0.0,0.0,0.0,0.0,0.0,0.0,0.0,0.0,79.65145417482398,194.1773754087195,284.2960585180331,269.0,,,,,,,,,,,,,,,
1,1,1197.0770933340968,1675.2532031268115,10.628411049653009,1283.0273736992997,-2504.913330478887,17.8357578060484,1318.0116343814143,33313.82262428047,10.340048116530378,1342.6027127988482,-8280.239671095553,20.383723206912453,1553.4262999288114,6533.565251688398,29.053456105079956,0.9847557960493452,88.0,60.0,94.0,225.0,319.0,28.0,,,28.0,14.0,14.0,0.5,62.12041966479574,1646.8376885977136,23.0,13.0,10.0,0.5652173913043478,238.20995073788137,717.2656801307141,24.0,13.0,11.0,0.5416666666666666,1439.781196148244,25880.10653676832,29.0,6.0,23.0,0.2068965517241379,852.044470509933,17626.857704613973,74.0,37.0,37.0,0.5,45.28662624192047,6585.999014585757,0.0,0.0,0.0,0.0,1183.0,1211.0,1271.0,1293.0,1305.0,1329.0,1338.0,1365.0,1517.0,1590.0,0.03708121229008832,-0.09509708293673402,0.04321873272804403,-0.10290094301065075,0.00693138041748608
2,2,1941.2456227424864,1655.3218669479756,8.776635608646801,2027.602712798848,-2939.6508768988715,20.383723206912453,2062.6054930691084,30463.32967472683,10.140907717578749,2089.0858625180736,-7833.625486103523,20.383723206911732,2294.844280649896,6397.683759909041,27.481015661090822,0.980355586326649,69.0,44.0,115.0,217.0,332.0,25.0,744.0,744.0,25.0,12.0,13.0,0.48,73.07092292196349,1590.775578115687,48.0,37.0,11.0,0.7708333333333334,222.3703068776935,1226.588593960172,23.0,13.0,10.0,0.5652173913043478,1363.678445299841,23070.929869565523,31.0,7.0,24.0,0.2258064516129032,684.840159713811,15364.213301928836,71.0,36.0,35.0,0.5070422535211268,42.056962932903694,6350.035623943075,0.0,0.0,0.0,0.0,1929.0,1954.0,1998.0,2039.0,2050.0,2073.0,2082.0,2113.0,2259.0,2330.0,0.044143030054142336,-0.07564514161364591,0.04476458942146381,-0.0874231428255901,0.006573779591365991
3,3,2648.9279049871834,2103.34005660877,13.282326057023049,2736.515406195907,-2419.9836620401816,20.383723206912453,2771.5532823782205,32603.03468862753,10.313711001311146,2795.602712798848,-7881.14453267515,20.383723206912453,3004.412011734939,6474.931160040785,29.4593241267878,0.9890350237600486,90.0,57.0,95.0,222.0,317.0,33.0,709.0,709.0,33.0,16.0,17.0,0.4848484848484848,63.26604826861958,2141.7028463698284,25.0,15.0,10.0,0.6,243.0287257025404,552.6572693737924,23.0,13.0,10.0,0.5652173913043478,1413.6878178537845,24352.38757862804,29.0,5.0,24.0,0.1724137931034483,852.7505721254926,17301.14817976354,73.0,37.0,36.0,0.5068493150684932,46.30472680816256,6596.159764421887,0.0,0.0,0.0,0.0,2633.0,2666.0,2723.0,2747.0,2759.0,2782.0,2791.0,2818.0,2968.0,3040.0,0.03007884914749538,-0.10042577126229588,0.04336062060955638,-0.10820136194559012,0.007151385190614273
4,4,3361.212900580061,1454.9329836079403,9.13639199144042,3447.602712798848,-3059.6239581302325,20.383723206912453,3483.7072166610974,32584.390225845174,10.311217559253617,3508.4826951510404,-8765.81360682387,20.383723206912453,3717.3711280562065,6329.824627156181,27.33081080804555,0.9796189994986224,64.0,38.0,119.0,221.0,340.0,26.0,711.0,712.0,26.0,13.0,13.0,0.5,59.670297146719925,1389.0542426583638,51.0,39.0,12.0,0.7647058823529411,210.60306971413732,1587.9616587856508,23.0,13.0,10.0,0.5652173913043478,1424.0918734490697,24102.83782645384,30.0,5.0,25.0,0.1666666666666666,881.1062853060291,18414.671266281268,71.0,36.0,35.0,0.5070422535211268,48.03503860318012,6330.262856336411,0.0,0.0,0.0,0.0,3348.0,3374.0,3412.0,3459.0,3471.0,3494.0,3503.0,3531.0,3682.0,3752.0,0.041012402508567525,-0.0688329914382155,0.04370472682098907,-0.10051620132786301,0.007588683957704048
5,5,4087.976893017909,1453.123343243862,9.202321359483452,4174.602712798851,-3088.5680006627344,20.38372320690353,4209.836805938509,33116.997851868946,10.404025263448386,4234.178051898738,-8707.878940882747,22.931688607417744,4444.22056952555,6233.562616451217,26.576633246528957,0.977677750745244,63.0,37.0,120.0,220.0,340.0,26.0,727.0,727.0,26.0,13.0,13.0,0.5,58.59579948807684,1371.441947181078,50.0,39.0,11.0,0.78,229.19971950103573,1320.4193528880428,23.0,12.0,11.0,0.5217391304347826,1407.2849933884015,24375.45167434629,31.0,5.0,26.0,0.1612903225806451,891.2607907502795,18709.806223799173,68.0,34.0,34.0,0.5,47.91073427450295,6212.060020473573,0.0,0.0,0.0,0.0,4075.0,4101.0,4138.0,4186.0,4198.0,4221.0,4229.0,4258.0,4410.0,4478.0,0.04032403702033389,-0.07420905722388331,0.04249434081202448,-0.10235107731756425,0.007685931340139269
6,6,4855.082842505527,1451.7070469620178,9.219522468651077,4940.602712798849,-2761.974296985691,20.383723206912453,4976.560302064053,33406.69327742983,10.326230053952893,5001.178051898705,-8244.97997195307,22.931688607776195,5211.844711425852,6343.219856310625,27.5922771720202,0.979566260845804,74.0,48.0,108.0,222.0,330.0,26.0,767.0,766.0,26.0,13.0,13.0,0.5,60.21307817451704,1385.4322265554197,44.0,33.0,11.0,0.75,210.3144158875971,1459.0566061015245,24.0,13.0,11.0,0.5416666666666666,1427.3202527286448,24537.870741624876,30.0,5.0,25.0,0.1666666666666666,886.0871344424572,18363.732125098584,71.0,36.0,35.0,0.5070422535211268,47.59730527335696,6338.0623313704855,0.0,0.0,0.0,0.0,4842.0,4868.0,4916.0,4952.0,4964.0,4987.0,4996.0,5024.0,5176.0,5246.0,0.04147743051914278,-0.07614640589419167,0.04272557720320581,-0.10746989531286406,0.007503650567306797
7,7,5626.66401821094,1447.679495131438,8.595930153050448,5712.602712798849,-2805.5667767273458,20.383723206912453,5748.460502016122,33491.7188457917,10.33012437698516,5773.178051898705,-8331.64324654603,22.93168860777651,5983.39280454719,6333.233778338409,27.324781168033507,0.9798183757542464,79.0,55.0,102.0,222.0,324.0,24.0,772.0,772.0,24.0,12.0,12.0,0.5,66.25337979068723,1332.0485775027266,46.0,35.0,11.0,0.7608695652173914,216.57956923482544,1482.5286262941609,23.0,12.0,11.0,0.5217391304347826,1419.268846126703,26262.886094137557,30.0,5.0,25.0,0.1666666666666666,879.9339544911815,18367.599254022727,70.0,35.0,35.0,0.5,46.74212855693416,6339.434985035798,0.0,0.0,0.0,0.0,5615.0,5639.0,5694.0,5724.0,5736.0,5759.0,5768.0,5796.0,5948.0,6018.0,0.045765226359493295,-0.07719636938653175,0.042376709677444245,-0.10561349405544547,0.007380452102811442
8,8,6389.714503611896,1431.274908936944,8.269587973962029,6475.602712799032,-2937.863041872878,20.38372320682305,6510.699255021751,32529.579984451742,10.348643396777971,6535.178051905596,-8250.85147887086,22.93168860662919,6744.436844105308,6404.454706048236,27.76120521506179,0.9778548825262466,59.0,35.0,123.0,220.0,343.0,24.0,762.0,762.0,24.0,12.0,12.0,0.5,67.33002885535963,1319.8316206177496,52.0,41.0,11.0,0.7884615384615384,225.67693504002892,1212.5501517411108,24.0,13.0,11.0,0.5416666666666666,1395.1244741163578,24011.31867039462,32.0,5.0,27.0,0.15625,848.691033278177,17922.185775542013,71.0,35.0,36.0,0.4929577464788732,43.01921071449851,6372.172539879536,0.0,0.0,0.0,0.0,6378.0,6402.0,6437.0,6487.0,6498.0,6522.0,6530.0,6560.0,6709.0,6780.0,0.047041996219557784,-0.07681669697446503,0.04288787235442909,-0.10286102415629975,0.006717076267847136
9,9,7130.823869136669,1998.7874215636589,11.24555458465136,7217.655196367324,-2242.749881451118,17.835757806048296,7251.539837943649,31655.677653958588,10.273892485753176,7275.602712798849,-7377.539514471285,20.383723206910368,7483.663283396622,6920.790608818309,31.17571597144419,0.9879255351150488,90.0,60.0,93.0,223.0,316.0,30.0,742.0,741.0,30.0,15.0,15.0,0.5,68.6094019564907,1927.4523540676637,22.0,13.0,9.0,0.5909090909090909,268.9659754075928,105.06552580163486,23.0,13.0,10.0,0.5652173913043478,1383.5195120814449,24003.70126299141,30.0,5.0,25.0,0.1666666666666666,815.377037332038,16547.99548324786,77.0,39.0,38.0,0.5064935064935064,43.50434846276682,7029.359236481303,0.0,0.0,0.0,0.0,7116.0,7146.0,7206.0,7227.0,7239.0,7262.0,7271.0,7299.0,7445.0,7522.0,0.034325512166179885,-0.11992687086157139,0.0437052565168648,-0.11052154119034527,0.006286037379506122
10,10,7872.348928778564,968.5374746376626,6.630843418492474,7957.602712798849,-3492.795399404329,20.383723206912453,7993.3719931873,32434.479182581195,10.23899560045665,8019.856719115845,-8600.323930539464,20.383723206912453,8228.298310705846,6076.151304641649,25.96274023654467,0.9714521487903708,55.0,35.0,125.0,220.0,345.0,20.0,742.0,742.0,20.0,10.0,10.0,0.5,60.116284782268515,915.0158301382024,53.0,42.0,11.0,0.7924528301886793,217.17647183269236,1694.1104685839043,23.0,12.0,11.0,0.5217391304347826,1429.1806696819808,25806.062445108644,29.0,7.0,22.0,0.2413793103448276,743.2711896605865,16468.344721326226,68.0,34.0,34.0,0.5,47.432497903118744,6032.038704162307,0.0,0.0,0.0,0.0,7862.0,7882.0,7917.0,7969.0,7981.0,8004.0,8013.0,8042.0,8194.0,8262.0,0.06206913656568475,-0.062178412130790776,0.044063623209017536,-0.08642362725678916,0.007806339165202232
11,11,8636.119300932049,942.940216398382,6.837870196432329,8722.178051898705,-2694.6214655096323,22.931688607776472,8758.917136364245,33837.44539092122,10.387090852604675,8783.178051898705,-8339.02922757028,22.931688607776117,8994.265535074677,6267.426435456144,26.447525238562175,0.9757974225190222,68.0,48.0,112.0,222.0,334.0,20.0,763.0,766.0,20.0,10.0,10.0,0.5,57.23245213912533,899.2160759873609,51.0,38.0,13.0,0.7450980392156863,173.9124970866971,1905.7700230753037,24.0,13.0,11.0,0.5416666666666666,1423.8202190386007,25325.557369494523,30.0,5.0,25.0,0.1666666666666666,916.3446918499296,18663.713257813994,69.0,35.0,34.0,0.5072463768115942,46.79321547922406,6236.193397939989,0.0,0.0,0.0,0.0,8626.0,8646.0,8694.0,8735.0,8746.0,8770.0,8778.0,8806.0,8960.0,9028.0,0.06069573780374772,-0.06454060405616383,0.0420782420950909,-0.10988625496362753,0.007466097282690873
12,12,9414.91931985758,1011.207525869072,7.395723447581568,9503.027373698991,-2862.9353747002738,17.8357578060484,9537.989120603654,32939.74815881625,10.368971627897988,9562.60271279885,-8421.557308966714,20.38372320691245,9773.130386949624,6653.764051955026,28.28538163674904,0.981891104694345,85.0,63.0,96.0,223.0,319.0,22.0,779.0,779.0,22.0,11.0,11.0,0.5,55.43626982408554,982.9100673119848,27.0,17.0,10.0,0.6296296296296297,240.28839695373227,977.7708623392778,24.0,13.0,11.0,0.5416666666666666,1425.5567031429014,25410.55239861154,29.0,6.0,23.0,0.2068965517241379,843.4340369445861,17608.419738734006,71.0,36.0,35.0,0.5070422535211268,49.29574296191452,6676.948838174774,0.0,0.0,0.0,0.0,9404.0,9426.0,9489.0,9513.0,9525.0,9549.0,9558.0,9585.0,9737.0,9808.0,0.054821852494067826,-0.08393077925445262,0.043277704986379936,-0.10015178974636361,0.007408700184887127
13,13,10188.32657311663,769.6349312479991,6.107564232736839,10274.60271279962,-2716.8195900653645,20.38372320614404,10310.586075985662,33214.60645930334,10.375218345238745,10334.602712799608,-8612.142640779322,20.38372320151353,10546.145376677956,6603.482538581705,27.882584428021097,0.979148267363439,82.0,63.0,96.0,224.0,320.0,19.0,773.0,772.0,19.0,9.0,10.0,0.4736842105263157,54.06861294995353,743.2891765900401,50.0,39.0,11.0,0.78,216.1519535834976,1219.2028802027014,23.0,13.0,10.0,0.5652173913043478,1433.7691051140332,24412.809414334115,29.0,5.0,24.0,0.1724137931034483,878.1152917704577,18140.074321941374,71.0,36.0,35.0,0.5070422535211268,46.06756878206155,6585.2945138306695,0.0,0.0,0.0,0.0,10179.0,10198.0,10261.0,10286.0,10298.0,10321.0,10330.0,10357.0,10510.0,10581.0,0.07025228553787019,-0.07956065775361151,0.043166825019311274,-0.10196246490536484,0.006976253592389439
14,14,10971.65434825973,913.1849878767832,6.845916063086909,11058.027373698991,-2644.8672883274426,17.8357578060484,11092.71420338826,33585.25547803017,10.326188168897614,11117.178051898703,-8231.992017866087,22.93168860777651,11328.237114900594,6645.252172712811,28.11795036444658,0.980388023211019,83.0,62.0,96.0,223.0,319.0,21.0,783.0,782.0,21.0,11.0,10.0,0.5238095238095238,54.75236196141387,832.7703552054177,26.0,16.0,10.0,0.6153846153846154,240.52831652506785,922.650331709054,24.0,13.0,11.0,0.5416666666666666,1435.6814022281974,25128.907132129432,30.0,5.0,25.0,0.1666666666666666,902.0064837165712,18538.354222163864,72.0,36.0,36.0,0.5,41.898188209121415,6603.681560736504,0.0,0.0,0.0,0.0,10961.0,10982.0,11044.0,11068.0,11080.0,11104.0,11112.0,11140.0,11292.0,11363.0,0.05995757999561163,-0.0909415446236521,0.04274737177948072,-0.10957329425963062,0.006304980927761721
15,15,11715.612028922267,1008.2381773486902,6.130874208607069,11802.60271279885,-3336.838497899113,20.383723206912453,11837.71557359799,31767.76352899978,10.22921923010319,11864.4035597169,-8378.00209490442,22.93168860777651,12071.784585162372,6388.606134468551,26.88227201208568,0.9724669397378166,53.0,34.0,130.0,217.0,347.0,19.0,744.0,745.0,19.0,10.0,9.0,0.5263157894736842,69.56562103195287,918.594828218999,57.0,46.0,11.0,0.8070175438596491,222.40884374030873,1614.11436076731,22.0,12.0,10.0,0.5454545454545454,1389.7391673269124,23648.63593167619,32.0,7.0,25.0,0.21875,725.9926727468245,16618.810520192117,69.0,35.0,34.0,0.5072463768115942,45.917062680958374,6335.170668787865,0.0,0.0,0.0,0.0,11706.0,11725.0,11759.0,11814.0,11826.0,11848.0,11857.0,11889.0,12037.0,12106.0,0.06899720978121048,-0.06665256465973353,0.04374683682275158,-0.08665463012815193,0.007187336598075955
16,16,12423.871446447898,1586.6290797980798,10.009641278420592,12509.602712800355,-2669.7129076553833,20.383723206912453,12545.424947721613,30942.979926987577,10.236075776404151,12570.88026814457,-7859.981531158011,20.383723206912453,12777.699227161118,6800.775477440895,28.808704079490433,0.9849399921140092,87.0,59.0,98.0,218.0,316.0,28.0,708.0,708.0,28.0,14.0,14.0,0.5,61.18303322123121,1514.0111935435148,28.0,17.0,11.0,0.6071428571428571,205.2125281790319,1347.685678401855,23.0,12.0,11.0,0.5217391304347826,1356.0256294032192,24754.235547461045,31.0,6.0,25.0,0.1935483870967742,734.5832463993776,16045.499315169009,72.0,37.0,35.0,0.5138888888888888,45.79037988491676,6808.369042439306,0.0,0.0,0.0,0.0,12410.0,12438.0,12497.0,12521.0,12533.0,12556.0,12565.0,12595.0,12741.0,12813.0,0.03856164871818534,-0.07686688991561091,0.04382336906797179,-0.09345864789724911,0.0067331115454126855
17,17,13101.00296333324,1584.8246681424932,10.06762372164424,13187.60271279885,-2949.995340644341,20.383723206912453,13223.462554982763,32836.199825255484,10.354863361913,13247.602872033252,-8626.899654625651,20.383723206912453,13456.40163888008,6391.9213532327,27.239311432005778,0.9828964212118432,67.0,40.0,116.0,219.0,335.0,27.0,679.0,678.0,27.0,13.0,14.0,0.4814814814814814,60.98983510738841,1523.6348178454782,47.0,36.0,11.0,0.7659574468085106,219.4322860192933,1374.1732631414338,23.0,12.0,11.0,0.5217391304347826,1414.05614484706,25717.015188119694,29.0,5.0,24.0,0.1724137931034483,861.353950085521,17946.255896108763,69.0,35.0,34.0,0.5072463768115942,46.890832771299515,6382.09781557586,0.0,0.0,0.0,0.0,13088.0,13115.0,13155.0,13199.0,13211.0,13234.0,13243.0,13271.0,13421.0,13490.0,0.03848364827566197,-0.07438394325442041,0.04306394017493643,-0.0998451337756864,0.0073359527096785344
18,18,13801.466188105387,1438.1207348453345,8.837033623234554,13888.60271279885,-3226.710910171826,20.383723206911775,13924.173016065415,33990.34689883769,10.4021762438672,13948.178051899094,-8980.98897600926,22.931688607474687,14158.2520177968,6538.212318892537,26.91008363232819,0.9773230933258344,62.0,37.0,121.0,220.0,341.0,25.0,699.0,701.0,25.0,12.0,13.0,0.48,61.52391485480877,1389.1959571279965,51.0,40.0,11.0,0.7843137254901961,228.6154299487553,1646.6104117175662,23.0,12.0,11.0,0.5217391304347826,1437.5166739111553,25524.539861739984,31.0,5.0,26.0,0.1612903225806451,939.1779701642104,19443.37380306355,69.0,35.0,34.0,0.5072463768115942,49.53438623681034,6514.361488665242,0.0,0.0,0.0,0.0,13789.0,13814.0,13851.0,13900.0,13912.0,13935.0,13943.0,13972.0,14123.0,14192.0,0.04278077171415339,-0.07085091795117811,0.042291909470341754,-0.10457400322759756,0.007576136078309649
19,19,14550.36357772586,1104.1354842433736,7.148806359301583,14637.60271279885,-3168.4914226433443,20.383723206912453,14673.014069747618,33807.84583086649,10.423814323831577,14697.178051898703,-8909.459974346095,22.93168860777651,14907.710994652542,6289.801932114791,26.46059276058626,0.9744298890238614,58.0,37.0,122.0,221.0,343.0,21.0,749.0,749.0,21.0,10.0,11.0,0.4761904761904761,62.284678940772686,1041.137364331199,52.0,41.0,11.0,0.7884615384615384,230.14748836863816,1456.9402080137688,23.0,12.0,11.0,0.5217391304347826,1428.921447380373,25165.03723624093,31.0,5.0,26.0,0.1612903225806451,926.709622152146,19236.838846967177,69.0,35.0,34.0,0.5072463768115942,47.27116751712662,6231.554436193153,0.0,0.0,0.0,0.0,14540.0,14561.0,14598.0,14649.0,14661.0,14684.0,14692.0,14720.0,14873.0,14941.0,0.05641035890034297,-0.0726362983733866,0.042265971470911365,-0.10401411811944992,0.0075155256123037965
20,20,15364.318810390512,986.6513082204652,7.31707518500068,15449.60271279885,-2462.734804291948,20.383723206912453,15485.718918486911,33778.7864320903,10.327618373053165,15510.178051898703,-8049.8382084274,21.72892420653886,15722.198142013836,6589.8682359837585,28.93254486245186,0.9836929795362264,83.0,62.0,95.0,226.0,321.0,21.0,814.0,812.0,21.0,10.0,11.0,0.4761904761904761,55.02174391574,951.0053296323596,26.0,15.0,11.0,0.5769230769230769,211.52239838449532,1158.821554426226,24.0,13.0,11.0,0.5416666666666666,1442.3751364583811,25506.820843098696,29.0,5.0,24.0,0.1724137931034483,909.7428128303688,18347.347306932978,73.0,37.0,36.0,0.5068493150684932,47.048088635970515,6623.044130985079,0.0,0.0,0.0,0.0,15354.0,15375.0,15437.0,15461.0,15473.0,15497.0,15505.0,15532.0,15686.0,15758.0,0.05576614905115546,-0.08588923095408535,0.04270062038368866,-0.11301380093303694,0.007139458172936748
21,21,16174.054357568986,1101.7253800624967,7.657063520359062,16259.60271279885,-2480.8693013865854,20.383723206912453,16295.465148311889,33528.7389118282,10.30508738634179,16320.178051898703,-8027.803475273208,21.686608145571437,16530.952897929656,6690.3695564067275,28.37364815237952,0.9839297343177964,84.0,62.0,94.0,225.0,319.0,22.0,810.0,810.0,22.0,11.0,11.0,0.5,58.2340255423909,1056.645341018965,27.0,16.0,11.0,0.5925925925925926,216.6446018318993,1058.3012795843122,23.0,12.0,11.0,0.5217391304347826,1426.8554128223354,26738.909058798727,28.0,5.0,23.0,0.1785714285714285,890.3526248398325,18151.04843785409,72.0,36.0,36.0,0.5,48.00164008200679,6710.549456415538,0.0,0.0,0.0,0.0,16163.0,16185.0,16247.0,16271.0,16283.0,16306.0,16315.0,16341.0,16495.0,16566.0,0.052857115390304896,-0.087326084332945,0.04255619087179483,-0.11090862246220239,0.007174736713316561
22,22,16944.7418103332,1185.4888191584118,7.4553075804271725,17033.027373698995,-2531.099965356082,17.8357578060484,17067.51248154979,32077.652430518137,10.23379192095454,17092.178051898707,-7595.755662112623,22.93168860777651,17302.234512502615,6818.194995081106,29.01517409393332,0.9830471784932496,86.0,65.0,97.0,221.0,318.0,21.0,770.0,772.0,21.0,11.0,10.0,0.5238095238095238,64.48351672686535,1128.2067156766864,26.0,15.0,11.0,0.5769230769230769,231.99689937451288,902.7536365009084,23.0,13.0,10.0,0.5652173913043478,1392.2792977467377,23916.35098672044,31.0,5.0,26.0,0.1612903225806451,825.1984573296601,17198.839487500103,73.0,37.0,36.0,0.5068493150684932,46.7585093089035,6882.5031711715565,0.0,0.0,0.0,0.0,16934.0,16955.0,17020.0,17043.0,17055.0,17078.0,17087.0,17117.0,17266.0,17338.0,0.054394031967878634,-0.09165852892020206,0.043403403686179565,-0.10863941575236846,0.006857901444977269
23,23,17690.740210959204,1469.7557062911142,9.621589998333798,17778.63802556498,-2279.1118925168944,20.383723206912293,17812.637476092583,32484.111908425955,10.332108834474036,17836.602712798853,-7646.50527015963,20.383723206912453,18046.712130063348,6746.148603789903,29.525867076973253,0.9881522818139892,88.0,62.0,94.0,223.0,317.0,26.0,746.0,745.0,26.0,13.0,13.0,0.5,60.04003144214866,1403.3192617035145,22.0,13.0,9.0,0.5909090909090909,273.621283405133,34.6730413217133,24.0,13.0,11.0,0.5416666666666666,1404.7809647918486,24592.56198754108,30.0,5.0,25.0,0.1666666666666666,841.7106785178638,17022.353988669012,74.0,38.0,36.0,0.5135135135135135,47.04080359933302,6842.193760739487,0.0,0.0,0.0,0.0,17678.0,17704.0,17766.0,17788.0,17800.0,17824.0,17832.0,17860.0,18010.0,18083.0,0.04085034756807166,-0.12005609917772159,0.043245170708436906,-0.11007782624601423,0.0069729865679072165
24,24,18416.470700348986,1164.1135283950512,7.667031354942332,18503.602712798853,-2601.85104474731,20.383723206912453,18539.762731537336,33600.37008831379,10.308541897914845,18564.178051898707,-8452.064051523552,22.93168860777635,18774.857751765172,6616.156374295974,27.740731647290044,0.982110296142061,83.0,60.0,99.0,222.0,321.0,23.0,726.0,727.0,23.0,11.0,12.0,0.4782608695652174,61.07676787976256,1156.3902166218063,50.0,38.0,12.0,0.76,202.77160125201397,1410.6947647532795,24.0,13.0,11.0,0.5416666666666666,1433.7019397255826,24869.287093605584,30.0,5.0,25.0,0.1666666666666666,903.935461283994,18748.971173739326,70.0,36.0,34.0,0.5142857142857142,50.423807442824334,6656.529878561712,0.0,0.0,0.0,0.0,18405.0,18428.0,18488.0,18515.0,18527.0,18551.0,18559.0,18587.0,18740.0,18809.0,0.05246633287044464,-0.07793359333977823,0.042669230605415984,-0.10694848687535116,0.007621314338748521
25,25,19146.280149353464,1215.4282480832765,7.50853371245864,19235.027373698995,-2960.6119867744715,17.8357578060484,19269.472527159174,33219.33390909365,10.343741378699846,19294.178051898707,-8450.337996096674,22.93168860777651,19504.873767644363,6616.332242953278,28.041354148518835,0.981218829709117,66.0,44.0,116.0,223.0,339.0,22.0,730.0,730.0,22.0,11.0,11.0,0.5,65.61053959626764,1193.1005938729727,46.0,36.0,10.0,0.782608695652174,244.27505603881613,995.7356492198678,23.0,12.0,11.0,0.5217391304347826,1415.5885271926652,26085.38499876279,30.0,5.0,25.0,0.1666666666666666,876.8651255802729,18464.01957924824,71.0,36.0,35.0,0.5070422535211268,48.15422174197359,6630.531279560117,0.0,0.0,0.0,0.0,19135.0,19157.0,19201.0,19245.0,19257.0,19280.0,19289.0,19317.0,19469.0,19540.0,0.053981417413767614,-0.08250829799042629,0.042613392883388126,-0.10376687015185769,0.007278083985770247
26,26,19888.438429941925,1134.576894740477,7.721293308474684,19975.602712798853,-2705.966798774343,20.383723206912453,20011.445351357444,33282.13235857166,10.309243163667844,20036.178051898707,-8316.57663362866,22.93168860777651,20246.60392730948,6615.822653147418,27.57994311234361,0.9816425135615802,77.0,54.0,105.0,222.0,327.0,23.0,742.0,742.0,23.0,11.0,12.0,0.4782608695652174,59.20769933064027,1126.3001049904124,49.0,38.0,11.0,0.7755102040816326,210.8151582851447,1364.2392156209517,23.0,12.0,11.0,0.5217391304347826,1412.9267201776029,26029.733403290513,29.0,5.0,24.0,0.1724137931034483,874.3040805327124,18355.237506151017,70.0,36.0,34.0,0.5142857142857142,50.657632347698474,6621.811629194967,0.0,0.0,0.0,0.0,19877.0,19900.0,19954.0,19987.0,19999.0,20022.0,20031.0,20059.0,20211.0,20281.0,0.052184827317661386,-0.0779075184442886,0.04245301067116603,-0.10512788122427714,0.007657042064692977
27,27,20648.26187686239,892.6433414869315,6.3020988124730835,20734.602712798853,-2766.9503888728536,20.383723206912453,20769.994553013257,33461.71537140393,10.345764534654412,20794.178051898707,-8508.664239133013,22.93168860777651,21005.951957072222,6648.116492059075,27.209827372665327,0.9797249881722484,81.0,62.0,98.0,222.0,320.0,19.0,760.0,759.0,19.0,9.0,10.0,0.4736842105263157,60.099426557455665,866.001442084217,31.0,20.0,11.0,0.6451612903225806,231.66802526189431,1342.0531193780714,23.0,12.0,11.0,0.5217391304347826,1420.791099197385,25111.617772177895,31.0,5.0,26.0,0.1612903225806451,903.9601036299404,18729.482371894486,69.0,35.0,34.0,0.5072463768115942,51.91345776158693,6656.781295765239,0.0,0.0,0.0,0.0,20639.0,20658.0,20720.0,20746.0,20758.0,20781.0,20789.0,20818.0,20971.0,21040.0,0.06732747981668055,-0.08372684461330972,0.04246019916873657,-0.10623995473607371,0.007808746706468757
28,28,21396.35572410446,1272.392254060817,8.055148243490729,21483.602712798853,-2394.799590132191,20.383723206912453,21518.882946563357,32122.626857687337,10.272940638575454,21543.178051898707,-7683.034598013136,22.93168860777651,21752.752716689047,6846.025942729226,28.34629522760344,0.9832234331848316,85.0,62.0,98.0,220.0,318.0,23.0,748.0,749.0,23.0,11.0,12.0,0.4782608695652174,62.57939377022209,1233.5340398280953,27.0,16.0,11.0,0.5925925925925926,215.72733494577065,988.2435242266384,23.0,12.0,11.0,0.5217391304347826,1377.3981961447396,24379.879738981115,32.0,5.0,27.0,0.15625,841.6553201172761,17410.537326538913,72.0,37.0,35.0,0.5138888888888888,44.906279062122664,6854.869125664407,0.0,0.0,0.0,0.0,21385.0,21408.0,21470.0,21495.0,21507.0,21530.0,21538.0,21568.0,21716.0,21788.0,0.04918246992662921,-0.09008158170507398,0.042879376031325765,-0.10954725107380509,0.0065594666800547355
29,29,22124.48317423001,1768.413998644967,11.08688734397474,22212.027373698995,-2258.5601008020503,17.8357578060484,22246.679483753585,32930.68118229726,10.261209924991414,22271.178051898707,-7408.650829596852,22.931688607559423,22481.48725686773,6942.728515173823,29.801830670369338,0.9876767031386324,90.0,61.0,94.0,223.0,317.0,29.0,728.0,727.0,29.0,14.0,15.0,0.4827586206896552,64.33246361580272,1787.2384158461298,23.0,13.0,10.0,0.5652173913043478,237.435122716913,654.9949249473684,24.0,13.0,11.0,0.5416666666666666,1414.5240716030592,25114.57478584233,30.0,5.0,25.0,0.1666666666666666,874.1172831000052,17559.33418722813,73.0,37.0,36.0,0.5068493150684932,47.10926179653264,7045.519644940529,0.0,0.0,0.0,0.0,22110.0,22139.0,22200.0,22222.0,22234.0,22258.0,22266.0,22294.0,22445.0,22517.0,0.036378621558694375,-0.10512676755097022,0.042954594949693094,-0.1179860278484161,0.006785410331625675
30,30,22877.86081760733,903.1222777593582,6.943307774455144,22965.602712798853,-2766.8185980012504,20.383723206912453,23001.68669368502,33649.51852306752,10.296539267412786,23026.178051898707,-8299.815154717944,22.931688607775808,23237.610155322887,6731.157156553284,27.506794089817525,0.979397805481414,67.0,46.0,115.0,223.0,338.0,21.0,753.0,755.0,21.0,11.0,10.0,0.5238095238095238,52.92527655768528,848.14485795857,49.0,37.0,12.0,0.7551020408163265,207.4101460460614,1511.4932879659475,24.0,13.0,11.0,0.5416666666666666,1438.60405804152,24912.11354175605,29.0,5.0,24.0,0.1724137931034483,904.7279374298282,18619.57173459072,70.0,36.0,34.0,0.5142857142857142,54.27492069494219,6763.579275576951,0.0,0.0,0.0,0.0,22867.0,22888.0,22934.0,22977.0,22989.0,23013.0,23021.0,23049.0,23202.0,23272.0,0.058602558990121054,-0.07496340605628952,0.042752589670943544,-0.10900579357066102,0.008063237781055447
31,31,23683.75288658255,1030.2859948563378,7.859286628084699,23768.602712798853,-2312.6434415572026,20.383723206912453,23804.64775530444,33725.533865643876,10.331005969186185,23829.178051898707,-7976.471046186618,22.435332319667705,24041.515395228293,6742.780313784968,28.45402515633982,0.983186859023609,82.0,60.0,96.0,226.0,322.0,22.0,806.0,803.0,22.0,11.0,11.0,0.5,52.99619497289744,955.621397509796,38.0,27.0,11.0,0.7105263157894737,207.1499518370427,968.4977882435176,24.0,13.0,11.0,0.5416666666666666,1434.7284636214013,25267.00115289695,29.0,5.0,24.0,0.1724137931034483,906.636119397496,18331.08378315466,72.0,37.0,35.0,0.5138888888888888,48.73285007278843,6751.87915335285,0.0,0.0,0.0,0.0,23673.0,23695.0,23755.0,23780.0,23792.0,23816.0,23824.0,23851.0,24005.0,24077.0,0.05143833385824796,-0.08957280145942416,0.042541312150523314,-0.113663813752692,0.007227411810104326
32,32,24507.33733650413,1189.9816421072155,8.68386340716458,24592.24329408612,-2423.446796656139,20.383723206912453,24627.92724225921,33438.74453968589,10.339098720318605,24652.602712798853,-8176.837560408667,20.38372320685811,24865.11554960683,6813.526282642741,29.52479439689468,0.9842698124226062,85.0,61.0,94.0,227.0,321.0,24.0,824.0,823.0,24.0,12.0,12.0,0.5,55.463972152816055,1158.9975515245828,25.0,14.0,11.0,0.56,205.82455200011515,1093.201496272442,24.0,13.0,11.0,0.5416666666666666,1437.3262101859968,25781.80225969954,28.0,6.0,22.0,0.2142857142857142,856.4945372049035,17603.98310242336,73.0,37.0,36.0,0.5068493150684932,46.980974190374155,6872.824311874767,0.0,0.0,0.0,0.0,24495.0,24519.0,24580.0,24603.0,24615.0,24639.0,24648.0,24674.0,24828.0,24901.0,0.046609098989628645,-0.08493050158316284,0.042983856899296694,-0.10474642927382516,0.006895251040574514
33,33,25328.997327890454,1030.9096218215614,6.721779875264182,25415.027373698995,-2837.2813220192756,17.8357578060484,25449.498462194984,32894.31419999131,10.35097702388389,25473.783271980206,-8615.059803286265,20.383723206912453,25686.589361095383,6676.331363993136,27.69066567207689,0.9815058318874798,78.0,58.0,101.0,224.0,325.0,20.0,822.0,822.0,20.0,10.0,10.0,0.5,63.31059958245349,967.5118621356714,42.0,32.0,10.0,0.7619047619047619,245.18683103022667,714.8895200263323,23.0,12.0,11.0,0.5217391304347826,1424.697424173915,26100.31769622656,30.0,5.0,25.0,0.1666666666666666,857.1577749841007,17984.602663940423,71.0,36.0,35.0,0.5070422535211268,44.259446145944395,6606.325679114959,0.0,0.0,0.0,0.0,25319.0,25339.0,25397.0,25425.0,25437.0,25460.0,25469.0,25498.0,25651.0,25722.0,0.06141236655700923,-0.08641611571168724,0.04331135817308789,-0.0994952785652321,0.006629306385935984
34,34,26101.984065469205,936.267712408182,6.758442511075271,26186.602712798853,-2478.2432820849067,20.383723206912453,26221.95505591057,32175.551201632286,10.273955075116952,26246.178051898707,-7810.708048208101,22.93168860777651,26457.393855549548,6890.720883168688,28.56424805297107,0.9829302774772788,82.0,62.0,98.0,221.0,319.0,20.0,772.0,773.0,20.0,10.0,10.0,0.5,57.3945115352868,898.8217007402252,27.0,16.0,11.0,0.5925925925925926,217.18304781746227,1160.3003749329032,23.0,12.0,11.0,0.5217391304347826,1378.9736434852855,24434.87846579273,33.0,5.0,28.0,0.1515151515151515,845.9271796477204,17544.603405958915,73.0,37.0,36.0,0.5068493150684932,49.53348896914449,6997.174453535562,0.0,0.0,0.0,0.0,26092.0,26112.0,26174.0,26198.0,26210.0,26233.0,26241.0,26272.0,26421.0,26493.0,0.061301389308472364,-0.0876358868346249,0.04285780948533771,-0.10830352055493732,0.007188433519363012
35,35,26831.29303526692,1213.7587763466097,8.27287929498757,26918.027373698995,-2392.731862920012,17.8357578060484,26952.715604251265,32663.68044120592,10.251974911274692,26977.178051898707,-7206.264271886913,22.70653480064072,27188.345975282264,6827.966836640293,29.111290188600368,0.9868635234065716,86.0,62.0,95.0,224.0,319.0,24.0,730.0,730.0,24.0,12.0,12.0,0.5,58.29265601191944,1188.6859384515935,24.0,14.0,10.0,0.5833333333333334,235.0888911281508,754.4255513589742,24.0,13.0,11.0,0.5416666666666666,1407.1263255666388,25154.99482393536,30.0,5.0,25.0,0.1666666666666666,862.1231559126146,17252.953730247187,72.0,36.0,36.0,0.5,48.38048052086318,6932.971748293512,0.0,0.0,0.0,0.0,26819.0,26843.0,26905.0,26928.0,26940.0,26964.0,26972.0,27000.0,27152.0,27224.0,0.04802655778718997,-0.09825124777719806,0.04307923377157215,-0.1196352400335817,0.007085634959625674
36,36,27550.81395421985,1085.346020103714,7.661917339744829,27637.602712798853,-2894.184630902089,20.383723206828577,27673.332212413243,33110.21573711459,10.355944938377888,27697.602712799795,-8628.922042976794,20.383723205541177,27909.12030269844,6584.94752537487,27.465493946322404,0.981824519961826,60.0,38.0,121.0,222.0,343.0,22.0,720.0,721.0,22.0,11.0,11.0,0.5,56.39621489630159,1022.3987462948952,51.0,40.0,11.0,0.7843137254901961,221.98904978127484,1200.8255217952906,23.0,12.0,11.0,0.5217391304347826,1427.3610018769152,25791.418375813915,30.0,6.0,24.0,0.2,860.8628891746534,18002.578044891743,69.0,35.0,34.0,0.5072463768115942,48.81565941377958,6607.2481835382805,0.0,0.0,0.0,0.0,27540.0,27562.0,27600.0,27649.0,27661.0,27684.0,27693.0,27721.0,27874.0,27943.0,0.05196150706934224,-0.07670175821232353,0.04310938391974681,-0.0997648240286656,0.0074132191981287785
37,37,28272.46244007299,1060.5428412823962,7.333809381016719,28359.60271279886,-3109.224914594198,20.38372320690711,28395.640743933647,33356.980334759646,10.42068234075104,28419.602712799053,-9155.402761562254,20.383723206856,28631.25196001802,6666.616406906257,26.932334271631476,0.977642139084724,57.0,36.0,124.0,222.0,346.0,21.0,721.0,722.0,21.0,10.0,11.0,0.4761904761904761,58.18179588384531,1036.5635710701,54.0,43.0,11.0,0.7962962962962963,211.02542927487227,1400.6146712283462,23.0,13.0,10.0,0.5652173913043478,1441.917721506543,24229.83419404004,29.0,5.0,24.0,0.1724137931034483,887.5652309717203,18660.651010729027,69.0,35.0,34.0,0.5072463768115942,47.271861039390025,6612.671141250609,0.0,0.0,0.0,0.0,28262.0,28283.0,28319.0,28371.0,28383.0,28406.0,28415.0,28443.0,28596.0,28665.0,0.05486039188524676,-0.0678707507727579,0.043226866072286305,-0.09694442222662725,0.007090832613440742
38,38,29011.556639137227,1207.9900801151264,7.923533434108044,29097.602712798853,-2854.4540536879313,20.383723206912453,29133.680250052512,33726.44335721453,10.364525801523971,29158.178051898707,-8407.899087167101,22.93168860777651,29369.877402059577,6778.190470505841,27.625800775254987,0.97933512776039,67.0,44.0,113.0,224.0,337.0,23.0,739.0,738.0,23.0,12.0,11.0,0.5217391304347826,60.45166054175933,1106.6512800314706,46.0,35.0,11.0,0.7608695652173914,210.1053567832624,1514.106743327612,24.0,13.0,11.0,0.5416666666666666,1432.8591917248773,24920.948969118268,29.0,5.0,24.0,0.1724137931034483,907.57757276122,18722.150492637385,70.0,36.0,34.0,0.5142857142857142,51.58161592978704,6796.130895233142,0.0,0.0,0.0,0.0,29000.0,29023.0,29067.0,29109.0,29121.0,29145.0,29153.0,29180.0,29334.0,29404.0,0.050043176294956034,-0.0736061442333633,0.04248474043197235,-0.10794344263080503,0.007609938988028706
39,39,29803.750015122456,830.192453626832,6.376396909859444,29889.602712798853,-2603.040361196852,20.383723206912453,29924.84419464849,33407.56452651795,10.332906732985096,29949.178051898707,-8143.290796385455,22.93168860776988,30161.152644165315,6821.898675606434,27.820750537144157,0.9813220895970004,82.0,63.0,97.0,223.0,320.0,19.0,792.0,792.0,19.0,10.0,9.0,0.5263157894736842,54.85276450251488,784.8930061802153,28.0,17.0,11.0,0.6071428571428571,233.51465121940825,1063.432322662776,24.0,13.0,11.0,0.5416666666666666,1421.0688412065028,25127.695527783264,31.0,5.0,26.0,0.1612903225806451,888.8105427923117,18320.510287856116,71.0,36.0,35.0,0.5070422535211268,53.713932577150295,6895.853078037664,0.0,0.0,0.0,0.0,29794.0,29813.0,29876.0,29901.0,29912.0,29936.0,29944.0,29973.0,30126.0,30196.0,0.06607234775850054,-0.08970842507875697,0.0425373373170768,-0.10914635925648464,0.00787375115511744
40,40,30557.09054713398,1444.6262724166286,8.784098031989597,30645.027373698995,-2777.7086818723155,17.8357578060484,30679.634218941756,31565.9981078435,10.32363679840287,30703.602712798907,-7985.321608724233,20.383723206912453,30914.175516686933,7027.897838650834,29.178188442179597,0.9824728886812316,85.0,61.0,99.0,221.0,320.0,24.0,754.0,754.0,24.0,12.0,12.0,0.5,63.82220278964056,1398.5529139957216,27.0,17.0,10.0,0.6296296296296297,234.2443139704306,894.6216522141616,23.0,13.0,10.0,0.5652173913043478,1382.037308932894,23644.806418554435,31.0,5.0,26.0,0.1612903225806451,814.7435855212898,16976.993747377936,73.0,37.0,36.0,0.5068493150684932,51.483250352121345,7149.137088353842,0.0,0.0,0.0,0.0,30545.0,30569.0,30630.0,30655.0,30667.0,30690.0,30699.0,30729.0,30878.0,30950.0,0.044179040633724756,-0.08433005069939088,0.043782468218215034,-0.10203015300362543,0.007325554743977999
41,41,31303.882472527992,902.3324577300498,6.748840646226054,31391.602712798853,-3042.927654058919,20.383723206912453,31427.46264128564,32942.973554997676,10.303363328690123,31452.37851299043,-8651.889354757832,20.383723206912453,31663.625121473044,6580.514745019086,26.7276452000738,0.9777227373737352,58.0,38.0,123.0,222.0,345.0,20.0,746.0,748.0,20.0,10.0,10.0,0.5,55.54219963491917,844.4157270495954,53.0,42.0,11.0,0.7924528301886793,220.65031426783915,1467.9495156242706,23.0,12.0,11.0,0.5217391304347826,1430.014842378139,26005.38809974562,30.0,5.0,25.0,0.1666666666666666,873.4073049845713,18247.53174807368,68.0,35.0,33.0,0.5147058823529411,51.16108686902144,6542.032764449783,0.0,0.0,0.0,0.0,31294.0,31314.0,31352.0,31403.0,31415.0,31438.0,31447.0,31475.0,31629.0,31697.0,0.06155403051181796,-0.07251250747730291,0.04340879671929907,-0.10094989304321936,0.00777463296587037
42,42,32089.484543315804,958.7445245505692,7.190342790487024,32174.602712798853,-2459.197685592931,20.383723206912453,32210.631680464212,33616.52334730941,10.290388388021793,32235.178051898707,-7853.248421925512,22.93168860776479,32447.55632462477,7005.415152166923,28.313720953202807,0.9824336155580446,82.0,61.0,96.0,226.0,322.0,21.0,786.0,783.0,21.0,10.0,11.0,0.4761904761904761,54.35263927296622,943.0867377741196,44.0,33.0,11.0,0.75,208.17495912987397,1181.9722645014424,24.0,13.0,11.0,0.5416666666666666,1434.7872399525572,25164.19701889324,29.0,5.0,24.0,0.1724137931034483,899.9784195673367,18237.145035433394,71.0,36.0,35.0,0.5070422535211268,48.68876228395466,6966.187352861287,0.0,0.0,0.0,0.0,32079.0,32100.0,32161.0,32186.0,32198.0,32222.0,32230.0,32257.0,32412.0,32483.0,0.05669147294316504,-0.08465157573523066,0.04268101210613126,-0.11459950980981115,0.006950160872178175
43,43,32911.613559190584,1397.653956544752,8.287680599734752,32997.60271283649,-2709.756694067457,20.383723205715,33034.22694020574,33426.66256701659,10.388510122096664,33058.60271280061,-8690.375341313791,20.383723205590854,33271.94961839035,6769.257835701603,27.45694222301676,0.97850602000598,82.0,59.0,99.0,226.0,325.0,23.0,823.0,824.0,23.0,12.0,11.0,0.5217391304347826,67.14500539124779,1289.597346975178,45.0,33.0,12.0,0.7333333333333333,198.591264641396,1404.296968621528,23.0,12.0,11.0,0.5217391304347826,1433.2183287969212,25887.94966167549,30.0,6.0,24.0,0.2,866.7170412666156,18088.461791259964,71.0,36.0,35.0,0.5070422535211268,48.55408703661739,6764.5245292511645,0.0,0.0,0.0,0.0,32900.0,32923.0,32982.0,33009.0,33022.0,33045.0,33054.0,33081.0,33236.0,33307.0,0.04804122299144928,-0.07328748927022755,0.042876500934650126,-0.09973298128404973,0.007172734177820689
44,44,33723.194479780155,1578.5063435639906,9.193830690170014,33809.60271279886,-3100.999107838918,20.383723206912453,33845.42889642251,32679.609525855583,10.276162344895862,33871.4270094242,-8837.033974402884,20.38372320691245,34083.755505159075,6578.799640271102,26.60164997021457,0.9764459356945586,69.0,43.0,115.0,224.0,339.0,26.0,811.0,811.0,26.0,13.0,13.0,0.5,64.85696350897113,1504.04385452231,47.0,36.0,11.0,0.7659574468085106,223.5874464632458,1575.1409458703868,23.0,12.0,11.0,0.5217391304347826,1427.0149106938104,25827.65023201792,30.0,6.0,24.0,0.2,813.2428416747676,17734.254000377226,69.0,35.0,34.0,0.5072463768115942,52.07376842696701,6532.577239594824,0.0,0.0,0.0,0.0,33710.0,33736.0,33779.0,33821.0,33833.0,33856.0,33865.0,33894.0,34049.0,34118.0,0.04108755328948218,-0.07210174485314948,0.04366682868608877,-0.09202667365887526,0.007915390538451042
45,45,34500.0662831767,1848.5037666660064,10.079431229863763,34585.60271279886,-2567.1778081014436,20.383723206912453,34620.86221429817,32168.982068781617,10.279134149410687,34645.178051898714,-7825.5544792061455,22.93168860777651,34857.208709005135,7001.18270860572,29.171104940862335,0.9835430401375138,85.0,57.0,99.0,223.0,322.0,28.0,777.0,776.0,28.0,14.0,14.0,0.5,69.6456364062753,1775.9385687230624,29.0,18.0,11.0,0.6206896551724138,220.52741561350868,1183.8130526796836,23.0,12.0,11.0,0.5217391304347826,1379.6608719476633,24273.134248692782,33.0,5.0,28.0,0.1515151515151515,842.8119968474166,17524.7561181883,74.0,37.0,37.0,0.5,46.354769000455875,7053.92652768649,0.0,0.0,0.0,0.0,34486.0,34514.0,34571.0,34597.0,34609.0,34632.0,34640.0,34670.0,34820.0,34893.0,0.03767676196402314,-0.0859026651436348,0.04288792442974299,-0.10769997181502143,0.006620991185314658
46,46,35244.5464726111,1653.242968768321,10.097439622634711,35331.027373699,-2766.174982991478,17.835757806044306,35365.627775746325,32601.12577275717,10.305961894619994,35390.178051898714,-7941.501916361407,22.931688607556715,35602.0925876341,6628.749622166894,27.761583812393525,0.98178382979304,81.0,53.0,103.0,222.0,325.0,28.0,744.0,744.0,28.0,14.0,14.0,0.5,60.210694743888645,1537.2125835962015,44.0,33.0,11.0,0.75,233.79149800292151,1020.9121007742324,24.0,13.0,11.0,0.5416666666666666,1406.7524064161537,24350.289349071685,32.0,5.0,27.0,0.15625,851.9247111156998,17704.479546506176,71.0,36.0,35.0,0.5070422535211268,44.05712460474485,6613.570070975648,0.0,0.0,0.0,0.0,35231.0,35259.0,35312.0,35341.0,35353.0,35377.0,35385.0,35415.0,35566.0,35637.0,0.03641974947502489,-0.08451797136495243,0.04315042419767275,-0.10727501171541994,0.006646370298467068
47,47,35991.635149697744,1457.367151538625,8.873935012510263,36077.60271279886,-2982.1054146520673,20.383723206907845,36112.754680584774,33380.78081169764,10.332026927191771,36137.178051898714,-8350.053200555625,22.93168860352306,36349.7326865732,6635.181533025179,28.05525336437281,0.9795111523632364,63.0,38.0,119.0,224.0,343.0,25.0,747.0,747.0,25.0,13.0,12.0,0.52,62.305636098556505,1338.0855377187245,49.0,38.0,11.0,0.7755102040816326,237.4131467587189,1316.9990141731407,24.0,13.0,11.0,0.5416666666666666,1425.6773700009037,24767.22016685815,31.0,5.0,26.0,0.1612903225806451,890.5875896109902,18476.76189933925,71.0,36.0,35.0,0.5070422535211268,48.98351931614692,6658.003400036092,0.0,0.0,0.0,0.0,35979.0,36004.0,36042.0,36089.0,36100.0,36124.0,36132.0,36161.0,36314.0,36385.0,0.042752189132832394,-0.07961259370384086,0.042709527318824825,-0.1066565168173694,0.00738239324309999
48,48,36750.85702867973,1320.5993631705037,7.884605928810251,36836.60271279886,-3135.8962004924256,20.383723206912453,36872.44908887736,32919.21483991778,10.365887718745276,36896.934050915675,-8876.162095663212,20.383723206912453,37109.30777167365,6666.524946786465,26.936008883725517,0.9748814423025264,60.0,37.0,121.0,224.0,345.0,23.0,759.0,760.0,23.0,12.0,11.0,0.5217391304347826,65.83966627767346,1221.6415078599152,51.0,40.0,11.0,0.7843137254901961,220.61979571911783,1502.784794705315,23.0,12.0,11.0,0.5217391304347826,1420.4180456626532,25694.716307266863,30.0,6.0,24.0,0.2,867.141479003029,18278.935645458143,70.0,35.0,35.0,0.5,46.42722145365072,6633.861933168515,0.0,0.0,0.0,0.0,36739.0,36762.0,36799.0,36848.0,36860.0,36883.0,36892.0,36920.0,37074.0,37144.0,0.049855897340132856,-0.07035302880384695,0.04314860037124144,-0.09769329014695484,0.0069642312635506635
49,49,37530.05361783467,975.0353214913104,7.053057213270172,37616.027373699,-2633.498921032718,17.8357578060484,37651.17975913195,32963.45325924344,10.329140489274934,37675.60271279886,-8138.790972398277,20.383723206897773,37888.61976175764,6834.0844388005635,28.3040305662767,0.983292756641374,83.0,63.0,94.0,227.0,321.0,20.0,780.0,779.0,20.0,10.0,10.0,0.5,56.417375124073814,929.5775052798784,26.0,15.0,11.0,0.5769230769230769,229.7414252462769,884.7177107511396,23.0,12.0,11.0,0.5217391304347826,1424.516997326518,25926.26904121212,28.0,5.0,23.0,0.1785714285714285,856.1598270610383,17573.447186931244,72.0,37.0,35.0,0.5138888888888888,49.26275904746665,6868.254847240935,0.0,0.0,0.0,0.0,37520.0,37540.0,37603.0,37626.0,37639.0,37662.0,37671.0,37697.0,37852.0,37924.0,0.057861878314094096,-0.08723809355356961,0.04321504140125435,-0.10519496445658828,0.007208391919739385
50,50,38305.44675113357,1010.566106401214,6.534666175261449,38392.60271279886,-3076.870584569169,20.383723206912453,38428.60754857526,32537.808198854083,10.363246962309857,38453.42018240675,-8616.6505848734,20.383723206912453,38665.62089310291,6692.079909454802,27.4040939541606,0.9780601047180216,56.0,37.0,125.0,223.0,348.0,19.0,776.0,777.0,19.0,9.0,10.0,0.4736842105263157,64.82716967382052,995.080926956958,55.0,44.0,11.0,0.8,208.57171392248637,1453.1638481230848,23.0,13.0,10.0,0.5652173913043478,1417.5108172268087,24056.480359899437,31.0,5.0,26.0,0.1612903225806451,861.567294584715,18107.431688204226,71.0,36.0,35.0,0.5070422535211268,45.580401586902674,6645.528159589852,0.0,0.0,0.0,0.0,38296.0,38315.0,38352.0,38404.0,38416.0,38439.0,38448.0,38477.0,38630.0,38700.0,0.06414936070306211,-0.06778696347142306,0.043565036973717566,-0.09998865407136312,0.006811096430947441
51,51,39074.46858439809,1134.028425679037,7.321549825461349,39163.02737369922,-2690.3611149137555,17.835757805919435,39197.52392412957,31842.080091140226,10.320253513595736,39221.60271279887,-8053.486794900999,20.383723206627455,39433.453323982954,6950.040446448845,28.92338250512946,0.981414751518458,85.0,64.0,97.0,223.0,320.0,21.0,768.0,769.0,21.0,10.0,11.0,0.4761904761904761,62.69389563267551,1127.1623378742538,25.0,15.0,10.0,0.6,239.7684768908763,754.2725147116707,23.0,13.0,10.0,0.5652173913043478,1393.9355432330003,23641.28273350293,31.0,5.0,26.0,0.1612903225806451,822.8359248556171,17106.899722109847,73.0,36.0,37.0,0.4931506849315068,45.83969170110528,7055.01799477062,0.0,0.0,0.0,0.0,39064.0,39085.0,39149.0,39173.0,39185.0,39208.0,39217.0,39246.0,39397.0,39469.0,0.055284236455656284,-0.08912129883298678,0.043776522741077156,-0.10217138809696555,0.006595600709709147
52,52,39821.96615153909,1236.1481328631758,8.373610495441106,39909.60271279886,-2590.949584294419,20.38372320691245,39945.12223666983,32633.38208062239,10.265801506725248,39969.60271279886,-7808.409156228304,20.383723206910613,40181.41562724985,6801.382790872224,28.75661751649078,0.9867061337855229,86.0,62.0,96.0,225.0,321.0,24.0,747.0,748.0,24.0,12.0,12.0,0.5,58.69485813499702,1191.2451419406611,27.0,16.0,11.0,0.5925925925925926,224.73160480899577,999.1681848283612,23.0,12.0,11.0,0.5217391304347826,1417.679767041729,25644.00333031969,29.0,6.0,23.0,0.2068965517241379,827.4790870382263,17027.900759733642,72.0,36.0,36.0,0.5,49.49086136406762,6917.194891993444,0.0,0.0,0.0,0.0,39810.0,39834.0,39896.0,39921.0,39933.0,39956.0,39965.0,39992.0,40145.0,40217.0,0.04748205864215281,-0.086737158519507,0.04344262459647244,-0.1059728134735608,0.007276588141824142
53,53,40581.15367413261,816.1733281919152,6.10517163337583,40668.60271279886,-3000.6249160394473,20.383723206912453,40704.01958764595,33743.71987094225,10.355649679962104,40728.178051898714,-8359.593850690071,22.93168860777651,40941.817202360646,6491.209109924232,26.903112907824255,0.9772924235628614,57.0,39.0,122.0,225.0,347.0,18.0,760.0,759.0,18.0,9.0,9.0,0.5,57.07762510123213,780.9005861207927,53.0,42.0,11.0,0.7924528301886793,227.6550029505991,1319.067706817456,23.0,12.0,11.0,0.5217391304347826,1433.240527234814,25561.26700265168,30.0,5.0,25.0,0.1666666666666666,922.530735178973,18799.228876342942,69.0,35.0,34.0,0.5072463768115942,49.61275933915328,6488.2339433190255,0.0,0.0,0.0,0.0,40572.0,40590.0,40629.0,40680.0,40692.0,40715.0,40723.0,40751.0,40907.0,40976.0,0.06993321532287426,-0.07586919702415958,0.042474289518655624,-0.11035592777067986,0.007643069033672277
54,54,41347.35560035555,692.2547589608841,6.042448243696906,41432.60271279886,-2771.8708918000816,20.383723206912453,41468.32443445632,32985.8500754935,10.35592572674086,41492.60271279886,-8338.325151845964,20.383723206912453,41705.40715105632,6739.8680788461925,28.25285310972931,0.9807825228572248,79.0,60.0,98.0,226.0,324.0,19.0,766.0,764.0,19.0,9.0,10.0,0.4736842105263157,49.4746316833924,673.844848951136,49.0,38.0,11.0,0.7755102040816326,223.83967152178153,1127.1400777961069,23.0,12.0,11.0,0.5217391304347826,1417.5731976089735,25884.01285482398,28.0,5.0,23.0,0.1785714285714285,861.1931012144602,17753.802104879076,72.0,36.0,36.0,0.5,46.20351183164812,6767.200577679923,0.0,0.0,0.0,0.0,41338.0,41357.0,41417.0,41444.0,41456.0,41479.0,41488.0,41515.0,41669.0,41741.0,0.07146882133054136,-0.0807540034364363,0.04297519070645825,-0.10328130476224073,0.006855254626817231
55,55,42127.48675052065,782.4400151911126,6.259232609423488,42212.60271279886,-2559.702872329417,20.383723206912453,42248.632678924856,33501.809594004306,10.29306805728156,42273.178051898714,-7788.933300894651,22.931688607587663,42486.625291543816,6740.131598817896,27.99309003950571,0.9808327780465144,79.0,60.0,98.0,227.0,325.0,19.0,781.0,780.0,19.0,9.0,10.0,0.4736842105263157,53.264527207634515,777.9207684513678,48.0,37.0,11.0,0.7708333333333334,206.29127287457808,1275.7729467133963,24.0,13.0,11.0,0.5416666666666666,1429.343429363437,25132.828419928737,29.0,5.0,24.0,0.1724137931034483,894.1902219053057,18100.58777948501,72.0,37.0,35.0,0.5138888888888888,46.223987739775296,6687.529975057018,0.0,0.0,0.0,0.0,42118.0,42137.0,42197.0,42224.0,42236.0,42260.0,42268.0,42295.0,42450.0,42522.0,0.0680749018116418,-0.08059188240346271,0.04266466339236915,-0.114802654915866,0.006858024515112167
56,56,42906.72969137069,506.54749569116814,4.426805167602221,42991.60271279886,-3096.9707757669394,20.383723206912453,43027.03630460822,33442.28441604145,10.38791963884546,43051.178051898714,-8506.571611501273,22.93168860777651,43265.656775924086,6485.21516301844,26.48292920195143,0.9746198270473324,53.0,39.0,122.0,224.0,346.0,14.0,779.0,779.0,14.0,7.0,7.0,0.5,57.602222967284966,446.3846153021228,53.0,42.0,11.0,0.7924528301886793,228.20429437837663,1480.3895259694382,23.0,12.0,11.0,0.5217391304347826,1417.8263190319783,25204.652479493583,31.0,5.0,26.0,0.1612903225806451,907.4307962131126,18669.31401651755,69.0,35.0,34.0,0.5072463768115942,49.50307369993725,6434.786431095103,0.0,0.0,0.0,0.0,42900.0,42914.0,42953.0,43003.0,43015.0,43038.0,43046.0,43075.0,43231.0,43299.0,0.11371534447858347,-0.07368629247780477,0.04239621616135414,-0.1066740912386166,0.0076332199403692305
57,57,43652.856235353145,1056.3145565404668,6.79907562854953,43741.027373699,-2845.9676789298564,17.8357578060484,43775.43465314596,31239.431388706173,10.260181752012189,43799.6896224527,-7942.155158497901,20.383723206912453,44011.823783553686,7000.189215853681,28.99272363277238,0.9804750927344588,84.0,64.0,97.0,224.0,321.0,20.0,746.0,748.0,20.0,10.0,10.0,0.5,63.81505329407948,984.0517173481204,28.0,17.0,11.0,0.6071428571428571,237.485061224539,954.407760675103,23.0,12.0,11.0,0.5217391304347826,1368.718329725403,24890.736416081905,31.0,5.0,26.0,0.1612903225806451,797.6247951952282,16768.178236367203,73.0,37.0,36.0,0.5068493150684932,45.5885806206899,7046.511635050874,0.0,0.0,0.0,0.0,43643.0,43663.0,43727.0,43751.0,43763.0,43786.0,43795.0,43824.0,43975.0,44048.0,0.060412926148703285,-0.08344615540884792,0.04381380418531653,-0.10042926375491296,0.006512478336648836
58,58,44364.77573419686,1631.0396537608624,11.04040684876829,44452.953466865,-2154.1981595834354,17.835757806035893,44486.40195577152,31809.858163915123,10.300427444555975,44510.60271279886,-7273.129356623923,20.38372320688577,44721.690622293216,6969.866905933991,30.24187095136759,0.9901277771446202,90.0,62.0,93.0,224.0,317.0,28.0,711.0,711.0,28.0,14.0,14.0,0.5,60.72754500884496,1592.785269579713,20.0,12.0,8.0,0.6,278.0082008648959,308.0015074413511,23.0,12.0,11.0,0.5217391304347826,1376.3524547160678,25826.702215617952,30.0,5.0,25.0,0.1666666666666666,810.3824561238066,16410.194438737417,75.0,38.0,37.0,0.5066666666666667,46.735651638343064,7069.320300748201,0.0,0.0,0.0,0.0,44351.0,44379.0,44441.0,44461.0,44474.0,44497.0,44506.0,44534.0,44685.0,44758.0,0.03723241483971219,-0.12905414463758305,0.0432681103959587,-0.11142142761227802,0.006705386525896694
59,59,45074.77074469432,915.6668867386564,6.814871505299088,45161.60271279886,-3281.383614725394,20.383723206912453,45197.03960564033,33230.78016703323,10.390325894694524,45221.17854254821,-8771.86781516706,22.93168860777651,45434.126368936,6391.35492434274,25.96714712883427,0.9734236409934196,58.0,37.0,123.0,222.0,345.0,21.0,711.0,711.0,21.0,11.0,10.0,0.5238095238095238,55.196395285642545,820.8079184950566,53.0,42.0,11.0,0.7924528301886793,227.2321114320546,1629.0988471409794,23.0,12.0,11.0,0.5217391304347826,1412.5732223962805,24755.72192595421,31.0,5.0,26.0,0.1612903225806451,909.1201755318896,18904.16733681067,68.0,34.0,34.0,0.5,48.5308908141421,6336.740780464925,0.0,0.0,0.0,0.0,45064.0,45085.0,45122.0,45173.0,45185.0,45208.0,45216.0,45245.0,45400.0,45467.0,0.06027999492505,-0.06924887124209973,0.04250797649937907,-0.10364043265220767,0.007593208543199908
60,60,45806.28547240158,1256.6044603031164,8.237606354391506,45892.60271279886,-3181.4706705043764,20.383723206912453,45928.458915745665,32433.630655260735,10.307310104250648,45953.72214957156,-8720.082063190339,20.383723206912453,46165.972312262056,6688.156150646374,26.657386821076457,0.9754244970029972,61.0,38.0,120.0,224.0,344.0,23.0,732.0,731.0,23.0,11.0,12.0,0.4782608695652174,59.66576287233582,1185.988439304857,51.0,40.0,11.0,0.7843137254901961,214.85922280298948,1541.6344900465529,23.0,12.0,11.0,0.5217391304347826,1411.0801658715957,25545.741338281936,29.0,6.0,23.0,0.2068965517241379,803.5856711742791,17364.751310463515,69.0,35.0,34.0,0.5072463768115942,50.8476689756177,6649.200437582485,0.0,0.0,0.0,0.0,45795.0,45818.0,45856.0,45904.0,45916.0,45939.0,45948.0,45976.0,46131.0,46200.0,0.04748173729857948,-0.0675345602884111,0.04350669775055598,-0.0921534528403599,0.007602643812480896
61,61,46590.56516626739,932.8692611245808,6.7543570602763,46677.60271279886,-2834.8627161644713,20.383723206912453,46713.50348346199,33664.29285470076,10.352940129420526,46738.178051898714,-8270.453893451628,22.931688607776476,46952.29238237093,6567.641658023775,26.626194856186647,0.9740832002225798,62.0,41.0,119.0,225.0,344.0,21.0,784.0,785.0,21.0,11.0,10.0,0.5238095238095238,56.70667124040744,842.3720962503498,50.0,39.0,11.0,0.78,215.66000648579845,1461.606582994944,23.0,13.0,10.0,0.5652173913043478,1438.4680197855073,24684.484508705136,30.0,5.0,25.0,0.1666666666666666,885.9855630268326,18341.153310804675,70.0,35.0,35.0,0.5,46.16626699280796,6504.282056206235,0.0,0.0,0.0,0.0,46580.0,46601.0,46642.0,46689.0,46701.0,46724.0,46733.0,46761.0,46918.0,46986.0,0.0607873724685141,-0.07607423289180767,0.04272978571075628,-0.10712659479648842,0.007029352299756797
62,62,47402.243747139786,834.6829801006938,6.4411555890297,47487.60271279886,-2714.81510432454,20.383723206912453,47523.206921784615,33277.37751273446,10.336482655338008,47547.60271279886,-8488.09284350732,20.383723206912453,47761.70707998608,6671.378518799457,27.034698313825388,0.9807164213259236,81.0,62.0,96.0,226.0,322.0,19.0,811.0,810.0,19.0,9.0,10.0,0.4736842105263157,54.61891667900074,807.422260407021,43.0,32.0,11.0,0.7441860465116279,228.73662107341065,1077.415827519948,23.0,12.0,11.0,0.5217391304347826,1433.719809847939,25858.51370321801,29.0,6.0,23.0,0.2068965517241379,859.4622203375126,17859.355786561177,70.0,36.0,34.0,0.5142857142857142,49.632739832367015,6634.350872466306,0.0,0.0,0.0,0.0,47393.0,47412.0,47474.0,47499.0,47511.0,47534.0,47543.0,47570.0,47727.0,47796.0,0.06543672026523371,-0.08425495375690475,0.04308391817532161,-0.10125504470594111,0.007439652793272872
63,63,48953.70926949323,2155.212684536903,14.299889282251188,49039.069907005985,-2266.893418283802,9.483221872100616,49069.577439155066,29315.590966814783,10.251959030717355,49094.178051898714,-6827.053652379942,18.626687336533863,49311.01675283545,7444.935240877018,36.267780467051274,0.9875797659349425,89.0,58.0,90.0,236.0,326.0,31.0,1551.0,1546.0,31.0,16.0,15.0,0.5161290322580645,72.33879156467451,2182.009919853231,18.0,12.0,6.0,0.6666666666666666,386.9191492484344,2389.719642817013,23.0,13.0,10.0,0.5652173913043478,1314.1132056237434,22924.65825115704,29.0,5.0,24.0,0.1724137931034483,760.9930765246497,15353.516245115849,85.0,43.0,42.0,0.5058823529411764,43.33577310684256,7790.732542472062,0.0,0.0,0.0,0.0,48938.0,48969.0,49027.0,49045.0,49057.0,49080.0,49089.0,49117.0,49269.0,49353.0,0.033564572110997094,-0.1706825500165594,0.04482642724519243,-0.11146727640837627,0.005820839497555868
64,64,49624.79640545927,1173.628240637117,7.7280571192618,49710.60271279886,-3340.9461749667103,20.383723206912453,49745.68896912762,31100.95023570627,10.22906670470581,49771.839634915035,-8097.07258873085,20.383723206912453,49980.26562660605,6537.090471210064,26.999571466463056,0.9781938929183516,59.0,36.0,123.0,220.0,343.0,23.0,671.0,676.0,23.0,12.0,11.0,0.5217391304347826,59.5938524249836,1072.5607746151193,51.0,40.0,11.0,0.7843137254901961,229.57085462815735,1405.3728970031916,23.0,13.0,10.0,0.5652173913043478,1381.4236887345403,23562.163256968008,30.0,7.0,23.0,0.2333333333333333,713.5287096304667,15816.533072923105,70.0,35.0,35.0,0.5,46.57853506444687,6528.053350733342,0.0,0.0,0.0,0.0,49613.0,49636.0,49672.0,49722.0,49733.0,49756.0,49765.0,49795.0,49946.0,50015.0,0.05077745265624524,-0.06871432301073957,0.04441741098793053,-0.08812181215017445,0.007125270067713295
65,65,0.0,0.0,0.0,0.0,0.0,0.0,0.0,0.0,0.0,0.0,0.0,0.0,0.0,0.0,0.0,0.0,0.0,0.0,0.0,0.0,0.0,0.0,0.0,0.0,0.0,0.0,0.0,0.0,0.0,0.0,0.0,0.0,0.0,0.0,0.0,0.0,0.0,0.0,0.0,0.0,0.0,0.0,0.0,0.0,0.0,0.0,0.0,0.0,0.0,0.0,0.0,0.0,0.0,0.0,0.0,0.0,0.0,0.0,,50032.0,50315.0,50376.0,50387.0,50410.0,50418.0,50451.0,50604.0,50665.0,,,,,
66,66,50942.2603928221,1253.58742165649,7.843320702698798,51029.60271279886,-3656.7701263901745,20.383723206912453,51064.92055613519,31504.07215170169,10.169166478801996,51091.68935855788,-8832.63623454654,20.383723206912453,51300.80550270167,6466.926118423403,26.10852613219081,0.9708504835673616,57.0,34.0,125.0,221.0,346.0,23.0,1318.0,1320.0,23.0,11.0,12.0,0.4782608695652174,61.91106423067291,1191.659995556293,55.0,44.0,11.0,0.8,229.9974563123022,1861.9101472428877,23.0,12.0,11.0,0.5217391304347826,1407.0087973370548,23933.094880129094,29.0,8.0,21.0,0.2758620689655172,700.0537060048638,16025.76749312834,68.0,35.0,33.0,0.5147058823529411,55.34661941834441,6480.6980700125205,0.0,0.0,0.0,0.0,50931.0,50954.0,50988.0,51041.0,51053.0,51076.0,51084.0,51113.0,51267.0,51334.0,0.04938711346422386,-0.06289633976509948,0.04466117238945745,-0.07925761770498227,0.008558412204628307
67,67,51672.760763407125,1254.0636270460443,8.25163135715844,51758.178051898714,-3255.1020699234264,22.93168860777651,51794.728680978784,32197.379725926327,10.245758777453831,51820.54208751766,-8681.587086289384,20.383723206912453,52031.95454934436,6734.706556815432,26.81894155498786,0.9731515471371226,59.0,35.0,123.0,223.0,346.0,24.0,731.0,729.0,24.0,12.0,12.0,0.5,59.278212384593914,1143.904134686911,54.0,41.0,13.0,0.7592592592592593,173.66906387679683,2211.7072208322033,23.0,13.0,10.0,0.5652173913043478,1415.1977806851578,23919.7738197782,29.0,7.0,22.0,0.2413793103448276,752.6108948892958,16652.61717689485,69.0,35.0,34.0,0.5072463768115942,53.352482254995905,6740.929955951753,0.0,0.0,0.0,0.0,51661.0,51685.0,51720.0,51771.0,51782.0,51805.0,51814.0,51843.0,51997.0,52066.0,0.04726890335239541,-0.05335287808068097,0.04395381837689098,-0.08669047345938342,0.007922020329305056
68,68,52463.90535444911,1093.1790517968043,7.6413169285703395,52550.60271279886,-3208.871073073802,20.383723206912453,52585.84169432225,33033.879450619155,10.310619910689606,52611.27642281863,-8456.032436283354,22.93168860777651,52823.523430698675,6457.504516030522,25.910659943545088,0.9710056368914238,59.0,37.0,123.0,222.0,345.0,22.0,792.0,792.0,22.0,11.0,11.0,0.5,56.210671893832,979.1923301097302,51.0,40.0,11.0,0.7843137254901961,230.55931740025736,1455.6940270910825,23.0,12.0,11.0,0.5217391304347826,1421.879249764101,24739.02624864097,31.0,6.0,25.0,0.1935483870967742,833.5425330335028,17909.47134728002,68.0,35.0,33.0,0.5147058823529411,53.27760153833357,6426.280516198371,0.0,0.0,0.0,0.0,52453.0,52475.0,52512.0,52562.0,52574.0,52597.0,52605.0,52635.0,52790.0,52857.0,0.05141945576201932,-0.07185060170691208,0.0430430598346647,-0.09857371519259052,0.008250493887549571
69,69,53269.86046731906,1844.4344304288625,11.448665103385853,53357.027373699,-2238.800177878614,17.8357578060484,53391.5597997229,32146.91393487373,10.249339205722922,53416.178051898714,-7388.2962614999315,22.93168860777651,53627.65190422657,7160.311039254396,28.657687747017267,0.9844585081403792,90.0,60.0,96.0,222.0,318.0,30.0,804.0,805.0,30.0,15.0,15.0,0.5,64.85031236844067,1806.8881411191817,23.0,13.0,10.0,0.5652173913043478,233.71947625297105,688.4960898268366,24.0,13.0,11.0,0.5416666666666666,1389.0947107398515,24210.76051852109,31.0,5.0,26.0,0.1612903225806451,831.3360146773058,17080.054464961922,72.0,37.0,35.0,0.5138888888888888,53.54024316147831,7285.019296719296,0.0,0.0,0.0,0.0,53255.0,53285.0,53345.0,53367.0,53379.0,53403.0,53411.0,53441.0,53592.0,53663.0,0.035159998804274034,-0.1043949694851432,0.043210826194825774,-0.11252066582783897,0.0074773627664998
70,70,54082.67990365693,1593.4064740807162,10.022887877033428,54169.6027127997,-2815.73027544006,20.383723206455908,54205.358461577875,33151.85457390626,10.325858125566167,54229.60271282125,-8272.812543756949,20.383723206624072,54443.45776837401,6831.395594736384,27.02060764003874,0.9812269718161566,78.0,50.0,105.0,225.0,330.0,28.0,813.0,814.0,28.0,14.0,14.0,0.5,60.08757806576044,1495.218435032369,42.0,31.0,11.0,0.7380952380952381,222.44611028766784,1188.8836350294337,23.0,12.0,11.0,0.5217391304347826,1429.5764095444854,26149.03542787472,29.0,5.0,24.0,0.1724137931034483,863.5939551338743,17680.773110392576,69.0,34.0,35.0,0.4927536231884058,57.5599448008383,6925.192136232606,0.0,0.0,0.0,0.0,54069.0,54097.0,54147.0,54181.0,54193.0,54216.0,54225.0,54252.0,54409.0,54477.0,0.0377101380239005,-0.07900121408216296,0.043122064449139484,-0.10438940210068977,0.008425795871811092
71,71,54933.994028585745,1366.163347240219,9.146834939063876,55023.027373699,-2558.278980856503,17.8357578060484,55058.08295582739,33269.43277892992,10.284821521705458,55082.60271279886,-8133.057916400937,20.383723206912453,55297.34912069769,7094.0288452859995,28.014484174205975,0.9834133336851344,90.0,65.0,93.0,228.0,321.0,25.0,852.0,853.0,25.0,13.0,12.0,0.52,60.40738061986405,1328.4152533807155,23.0,13.0,10.0,0.5652173913043478,236.31137952820407,823.2842209821649,24.0,13.0,11.0,0.5416666666666666,1442.9320174720629,26020.94852834793,28.0,6.0,22.0,0.2142857142857142,865.2086268748296,17640.474862364317,70.0,35.0,35.0,0.5,53.838008129637394,7156.959446068988,0.0,0.0,0.0,0.0,54921.0,54946.0,55011.0,55033.0,55045.0,55069.0,55078.0,55104.0,55262.0,55332.0,0.04421680668120159,-0.09237123132250723,0.043371103651213896,-0.10638171223766524,0.007589200622635316
72,72,55819.64901105875,2263.452821448816,13.810657435779715,55908.81458129909,-2275.050369452399,17.8357578060484,55942.39584455419,33436.01122440817,10.348093140018566,55966.60271279886,-7827.400154308113,20.38372320484956,56182.68356653416,7284.429269379793,29.263145344957223,0.9868330844991556,93.0,59.0,91.0,232.0,323.0,34.0,887.0,884.0,34.0,17.0,17.0,0.5,63.6604613440232,2242.2204518154704,21.0,13.0,8.0,0.6190476190476191,300.11410716096077,375.9144949048941,23.0,12.0,11.0,0.5217391304347826,1431.366914702177,26924.748721624335,27.0,5.0,22.0,0.1851851851851851,885.8253619010466,17614.66776144581,73.0,37.0,36.0,0.5068493150684932,48.29920172365949,7330.128534209094,0.0,0.0,0.0,0.0,55803.0,55837.0,55896.0,55917.0,55930.0,55953.0,55962.0,55987.0,56146.0,56219.0,0.028125375859733938,-0.13191536820048416,0.042809140871961554,-0.1131698066328573,0.006630471645415778
73,73,56687.22432721431,1515.140290362334,8.67240646434135,56772.60271279886,-2964.958099715524,20.383723206912453,56807.96332301511,33379.72142345793,10.396717625313215,56832.23225363835,-8539.959057994582,22.93168860777512,57048.36408016426,6929.852452419104,27.645151714009195,0.976310325528152,64.0,39.0,118.0,227.0,345.0,25.0,866.0,866.0,25.0,12.0,13.0,0.48,67.35368466534418,1446.8118182931155,48.0,37.0,11.0,0.7708333333333334,233.7038477843012,1422.624088306779,23.0,12.0,11.0,0.5217391304347826,1414.8414091449406,25000.100175606407,33.0,5.0,28.0,0.1515151515151515,893.291659233245,18587.386198936285,72.0,36.0,36.0,0.5,45.83803806828164,6896.672397948568,0.0,0.0,0.0,0.0,56675.0,56700.0,56739.0,56784.0,56796.0,56819.0,56827.0,56857.0,57013.0,57084.0,0.04445376120863175,-0.07882197316944349,0.042386255750793855,-0.10460139834007759,0.006614576339541009
74,74,57467.66965690698,1948.684605525615,11.526823364821222,57553.35807742003,-2439.636802666447,17.8357578060484,57587.31194105204,31405.311708130394,10.268702904874749,57611.60271279886,-7611.500583714484,20.383723206912453,57824.39692326357,7481.950317273859,30.788000308506778,0.982236091391677,88.0,58.0,94.0,227.0,321.0,30.0,781.0,779.0,30.0,15.0,15.0,0.5,65.67632801285944,1883.6831331616056,23.0,13.0,10.0,0.5652173913043478,238.7759290873679,497.4812424392486,23.0,12.0,11.0,0.5217391304347826,1368.6410050999714,25072.000792747353,30.0,5.0,25.0,0.1666666666666666,797.5698257022741,16530.932567317006,76.0,38.0,38.0,0.5,48.775200965171614,7687.977468225661,0.0,0.0,0.0,0.0,57453.0,57483.0,57541.0,57563.0,57575.0,57598.0,57607.0,57635.0,57787.0,57862.0,0.0337029028846588,-0.09787355594340652,0.04357992105983936,-0.10478483407184508,0.006519049030914103
75,75,58221.25342230845,1102.3594757158164,7.604316733686296,58305.178051898714,-3358.2781906592277,22.93168860777651,58341.68869408769,33324.33304376395,10.27626260617212,58367.73151867465,-8590.460639915256,22.93168860777651,58581.68359002146,6599.068891038242,25.455368376087765,0.9690268761248132,60.0,38.0,121.0,223.0,344.0,22.0,753.0,754.0,22.0,11.0,11.0,0.5,57.643783632012166,1029.2031278922768,52.0,39.0,13.0,0.75,179.89138359154953,2467.047716083982,24.0,13.0,11.0,0.5416666666666666,1435.9783588123182,24525.30480208592,30.0,7.0,23.0,0.2333333333333333,768.4297380160502,17116.609309860105,67.0,34.0,33.0,0.5074626865671642,51.98540121694911,6518.764697719848,0.0,0.0,0.0,0.0,58210.0,58232.0,58270.0,58318.0,58330.0,58353.0,58361.0,58391.0,58548.0,58614.0,0.05229127603278523,-0.05356655207775892,0.04309098570484476,-0.08945151723826893,0.007877687303362907
76,76,58967.47120258588,1452.607006473912,8.446680642017812,59052.60271279886,-3039.4245642015903,20.383723206912453,59088.0537970077,33299.29906330082,10.38724714939905,59112.31892451461,-8606.724958451492,22.931688607776223,59327.0623044163,6812.456303396499,27.246253066692635,0.9753824387214394,62.0,37.0,120.0,225.0,345.0,25.0,746.0,747.0,25.0,12.0,13.0,0.48,66.0183761857391,1406.3414373128762,49.0,38.0,11.0,0.7755102040816326,227.75621672709272,1472.430754775769,23.0,12.0,11.0,0.5217391304347826,1414.0145115815335,25014.844074116452,32.0,5.0,27.0,0.15625,902.140106053546,18745.328438325436,71.0,36.0,35.0,0.5070422535211268,47.63289701712277,6765.857313335121,0.0,0.0,0.0,0.0,58955.0,58980.0,59017.0,59064.0,59076.0,59099.0,59107.0,59137.0,59292.0,59362.0,0.04544820167568478,-0.07493399224629901,0.04246379207242593,-0.10481804756264194,0.006992029731386952
77,77,59727.96233771778,1423.7393520489218,8.50067741594543,59814.60271279886,-3297.6286842151744,20.383723206912453,59849.63261024768,32356.083170994934,10.28477810071093,59875.67843893162,-8856.947173636641,20.383723206912453,60088.6061909464,6877.484271205442,27.038064264400912,0.9740971041861104,63.0,39.0,119.0,225.0,344.0,24.0,761.0,761.0,24.0,12.0,12.0,0.5,63.82078626575797,1326.354031167525,49.0,38.0,11.0,0.7755102040816326,243.5991907279312,1314.673450195583,23.0,13.0,10.0,0.5652173913043478,1426.9537102314744,24008.507414617456,29.0,7.0,22.0,0.2413793103448276,752.9674503993795,16842.039112743347,69.0,35.0,34.0,0.5072463768115942,50.30312594963786,6845.575887874032,0.0,0.0,0.0,0.0,59716.0,59740.0,59779.0,59826.0,59837.0,59860.0,59869.0,59898.0,60054.0,60123.0,0.044826172834172666,-0.07387101886090824,0.044101558977034744,-0.08501433232442018,0.00731417535336959
78,78,60526.5523198569,1471.933438858122,9.834118278206985,60611.60271279886,-2489.5214444109256,20.383723206912453,60647.65156362594,33629.508907846975,10.334897899953006,60672.178051898714,-7906.333817602987,22.931688607776213,60887.239451381254,6932.438599650864,28.059302680413797,0.980081783542647,85.0,58.0,97.0,228.0,325.0,27.0,798.0,798.0,27.0,14.0,13.0,0.5185185185185185,57.52756741803183,1368.298064504223,41.0,30.0,11.0,0.7317073170731707,210.1396786334382,1231.250064981656,24.0,13.0,11.0,0.5416666666666666,1429.7522970827204,25205.78800158592,30.0,5.0,25.0,0.1666666666666666,895.0969236608048,18175.300222975027,72.0,36.0,36.0,0.5,45.637974679957246,6909.2389957094465,0.0,0.0,0.0,0.0,60513.0,60540.0,60598.0,60623.0,60635.0,60659.0,60667.0,60695.0,60851.0,60923.0,0.0390829951269127,-0.0844096680127862,0.042514813433659975,-0.1132126399302701,0.0065832497502762875
79,79,61339.46731864354,1453.9463223528735,8.724774172475277,61424.60271279886,-2741.8344524439917,20.383723206912453,61460.47640757622,33744.732482531304,10.34387835394579,61485.178051898714,-8093.538669541631,22.93168860777651,61700.65549082519,6886.670747164309,27.174528663394128,0.9764677797444508,75.0,50.0,105.0,228.0,333.0,25.0,814.0,813.0,25.0,12.0,13.0,0.48,64.00160210555775,1400.7396088748355,44.0,33.0,11.0,0.75,216.28931808386452,1347.918663791393,23.0,12.0,11.0,0.5217391304347826,1424.979958360123,26733.04994982274,29.0,5.0,24.0,0.1724137931034483,889.9239626336944,18268.19122146788,71.0,36.0,35.0,0.5070422535211268,48.746396715033974,6828.460805211127,0.0,0.0,0.0,0.0,61327.0,61352.0,61402.0,61436.0,61448.0,61471.0,61480.0,61507.0,61665.0,61735.0,0.04401923311858313,-0.07888489324768332,0.042228219147915746,-0.1099548663408183,0.007078368997836297
80,80,62137.121892429066,1773.0906028015013,9.960734623032804,62222.982951048856,-2595.413265848242,20.38372320691245,62258.4154952515,32983.856532115264,10.370932144444412,62282.60271279886,-8239.152987609035,20.383723206912453,62497.09356789013,7166.790460502021,28.353938501256035,0.9819551780206572,87.0,59.0,97.0,226.0,323.0,28.0,798.0,798.0,28.0,14.0,14.0,0.5,67.57344009746899,1686.4481164339588,27.0,16.0,11.0,0.5925925925925926,218.80370260242032,1078.390245063192,23.0,12.0,11.0,0.5217391304347826,1416.1975773446638,26148.121064041425,30.0,5.0,25.0,0.1666666666666666,843.7872979968345,17533.242422420015,73.0,37.0,36.0,0.5068493150684932,48.92651552515469,7200.998520522452,0.0,0.0,0.0,0.0,62123.0,62151.0,62210.0,62234.0,62246.0,62269.0,62278.0,62307.0,62461.0,62533.0,0.03811053986226212,-0.08430399331064146,0.04293608226090118,-0.10241189831840927,0.006826837730892369
81,81,62908.305031085976,1685.107420541221,9.867277521122231,62995.027373699,-2910.0106983332767,17.8357578060484,63029.19655621762,30653.158960455377,10.173038155178428,63055.56958329647,-7873.688193374675,20.383723206912396,63267.25854016222,6957.812890193636,27.908900629097843,0.9800558374531724,84.0,57.0,101.0,223.0,324.0,27.0,770.0,771.0,27.0,13.0,14.0,0.4814814814814814,63.87220638189798,1633.7211887323224,42.0,32.0,10.0,0.7619047619047619,242.1032888087652,905.811833617596,23.0,12.0,11.0,0.5217391304347826,1367.2321666967632,24445.61636943543,31.0,7.0,24.0,0.2258064516129032,664.4855604522922,15043.527174369165,72.0,36.0,36.0,0.5,51.14584032231566,7032.071790447246,0.0,0.0,0.0,0.0,62895.0,62922.0,62979.0,63005.0,63017.0,63040.0,63049.0,63080.0,63231.0,63303.0,0.03790393751953426,-0.08319670059887789,0.04460330396813536,-0.08439317688645893,0.007350850206736771
82,82,63629.50668105613,2099.137798023091,12.684774011263352,63716.18958094578,-2319.807497564717,17.835757806047102,63750.082624944866,32231.50044532351,10.344787733787058,63774.60271279886,-7673.643329300425,20.383723206912453,63988.01870331848,7154.9125390078,29.818610265517695,0.9888949927719508,89.0,57.0,95.0,226.0,321.0,32.0,722.0,721.0,32.0,16.0,16.0,0.5,63.90993963361116,2049.6265970938484,22.0,13.0,9.0,0.5909090909090909,261.6290898603689,125.47535626098444,24.0,13.0,11.0,0.5416666666666666,1394.258186881416,25425.11256133432,29.0,5.0,24.0,0.1724137931034483,814.0912242331348,16699.11065306692,74.0,38.0,36.0,0.5135135135135135,47.611389367491,7271.255148244833,0.0,0.0,0.0,0.0,63614.0,63646.0,63703.0,63725.0,63737.0,63761.0,63770.0,63798.0,63951.0,64024.0,0.03044580479366326,-0.11278051740716476,0.043257625851039455,-0.106089270675987,0.006654363572988337
83,83,64351.40757414531,1165.6189755795504,7.641701811690711,64437.60271279886,-3334.8998152241556,20.383723206912453,64472.95965226779,32737.098534107132,10.31498837348892,64498.45276573958,-8423.628504916944,22.93168860777651,64712.25519938973,6561.6140701422455,26.418290806697133,0.972211361991093,60.0,37.0,122.0,224.0,346.0,23.0,721.0,723.0,23.0,11.0,12.0,0.4782608695652174,59.94414063467478,1120.422092926594,50.0,39.0,11.0,0.78,224.73559189617177,1595.903369344915,23.0,12.0,11.0,0.5217391304347826,1409.1221316275846,24717.389849836367,31.0,6.0,25.0,0.1935483870967742,833.4095729234299,17900.21610578687,68.0,34.0,34.0,0.5,55.086312247743656,6608.1028903639235,0.0,0.0,0.0,0.0,64340.0,64363.0,64400.0,64449.0,64461.0,64484.0,64492.0,64522.0,64678.0,64746.0,0.0514268743822314,-0.06738900847042871,0.043043586472988477,-0.09893712340673162,0.008395238070828733
84,84,65093.62427223774,1240.618642807461,8.02974963467963,65179.60271279886,-3316.1489906779325,20.383723206912453,65215.28574595332,32340.38753278023,10.345599571534818,65240.6337412499,-8640.340461510774,20.383723206912453,65454.10638711415,6476.020936471592,26.796601824596173,0.9743375492066494,61.0,38.0,120.0,225.0,345.0,23.0,742.0,742.0,23.0,12.0,11.0,0.5217391304347826,59.45307828716292,1131.3580559655788,49.0,38.0,11.0,0.7755102040816326,223.2003505212104,1540.2641230878426,23.0,12.0,11.0,0.5217391304347826,1405.8411574697932,25239.793383647753,29.0,6.0,23.0,0.2068965517241379,789.0305588278378,17100.604619639947,70.0,35.0,35.0,0.5,46.46076113630382,6438.522162730555,0.0,0.0,0.0,0.0,65082.0,65105.0,65143.0,65191.0,65203.0,65226.0,65235.0,65263.0,65419.0,65488.0,0.047922122266858276,-0.0673070936042535,0.043470139498014114,-0.0913193828811087,0.007174275931482333
85,85,65858.10269087131,1439.9761104238353,9.151649229403525,65943.60271279886,-2821.515702734073,20.383723206912453,65979.69260433612,33509.997730647134,10.361055439781444,66004.17805189872,-8115.642494148695,22.93168860777649,66219.73318206781,6646.26187728772,26.93603753722419,0.977314785522598,68.0,42.0,114.0,227.0,341.0,26.0,765.0,764.0,26.0,13.0,13.0,0.5,59.15456595361063,1364.26125120398,46.0,35.0,11.0,0.7608695652173914,209.73930769877532,1503.468405517153,24.0,13.0,11.0,0.5416666666666666,1424.6948026673697,25001.439266074616,30.0,5.0,25.0,0.1666666666666666,894.685779278369,18298.70579774918,69.0,35.0,34.0,0.5072463768115942,50.29143646567797,6633.05411006716,0.0,0.0,0.0,0.0,65845.0,65871.0,65913.0,65955.0,65967.0,65991.0,65999.0,66027.0,66185.0,66254.0,0.04108024121052909,-0.07433568684219483,0.042515514746346614,-0.11024213793589717,0.0075668755451149105
86,86,66652.5857666033,1329.4969269387911,8.28931426558402,66738.60271279886,-2948.1576539102034,20.383723206909803,66774.45521116641,33399.372892459425,10.42395473487947,66798.60632188992,-8521.329763557285,20.383723206909515,67014.53078340452,6845.755596697914,27.689656634479007,0.9794721177616416,63.0,40.0,118.0,227.0,345.0,23.0,795.0,795.0,23.0,12.0,11.0,0.5217391304347826,63.36077231415217,1212.0622890520106,49.0,38.0,11.0,0.7755102040816326,221.53906086325884,1221.2990190075932,23.0,12.0,11.0,0.5217391304347826,1427.133379210368,26401.937497014773,30.0,5.0,25.0,0.1666666666666666,870.7099279358994,17950.572887114104,70.0,36.0,34.0,0.5142857142857142,46.956797636002584,6796.691181708502,0.0,0.0,0.0,0.0,66641.0,66664.0,66704.0,66750.0,66762.0,66785.0,66794.0,66822.0,66979.0,67049.0,0.04765770497871128,-0.07514491654455009,0.04272934656005388,-0.10218005312499674,0.006859257093351746
87,87,67422.78010100519,1161.973312941201,7.234735132233235,67508.60271279911,-2924.6460314456053,20.38372320662403,67543.89376908657,32308.3992105314,10.353817108296123,67568.17805189875,-8024.291845641902,22.931688606402655,67782.49195222167,6818.26953632233,28.172201568337833,0.977243079215876,61.0,40.0,121.0,224.0,345.0,21.0,769.0,770.0,21.0,11.0,10.0,0.5238095238095238,65.44413996199305,1075.0625201979838,50.0,39.0,11.0,0.78,223.45520555670635,1398.3423811882851,23.0,12.0,11.0,0.5217391304347826,1379.1387388830626,24330.06369531069,33.0,5.0,28.0,0.1515151515151515,846.5836095161684,17650.304398259803,72.0,36.0,36.0,0.5,44.92505783782175,6864.350350640538,0.0,0.0,0.0,0.0,67412.0,67433.0,67473.0,67520.0,67532.0,67555.0,67563.0,67594.0,67747.0,67818.0,0.05632155165107884,-0.07640418811511902,0.04268669363332343,-0.10550259459667573,0.006588923714220549
88,88,68153.40568818597,1825.609379247485,11.298960572421862,68239.2905241248,-2322.3527167358984,17.8357578060484,68274.10212474201,31439.680387840723,10.252870265931335,68298.60271279886,-7369.301911021552,20.383723206912453,68511.38550882373,7122.273327697123,30.336868959933263,0.9863137478873945,88.0,59.0,95.0,226.0,321.0,29.0,731.0,730.0,29.0,14.0,15.0,0.4827586206896552,63.61571481936978,1829.0016722619796,24.0,13.0,11.0,0.5416666666666666,214.7780878671214,737.5909323561815,23.0,12.0,11.0,0.5217391304347826,1372.8301827117862,24954.081506108872,29.0,5.0,24.0,0.1724137931034483,785.8214349433481,16210.795997805664,75.0,37.0,38.0,0.4933333333333333,50.36386481280918,7334.778102173545,0.0,0.0,0.0,0.0,68139.0,68168.0,68227.0,68249.0,68262.0,68285.0,68294.0,68322.0,68474.0,68548.0,0.03484629052770978,-0.09248297483811814,0.043665526041502874,-0.10663444712016358,0.007071318734280247
89,89,68869.59124673312,978.7432169611668,6.920328045073313,68955.60271279886,-3335.178536571904,20.383723206912453,68991.22006653165,32087.7444622486,10.23181872805233,69017.60046876525,-8417.052990146647,20.383723206912453,69229.88171237517,6482.888909224696,26.27217963473289,0.9728281233708764,57.0,36.0,124.0,223.0,347.0,21.0,716.0,717.0,21.0,11.0,10.0,0.5238095238095238,57.57970715017176,848.8831144170294,53.0,42.0,11.0,0.7924528301886793,217.6974479696164,1544.6423799549907,23.0,12.0,11.0,0.5217391304347826,1416.476069794022,25296.044592241116,30.0,8.0,22.0,0.2666666666666666,717.4237074842135,15987.178106666925,67.0,34.0,33.0,0.5074626865671642,48.16462101235517,6436.9025361277545,0.0,0.0,0.0,0.0,68859.0,68880.0,68916.0,68967.0,68979.0,69002.0,69011.0,69040.0,69196.0,69263.0,0.058830248989052585,-0.06527310174926314,0.04414383415015392,-0.08523454804479189,0.007429499670096196
90,90,69587.87129713206,1381.085262977516,8.70581645551288,69674.60271279886,-2815.53167492015,20.38372320691203,69710.04384926413,33152.22165636283,10.370889433684123,69734.17805189878,-8333.488716024016,22.931688607449058,69948.66630692904,6728.623171011287,27.438935538500942,0.9767891370816588,65.0,40.0,118.0,225.0,343.0,25.0,719.0,719.0,25.0,13.0,12.0,0.52,61.25035601538597,1280.961761697544,48.0,37.0,11.0,0.7708333333333334,222.16607539083944,1223.207510636718,23.0,12.0,11.0,0.5217391304347826,1406.3506097739662,25055.225025067644,32.0,5.0,27.0,0.15625,899.422501202411,18477.266195328484,70.0,36.0,34.0,0.5142857142857142,50.08858539012769,6735.8460341167465,0.0,0.0,0.0,0.0,69575.0,69600.0,69640.0,69686.0,69698.0,69721.0,69729.0,69758.0,69913.0,69983.0,0.04434943855916238,-0.07890732587731948,0.04242100648190039,-0.10792868771430146,0.007444106188903957
91,91,70335.90860785151,1245.1898780572396,7.768070342962681,70421.60271279886,-3148.573825548024,20.383723206912453,70457.16893015258,32414.885533354744,10.330034311509689,70482.60156178034,-8637.933964526572,20.383723206912453,70696.21578958686,6527.80314833206,26.788716405979255,0.9736719585114482,60.0,38.0,120.0,225.0,345.0,22.0,748.0,747.0,22.0,11.0,11.0,0.5,63.26588191461462,1142.0925039500669,50.0,39.0,11.0,0.78,226.61549322086248,1372.4639722453685,23.0,12.0,11.0,0.5217391304347826,1411.3218608513791,25120.460886086057,29.0,7.0,22.0,0.2413793103448276,785.1068884728809,17041.434187759147,70.0,35.0,35.0,0.5,44.692564503560426,6468.012455339961,0.0,0.0,0.0,0.0,70325.0,70347.0,70385.0,70433.0,70445.0,70468.0,70477.0,70505.0,70661.0,70730.0,0.050808220520811506,-0.07197401292676343,0.04353931342435673,-0.09089058699650653,0.00684649391043294
92,92,71089.62735292215,1153.289314326391,7.636802939578455,71176.60271279937,-2721.80360772556,20.38372320603803,71212.2913524881,32927.87541155085,10.353800708723313,71236.6027128014,-8388.854067381397,20.383723205382555,71450.98904116332,6881.73545996127,28.423798302547223,0.9789753428226888,84.0,61.0,97.0,228.0,325.0,23.0,753.0,755.0,23.0,12.0,11.0,0.5217391304347826,60.307811751843765,1077.3426880939803,45.0,34.0,11.0,0.7555555555555555,223.54460929437343,1104.0998243347408,23.0,12.0,11.0,0.5217391304347826,1415.9159266394,25745.78494702807,28.0,5.0,23.0,0.1785714285714285,853.0386882848159,17681.639111000244,73.0,37.0,36.0,0.5068493150684932,49.59620328927995,6913.927856626284,0.0,0.0,0.0,0.0,71078.0,71101.0,71162.0,71188.0,71200.0,71223.0,71232.0,71259.0,71415.0,71487.0,0.05229200600637502,-0.08213105775150896,0.04300052490306457,-0.10168715314785469,0.0072069325503481465
93,93,71863.86508227588,677.5065401392116,5.494398042039176,71948.60271279886,-2893.1535714580496,20.383723206912453,71984.34237262805,32360.40277313344,10.328866700387495,72009.14834773468,-8299.019457021617,20.383723206912453,72223.55792442926,6729.22977621053,27.538814835415693,0.9773972097704944,58.0,41.0,120.0,226.0,346.0,17.0,775.0,772.0,17.0,9.0,8.0,0.5294117647058824,55.14785817738507,628.9800005267457,51.0,40.0,11.0,0.7843137254901961,217.784706007313,1281.192591453039,23.0,12.0,11.0,0.5217391304347826,1402.1264421652747,25497.98487717037,30.0,5.0,25.0,0.1666666666666666,835.2039485017103,17540.564427681038,71.0,36.0,35.0,0.5070422535211268,46.42159861226628,6675.160167816926,0.0,0.0,0.0,0.0,71855.0,71872.0,71913.0,71960.0,71972.0,71995.0,72004.0,72033.0,72188.0,72259.0,0.08139826689503764,-0.07527588862058125,0.04332846077334246,-0.10063887099277286,0.00689850104039811
94,94,72603.9386177246,930.9238753319436,7.148285958765038,72690.027373699,-2597.447918034857,17.835757806048388,72724.48245163079,31341.480605548142,10.303045180791049,72748.60271279886,-7700.332565995204,20.383723206912453,72961.59565261843,6962.277721366697,29.33662730011226,0.9845390474809974,83.0,62.0,97.0,225.0,322.0,21.0,739.0,740.0,21.0,11.0,10.0,0.5238095238095238,52.782164468760435,891.5359429929371,25.0,15.0,10.0,0.6,236.08914538895132,695.0316522856765,23.0,12.0,11.0,0.5217391304347826,1361.96920333626,25214.554236878284,31.0,5.0,26.0,0.1612903225806451,801.2997069061041,16601.01274631221,73.0,37.0,36.0,0.5068493150684932,47.65119348921956,7008.034004920522,0.0,0.0,0.0,0.0,72593.0,72614.0,72676.0,72700.0,72712.0,72735.0,72744.0,72773.0,72925.0,72998.0,0.056698690266096856,-0.09089273503800166,0.04345580288555867,-0.10406040259152662,0.006844196022658173
95,95,73327.44321802072,1527.107228202127,10.751960108382765,73414.71619304917,-2277.389466773848,20.383723206912137,73448.75893767165,32701.7751292575,10.35917716075132,73472.60271279886,-7700.888965261707,20.383723206912453,73685.98607685028,7036.6791364535375,30.30010283459488,0.9884007089386456,88.0,61.0,94.0,226.0,320.0,27.0,724.0,724.0,27.0,13.0,14.0,0.4814814814814814,58.32562613577625,1539.1931723332004,23.0,14.0,9.0,0.6086956521739131,270.2718580748427,37.91214424744203,24.0,13.0,11.0,0.5416666666666666,1407.3685848672717,24968.252844486204,30.0,5.0,25.0,0.1666666666666666,857.3522813662771,17186.657629183068,74.0,37.0,37.0,0.5,50.959488234835376,7236.125848222035,0.0,0.0,0.0,0.0,73314.0,73341.0,73402.0,73424.0,73436.0,73460.0,73468.0,73496.0,73649.0,73722.0,0.03819353681171647,-0.11867616936760056,0.04303645839727313,-0.11133159888861491,0.007241979809884978
96,96,74050.99375860159,1243.7481173308,8.30246969664068,74137.60271279886,-2760.840646550849,20.383723206912453,74172.87066140394,33123.326013924205,10.33521177376197,74197.17805189872,-8123.80210855718,22.93168860777651,74411.36047790424,6716.158549593636,27.68237466013849,0.9779755690574776,68.0,44.0,114.0,225.0,339.0,24.0,724.0,725.0,24.0,12.0,12.0,0.5,58.761841029099976,1187.251333688967,45.0,34.0,11.0,0.7555555555555555,229.2619993090935,1177.2875532569228,23.0,12.0,11.0,0.5217391304347826,1411.612497705724,24924.0071732856,31.0,5.0,26.0,0.1612903225806451,885.5562604533576,18198.379096513905,72.0,36.0,36.0,0.5,49.37011165680445,6751.572917356524,0.0,0.0,0.0,0.0,74039.0,74063.0,74107.0,74149.0,74161.0,74184.0,74192.0,74221.0,74376.0,74446.0,0.04724577284603927,-0.08304064908473194,0.04261687057369535,-0.10900761104465603,0.007350944932619496
97,97,74808.808960177,587.8058268272529,4.887020222216204,74893.60271279886,-2827.5050237908895,20.383723206912453,74929.19242429906,32699.49069146303,10.341856356589783,74953.60271279886,-8157.849226415491,20.383723206912453,75168.22470417978,6620.614181858101,27.72913490804669,0.9777540295065374,55.0,39.0,120.0,227.0,347.0,16.0,757.0,756.0,16.0,8.0,8.0,0.5,56.53903658488016,545.251841181034,51.0,40.0,11.0,0.7843137254901961,225.68951445801335,1109.4319968591203,23.0,12.0,11.0,0.5217391304347826,1410.0375735475593,25544.521975913864,29.0,6.0,23.0,0.2068965517241379,843.7306410479774,17408.88914102508,71.0,36.0,35.0,0.5070422535211268,50.4300704652475,6698.031475195326,0.0,0.0,0.0,0.0,74801.0,74817.0,74856.0,74905.0,74917.0,74940.0,74949.0,74976.0,75132.0,75203.0,0.09618658748256355,-0.07981931510608853,0.04312108671208395,-0.10342562330227173,0.007617128725524693
98,98,75570.72435733903,755.4593639744394,6.24968831064281,75656.027373699,-2861.5758940053433,17.8357578060484,75691.06674656573,32476.881522902688,10.34306051803254,75715.60271279886,-8207.35911447231,20.383723206912453,75930.0720504623,6600.477585560736,27.90922020437221,0.9790636350308553,65.0,46.0,112.0,227.0,339.0,19.0,763.0,762.0,19.0,10.0,9.0,0.5263157894736842,51.04698250725177,689.5300362799229,45.0,34.0,11.0,0.7555555555555555,230.01564938167743,984.0679957011693,24.0,13.0,11.0,0.5416666666666666,1409.72434775616,25247.42194621927,29.0,6.0,23.0,0.2068965517241379,834.2228424098115,17335.672080593045,71.0,36.0,35.0,0.5070422535211268,46.11089758979439,6615.304469533867,0.0,0.0,0.0,0.0,75561.0,75580.0,75626.0,75666.0,75678.0,75702.0,75711.0,75738.0,75894.0,75965.0,0.06757078532814231,-0.08038076147605677,0.043407010822822466,-0.10164327291817882,0.006985994118163056
99,99,76335.17303881024,871.3449031049506,6.180273846166173,76419.60271279886,-2550.297361910451,20.383723206912453,76455.54122147881,33057.90106391401,10.295527069241862,76480.17805189872,-7615.743662036256,22.93168860777651,76694.54763186825,6851.930498571088,28.466277229125037,0.9804868335389793,80.0,62.0,96.0,228.0,324.0,18.0,764.0,764.0,18.0,9.0,9.0,0.5,60.049182257076154,842.4083642336668,47.0,36.0,11.0,0.7659574468085106,208.86758391234125,1262.6536887927623,24.0,13.0,11.0,0.5416666666666666,1413.593002225011,24720.879708177126,29.0,5.0,24.0,0.1724137931034483,872.0074207896664,17693.681955967328,73.0,37.0,36.0,0.5068493150684932,44.18974994600482,6792.857333406866,0.0,0.0,0.0,0.0,76326.0,76344.0,76406.0,76431.0,76443.0,76467.0,76475.0,76502.0,76658.0,76730.0,0.06891551444565394,-0.0818993059522583,0.04276112386845057,-0.114500626529296,0.00644924083150292
100,100,77127.54546274705,732.1718194613214,5.767685266161802,77213.027373699,-2769.0526534625956,17.8357578060484,77247.75369375343,33215.8676249696,10.345693085707412,77272.17805189872,-7974.53637959551,22.93168860777284,77487.55655234476,6645.168589902163,28.003290899270254,0.9779606538933022,62.0,45.0,114.0,228.0,342.0,17.0,792.0,792.0,17.0,9.0,8.0,0.5294117647058824,54.67881964060125,650.8855014475917,45.0,35.0,10.0,0.7777777777777778,236.2159223447821,967.8691593808064,24.0,13.0,11.0,0.5416666666666666,1419.8958844318863,25105.272816757068,30.0,5.0,25.0,0.1666666666666666,889.341700935193,18102.421866156757,72.0,37.0,35.0,0.5138888888888888,50.28465508307724,6669.364127492909,0.0,0.0,0.0,0.0,77119.0,77136.0,77181.0,77223.0,77235.0,77259.0,77267.0,77295.0,77451.0,77523.0,0.07468031162525475,-0.0853056810058859,0.042747517555871334,-0.11152268402847298,0.007567099976889763
101,101,77896.08720606941,881.1305421653495,6.433999129039017,77980.60271312558,-2648.531300793539,20.383723206912453,78016.12908852013,31916.362867084634,10.305993655454465,78040.70288612085,-7820.319088972147,20.383723206912453,78254.60855066532,6917.920391048498,28.692619143654355,0.9822454396325804,82.0,62.0,98.0,224.0,322.0,20.0,769.0,769.0,20.0,10.0,10.0,0.5,57.234076123162176,827.9451899079866,27.0,16.0,11.0,0.5925925925925926,220.87492246320187,1121.637978198423,23.0,12.0,11.0,0.5217391304347826,1386.2963716308343,25039.523920002244,31.0,5.0,26.0,0.1612903225806451,789.1546227095845,16626.863802972086,72.0,37.0,35.0,0.5138888888888888,48.77058561705565,6999.810812868855,0.0,0.0,0.0,0.0,77886.0,77906.0,77968.0,77992.0,78004.0,78027.0,78036.0,78066.0,78218.0,78290.0,0.06495527437116333,-0.08339524716850599,0.04343528670243697,-0.10091079580402466,0.007049891132046383
102,102,78649.98435759186,1115.6395175741154,7.780114341972954,78735.23180491538,-2298.5940537055303,17.835757806048353,78768.66585910745,31565.451562509465,10.298897863539146,78792.60271279886,-7454.799055879636,20.383723206887844,79006.21226439878,7227.720997223663,30.43214202813912,0.9824140212442648,84.0,62.0,93.0,227.0,320.0,22.0,754.0,752.0,22.0,11.0,11.0,0.5,57.703163107976586,1064.0455791747977,21.0,12.0,9.0,0.5714285714285714,264.94093208750905,37.812690404512864,24.0,13.0,11.0,0.5416666666666666,1374.6907815135576,24073.765174616856,30.0,5.0,25.0,0.1666666666666666,819.5766645114386,16628.55142123005,74.0,37.0,37.0,0.5,47.835198180455485,7398.251195070843,0.0,0.0,0.0,0.0,78639.0,78661.0,78723.0,78744.0,78756.0,78780.0,78788.0,78816.0,78969.0,79043.0,0.05172205017750564,-0.11526216717580105,0.043550486796972945,-0.10993947098614744,0.0066182961681600745
103,103,79366.38956566677,588.2297403432748,4.939831277865692,79452.17805189872,-3138.424955187322,22.93168860777651,79489.2625909856,32746.2951658026,10.31298017388154,79514.02460070312,-8423.719413719922,20.383723206912453,79727.74145421248,6525.850365848035,27.097052986309013,0.9772006423792108,53.0,38.0,125.0,225.0,350.0,15.0,716.0,721.0,15.0,7.0,8.0,0.4666666666666667,56.37510557490861,572.5797765595676,58.0,45.0,13.0,0.7758620689655172,164.81016955978214,2230.0868202686893,23.0,12.0,11.0,0.5217391304347826,1417.1227050130178,25414.661950739817,30.0,6.0,24.0,0.2,847.8718577862533,17728.65225402244,70.0,36.0,34.0,0.5142857142857142,44.470584216321065,6475.912848741398,0.0,0.0,0.0,0.0,79359.0,79374.0,79412.0,79465.0,79477.0,79500.0,79509.0,79537.0,79693.0,79762.0,0.09583858432932962,-0.052513656344523034,0.04327581785474585,-0.10065290831094198,0.006814527107310115
104,104,80073.38231456079,1436.4821211790202,9.32494785931654,80159.60271279886,-2905.8615281191733,20.383723206912453,80195.75522277414,32301.019458081508,10.307723093724292,80220.41357479604,-8541.437690744937,20.383723206906957,80434.01501612789,6804.326236930463,27.527334572853626,0.9776917803489288,65.0,39.0,118.0,225.0,343.0,26.0,708.0,706.0,26.0,12.0,14.0,0.4615384615384615,59.62429200933136,1397.3400512443511,50.0,38.0,12.0,0.76,204.9345258609497,1497.7917311642327,23.0,13.0,10.0,0.5652173913043478,1409.6796673660567,24081.61638028398,30.0,5.0,25.0,0.1666666666666666,868.0641675141953,18093.2249834394,70.0,35.0,35.0,0.5,51.06716816807105,6835.351806490937,0.0,0.0,0.0,0.0,80061.0,80087.0,80126.0,80171.0,80183.0,80206.0,80215.0,80244.0,80399.0,80469.0,0.0415071591426377,-0.07052453252774027,0.043641955920167216,-0.10162974887176021,0.0075051028404405605
105,105,80779.56648108472,1240.8702657792562,8.495813184182508,80865.17805189872,-2988.1618933580735,22.931688607770504,80901.66144421646,33124.4107493487,10.373907203447448,80926.1780519029,-8464.018971437665,22.93168860776794,81140.1503379677,6618.140340144889,27.17298915223074,0.9756587675487246,60.0,35.0,123.0,225.0,348.0,25.0,706.0,706.0,25.0,13.0,12.0,0.52,56.38639799695225,1112.3582338462852,54.0,41.0,13.0,0.7592592592592593,174.56238906229612,2091.919752777597,24.0,13.0,11.0,0.5416666666666666,1407.524592490334,24117.705862327173,31.0,5.0,26.0,0.1612903225806451,873.5911064974418,18324.090861842295,70.0,35.0,35.0,0.5,46.901586790867505,6600.500421220457,0.0,0.0,0.0,0.0,80767.0,80792.0,80827.0,80878.0,80889.0,80913.0,80921.0,80950.0,81105.0,81175.0,0.0454410098718435,-0.05841798245613936,0.04249206433107671,-0.103212328498486,0.007086822639037706
106,106,81487.86788515015,992.2112765734914,6.533781692018332,81574.17805189872,-3557.3520264612907,22.93168860777651,81610.17292403945,31790.162471415995,10.252871907100332,81637.62347235669,-8457.071914652957,22.93168860777651,81849.03408860519,6390.423247605306,26.26626396956084,0.9683074770717788,55.0,35.0,128.0,222.0,350.0,20.0,707.0,709.0,20.0,10.0,10.0,0.5,63.65124831217361,875.3779053844714,58.0,45.0,13.0,0.7758620689655172,183.17869413676777,2418.9470724548864,23.0,12.0,11.0,0.5217391304347826,1377.432536958529,24377.15815020717,32.0,9.0,23.0,0.28125,639.5940071593155,15265.82103571422,69.0,35.0,34.0,0.5072463768115942,48.86973302886172,6375.603294441018,0.0,0.0,0.0,0.0,81478.0,81498.0,81533.0,81587.0,81598.0,81621.0,81629.0,81661.0,81814.0,81883.0,0.06415090194498416,-0.051492990509288024,0.04332889264712133,-0.07562830417122707,0.007647339015795981
107,107,82187.50959580031,1454.138002011123,9.963565358433286,82272.60271279886,-2568.3323798804886,20.383723206912453,82307.89432926837,31341.861454314894,10.26195507355435,82332.17805189872,-7386.141562079195,22.931688607776454,82543.83204634627,6798.576781710551,29.84121446267531,0.9809536596882,62.0,35.0,121.0,224.0,345.0,27.0,700.0,698.0,27.0,14.0,13.0,0.5185185185185185,54.22565027509096,1344.0201158497823,51.0,40.0,11.0,0.7843137254901961,208.500057963227,1123.611357301391,23.0,12.0,11.0,0.5217391304347826,1347.856391262898,23920.465975045532,33.0,5.0,28.0,0.1515151515151515,819.0347657576963,16900.426374883315,75.0,38.0,37.0,0.5066666666666667,42.55987289617751,6861.897141474343,0.0,0.0,0.0,0.0,82174.0,82201.0,82236.0,82284.0,82296.0,82319.0,82327.0,82357.0,82506.0,82581.0,0.03729058053643809,-0.0811811039710246,0.043004988495261694,-0.1108880406466429,0.0062601150597683276
108,108,82853.24495799872,1517.4415997844164,9.006350556560996,82940.60271279886,-2880.0189506085376,20.383723206900743,82975.6694141954,32605.309110021808,10.32113886992656,83000.17805189875,-8075.213756533623,22.931688607694937,83212.37398034439,6392.143213793235,26.625467745762457,0.9794368303634726,62.0,37.0,121.0,222.0,343.0,25.0,667.0,667.0,25.0,12.0,13.0,0.48,65.18136963709985,1449.6550058765129,50.0,39.0,11.0,0.78,234.22558237856785,1224.516822760252,24.0,13.0,11.0,0.5416666666666666,1397.681132564148,24128.471943204426,31.0,5.0,26.0,0.1612903225806451,858.4751691532714,17856.67690351815,68.0,34.0,34.0,0.5,50.554943825818555,6450.024953957594,0.0,0.0,0.0,0.0,82841.0,82866.0,82903.0,82952.0,82963.0,82987.0,82995.0,83024.0,83178.0,83246.0,0.04295477970708078,-0.08132779207201982,0.04286667327237656,-0.10630990027461286,0.007908919142601337
109,109,83536.58778191802,1233.4562592113607,7.765969060072559,83623.60271279886,-3304.2177114678193,20.38372320691189,83659.12754853594,33038.62894096226,10.358226301427347,83683.17805345419,-8622.003587053721,22.931688607771303,83897.02955955447,6415.643991192634,26.176862239342583,0.9734431342345312,60.0,37.0,122.0,223.0,345.0,23.0,682.0,684.0,23.0,12.0,11.0,0.5217391304347826,62.59397817885776,1099.0869816177128,52.0,41.0,11.0,0.7884615384615384,221.62190029962255,1740.6784337199672,23.0,12.0,11.0,0.5217391304347826,1407.5055668424852,24847.40885243273,32.0,5.0,27.0,0.15625,903.1838517751694,18730.0343266931,67.0,34.0,33.0,0.5074626865671642,52.44272331267575,6449.0909789657035,0.0,0.0,0.0,0.0,83525.0,83548.0,83585.0,83635.0,83647.0,83670.0,83678.0,83707.0,83863.0,83930.0,0.05074681628262902,-0.06707242671402919,0.04260181526774613,-0.10475336070740397,0.00817419473160744
110,110,84231.77399513095,1647.6279899570102,10.079618876372484,84316.60271280471,-2881.158184256351,20.38372320521364,84352.84578149507,32510.04695401749,10.363563798566558,84376.60271280463,-8456.176351214935,20.38372320630951,84590.05821264214,6488.207822147023,27.93938190965813,0.981364115916989,69.0,41.0,113.0,225.0,338.0,28.0,696.0,693.0,28.0,14.0,14.0,0.5,62.04471282328036,1560.6814748898378,47.0,35.0,12.0,0.7446808510638298,204.7434528209701,1514.6156682755689,24.0,13.0,11.0,0.5416666666666666,1402.577259941885,24318.790485144556,29.0,5.0,24.0,0.1724137931034483,871.7599183517159,17880.233876155635,71.0,36.0,35.0,0.5070422535211268,48.17668907384735,6530.718225530287,0.0,0.0,0.0,0.0,84218.0,84246.0,84287.0,84328.0,84340.0,84364.0,84372.0,84400.0,84555.0,84625.0,0.0376569912634825,-0.07106289892021876,0.043142886318365,-0.10309150166037707,0.007425269102725061
111,111,0.0,0.0,0.0,0.0,0.0,0.0,0.0,0.0,0.0,0.0,0.0,0.0,0.0,0.0,0.0,0.0,0.0,0.0,0.0,0.0,0.0,0.0,0.0,0.0,0.0,0.0,0.0,0.0,0.0,0.0,0.0,0.0,0.0,0.0,0.0,0.0,0.0,0.0,0.0,0.0,0.0,0.0,0.0,0.0,0.0,0.0,0.0,0.0,0.0,0.0,0.0,0.0,0.0,0.0,0.0,0.0,0.0,0.0,,84643.0,84926.0,84984.0,84996.0,85018.0,85026.0,85058.0,85211.0,85275.0,,,,,
112,112,85571.2761378587,1692.7193895240753,9.77232893763624,85657.60271279886,-2934.404688073588,20.38372320691055,85693.07928073216,33267.29739392853,10.370623663110315,85717.17805189881,-8530.258400311996,22.93168860698346,85930.93362703333,6531.963661289536,27.929044746422104,0.9774000972571136,70.0,43.0,112.0,226.0,338.0,27.0,1339.0,1341.0,27.0,13.0,14.0,0.4814814814814814,66.74757955994465,1651.4941344690508,45.0,34.0,11.0,0.7555555555555555,227.1298249468979,1443.9209392950645,23.0,12.0,11.0,0.5217391304347826,1410.2584626855073,25058.039535067684,31.0,5.0,26.0,0.1612903225806451,908.8025217132712,18733.633608820037,71.0,36.0,35.0,0.5070422535211268,47.90143840827635,6575.875720670548,0.0,0.0,0.0,0.0,85558.0,85585.0,85628.0,85669.0,85681.0,85704.0,85712.0,85740.0,85895.0,85966.0,0.039432158674989476,-0.07740235212615024,0.04239173522231738,-0.10653868605903329,0.007333390216506453
113,113,86315.74050296487,1287.3060352696025,7.6166821182858175,86400.60271279886,-2978.7282212999676,20.383723206874993,86435.89505122109,33469.366525304256,10.394681724851226,86460.17805190523,-8388.832310732705,22.93168860714496,86675.55772517805,6349.828039180034,27.11414218135611,0.9753940637080653,62.0,40.0,117.0,226.0,343.0,22.0,744.0,743.0,22.0,11.0,11.0,0.5,67.07806995823505,1176.8579811078469,47.0,36.0,11.0,0.7659574468085106,233.77187303714837,1307.5521426789524,23.0,12.0,11.0,0.5217391304347826,1418.9369100357233,25093.176653092774,31.0,5.0,26.0,0.1612903225806451,901.2125871535025,18516.481134544585,70.0,36.0,34.0,0.5142857142857142,47.11739366597027,6303.706450103096,0.0,0.0,0.0,0.0,86305.0,86327.0,86367.0,86412.0,86424.0,86447.0,86455.0,86484.0,86640.0,86710.0,0.05210732189582781,-0.07848043046207363,0.0423950931058987,-0.10743003957779529,0.007420262938656625
114,114,87045.85550592552,716.6795823761793,5.458097086336998,87130.60271279886,-2630.641647215609,20.383723206912453,87165.69110511834,31810.69653644988,10.29593995224991,87190.17805189872,-7680.3305634961935,22.93168860777651,87402.80882959382,6594.209806549704,28.33431648963547,0.9773276881353256,60.0,43.0,118.0,223.0,341.0,17.0,730.0,729.0,17.0,9.0,8.0,0.5294117647058824,58.53040272649585,690.7640086606582,49.0,38.0,11.0,0.7755102040816326,219.9268053087696,1034.6158876513598,24.0,13.0,11.0,0.5416666666666666,1367.3787678312672,23784.881228754315,32.0,5.0,27.0,0.15625,824.5580709517259,17186.83997179167,73.0,37.0,36.0,0.5068493150684932,44.06779749849781,6609.707055834013,0.0,0.0,0.0,0.0,87037.0,87054.0,87097.0,87142.0,87153.0,87177.0,87185.0,87215.0,87366.0,87438.0,0.08166885755617037,-0.08360196286770954,0.04298487353976904,-0.10735971116539748,0.0066828018506064875
115,115,87740.16702144843,1482.149835293675,9.07803592589401,87825.60271279886,-2499.14090797536,20.383723206912453,87860.82588383777,31508.796363453355,10.26182889321895,87885.17805189872,-7445.325160699685,22.93168860777651,88097.23236237497,6648.49562892092,29.587688480947556,0.984477220024347,80.0,55.0,102.0,224.0,326.0,25.0,695.0,695.0,25.0,12.0,13.0,0.48,64.75187298145049,1441.8871740711315,45.0,34.0,11.0,0.7555555555555555,213.6314956636944,1040.9582768538023,23.0,12.0,11.0,0.5217391304347826,1353.8052403950874,23891.980595846704,32.0,5.0,27.0,0.15625,826.6013242166615,16999.14614229235,74.0,37.0,37.0,0.5,46.94551380426216,6761.877303345584,0.0,0.0,0.0,0.0,87728.0,87753.0,87808.0,87837.0,87849.0,87872.0,87880.0,87910.0,88060.0,88134.0,0.043687804997542955,-0.08548197301798587,0.042965945914879455,-0.1110228641967036,0.007061073124580157
116,116,88404.85218924584,1487.0535764924794,8.700797928511136,88490.60271279886,-2933.408151073896,20.383723206879026,88526.16130146006,33078.93415894304,10.286565545846074,88550.17805189874,-8334.596574695786,22.931688607352893,88763.06789025367,6283.1913788087995,27.48266790899968,0.9780408024520832,66.0,41.0,116.0,224.0,340.0,25.0,666.0,666.0,25.0,13.0,12.0,0.52,65.86304249500675,1367.380193811057,48.0,37.0,11.0,0.7708333333333334,221.02859668972943,1568.2209367339285,23.0,12.0,11.0,0.5217391304347826,1413.8195905047671,25148.208987421614,32.0,5.0,27.0,0.15625,904.6270501915124,18536.456373391946,71.0,36.0,35.0,0.5070422535211268,45.93368190998008,6301.189227292572,0.0,0.0,0.0,0.0,88392.0,88417.0,88458.0,88502.0,88514.0,88537.0,88545.0,88574.0,88727.0,88798.0,0.044290968083583265,-0.07534873611393379,0.04274078432247596,-0.10853879273989112,0.007310565465966824
117,117,89086.91414712176,1348.7238756273823,8.097436903783551,89172.60271279886,-3371.6643906234963,20.383723206903586,89208.07361171435,32832.67903979358,10.346050920871177,89232.17805193726,-8620.532003122991,22.931688607490713,89446.12126368629,6250.504856242901,27.080376681369984,0.973267871980721,57.0,33.0,124.0,224.0,348.0,24.0,681.0,682.0,24.0,12.0,12.0,0.5,63.93109323529377,1240.5661728064115,54.0,43.0,11.0,0.7962962962962963,222.1779464783368,1797.4437766788674,23.0,12.0,11.0,0.5217391304347826,1401.726802280035,24550.71205724728,31.0,5.0,26.0,0.1612903225806451,897.9886796787588,18676.407581883075,70.0,36.0,34.0,0.5142857142857142,49.89644206732234,6305.98656406754,0.0,0.0,0.0,0.0,89075.0,89099.0,89132.0,89184.0,89196.0,89219.0,89227.0,89256.0,89411.0,89480.0,0.047401172612559495,-0.06589562920206632,0.04269303764645968,-0.10416859184020676,0.007982785905283571
118,118,89791.64308244549,1348.0778209632326,8.578658588738271,89877.17805189872,-3400.2178938786724,22.93168860777651,89913.29774781688,31674.616979532,10.197979718479289,89940.31794791257,-8498.533579276353,20.38372320691245,90151.09845248808,6377.038758790132,26.953464106401626,0.971422311408512,60.0,35.0,123.0,223.0,346.0,25.0,705.0,705.0,25.0,13.0,12.0,0.52,60.92021428007762,1221.0400283618133,54.0,41.0,13.0,0.7592592592592593,183.3973588365081,2213.3641641274344,23.0,12.0,11.0,0.5217391304347826,1396.4618431692218,24909.417298964123,29.0,7.0,22.0,0.2413793103448276,721.89954002123,16218.081659814568,69.0,35.0,34.0,0.5072463768115942,47.89074340594595,6389.73554644624,0.0,0.0,0.0,0.0,89779.0,89804.0,89839.0,89890.0,89901.0,89924.0,89933.0,89962.0,90116.0,90185.0,0.04519042842537735,-0.053936943031408016,0.04408772627216327,-0.08494401219777253,0.007509871778642271
119,119,90546.02891693496,1348.4118287723743,8.188945250210288,90631.60271279886,-3046.3330805516566,20.38372320689358,90666.76449760298,33030.71365868325,10.384202729586836,90691.17805189877,-8471.557824501291,22.931688607604745,90905.82433794574,6323.813016551813,27.075145425901557,0.9721991661186676,63.0,39.0,118.0,225.0,343.0,24.0,754.0,753.0,24.0,12.0,12.0,0.5,64.25679258621825,1261.148828158024,48.0,37.0,11.0,0.7708333333333334,233.93367638723944,1345.9918526125032,24.0,13.0,11.0,0.5416666666666666,1405.1057596076728,24377.17040424368,31.0,5.0,26.0,0.1612903225806451,882.8226285255415,18398.36619084373,70.0,36.0,34.0,0.5142857142857142,47.36658810818332,6312.532090648905,0.0,0.0,0.0,0.0,90534.0,90558.0,90597.0,90643.0,90654.0,90678.0,90686.0,90715.0,90871.0,90940.0,0.04765368503531977,-0.07679189051279865,0.04253937030023246,-0.10421018740759314,0.007490194283766302
120,120,91307.83507303006,1014.486314465534,6.363997330149837,91393.60271279886,-3087.345278885656,20.383723206912453,91428.68420707766,32068.23323271757,10.303542012656829,91453.72929899224,-8181.160380296682,22.93168860777651,91666.79476183864,6230.041082715551,26.78607918939075,0.9711198537207508,58.0,39.0,123.0,222.0,345.0,19.0,762.0,762.0,19.0,10.0,9.0,0.5263157894736842,67.09832296472226,922.2812608680364,51.0,40.0,11.0,0.7843137254901961,227.78131507617465,1438.8778888336185,24.0,13.0,11.0,0.5416666666666666,1384.098053185571,23699.497234885843,32.0,6.0,26.0,0.1875,778.2760087972988,17009.4280740814,70.0,36.0,34.0,0.5142857142857142,46.12373865480607,6206.900310828264,0.0,0.0,0.0,0.0,91298.0,91317.0,91356.0,91405.0,91416.0,91439.0,91448.0,91479.0,91632.0,91701.0,0.0661401952968404,-0.07377902194288741,0.04316103238807203,-0.0951302715775724,0.007403440529914073
121,121,92040.57844001312,1424.7003675854376,9.146093686190447,92125.60271279886,-2278.915794946866,20.383723206912453,92160.7492194592,31588.484118777124,10.226339367518872,92185.17805189872,-7319.187952564845,22.931688607776486,92396.44564362265,6868.269927371426,30.146410336766778,0.9845543766880428,85.0,60.0,97.0,223.0,320.0,25.0,732.0,732.0,25.0,13.0,12.0,0.52,60.20808292843131,1336.1757001544406,27.0,16.0,11.0,0.5925925925925926,215.0012923289787,872.7983626902586,24.0,13.0,11.0,0.5416666666666666,1360.8148727916373,23941.09359256857,32.0,5.0,27.0,0.15625,820.7669765782088,16886.241330157012,75.0,37.0,38.0,0.4933333333333333,44.249568337734,6995.923587260148,0.0,0.0,0.0,0.0,92028.0,92053.0,92113.0,92137.0,92148.0,92172.0,92180.0,92210.0,92359.0,92433.0,0.042260172242722965,-0.09434367553452828,0.04307946109964577,-0.11213907634255921,0.0064426076443779
122,122,92725.86942453304,1681.5471438020472,10.641126436295204,92811.60271280042,-2696.0075084379255,20.383723206222477,92847.22975088476,32506.597571978753,10.302846184007317,92871.60271280196,-8074.691158447031,20.383723206157725,93083.91242066944,6623.996475450035,28.58821240082102,0.9843617497210466,79.0,51.0,103.0,225.0,328.0,28.0,686.0,687.0,28.0,14.0,14.0,0.5,60.33961190393568,1609.6275242230809,42.0,31.0,11.0,0.7380952380952381,220.33519671183944,1068.5722639458834,23.0,12.0,11.0,0.5217391304347826,1407.921431327204,25467.978463600208,30.0,6.0,24.0,0.2,836.704560662851,17247.120473425755,72.0,37.0,35.0,0.5138888888888888,47.86169025014775,6656.2981297407005,0.0,0.0,0.0,0.0,92712.0,92740.0,92791.0,92823.0,92835.0,92858.0,92867.0,92894.0,93047.0,93119.0,0.03588338996402167,-0.08172647740120809,0.043311867020523136,-0.10362062699915951,0.0072255005611089225
123,123,93436.3871642372,1392.7684711712566,8.70251210394248,93521.60271279886,-3159.4316983492454,20.383723206912453,93557.40976433428,32424.465353404867,10.274487181359971,93582.63255551088,-8747.4499389911,20.383723206912453,93795.6126472477,6556.712226658384,26.777085601716177,0.975490274308223,63.0,38.0,118.0,224.0,342.0,25.0,710.0,710.0,25.0,12.0,13.0,0.48,60.668797606457446,1351.6857000643604,48.0,37.0,11.0,0.7708333333333334,221.84646293260408,1617.784683644309,23.0,12.0,11.0,0.5217391304347826,1413.7003652553278,25376.74248624456,29.0,7.0,22.0,0.2413793103448276,802.6506292687687,17336.531613309995,69.0,35.0,34.0,0.5072463768115942,49.14371465668149,6501.857953237019,0.0,0.0,0.0,0.0,93424.0,93449.0,93487.0,93533.0,93545.0,93568.0,93577.0,93605.0,93761.0,93829.0,0.04355985855670446,-0.07021720490065206,0.04359980495736613,-0.09175824210105095,0.007495176386859286
124,124,94167.73339619156,1329.7039961221342,8.55649271711543,94252.17805189872,-2993.536523377687,22.931688607774717,94288.65664159422,33189.15910599116,10.339685624800325,94313.17805189872,-8542.000564064521,22.93168860762363,94527.43485345732,6526.500010755904,27.22904693343514,0.9747991095467192,64.0,39.0,117.0,226.0,343.0,25.0,731.0,731.0,25.0,13.0,12.0,0.52,59.71204585752961,1207.0142527109388,50.0,37.0,13.0,0.74,176.82091025219663,2163.131186970879,23.0,13.0,10.0,0.5652173913043478,1412.180832047479,24060.250592768425,30.0,5.0,25.0,0.1666666666666666,884.0020001298824,18543.447882489138,70.0,35.0,35.0,0.5,47.84252873132348,6522.969708313927,0.0,0.0,0.0,0.0,94155.0,94180.0,94219.0,94265.0,94276.0,94299.0,94308.0,94336.0,94492.0,94562.0,0.04490626938902951,-0.05906756402380048,0.042549461031465494,-0.10348887166418655,0.0073305031260978
125,125,94921.28471207732,1427.7164604579084,8.670619302633927,95005.60271279886,-3089.552050050532,20.383723206912453,95041.63405731216,32480.44362888441,10.359388451108789,95066.29104604012,-8752.07889933098,20.383723206912453,95279.90638432308,6588.438067975273,27.782697688343927,0.9754965867237778,64.0,39.0,116.0,226.0,342.0,25.0,754.0,753.0,25.0,12.0,13.0,0.48,63.336567487596106,1375.4339667215909,47.0,36.0,11.0,0.7659574468085106,213.36473750828975,1579.8272320972378,23.0,13.0,10.0,0.5652173913043478,1413.3354900995178,23867.556429337907,30.0,5.0,25.0,0.1666666666666666,868.8025938171043,18236.39129570806,71.0,36.0,35.0,0.5070422535211268,48.29001642752431,6620.45691749097,0.0,0.0,0.0,0.0,94909.0,94934.0,94973.0,95017.0,95029.0,95052.0,95061.0,95089.0,95244.0,95315.0,0.04436214699610755,-0.06906008834024983,0.04351342938070766,-0.09926814003967864,0.0073295090474098604
126,126,95676.6786509125,1421.546045274207,8.153646958790304,95760.60271279894,-2860.851116122987,20.383723206783326,95795.9869587682,32065.870222253987,10.3110641117802,95820.17805192692,-8064.200321643304,22.9316886066502,96033.65798557377,6589.158726826385,28.124681597363267,0.97710970750334,66.0,43.0,115.0,223.0,338.0,23.0,756.0,755.0,23.0,12.0,11.0,0.5217391304347826,68.50256845110292,1317.3161544194456,46.0,35.0,11.0,0.7608695652173914,216.4078251852964,1442.6086817513915,23.0,12.0,11.0,0.5217391304347826,1373.6309957902045,24186.452964820877,33.0,5.0,28.0,0.1515151515151515,848.0266400544963,17704.605502613333,72.0,37.0,35.0,0.5138888888888888,45.55647584310176,6608.647111894296,0.0,0.0,0.0,0.0,95665.0,95688.0,95731.0,95772.0,95784.0,95807.0,95815.0,95846.0,95997.0,96069.0,0.04818877916676221,-0.07564456044765144,0.04283778940878058,-0.10515942142192314,0.00691385315360944
127,127,96378.13830956323,1687.4291039814598,10.647098816450084,96464.02737369949,-2284.5216841057572,17.8357578060484,96498.42115477902,31218.56364517853,10.249758845609476,96522.60271279886,-7300.460127952704,20.383723206912453,96733.71932965836,6970.0626177564345,31.18887107536172,0.9869288144907992,88.0,60.0,95.0,224.0,319.0,28.0,701.0,702.0,28.0,14.0,14.0,0.5,62.46109961786557,1659.0554374166604,23.0,13.0,10.0,0.5652173913043478,231.64308832408915,402.26932415277633,23.0,12.0,11.0,0.5217391304347826,1360.0157343551027,25286.022271788926,30.0,5.0,25.0,0.1666666666666666,791.8198493168384,16240.26358176532,76.0,39.0,37.0,0.5131578947368421,43.40137985189707,7088.736452107967,0.0,0.0,0.0,0.0,96364.0,96392.0,96452.0,96474.0,96486.0,96509.0,96518.0,96547.0,96696.0,96771.0,0.03701554007246271,-0.10139675623817178,0.04356432761649964,-0.10846163603921928,0.006226827825238012
128,128,97063.14331009162,1128.0363899348845,7.365761051258352,97148.60271279886,-3565.5011604557026,20.383723206912453,97184.28457769552,31862.709087537576,10.249922687002991,97210.47377272544,-8489.275234415223,20.383723206912453,97421.52343099416,6158.9642462180145,26.00970428457374,0.9727131164407304,56.0,34.0,125.0,222.0,347.0,22.0,686.0,686.0,22.0,11.0,11.0,0.5,60.84084666535354,1042.066820829943,54.0,43.0,11.0,0.7962962962962963,223.54174631933464,1848.1853494530085,23.0,12.0,11.0,0.5217391304347826,1404.1478060416266,25090.1122611812,30.0,7.0,23.0,0.2333333333333333,785.0235764025259,17078.11695471729,68.0,35.0,33.0,0.5147058823529411,46.617064734717374,6042.985894117201,0.0,0.0,0.0,0.0,97052.0,97074.0,97108.0,97160.0,97172.0,97195.0,97204.0,97233.0,97388.0,97455.0,0.053935180822371837,-0.06269574353209971,0.044068688641130935,-0.0924723907195361,0.007568977976019773
129,129,97775.17972211492,1195.9993460463425,7.808898841562601,97860.60271279886,-3220.57525174186,20.383723206912453,97895.94200582744,32892.95211381367,10.32297863232513,97921.036325048,-8489.909888684793,22.93168860777651,98134.04414876369,6371.287490570303,26.64521715529453,0.9728169724754951,59.0,36.0,122.0,223.0,345.0,23.0,712.0,712.0,23.0,11.0,12.0,0.4782608695652174,59.539916246719805,1104.2719242946505,51.0,40.0,11.0,0.7843137254901961,231.4255056686442,1615.818214910602,23.0,12.0,11.0,0.5217391304347826,1411.5043234295454,24689.049735387925,31.0,6.0,25.0,0.1935483870967742,830.163011654238,17871.746109401916,69.0,35.0,34.0,0.5072463768115942,48.50782692042115,6339.876736889459,0.0,0.0,0.0,0.0,97764.0,97787.0,97823.0,97872.0,97884.0,97907.0,97915.0,97945.0,98099.0,98168.0,0.04978256588813616,-0.071858437570579,0.042912059657812605,-0.09778231130116764,0.007613504647563651
130,130,98549.19053222051,1145.8007185459817,7.419152093933168,98633.60271279886,-2665.756484815593,20.383723206912453,98669.5766435075,33359.95589405382,10.332400166108844,98694.17805189872,-7848.237670023657,22.931688607759916,98908.85840757238,6656.1295353605265,28.165513066958155,0.9769312830355148,62.0,40.0,116.0,228.0,344.0,22.0,773.0,773.0,22.0,11.0,11.0,0.5,62.756730698446745,1118.8054091593922,49.0,38.0,11.0,0.7755102040816326,209.47196448780983,1287.2693233347534,24.0,13.0,11.0,0.5416666666666666,1422.3644487290064,24869.126520054055,29.0,5.0,24.0,0.1724137931034483,886.7174951811959,18022.25374327883,71.0,36.0,35.0,0.5070422535211268,47.32552782436772,6691.290473766925,0.0,0.0,0.0,0.0,98538.0,98560.0,98600.0,98645.0,98657.0,98681.0,98689.0,98716.0,98873.0,98944.0,0.054771069421290716,-0.07857880705945289,0.04263688037376971,-0.11298300745503838,0.00711006713029727
131,131,99342.69291715622,908.8150985443216,6.550926314971276,99428.027373699,-2581.244503469899,17.8357578060484,99462.92458827308,32996.03994961587,10.318251384288788,99487.60271279886,-7809.902205951194,20.383723206068954,99701.73848183788,6747.34657061168,28.668803992971224,0.9826112943973844,82.0,63.0,93.0,230.0,323.0,19.0,793.0,794.0,20.0,10.0,10.0,0.5,57.820963522038014,820.2349583692218,24.0,14.0,10.0,0.5833333333333334,238.7900686414557,691.0080083055751,24.0,13.0,11.0,0.5416666666666666,1428.8324637791884,25809.560908366297,27.0,6.0,21.0,0.2222222222222222,844.5339383663237,17150.3970921789,73.0,37.0,36.0,0.5068493150684932,48.1169507853055,6777.0030777573,0.0,0.0,0.0,0.0,99333.0,99352.0,99415.0,99438.0,99450.0,99474.0,99483.0,99508.0,99666.0,99738.0,0.06362236236463469,-0.09250966668227535,0.04330314989195612,-0.10813630133841927,0.007131240448635123
132,132,100154.5949575231,1011.0223812767356,7.556436316163853,100237.60271279886,-2339.9210702781957,20.383723206912453,100273.4780573986,33504.87285167598,10.316626200939789,100298.17805189872,-7585.097974210661,21.32735588860471,100513.29426470338,6805.498616572704,29.401985955645085,0.9847016748590623,81.0,60.0,94.0,231.0,325.0,21.0,812.0,810.0,21.0,11.0,10.0,0.5238095238095238,54.251226532727735,942.293007893618,26.0,15.0,11.0,0.5769230769230769,216.72736684595984,856.4996344523558,24.0,12.0,12.0,0.5,1424.9545162776694,27180.765660377103,28.0,5.0,23.0,0.1785714285714285,885.2371030636775,17656.61696679069,74.0,37.0,37.0,0.5,45.95205162821582,6891.749915209931,0.0,0.0,0.0,0.0,100144.0,100165.0,100225.0,100249.0,100261.0,100285.0,100293.0,100319.0,100476.0,100550.0,0.05365976810940466,-0.09262165702888127,0.04252976940356872,-0.11670740524031256,0.00675219469096852
133,133,100939.87471362756,1399.8100159228184,7.892941989031982,101024.17805189872,-2867.8545828818264,22.931688607772355,101060.621292256,33035.53306893938,10.368078677881202,101085.17805189911,-8314.58656214755,22.931688607771417,101300.21445556008,6526.360715358889,27.074260034274133,0.9771046770887036,62.0,39.0,119.0,226.0,345.0,23.0,785.0,787.0,23.0,12.0,11.0,0.5217391304347826,70.81408831156097,1281.1804728667869,52.0,39.0,13.0,0.75,177.5099321361421,2020.417063578336,23.0,13.0,10.0,0.5652173913043478,1403.994521301343,24098.414332300898,31.0,5.0,26.0,0.1612903225806451,864.6338493877327,18122.777976642825,70.0,35.0,35.0,0.5,44.89938565704448,6488.6646641608695,0.0,0.0,0.0,0.0,100928.0,100951.0,100990.0,101037.0,101048.0,101071.0,101080.0,101109.0,101265.0,101335.0,0.050588356638437894,-0.06189642013081687,0.042499526748106406,-0.10398999913285033,0.0068796972179885766
134,134,101701.96964312185,1392.8142043601142,8.686440167885857,101786.60271279886,-3119.8620150009865,20.383723206912453,101821.19862446631,30358.477755280932,10.130959789398492,101848.5823937009,-7797.766240563158,20.383723206912453,102059.0574974044,6700.689242078669,27.6483979439197,0.9772977091255572,71.0,46.0,111.0,222.0,333.0,25.0,763.0,761.0,25.0,12.0,13.0,0.48,60.82732412086534,1306.1398309920469,44.0,33.0,11.0,0.75,240.6405406771235,1226.1330664360885,23.0,12.0,11.0,0.5217391304347826,1357.6581169992585,24278.20072696234,31.0,8.0,23.0,0.2580645161290322,600.0095672457167,14042.900260901668,71.0,36.0,35.0,0.5070422535211268,44.632894331330895,6690.454321985786,0.0,0.0,0.0,0.0,101690.0,101715.0,101761.0,101798.0,101809.0,101832.0,101841.0,101872.0,102023.0,102094.0,0.04367224568104587,-0.07713178964969303,0.04472088910199361,-0.07694633934068582,0.006660940795619557
135,135,102411.61921987796,2037.5036546472431,12.846965597206362,102497.57284773482,-2351.726416277686,17.83575780604837,102532.06263308327,32237.995486912125,10.274651514041675,102556.60271279886,-7653.48753806323,20.383723206912453,102769.65254464874,6897.74656786481,30.389743038414355,0.9889056779662978,89.0,57.0,94.0,227.0,321.0,32.0,709.0,711.0,32.0,16.0,16.0,0.5,62.57416342868544,2015.3678958786288,22.0,13.0,9.0,0.5909090909090909,261.3778198325205,215.4085218571106,24.0,13.0,11.0,0.5416666666666666,1403.6651108641488,25401.25466979444,29.0,6.0,23.0,0.2068965517241379,814.8346878131986,16731.90270329159,75.0,38.0,37.0,0.5066666666666667,48.57137111867511,7025.126453344124,0.0,0.0,0.0,0.0,102396.0,102428.0,102485.0,102507.0,102519.0,102543.0,102552.0,102579.0,102732.0,102806.0,0.030711190768155466,-0.11114295354398812,0.04354070684804222,-0.10646580186624284,0.007041628833532272
136,136,103123.231569431,1193.9719532193549,7.790480192143381,103208.60271279886,-3048.989239696281,20.383723206897734,103243.77590105646,33008.41436122609,10.357890017126026,103268.1780518988,-8457.276201543114,22.931688607643256,103482.79032735314,6464.264280764283,26.84793001391865,0.9750945460131129,61.0,38.0,119.0,224.0,343.0,23.0,713.0,711.0,23.0,11.0,12.0,0.4782608695652174,60.21618214950807,1112.4817522049857,49.0,38.0,11.0,0.7755102040816326,234.2948626066928,1363.0636058869968,24.0,13.0,11.0,0.5416666666666666,1407.7209951009916,24362.19954095765,31.0,5.0,26.0,0.1612903225806451,883.6693298659492,18414.019916990415,69.0,35.0,34.0,0.5072463768115942,49.52933990777434,6454.128280958237,0.0,0.0,0.0,0.0,103112.0,103135.0,103173.0,103220.0,103231.0,103255.0,103263.0,103292.0,103448.0,103516.0,0.05043349802911597,-0.07684345341606769,0.04264733772715225,-0.10448628007498618,0.007662022738636916
