Unnamed: 0,cycle,p_center,p_height,p_width,q_center,q_height,q_width,r_center,r_height,r_width,s_center,s_height,s_width,t_center,t_height,t_width,r_squared,pr_interval,pr_segment,qrs_duration,st_segment,qt_interval,p_duration,pp_interval,rr_interval,fwhm_p,rise_time_p,decay_time_p,rise_decay_symmetry_p,sharpness_deriv_p,sharpness_diff_p,fwhm_q,rise_time_q,decay_time_q,rise_decay_symmetry_q,sharpness_deriv_q,sharpness_diff_q,fwhm_r,rise_time_r,decay_time_r,rise_decay_symmetry_r,sharpness_deriv_r,sharpness_diff_r,fwhm_s,rise_time_s,decay_time_s,rise_decay_symmetry_s,sharpness_deriv_s,sharpness_diff_s,fwhm_t,rise_time_t,decay_time_t,rise_decay_symmetry_t,sharpness_deriv_t,sharpness_diff_t,Average_Heart_Rate,SDNN,RMSSD,NN50,p_on,p_off,q_on,q_off,r_on,r_off,s_on,s_off,t_on,t_off,sharpness_deriv_p_norm,sharpness_deriv_q_norm,sharpness_deriv_r_norm,sharpness_deriv_s_norm,sharpness_deriv_t_norm
0,0,,,,,,,,,,,,,,,,,,,,,,,,,,,,,,,,,,,,,,,,,,,,,,,,,,,,,,,57.65227791692881,351.41520380790786,504.5958229093931,505.0,,,,,,,,,,,,,,,
1,1,3815.285861862289,1193.7844203882516,8.742633650097213,3901.178051898704,-2093.8347906813965,22.93168860777651,3939.080779397864,24478.711399661646,10.45616179853402,3959.602712798848,-13120.052892984662,11.28131344618651,4203.443449292828,11747.545323418064,34.066884361426276,0.9409880813351026,52.0,27.0,120.0,271.0,391.0,25.0,,,25.0,12.0,13.0,0.48,54.40939988444008,1108.978284586555,61.0,48.0,13.0,0.7868852459016393,111.32368926679904,972.8175478639744,22.0,13.0,9.0,0.5909090909090909,1284.1105904447145,16086.74193326084,20.0,5.0,15.0,0.25,1061.5415632226589,20084.61903181597,86.0,42.0,44.0,0.4883720930232558,78.03753571498662,12278.060537657568,,,,,3803.0,3828.0,3855.0,3914.0,3926.0,3948.0,3955.0,3975.0,4163.0,4246.0,0.0455772407104665,-0.053167370110691003,0.052458259320891536,-0.08090985393742343,0.006642880156369622
2,2,4896.636479257419,747.6080950743751,6.062679262913196,4983.027373699065,-2494.6778965870226,17.835757806047507,5018.0944874821125,24051.532445813667,10.347281230383834,5038.602712803141,-12391.027883317298,12.989123780544526,5283.118445983832,11767.125823023462,33.222354886059044,0.939525039577606,44.0,25.0,124.0,269.0,393.0,19.0,1084.0,1079.0,19.0,10.0,9.0,0.5263157894736842,53.57860465595225,574.7457644659771,64.0,54.0,10.0,0.84375,163.744087660916,389.06066560802446,22.0,13.0,9.0,0.5909090909090909,1217.864168417562,15138.59887824571,22.0,5.0,17.0,0.2272727272727272,973.8718478369392,19560.825320884756,84.0,42.0,42.0,0.5,77.83339481022182,12295.737739820372,,,,,4887.0,4906.0,4931.0,4993.0,5005.0,5027.0,5034.0,5055.0,5242.0,5324.0,0.07166669944982608,-0.06563736660549839,0.050635616302675115,-0.07859492021223799,0.006614477994102318
3,3,5911.923419866203,1163.6923380341846,10.183199820936908,6000.452034600238,-1957.346371526925,15.287792405175274,6034.626738102906,23558.92267063818,10.510516958944429,6055.602712798849,-12727.72448160051,10.978575007696396,6297.674876565923,12307.116077174209,35.39715802109708,0.9456422274390136,61.0,33.0,111.0,271.0,382.0,28.0,1012.0,1016.0,28.0,14.0,14.0,0.5,49.028201729504055,1051.2058621279791,52.0,43.0,9.0,0.8269230769230769,186.40611436961763,241.99357850911952,23.0,14.0,9.0,0.6086956521739131,1264.918555177474,15421.438731718865,20.0,5.0,15.0,0.25,1024.2040977700492,19433.79848046996,88.0,44.0,44.0,0.5,76.80972542175896,12917.507913660502,,,,,5898.0,5926.0,5959.0,6009.0,6022.0,6043.0,6051.0,6070.0,6256.0,6341.0,0.042131584205776396,-0.0952340970822667,0.053691697742781756,-0.08047032281777172,0.006241082390066719
4,4,7004.173009484516,782.3509511723772,6.314345299176089,7090.452034599137,-2376.662641298744,15.28779240518434,7124.850938500414,24142.564216665098,10.569977210846243,7144.602712798849,-13313.495546068678,11.742830267349534,7389.316550456611,11789.686254834804,32.940443958965545,0.9448097870483316,44.0,26.0,122.0,270.0,392.0,18.0,1092.0,1090.0,19.0,9.0,10.0,0.4736842105263157,54.773688648164274,681.8260455582209,60.0,51.0,9.0,0.85,186.3803050433872,32.56750860259797,22.0,14.0,8.0,0.6363636363636364,1263.7974457983796,14695.833024452448,21.0,5.0,16.0,0.238095238095238,1046.0660924791662,19983.723727901983,83.0,41.0,42.0,0.4939759036144578,79.42064914497284,12237.143787173229,,,,,6995.0,7013.0,7039.0,7099.0,7112.0,7133.0,7140.0,7161.0,7349.0,7431.0,0.07001165981339219,-0.07842101853443466,0.05234727489824826,-0.07857185882246061,0.006736451456662252
5,5,8075.525091964039,608.4421869797856,5.762383863981541,8161.027373698993,-2283.071893177082,17.8357578060484,8196.509384833678,24181.033266045997,10.41006141065108,8216.60271279885,-12650.023453210742,12.87848621675357,8461.50660485012,12063.566458941375,33.39816025558388,0.9348768816517444,41.0,24.0,125.0,271.0,396.0,17.0,1074.0,1072.0,17.0,9.0,8.0,0.5294117647058824,46.54324857554465,485.5098049633672,63.0,53.0,10.0,0.8412698412698413,160.12227988516557,361.1580419858702,22.0,14.0,8.0,0.6363636363636364,1227.7686269141186,13782.337914288146,22.0,5.0,17.0,0.2272727272727272,994.8813334876712,19679.41648272924,85.0,43.0,42.0,0.5058823529411764,78.60410144886458,12471.43463660239,,,,,8067.0,8084.0,8108.0,8171.0,8183.0,8205.0,8212.0,8233.0,8420.0,8504.0,0.07649576175277763,-0.07013457629770137,0.050774034897760154,-0.07864659991876594,0.00651582612127147
6,6,9091.159893248949,1053.6112634555718,8.078037921659083,9176.876695499284,-2036.3505268615156,12.739827004320285,9210.355258394,23904.299001435487,10.563114920943828,9230.60271279885,-12843.659210086684,11.657113525691752,9473.731968563878,12254.371144954408,35.32338604336249,0.9440173478337026,48.0,25.0,118.0,270.0,388.0,23.0,1016.0,1014.0,23.0,11.0,12.0,0.4782608695652174,55.352676484222705,973.1240027800824,57.0,50.0,7.0,0.8771929824561403,227.3625602174529,982.3188257806032,22.0,13.0,9.0,0.5909090909090909,1242.5099739862308,16043.072791759714,21.0,5.0,16.0,0.238095238095238,1021.744778644506,19599.91776279536,87.0,44.0,43.0,0.5057471264367817,81.0725970519301,12950.288165268978,,,,,9080.0,9103.0,9128.0,9184.0,9197.0,9219.0,9226.0,9246.0,9432.0,9516.0,0.05253614725290642,-0.11165197603178412,0.05197851540894867,-0.07955246724719116,0.00661581048043504
7,7,10174.000908819597,589.4810549222589,5.479507951010865,10257.60271279885,-2433.146681578568,20.383723206912453,10294.503493646316,24555.933977690012,10.500771258973748,10314.60271279885,-13349.38821593384,12.150032766238196,10558.855964290216,11813.520100238637,33.00964364028769,0.9317580126436812,41.0,24.0,124.0,269.0,393.0,17.0,1081.0,1084.0,17.0,8.0,9.0,0.4705882352941176,48.035504618971075,469.3226467040432,64.0,53.0,11.0,0.828125,142.33735046860633,715.3736219182051,22.0,14.0,8.0,0.6363636363636364,1267.5680604119575,14028.945369136864,21.0,5.0,16.0,0.238095238095238,1040.8094198237347,20298.485292349807,83.0,41.0,42.0,0.4939759036144578,77.49329921395287,12290.216517816105,,,,,10166.0,10183.0,10207.0,10269.0,10281.0,10303.0,10310.0,10331.0,10519.0,10600.0,0.0814877835646576,-0.05849928882062352,0.051619623247219616,-0.07796682536967678,0.006559712816875596
8,8,11286.948718920796,1004.960810485708,8.205518280896838,11370.60271279889,-1924.8582466553505,20.383723206911295,11407.18146364182,23574.622150882307,10.444087350388523,11428.178051898713,-12286.754843597266,11.880276668411328,11671.776759623568,12281.968853655277,35.03104949502942,0.9459714728591144,49.0,26.0,120.0,271.0,391.0,23.0,1113.0,1113.0,23.0,12.0,11.0,0.5217391304347826,50.26834766877092,938.429992949307,60.0,49.0,11.0,0.8166666666666667,140.66862609627893,233.16494791532773,22.0,13.0,9.0,0.5909090909090909,1217.3893989354326,15813.265856622244,22.0,5.0,17.0,0.2272727272727272,998.2818397417584,19385.51530312108,87.0,43.0,44.0,0.4942528735632184,79.46007377030965,12830.334688261615,,,,,11275.0,11298.0,11324.0,11382.0,11394.0,11416.0,11423.0,11444.0,11630.0,11715.0,0.05002020690187482,-0.07307999243097817,0.05163982655348181,-0.08124861710429354,0.006469652766352789
9,9,12368.750780430692,919.6357987759716,7.724768676066487,12454.027373698991,-2102.514971483816,17.8357578060484,12489.618639695424,24038.65201119602,10.505623049666374,12510.027373698991,-12724.046165069389,11.952901852518488,12753.463577600778,12306.758887700746,34.784318456875596,0.9316381487763256,46.0,24.0,122.0,270.0,392.0,22.0,1083.0,1082.0,22.0,11.0,11.0,0.5,49.22176182669436,795.4135603189457,61.0,51.0,10.0,0.8360655737704918,160.38718154797752,214.56295790516592,22.0,14.0,8.0,0.6363636363636364,1249.5303909685915,14705.612124006828,22.0,5.0,17.0,0.2272727272727272,1026.6058969293788,19782.907650377063,87.0,43.0,44.0,0.4942528735632184,79.68383559685238,12844.024209996109,,,,,12358.0,12380.0,12404.0,12464.0,12476.0,12498.0,12506.0,12526.0,12712.0,12796.0,0.05352310326784599,-0.07628349083040624,0.05198005239173236,-0.08068234613512032,0.006474802693704158
10,10,13508.088046283818,851.6599399946522,6.975199112625106,13595.027373698991,-2053.3779158624125,17.8357578060484,13630.311343716823,24237.164334733443,10.611099629436628,13650.60271279885,-13020.602902371023,11.121086858417977,13895.383167130236,12257.173183196915,34.249436341611755,0.9461045095998932,47.0,27.0,121.0,272.0,393.0,20.0,1139.0,1141.0,20.0,10.0,10.0,0.5,48.53793503383259,756.1292605264649,61.0,51.0,10.0,0.8360655737704918,170.07449122266874,30.012032644017836,22.0,13.0,9.0,0.5909090909090909,1267.928441821149,16584.61971477121,21.0,5.0,16.0,0.238095238095238,1056.4962149335508,19729.689746438868,85.0,42.0,43.0,0.4941176470588235,76.63491826990054,12771.74446134122,,,,,13498.0,13518.0,13545.0,13605.0,13617.0,13639.0,13646.0,13666.0,13854.0,13938.0,0.056992154678705886,-0.08282668762960664,0.0523133987256143,-0.08114034525553077,0.006252250590287623
11,11,14655.344170181044,972.220068093031,7.566644742448239,14743.027373698991,-2100.8518222826374,17.8357578060484,14778.12104483681,24305.24711539369,10.466606135318695,14798.60271279885,-12892.367330810994,11.921581947610196,15043.395524527654,12116.027740440171,34.433488572290685,0.9417078407388616,51.0,30.0,118.0,272.0,390.0,21.0,1148.0,1148.0,22.0,11.0,11.0,0.5,55.72063993650079,876.1137319303515,59.0,49.0,10.0,0.8305084745762712,171.47280049781153,4.021317615504813,22.0,13.0,9.0,0.5909090909090909,1254.764555303114,15813.798834868465,21.0,5.0,16.0,0.238095238095238,1033.425640347757,19926.680619983912,86.0,42.0,44.0,0.4883720930232558,75.12988948448182,12667.604235095516,,,,,14645.0,14666.0,14696.0,14753.0,14765.0,14787.0,14794.0,14814.0,15002.0,15086.0,0.057312785206948554,-0.08162060678391933,0.051625253976883494,-0.08015794258964459,0.0062008680645157035
12,12,15759.63829575772,307.7775026757742,3.630123605645858,15845.178051898703,-2750.4356681839977,22.93168860777651,15882.545036965195,25461.240698086403,10.424412702648723,15902.60271279885,-13083.256766635,13.673740613102272,16147.902010241613,11893.84620335097,33.229282127360214,0.9347266993775154,35.0,24.0,131.0,270.0,401.0,11.0,1103.0,1104.0,11.0,6.0,5.0,0.5454545454545454,50.88497425534941,196.5467464675987,72.0,59.0,13.0,0.8194444444444444,117.35814015186898,1179.473690563625,22.0,14.0,8.0,0.6363636363636364,1252.2969177035006,13970.005024556283,23.0,5.0,18.0,0.217391304347826,1019.4757531837398,20516.848187206037,85.0,43.0,42.0,0.5058823529411764,78.39923865306409,12346.535248909828,,,,,15754.0,15765.0,15789.0,15858.0,15870.0,15891.0,15898.0,15920.0,16107.0,16190.0,0.16533038904066288,-0.04266892751189336,0.04918444205264592,-0.07792216963773217,0.006591579991254293
13,13,16878.036137091563,755.2291941631544,6.218423849559361,16964.027373698995,-2247.7373233522117,17.8357578060484,16999.673756241504,23958.424928004097,10.460600498086722,17020.602712798853,-12869.667866326576,11.22076437246225,17265.451307346768,12103.171456900556,33.75713392416526,0.9404162990020968,48.0,30.0,119.0,271.0,390.0,18.0,1117.0,1117.0,19.0,10.0,9.0,0.5263157894736842,53.012331806056295,667.2852594912098,60.0,49.0,11.0,0.8166666666666667,159.59954038517856,295.90960170022913,22.0,13.0,9.0,0.5909090909090909,1279.2630683224509,15543.902799072075,20.0,5.0,15.0,0.25,1039.6908969644164,19775.59501199312,85.0,42.0,43.0,0.4941176470588235,80.54543979621485,12574.793812644844,,,,,16869.0,16887.0,16917.0,16974.0,16987.0,17008.0,17016.0,17036.0,17224.0,17307.0,0.07019370042334974,-0.07100453363792364,0.05339512393517859,-0.08078614831115903,0.0066549036410033105
14,14,18004.99448520323,1038.4141011814363,8.061094853954843,18089.602712798853,-2093.974026477379,20.383723206912453,18126.56812558165,23778.756700050304,10.423107390443514,18147.602712798853,-12645.454936492191,11.179035090885588,18392.31500089131,12338.210765738657,34.71445392901065,0.9432554510119812,51.0,28.0,117.0,273.0,390.0,23.0,1126.0,1127.0,24.0,12.0,12.0,0.5,57.2698207207568,909.4699175211376,57.0,46.0,11.0,0.8070175438596491,136.22101700574163,686.7563983659915,22.0,13.0,9.0,0.5909090909090909,1267.1101934339183,15271.185801230007,20.0,5.0,15.0,0.25,1022.714325750054,19512.66077405568,87.0,43.0,44.0,0.4942528735632184,75.5075546071026,12866.82185913731,,,,,17994.0,18017.0,18045.0,18101.0,18114.0,18135.0,18143.0,18162.0,18351.0,18435.0,0.055151235577019925,-0.06505382363070739,0.053287487206227134,-0.08087604051307873,0.006119813969848501
15,15,19135.169925814294,880.7389298808632,6.638160929871391,19220.027373698995,-2091.6727137396897,17.8357578060484,19255.73847659809,23891.206516987306,10.484599861217989,19276.602712798853,-12344.573322726816,12.150815579052797,19521.590231493647,12383.646234157011,34.65038209658833,0.9414849135208851,45.0,25.0,123.0,272.0,395.0,20.0,1133.0,1129.0,20.0,10.0,10.0,0.5,53.13866772857848,777.4467902617828,61.0,51.0,10.0,0.8360655737704918,156.9261563283911,143.36007948439828,22.0,13.0,9.0,0.5909090909090909,1229.903724386652,15134.755279135594,21.0,5.0,16.0,0.238095238095238,982.7131254155198,19310.1186791322,88.0,44.0,44.0,0.5,74.49729484752903,12871.031209266745,,,,,19125.0,19145.0,19170.0,19230.0,19243.0,19265.0,19272.0,19293.0,19480.0,19565.0,0.06033418749386552,-0.07502424031139351,0.05147934757971124,-0.0796068928203706,0.006015780283035538
16,16,20197.526310496552,530.1224199103785,5.399301604661872,20283.027373698995,-2386.2234759698385,17.8357578060484,20317.8105599194,23941.499393822036,10.44442531920352,20338.602712798853,-12650.225633093378,12.537639606974388,20583.03808311797,12295.973294355765,34.07373693810078,0.9362947083870428,39.0,21.0,128.0,270.0,398.0,18.0,1061.0,1062.0,18.0,10.0,8.0,0.5555555555555556,48.961614825335786,425.2397130550991,66.0,56.0,10.0,0.8484848484848485,168.12065116698915,12.909768501373035,22.0,13.0,9.0,0.5909090909090909,1233.7704802324229,14809.789251643846,22.0,5.0,17.0,0.2272727272727272,990.4186354721418,19685.374043407537,85.0,42.0,43.0,0.4941176470588235,76.70402795214014,12770.747364446872,,,,,20188.0,20206.0,20227.0,20293.0,20305.0,20326.0,20334.0,20355.0,20542.0,20625.0,0.09235907214339877,-0.07045469666191238,0.05153271563897081,-0.07829256680459329,0.0062381420417812455
17,17,21290.516047218294,954.1443712890972,7.487482816102049,21376.027373698995,-2320.063146925385,17.83575780604838,21411.198861103836,24524.544179826826,10.508400850693723,21431.602712798853,-13170.10036494891,11.687647744699794,21677.17476975304,12184.387841284664,34.17019110173699,0.94554334999017,50.0,29.0,117.0,272.0,389.0,21.0,1093.0,1094.0,21.0,11.0,10.0,0.5238095238095238,51.31197764137737,830.8646564969066,56.0,46.0,10.0,0.8214285714285714,177.20788166933622,242.46093758858615,22.0,13.0,9.0,0.5909090909090909,1275.7626148791437,16112.738414345107,21.0,5.0,16.0,0.238095238095238,1047.0781191089477,20104.854703688063,85.0,42.0,43.0,0.4941176470588235,78.2680515816956,12709.336663640615,,,,,21280.0,21301.0,21330.0,21386.0,21398.0,21420.0,21427.0,21447.0,21636.0,21719.0,0.05377800172111512,-0.076380628649775,0.052019829829438737,-0.07950418676350077,0.006423634293427366
18,18,22401.905204190803,811.5893868610831,6.084155425887591,22485.602712798853,-2248.3330616868284,20.383723206912453,22522.718712435493,24762.40891750412,10.489649660017356,22542.602712798853,-13242.131898336476,11.897131493313529,22788.72922731937,11913.005381712148,33.51653100040503,0.936012378244296,43.0,25.0,122.0,273.0,395.0,18.0,1111.0,1111.0,18.0,9.0,9.0,0.5,57.05887355330185,664.7458182825907,64.0,52.0,12.0,0.8125,139.41028475564693,700.4976303638059,22.0,14.0,8.0,0.6363636363636364,1279.1380233700645,14830.638656148549,21.0,5.0,16.0,0.238095238095238,1057.8483086410931,20216.983772072348,84.0,42.0,42.0,0.5,76.75749143517969,12404.155648098167,,,,,22393.0,22411.0,22436.0,22497.0,22510.0,22531.0,22538.0,22558.0,22748.0,22831.0,0.07030510067903145,-0.06200606446228805,0.05165644536569558,-0.07988504545661441,0.006443167695786605
19,19,23500.412348615133,754.9140485284811,6.064325490924643,23585.602712798853,-2650.4775712321093,20.383723206912453,23621.553501154845,24404.022466696428,10.469737351401266,23642.178051898707,-12955.579460901296,12.488168392788692,23887.735515992263,12125.16448897233,33.50964789944446,0.9380258144063444,43.0,25.0,124.0,272.0,396.0,18.0,1100.0,1099.0,18.0,9.0,9.0,0.5,55.528804011709575,672.8127936059074,64.0,53.0,11.0,0.828125,156.04052459336054,582.2791600694902,22.0,14.0,8.0,0.6363636363636364,1255.8238077133583,14384.45163667866,23.0,5.0,18.0,0.217391304347826,1029.8648250750623,20253.745458436864,85.0,43.0,42.0,0.5058823529411764,76.36595886317949,12565.57539828511,,,,,23491.0,23509.0,23534.0,23597.0,23609.0,23630.0,23637.0,23658.0,23847.0,23930.0,0.07355645867228103,-0.05887260706787383,0.05145970544106613,-0.07949199247961825,0.006298137970221622
20,20,24563.99412202357,879.0537691492476,7.036841191807848,24645.602712798853,-1896.2194103906024,20.383723206912453,24682.35305067167,23956.071837429274,10.413778620917824,24703.602712798853,-12253.88516267144,12.178521871276986,24948.062100884275,12388.695970497072,34.82096957819638,0.94176249940227,44.0,23.0,122.0,271.0,393.0,21.0,1064.0,1061.0,22.0,11.0,11.0,0.5,54.014748176805554,748.4590391040402,60.0,49.0,11.0,0.8166666666666667,135.65047759282783,295.62548584076694,22.0,13.0,9.0,0.5909090909090909,1228.242316615565,16407.962046515597,22.0,6.0,16.0,0.2727272727272727,974.2869024127382,19259.806252978575,88.0,44.0,44.0,0.5,75.03353024862687,12921.73899927369,,,,,24554.0,24575.0,24598.0,24657.0,24669.0,24691.0,24699.0,24720.0,24906.0,24991.0,0.06144646672646803,-0.07153733204581277,0.05127060583849742,-0.07950840810722402,0.006056612449551969
21,21,25591.56326931884,746.4237026988616,6.436474091663048,25674.178051898707,-2311.005156196743,22.93168860777651,25712.35860263214,25595.24535896091,10.32136638582412,25732.602712798853,-12732.41515899189,13.71733664640882,25978.014099487624,12130.84366929237,33.62771728376869,0.9414088730631102,45.0,26.0,123.0,270.0,393.0,19.0,1027.0,1030.0,19.0,10.0,9.0,0.5263157894736842,46.72833209784688,627.648583928974,61.0,48.0,13.0,0.7868852459016393,93.88206432169171,1133.110337100086,22.0,13.0,9.0,0.5909090909090909,1252.0174788621189,15894.359325146424,23.0,5.0,18.0,0.217391304347826,1007.3548626726904,20381.289193148397,85.0,42.0,43.0,0.4941176470588235,75.7661422219208,12576.494165279895,,,,,25582.0,25601.0,25627.0,25687.0,25699.0,25721.0,25728.0,25750.0,25937.0,26020.0,0.06260295851925678,-0.040623909501004696,0.0489160178503148,-0.07911734341785706,0.006245743848279308
22,22,26591.237953380332,372.63967242224226,4.3599552411722415,26676.027373698995,-2694.8436556537595,17.8357578060484,26710.994993674605,25703.201900254055,10.275766010784183,26731.602712798853,-12951.43482760729,14.062018404878865,26976.0499574644,11716.777582474067,32.28193288746851,0.9385806618440312,38.0,24.0,127.0,267.0,394.0,14.0,1000.0,998.0,15.0,7.0,8.0,0.4666666666666667,52.20135541084598,240.5859115035629,65.0,55.0,10.0,0.8461538461538461,173.7468694589186,379.4802237496631,22.0,13.0,9.0,0.5909090909090909,1270.9469754765817,15444.312074176729,23.0,5.0,18.0,0.217391304347826,1017.6195820837912,20798.483421502548,82.0,41.0,41.0,0.5,77.78563531089567,12078.078755881852,,,,,26584.0,26598.0,26622.0,26686.0,26698.0,26720.0,26727.0,26749.0,26936.0,27016.0,0.14008534054231356,-0.06447382173522354,0.0494470292226129,-0.07857195713286008,0.006638824946822177
23,23,27642.77000594692,933.2016876262546,8.894673006307963,27730.45203459914,-1734.7573021375977,15.28779240518434,27765.281674473397,24515.407759947993,10.551458520737947,27786.027373698995,-13034.589910365432,10.586171731299348,28030.478239228996,12170.86982597377,34.07162917724255,0.947894184094271,55.0,31.0,114.0,272.0,386.0,24.0,1052.0,1055.0,25.0,12.0,13.0,0.48,44.38683948171306,858.4434808168601,55.0,46.0,9.0,0.8363636363636363,176.2336188231179,298.04758563167366,22.0,13.0,9.0,0.5909090909090909,1298.9108497194147,17562.49231703861,20.0,5.0,15.0,0.25,1098.950772110021,20206.42465764768,85.0,42.0,43.0,0.4941176470588235,81.90841340509844,12743.287741539309,,,,,27631.0,27655.0,27686.0,27739.0,27752.0,27774.0,27782.0,27800.0,27990.0,28072.0,0.04756403687462029,-0.10158978354260842,0.05298344871267074,-0.08431034498723339,0.006729873425340419
24,24,28754.086031109644,803.8322998118612,6.850700876351052,28840.027373698995,-2296.348148072393,17.8357578060484,28875.642103919086,24415.968281787056,10.456779596137768,28896.602712798853,-13160.69959036586,11.22987918597019,29141.946060261835,12126.3028760906,33.41844640849512,0.9448969990292824,50.0,30.0,117.0,273.0,390.0,20.0,1109.0,1110.0,20.0,10.0,10.0,0.5,46.50058461768258,709.6190673930444,57.0,47.0,10.0,0.8245614035087719,163.85881713321857,374.7808766810757,22.0,13.0,9.0,0.5909090909090909,1304.810364816112,15734.07688023765,20.0,5.0,15.0,0.25,1062.0720316992013,20250.3126890013,86.0,43.0,43.0,0.5,76.86106754458112,12539.18730887194,,,,,28744.0,28764.0,28794.0,28850.0,28863.0,28884.0,28892.0,28911.0,29101.0,29184.0,0.05784861423031414,-0.07135626070932032,0.05344086090533741,-0.0807002716236057,0.006338376035133337
25,25,29825.98096520353,1008.1015664926916,7.673498091809314,29912.027373699064,-2223.3196083492344,17.835757806047344,29947.47361205378,24585.16566619172,10.484964568559468,29967.602712798853,-13074.276946398284,11.6830925487869,30212.92766229895,12097.126411915902,33.918920180850975,0.9439405611598032,56.0,34.0,112.0,272.0,384.0,22.0,1072.0,1072.0,22.0,11.0,11.0,0.5,55.91750711450837,913.999757056612,54.0,44.0,10.0,0.8148148148148148,173.14043639612288,264.62090592541335,22.0,13.0,9.0,0.5909090909090909,1270.0703420301354,16586.84447717115,21.0,5.0,16.0,0.238095238095238,1049.3735751051424,20019.50828067611,86.0,43.0,43.0,0.5,76.8571919734098,12589.143398248189,,,,,29815.0,29837.0,29871.0,29922.0,29934.0,29956.0,29963.0,29983.0,30172.0,30255.0,0.055468128384178784,-0.07787473998157009,0.05166002781004938,-0.08026245576771456,0.006353342881306422
26,26,30880.823283068537,828.9614981563359,7.238675622435041,30966.02737374407,-1866.9278777511777,17.835757805622908,31001.525941049666,23797.205187349544,10.400535362432146,31022.602712798853,-12395.001954163698,11.672013227170403,31267.047593765845,12243.626879834885,34.57020949908937,0.9399174541138464,48.0,26.0,120.0,272.0,392.0,22.0,1058.0,1054.0,22.0,11.0,11.0,0.5,50.222327916864074,738.8396584391928,61.0,51.0,10.0,0.8360655737704918,162.5453781631962,168.60189226185457,22.0,14.0,8.0,0.6363636363636364,1253.4249250640655,15027.140811382666,22.0,6.0,16.0,0.2727272727272727,998.4218134955148,19382.15294334697,87.0,43.0,44.0,0.4942528735632184,75.52775044342452,12746.830999423544,,,,,30870.0,30892.0,30918.0,30976.0,30988.0,31010.0,31018.0,31038.0,31225.0,31310.0,0.060584632734526016,-0.08706569766315317,0.05267109793760063,-0.08055035547292734,0.00616873996444778
27,27,31908.70884173478,897.6844808100533,7.036652997898162,31992.60271279897,-2279.6308914399397,20.383723206910105,32029.378435682214,24426.3049262784,10.443194564989994,32049.602712798853,-13011.066623457673,12.296416626107227,32294.40119312404,11958.569305401594,33.672465548161746,0.9336915223202824,49.0,28.0,119.0,271.0,390.0,21.0,1026.0,1028.0,21.0,11.0,10.0,0.5238095238095238,54.28887303024105,801.0479183711914,59.0,48.0,11.0,0.8135593220338984,146.95448933840436,705.767047709116,22.0,13.0,9.0,0.5909090909090909,1244.999907197992,15775.784439764488,22.0,5.0,17.0,0.2272727272727272,1021.4505991567432,20009.48662480862,85.0,42.0,43.0,0.4941176470588235,77.54809583960517,12466.962706153148,,,,,31898.0,31919.0,31947.0,32004.0,32016.0,32038.0,32045.0,32066.0,32254.0,32337.0,0.06047656408324204,-0.06446415947872151,0.05096963748530754,-0.07850629227546713,0.006484730226430789
28,28,32993.677413837715,1138.6306591207915,8.185152972436029,33080.027373699,-2253.6059643716535,17.8357578060484,33115.18608104759,24396.475213605605,10.52909218906084,33135.60271279886,-13133.821382599152,11.788507313964722,33381.20445300094,12028.92707051482,34.20358547067126,0.9439547722887628,52.0,30.0,116.0,273.0,389.0,22.0,1085.0,1086.0,22.0,11.0,11.0,0.5,59.5603065277089,1036.414810149694,56.0,46.0,10.0,0.8214285714285714,175.76551939126185,187.83769010262756,22.0,13.0,9.0,0.5909090909090909,1265.6813456623215,15990.432880105644,21.0,5.0,16.0,0.238095238095238,1038.624779682345,20040.71079227417,86.0,42.0,44.0,0.4883720930232558,76.70942671657788,12506.375901844982,,,,,32983.0,33005.0,33035.0,33090.0,33102.0,33124.0,33131.0,33151.0,33340.0,33424.0,0.052308714902951206,-0.07799301305109409,0.051879680756360534,-0.07908016634506747,0.006377079706851597
29,29,34082.131838290974,1028.4882270650608,8.16661985679493,34169.45203459914,-2149.8004906785413,15.28779240518434,34203.75486795571,24382.983803773514,10.517806656301294,34223.60271279886,-13125.890522942069,11.99828257206829,34469.62578005537,12030.16081557408,34.34928964890211,0.9433433825098424,52.0,29.0,117.0,272.0,389.0,23.0,1088.0,1088.0,23.0,11.0,12.0,0.4782608695652174,52.41721860756958,977.0579513295036,55.0,46.0,9.0,0.8363636363636363,192.0938034880253,124.40168991271094,22.0,14.0,8.0,0.6363636363636364,1263.6482568009951,14699.215484352588,22.0,5.0,17.0,0.2272727272727272,1041.2202559350142,19972.650740692407,86.0,43.0,43.0,0.5,76.79769239328246,12546.056488014116,,,,,34071.0,34094.0,34123.0,34178.0,34190.0,34212.0,34219.0,34240.0,34429.0,34512.0,0.0509653073590834,-0.0893542467410056,0.05182500496946697,-0.0793256849213483,0.006383762741879662
30,30,35182.15292700357,814.2402410410031,6.845609072091407,35266.60271279886,-2242.9910376985035,20.383723206912453,35303.30106502394,24686.88069842921,10.433130238229552,35323.60271279886,-12709.464171435464,12.491543785629055,35569.73038054964,12033.066616521452,33.868401272613234,0.9415469165024384,47.0,26.0,121.0,272.0,393.0,21.0,1099.0,1100.0,21.0,10.0,11.0,0.4761904761904761,54.309936041921006,689.8108787316464,61.0,50.0,11.0,0.819672131147541,146.1679494290409,522.6532032024672,22.0,13.0,9.0,0.5909090909090909,1244.3366201311098,15945.211900381815,22.0,5.0,17.0,0.2272727272727272,1014.8489416530502,19832.766748300728,85.0,42.0,43.0,0.4941176470588235,76.02856646522432,12504.315224875458,,,,,35172.0,35193.0,35219.0,35278.0,35290.0,35312.0,35319.0,35340.0,35529.0,35612.0,0.06670013750792513,-0.06516653297867006,0.0504047730991905,-0.07984986054203012,0.00631830346229753
31,31,36252.33768759845,512.1187353903665,4.931423331505458,36337.027373699,-2675.481734404605,17.8357578060484,36372.20352680912,24387.68993911318,10.452602698240806,36392.60271280322,-12751.10856691823,13.148816225779216,36638.320772898995,11857.008979531454,33.10137138603377,0.9323199534464688,38.0,23.0,127.0,270.0,397.0,15.0,1070.0,1069.0,15.0,7.0,8.0,0.4666666666666667,49.848826572890616,422.8510777511717,65.0,55.0,10.0,0.8461538461538461,163.26632719315486,418.0911084111803,22.0,13.0,9.0,0.5909090909090909,1224.455766869222,15204.01091939764,23.0,5.0,18.0,0.217391304347826,987.6171411903916,19860.27779367972,85.0,42.0,43.0,0.4941176470588235,77.80949261225396,12294.341054899436,,,,,36245.0,36260.0,36283.0,36347.0,36359.0,36381.0,36388.0,36410.0,36598.0,36680.0,0.09733841612901148,-0.06102315149218828,0.05020794384077475,-0.07745343363734572,0.006562320459280677
32,32,37324.44787802262,1198.8100574077707,9.390727960555337,37410.45203459914,-1988.1671120588433,15.287792405184224,37445.09577650135,24000.301250478835,10.571987135877778,37465.60271279886,-13012.685986749491,11.14290430077732,37711.01949574053,12485.369846957055,35.222827187645656,0.9487517111226662,55.0,29.0,115.0,273.0,388.0,26.0,1073.0,1073.0,26.0,13.0,13.0,0.5,49.243792428121544,1174.1068032370777,54.0,45.0,9.0,0.8333333333333334,173.35900212858252,188.5229933114472,22.0,13.0,9.0,0.5909090909090909,1264.3288068495156,16117.37155725836,20.0,5.0,15.0,0.25,1044.4934032914643,19720.059004783114,87.0,43.0,44.0,0.4942528735632184,72.0488097998732,13001.490125410504,,,,,37311.0,37337.0,37366.0,37419.0,37432.0,37454.0,37461.0,37481.0,37669.0,37754.0,0.041077226641393995,-0.0871953876900523,0.05267970571095605,-0.08026731793536301,0.005770658833741556
33,33,38435.1731281782,955.5368629106392,7.457285736654288,38521.027373699,-2315.631576871386,17.8357578060484,38556.258369079536,24745.49999096457,10.465875931865524,38576.60271279886,-13149.939549918208,12.21240899027929,38823.14689854904,12009.720359812623,33.476007731819415,0.941564090135796,51.0,29.0,117.0,273.0,390.0,22.0,1112.0,1111.0,22.0,11.0,11.0,0.5,49.84057815065043,844.2002193257827,56.0,46.0,10.0,0.8214285714285714,174.8209217424345,272.9266418377765,22.0,13.0,9.0,0.5909090909090909,1267.383853907468,15991.00474398008,21.0,5.0,16.0,0.238095238095238,1047.0113446788755,20256.137131253516,85.0,42.0,43.0,0.4941176470588235,76.98263065229676,12446.584969004743,,,,,38424.0,38446.0,38475.0,38531.0,38543.0,38565.0,38572.0,38592.0,38782.0,38865.0,0.05215976492924843,-0.07549600009282666,0.05121674059405683,-0.07962100059124513,0.00641002690702932
34,34,39526.78691963993,1031.4441548087354,7.069140541838547,39611.60271279886,-2093.9491839437883,20.38372320691237,39647.90736024761,24556.759407967384,10.410116607942502,39668.60271279886,-12470.1009964341,12.16483492980527,39914.49131833204,12357.274943127812,34.435114645310904,0.94014858599545,47.0,27.0,121.0,272.0,393.0,20.0,1090.0,1092.0,20.0,10.0,10.0,0.5,62.8945087957736,912.9607862113368,61.0,50.0,11.0,0.819672131147541,156.3989959183982,383.0704459171049,22.0,13.0,9.0,0.5909090909090909,1257.8726821891998,15783.100274009845,21.0,5.0,16.0,0.238095238095238,1010.04251327972,19658.57622875277,86.0,42.0,44.0,0.4883720930232558,77.71197446629182,12885.231636792374,,,,,39517.0,39537.0,39564.0,39623.0,39635.0,39657.0,39664.0,39685.0,39873.0,39957.0,0.060977134343677936,-0.07469092235745331,0.05122307309738458,-0.0809971397640282,0.006288763082795158
35,35,40553.273982700426,163.00937232678993,2.739471839530315,40635.75339099857,-3258.588696447237,25.47965400863663,40673.409804012445,26147.37633397679,10.227251663397428,40693.60271279886,-13032.171282998828,15.12573753419742,40939.435522753985,11819.40700321368,31.720399416871587,0.9255308128154628,32.0,23.0,131.0,268.0,399.0,9.0,1026.0,1025.0,9.0,4.0,5.0,0.4444444444444444,51.19852359166471,37.07432992680356,72.0,58.0,14.0,0.8055555555555556,114.50767315054786,1879.4214493672685,21.0,12.0,9.0,0.5714285714285714,1235.017504585407,15127.396559927674,24.0,5.0,19.0,0.2083333333333333,1005.6572970522768,21018.008472003123,82.0,40.0,42.0,0.4878048780487805,77.15327122353077,12175.468015293449,,,,,40549.0,40558.0,40581.0,40650.0,40661.0,40682.0,40689.0,40712.0,40900.0,40980.0,0.31408331227130576,-0.0351402658688999,0.04723294179923449,-0.07716728664886496,0.00652767699788601
36,36,41581.69329452435,993.3242679431926,8.68451315090293,41668.45203459914,-1953.0956272855772,15.28779240518434,41702.370262686025,24294.367231462587,10.50048693049869,41723.178051898714,-13219.179551002704,11.087849796048124,41967.97664916552,12223.70981755676,34.57866443163993,0.9472837477275814,54.0,30.0,114.0,272.0,386.0,24.0,1029.0,1029.0,25.0,13.0,12.0,0.52,47.44408183060206,912.9602279471784,53.0,44.0,9.0,0.8301886792452831,193.5447617147084,403.8730461652142,22.0,13.0,9.0,0.5909090909090909,1288.4918460706904,16986.62962251971,21.0,5.0,16.0,0.238095238095238,1084.7569265980426,20483.667489742937,85.0,42.0,43.0,0.4941176470588235,79.0764921673736,12754.457748611652,,,,,41570.0,41594.0,41624.0,41677.0,41689.0,41711.0,41718.0,41738.0,41927.0,42010.0,0.047762934382788426,-0.09909640829194725,0.05303664976307842,-0.08205932315336177,0.006469107443453625
37,37,42639.264296093635,926.8028620182928,7.282020504772399,42726.027373699,-2397.4755113730134,17.8357578060484,42761.31713130054,24554.037225176675,10.463585479465594,42781.60271279886,-13234.137985185313,11.61267989471549,43026.57123912121,12235.879345671949,34.12110186228621,0.9439823333177156,51.0,30.0,117.0,272.0,389.0,21.0,1057.0,1059.0,21.0,10.0,11.0,0.4761904761904761,53.7388773819908,834.8752894368125,58.0,48.0,10.0,0.8275862068965517,172.84089597736255,325.1083815927184,22.0,13.0,9.0,0.5909090909090909,1282.7604472621342,16373.012758688355,21.0,5.0,16.0,0.238095238095238,1059.6847056331242,20209.838124825736,85.0,43.0,42.0,0.5058823529411764,82.71453714151617,12765.722201103294,,,,,42629.0,42650.0,42680.0,42736.0,42748.0,42770.0,42777.0,42797.0,42985.0,43069.0,0.05798307232776988,-0.07209287233902885,0.052242343509475736,-0.08007206112097114,0.00675999940868768
38,38,43699.46410931116,1028.7794251259768,7.391231254350369,43785.45203459914,-1915.080280630163,15.28779240518434,43820.36044187222,23837.77484819873,10.480503796650936,43841.027373699,-12301.037276723338,11.780390654321009,44086.018553749826,12377.071605196012,35.043093959489866,0.9410181437131048,46.0,26.0,121.0,272.0,393.0,20.0,1062.0,1059.0,21.0,10.0,11.0,0.4761904761904761,57.33488582057651,934.2142211891904,61.0,51.0,10.0,0.8360655737704918,169.1170882226623,48.320688400726,22.0,13.0,9.0,0.5909090909090909,1234.068627328579,16460.648521669667,22.0,5.0,17.0,0.2272727272727272,1009.6976327193491,19389.20183894757,87.0,43.0,44.0,0.4942528735632184,76.90827952660923,12864.726979905128,,,,,43690.0,43710.0,43736.0,43794.0,43807.0,43829.0,43837.0,43857.0,44044.0,44129.0,0.05573098024735059,-0.08830809336463628,0.0517694556302863,-0.08208231631245858,0.006213770266491988
39,39,,,,,,,,,,,,,,,,,,,,,,,,,,,,,,,,,,,,,,,,,,,,,,,,,,,,,,,,,,,,44473.0,44735.0,44802.0,44814.0,44835.0,44842.0,44865.0,45053.0,45133.0,,,,,
40,40,45716.1749765371,982.314109129631,8.719197284003407,45802.027373699,-2028.1237555545129,17.8357578060484,45838.187223320965,24481.087504509967,10.52021033459509,45858.60271279886,-13145.257158509105,11.443154410858057,46102.57891039502,12141.048179687024,35.009870042465394,0.9448237522294396,56.0,32.0,114.0,271.0,385.0,24.0,2016.0,2018.0,24.0,12.0,12.0,0.5,47.832025078300255,944.7798202962184,54.0,43.0,11.0,0.7962962962962963,153.2241774238021,339.2172019786326,22.0,13.0,9.0,0.5909090909090909,1276.6832755011758,16267.33103299788,21.0,5.0,16.0,0.238095238095238,1059.333757976385,20068.259512499695,86.0,43.0,43.0,0.5,78.30062238642168,12808.03218479013,,,,,45704.0,45728.0,45760.0,45812.0,45825.0,45847.0,45854.0,45874.0,46061.0,46145.0,0.04869320783825584,-0.07554971781389584,0.05214977787510387,-0.08058676564502687,0.006449247316012228
41,41,46852.04394703966,958.0536484377116,7.712411940350968,46942.452034599155,-2413.824116631231,15.28779240518395,46976.62211076595,24518.443708273568,10.516339426645978,46996.60271279886,-13485.183455391516,11.37182703491412,47242.83488169599,11932.170418237214,32.82173565867546,0.939196447604197,53.0,31.0,118.0,272.0,390.0,22.0,1137.0,1138.0,23.0,11.0,12.0,0.4782608695652174,52.902621552105664,871.6532219709404,57.0,48.0,9.0,0.8421052631578947,200.89296204603423,172.24937460250544,22.0,14.0,8.0,0.6363636363636364,1304.692572361428,14906.149287055026,21.0,5.0,16.0,0.238095238095238,1081.1704339301448,20338.808072208503,84.0,42.0,42.0,0.5,78.60722626827513,12397.501848591302,,,,,46841.0,46863.0,46894.0,46951.0,46963.0,46985.0,46992.0,47012.0,47202.0,47284.0,0.05521885088415814,-0.08322601496185375,0.053212699300370724,-0.08017469228406245,0.006587839723453101
42,42,47984.69172339192,814.590300719406,6.259517089250544,48074.027373699,-2449.1978499450775,17.8357578060484,48109.64748184599,24786.27662308046,10.495189548975173,48129.60271279886,-13368.679209111222,12.065077438610086,48376.14785236571,12052.050502649698,33.56881849936751,0.940913320761542,50.0,32.0,120.0,272.0,392.0,18.0,1132.0,1133.0,18.0,9.0,9.0,0.5,56.935560204794726,702.6646446429663,61.0,51.0,10.0,0.8360655737704918,169.17012435848082,433.6046012972247,22.0,14.0,8.0,0.6363636363636364,1282.612964271901,14680.159653077311,21.0,5.0,16.0,0.238095238095238,1057.3142058835815,20366.940173844672,84.0,42.0,42.0,0.5,77.52601093445016,12577.915147043088,,,,,47976.0,47994.0,48026.0,48084.0,48096.0,48118.0,48125.0,48146.0,48335.0,48418.0,0.06989471904405448,-0.06907164497236286,0.051746899454739356,-0.07908890544422556,0.006432599242544305
43,43,49063.99888471185,604.5478657599439,5.483149804036068,49149.60271279886,-2400.4905078182105,20.383723206912453,49186.694470836985,24450.62637022268,10.39034466497472,49207.60271279886,-12324.556193645984,12.845906220940144,49453.13443259605,12293.754910677511,33.53266040594067,0.9337393367803224,43.0,26.0,126.0,271.0,397.0,17.0,1079.0,1077.0,17.0,9.0,8.0,0.5294117647058824,50.90385592244771,509.9654199723994,66.0,54.0,12.0,0.8181818181818182,129.98847710747796,723.8495744101206,22.0,13.0,9.0,0.5909090909090909,1243.7868121777326,14990.639312744388,22.0,5.0,17.0,0.2272727272727272,981.2459699649388,19576.329056488423,84.0,42.0,42.0,0.5,88.6549324652205,12923.208866074816,,,,,49055.0,49072.0,49098.0,49161.0,49174.0,49195.0,49203.0,49224.0,49413.0,49495.0,0.08420153110367741,-0.05415079821566285,0.05086932307355875,-0.07961714438616682,0.007211379526382205
44,44,50106.35929621004,913.1518892791264,7.955817797315018,50192.027373699,-2061.6997639695073,17.8357578060484,50227.78707095555,24244.72472398799,10.51856125528497,50248.60271279886,-12954.010023270572,11.307516428367618,50493.6535139394,12142.63786213826,33.94249506373436,0.9417665211689598,49.0,26.0,120.0,271.0,391.0,23.0,1042.0,1042.0,23.0,11.0,12.0,0.4782608695652174,47.216724991726174,874.0582590595485,59.0,49.0,10.0,0.8305084745762712,153.93805357936932,100.43073202769516,22.0,13.0,9.0,0.5909090909090909,1282.1366502178678,15849.66838743933,20.0,5.0,15.0,0.25,1042.9646082297354,19854.36582328624,84.0,42.0,42.0,0.5,81.95116705892737,12760.506449272496,,,,,50095.0,50118.0,50144.0,50202.0,50215.0,50237.0,50244.0,50264.0,50453.0,50535.0,0.051707416417876205,-0.07466560178625799,0.052883118485123816,-0.08051287642638494,0.006749041517120248
45,45,51217.29889515735,910.6005748428936,7.535134952214632,51305.45203459914,-2471.7628142014905,15.28779240518434,51339.66107915457,24374.38579546976,10.448452417966942,51360.027373699,-13213.911566397564,11.708516941361689,51606.61007724108,11929.641960207073,33.90780298131197,0.9490002104040162,52.0,30.0,117.0,274.0,391.0,22.0,1111.0,1111.0,22.0,11.0,11.0,0.5,51.02667755670545,841.8308393973598,58.0,48.0,10.0,0.8275862068965517,196.54937704077548,207.90759341410967,22.0,14.0,8.0,0.6363636363636364,1290.116095727048,15032.74305607162,21.0,5.0,16.0,0.238095238095238,1067.761074853135,20428.95966359715,85.0,43.0,42.0,0.5058823529411764,73.86917159419839,12426.899867671746,,,,,51206.0,51228.0,51258.0,51314.0,51327.0,51348.0,51356.0,51375.0,51565.0,51649.0,0.056036289638307236,-0.07951789545157927,0.05292917354113719,-0.08080582872738512,0.006192069455277783
46,46,52316.71192653129,1042.5529997572678,8.422628606062906,52401.60271279886,-2101.7793463825465,20.383723206912453,52438.25666220496,24324.01308335938,10.49455443336552,52458.60271279886,-12639.774512827296,11.5937182144996,52705.48092267748,12230.18379065112,34.487840395396276,0.9429205047127814,52.0,29.0,117.0,274.0,391.0,23.0,1100.0,1099.0,23.0,12.0,11.0,0.5217391304347826,50.53593845955779,975.29697735763,58.0,47.0,11.0,0.8103448275862069,150.80917841623912,563.244445149325,22.0,13.0,9.0,0.5909090909090909,1249.3560832722594,16304.132111602425,21.0,5.0,16.0,0.238095238095238,1027.289305029446,19553.288073567463,87.0,43.0,44.0,0.4942528735632184,80.87936428143179,12808.72513023203,,,,,52305.0,52328.0,52357.0,52413.0,52425.0,52447.0,52454.0,52474.0,52664.0,52748.0,0.048473256008398434,-0.0717530975246296,0.051363073971004106,-0.08127433792326881,0.006613094755228194
47,47,53389.77183731444,864.8472233561886,7.994959978842541,53474.60271279886,-1868.6298118841623,20.383723206912453,53511.24172629146,23801.21611414615,10.444052126004902,53532.60271279886,-12131.83226289655,12.390993495992554,53778.46655485599,12458.932159149555,33.806732594824645,0.9354485643565024,47.0,24.0,124.0,272.0,396.0,23.0,1073.0,1073.0,23.0,12.0,11.0,0.5217391304347826,45.08303408666781,786.4553725679949,63.0,52.0,11.0,0.8253968253968254,132.28836485227106,139.88371376074815,22.0,13.0,9.0,0.5909090909090909,1211.48473313051,16044.537691973846,23.0,6.0,17.0,0.2608695652173913,953.635831131108,19081.820251155335,86.0,42.0,44.0,0.4883720930232558,78.68180040448472,12948.375214261614,,,,,53378.0,53401.0,53425.0,53486.0,53498.0,53520.0,53528.0,53549.0,53738.0,53821.0,0.052128321475919566,-0.07079431357186958,0.05090011902419008,-0.07860608442862048,0.006315292466433618
48,48,54414.56106629639,777.7993975204878,5.951675615382803,54500.027373699,-2181.017295746007,17.8357578060484,54535.26104620041,24882.545453772706,10.387782951195478,54555.60271279886,-12602.574944486383,13.329685365121987,54801.68934799187,12281.27028215048,33.82729692917046,0.9404966263003556,44.0,26.0,123.0,271.0,394.0,18.0,1024.0,1024.0,18.0,9.0,9.0,0.5,57.244941772241354,683.2020306866094,61.0,51.0,10.0,0.8360655737704918,168.58774009185927,160.18604644845357,22.0,13.0,9.0,0.5909090909090909,1231.6486956789695,15720.725525753316,23.0,5.0,18.0,0.217391304347826,988.2087269779796,19949.990357381637,84.0,42.0,42.0,0.5,76.16384955514677,12710.050586873103,,,,,54406.0,54424.0,54450.0,54510.0,54522.0,54544.0,54551.0,54573.0,54761.0,54844.0,0.07359859361517888,-0.07729775477740748,0.049498500785104614,-0.07841323946344157,0.006201626363181894
49,49,55430.61132386429,624.0705253422727,6.322640380405698,55516.027373699,-2256.777157732897,17.8357578060484,55551.72818646289,24326.57712044728,10.407176628891198,55572.60271279886,-13014.216570577377,12.212884141292518,55817.82872884455,11882.35697340073,32.96128727410393,0.942062999790267,44.0,26.0,122.0,271.0,393.0,18.0,1016.0,1016.0,18.0,9.0,9.0,0.5,45.25052374525785,577.7674713935503,62.0,51.0,11.0,0.8225806451612904,153.64162109407602,243.7255516389664,22.0,13.0,9.0,0.5909090909090909,1269.4181024239892,15011.70779978866,22.0,6.0,16.0,0.2727272727272727,1026.7883302955536,20183.725064755083,83.0,41.0,42.0,0.4939759036144578,75.93993878671736,12301.349852534391,,,,,55422.0,55440.0,55466.0,55526.0,55539.0,55560.0,55568.0,55588.0,55778.0,55859.0,0.07250866994630152,-0.06808010288814718,0.05218235578884635,-0.07889743687045467,0.0063909827786450815
50,50,56517.5508013937,569.3339347475976,5.320872379497307,56602.60271279886,-2349.899440066466,20.383723206912453,56638.96917126109,24740.92690037559,10.49126482769378,56659.60271279886,-13394.37373705501,11.399145899703752,56905.777081202614,11860.966558593813,32.605440620951896,0.9439957430732182,46.0,29.0,120.0,272.0,392.0,17.0,1087.0,1087.0,17.0,9.0,8.0,0.5294117647058824,50.6779181857602,482.5726598666572,61.0,50.0,11.0,0.819672131147541,157.05487325146444,544.077551689122,22.0,13.0,9.0,0.5909090909090909,1301.3974003104238,16049.837854438549,20.0,5.0,15.0,0.25,1071.7558503879168,20457.77420500074,83.0,42.0,41.0,0.5060240963855421,78.59915593729075,12293.62079578548,,,,,56509.0,56526.0,56555.0,56614.0,56626.0,56648.0,56655.0,56675.0,56866.0,56947.0,0.08901264283188601,-0.06683472091342862,0.05260099613691787,-0.08001537596512977,0.006626707490406173
51,51,57627.10466574026,522.630436881057,4.707170260812872,57716.45203459914,-2600.546233821769,15.28779240518434,57750.73537714827,24405.77189791572,10.657604740920124,57770.60271279886,-13504.362310751412,11.476639319908758,58016.74253793545,11920.254048346336,34.26216882472807,0.9367845505408658,40.0,26.0,125.0,274.0,399.0,14.0,1109.0,1112.0,14.0,6.0,8.0,0.4285714285714285,55.85599931228534,478.5001538170558,65.0,56.0,9.0,0.8615384615384616,193.53828493350383,89.01097202858898,22.0,14.0,8.0,0.6363636363636364,1284.0417249820691,14907.26949689404,21.0,5.0,16.0,0.238095238095238,1062.3413310315502,20157.895803242944,86.0,43.0,43.0,0.5,72.90267691214315,12383.569420243895,,,,,57621.0,57635.0,57661.0,57725.0,57737.0,57759.0,57766.0,57786.0,57975.0,58060.0,0.10687475388081415,-0.07442216654963273,0.05261221527239331,-0.07866653060587496,0.006115866039135024
52,52,58732.52620396144,765.9989221104494,5.959659438178602,58819.45203459914,-2313.6024096257574,15.28779240518434,58853.98341542701,23830.764134978537,10.3909094508212,58875.178051898714,-12236.812824255496,12.289498977070735,59121.35438878985,12252.939350959,34.230270340356796,0.9358707826201644,41.0,23.0,126.0,273.0,399.0,18.0,1106.0,1104.0,19.0,10.0,9.0,0.5263157894736842,59.612677202538585,632.1468716296092,66.0,56.0,10.0,0.8484848484848485,170.74439558294483,84.95468905460734,22.0,13.0,9.0,0.5909090909090909,1236.0869454773658,15758.599602473649,22.0,5.0,17.0,0.2272727272727272,995.7521194556564,19603.633562319126,87.0,43.0,44.0,0.4942528735632184,80.36479884787465,12757.919815368828,,,,,58724.0,58742.0,58765.0,58828.0,58841.0,58863.0,58870.0,58891.0,59080.0,59164.0,0.0778234478950651,-0.07380023243084538,0.05186937936509769,-0.08137348619747636,0.0065588179738753655
53,53,59758.47504776131,448.5739185385253,4.956770964535762,59844.027373699,-2253.268928871707,17.8357578060484,59879.34116289997,24472.605493005776,10.391847490033635,59900.60271279886,-12527.421843944789,12.773578786199351,60146.30095587383,11957.725846980067,32.637711052677865,0.935934294775976,36.0,21.0,130.0,270.0,400.0,15.0,1027.0,1025.0,16.0,8.0,8.0,0.5,49.47833148703403,384.609375533297,67.0,57.0,10.0,0.8507462686567164,162.4831364726564,231.29269659143856,22.0,13.0,9.0,0.5909090909090909,1244.6836706037243,16428.637775772568,23.0,6.0,17.0,0.2608695652173913,980.9588496865612,19772.68558847451,83.0,41.0,42.0,0.4939759036144578,81.59322688825237,12404.512209469016,,,,,59751.0,59766.0,59787.0,59854.0,59866.0,59888.0,59896.0,59917.0,60107.0,60187.0,0.11030140059911807,-0.07210996183842892,0.05086028420469788,-0.07830492673643892,0.006823473621354081
54,54,60786.44773615126,1209.729703197199,10.37859327296274,60870.60271280133,-1605.205568191282,20.383723206908556,60907.80787533199,24526.62395909167,10.554866737875097,60928.60271279886,-12772.704665884385,11.055962088374054,61173.91737518317,12067.193087433036,34.308041686616235,0.947946174797994,57.0,30.0,114.0,272.0,386.0,27.0,1028.0,1028.0,27.0,13.0,14.0,0.4814814814814814,46.080369335028195,1185.095630830755,55.0,44.0,11.0,0.8,136.10778920124702,151.84760915606836,23.0,14.0,9.0,0.6086956521739131,1280.5854679458168,16339.124005599677,20.0,5.0,15.0,0.25,1049.4467382791538,19678.430452309083,86.0,43.0,43.0,0.5,75.71976087579375,12577.7195577024,,,,,60773.0,60800.0,60830.0,60882.0,60895.0,60917.0,60924.0,60944.0,61133.0,61216.0,0.03809145895421285,-0.08479150078865658,0.052212056175433064,-0.08216323525292205,0.006274844558064584
55,55,61883.816710990825,647.2372156322457,5.525289117943407,61971.027373699,-2462.156448151516,17.8357578060484,62005.99019238488,24406.42208977034,10.4292275182017,62026.60271279886,-13083.537575635257,11.686284902472444,62272.646269539895,11818.913168899717,33.392235034027685,0.9377139715500376,42.0,26.0,124.0,273.0,397.0,16.0,1096.0,1098.0,18.0,9.0,9.0,0.5,58.61838838819728,517.2286158624192,64.0,54.0,10.0,0.84375,175.1936143687456,285.45021928185724,22.0,13.0,9.0,0.5909090909090909,1281.916471163682,15855.442078724518,21.0,5.0,16.0,0.238095238095238,1047.9267858334545,20130.121068422188,85.0,43.0,42.0,0.5058823529411764,74.62554715162757,12236.833134989758,,,,,61876.0,61892.0,61918.0,61981.0,61993.0,62015.0,62022.0,62042.0,62232.0,62315.0,0.09056708571823491,-0.07115454198707545,0.05252373602523992,-0.0800950644866072,0.006314078636942456
56,56,62961.91536099909,650.1103786083278,5.561909178277026,63048.60271279886,-2459.428763844432,20.383723206912453,63085.2711057607,24495.351029371977,10.381006232849094,63106.178051898714,-12557.02304029099,12.77753505465592,63352.63458372069,12040.966880919465,33.659040244195246,0.9358967001319476,45.0,29.0,123.0,273.0,396.0,16.0,1078.0,1080.0,17.0,8.0,9.0,0.4705882352941176,56.16185332635414,496.1542960995031,64.0,53.0,11.0,0.828125,140.85658928568787,685.154370477901,22.0,13.0,9.0,0.5909090909090909,1239.7704236933669,16027.502834189623,22.0,5.0,17.0,0.2272727272727272,1015.304962189088,20180.75946311119,85.0,43.0,42.0,0.5058823529411764,78.8049800902251,12536.502036251868,,,,,62954.0,62970.0,62999.0,63060.0,63072.0,63094.0,63101.0,63122.0,63311.0,63395.0,0.08638818141402106,-0.057272075270645074,0.05061247835178105,-0.0808555466475882,0.006544738547126329
57,57,63999.4748500204,722.0735336888498,6.36622912585569,64083.60271279886,-2327.5296548315323,20.383723206912453,64120.37315312139,24569.69235000636,10.38659887864238,64141.178051898714,-12505.391003284249,13.188419316144351,64387.4349437841,12214.319897749496,33.68168995870614,0.9347486509327384,42.0,23.0,126.0,271.0,397.0,19.0,1040.0,1035.0,19.0,9.0,10.0,0.4736842105263157,51.94437505533692,655.836862440802,65.0,54.0,11.0,0.8307692307692308,131.21971150387952,457.05961530535046,22.0,13.0,9.0,0.5909090909090909,1224.9193622656794,15935.866558165497,23.0,5.0,18.0,0.217391304347826,1002.6514941656924,20006.314882419538,85.0,42.0,43.0,0.4941176470588235,78.7021171089255,12751.390378457596,,,,,63990.0,64009.0,64032.0,64095.0,64107.0,64129.0,64136.0,64158.0,64346.0,64429.0,0.07193779114153265,-0.056377245820044025,0.04985489214989549,-0.08017754054250438,0.006443430151475439
58,58,65018.90012770578,386.9648695160374,5.080706318089539,65104.60271279886,-2483.0398035576836,20.383723206912453,65141.1212530566,24805.38604519882,10.399990470075434,65161.60271279886,-12715.32809640516,13.125169475702393,65407.06961765012,11857.43779492255,33.2988708876775,0.9365866050811072,41.0,25.0,127.0,270.0,397.0,16.0,1018.0,1021.0,16.0,8.0,8.0,0.5,43.67663109367892,265.53388152309014,65.0,54.0,11.0,0.8307692307692308,146.42174756546868,621.7956238749061,22.0,13.0,9.0,0.5909090909090909,1238.5907549467386,15397.313618984945,22.0,5.0,17.0,0.2272727272727272,999.775875853832,20002.51717300357,85.0,42.0,43.0,0.4941176470588235,77.54824157317634,12263.060431503747,,,,,65011.0,65027.0,65052.0,65116.0,65128.0,65150.0,65157.0,65179.0,65366.0,65449.0,0.11286975778525751,-0.05896874764378587,0.04993233133682565,-0.07862761135801802,0.0065400504657408464
59,59,66087.04011624373,820.327268511376,7.603700957224773,66175.45203459925,-2606.3126782724644,15.287792405183025,66209.70051223457,24689.51436180015,10.651965155850228,66229.60271279897,-13571.021384991214,11.52504312806909,66476.24394456575,12018.885341154546,33.52866223897286,0.9428762253998042,51.0,29.0,118.0,273.0,391.0,22.0,1068.0,1068.0,22.0,11.0,11.0,0.5,45.5840089246965,769.7650456817545,57.0,48.0,9.0,0.8421052631578947,202.95117452427857,116.26410301525289,22.0,14.0,8.0,0.6363636363636364,1295.209725722617,15055.793109369832,21.0,5.0,16.0,0.238095238095238,1077.4051610525253,20248.34313082952,85.0,42.0,43.0,0.4941176470588235,76.7791463483875,12470.266748414995,,,,,66076.0,66098.0,66127.0,66184.0,66196.0,66218.0,66225.0,66245.0,66436.0,66518.0,0.05556807712538493,-0.07786908156346006,0.05245991098660805,-0.07939013066798897,0.006388208570846722
60,60,67199.62324098154,673.5074649688697,5.817185327779045,67288.027373699,-2615.8935779925664,17.8357578060484,67322.80818883405,24729.343478294155,10.397232347458283,67343.60271279886,-13126.891453729462,12.012769241557349,67590.22237390836,11848.515497670753,32.688204643745955,0.94035611981591,46.0,28.0,123.0,273.0,396.0,18.0,1112.0,1113.0,18.0,10.0,8.0,0.5555555555555556,52.607005404311145,552.2050998842057,63.0,53.0,10.0,0.8412698412698413,187.21757559916887,308.98085291248344,22.0,13.0,9.0,0.5909090909090909,1295.697612909243,15628.860413769324,21.0,5.0,16.0,0.238095238095238,1053.8175997662752,20415.38642425809,84.0,42.0,42.0,0.5,72.5395958093956,12182.857224303669,,,,,67190.0,67208.0,67236.0,67298.0,67310.0,67332.0,67339.0,67359.0,67549.0,67632.0,0.07810901606969227,-0.07156926305191644,0.052395148057469615,-0.08027929563376382,0.0061222518402120375
61,61,68326.57586886451,1042.1090193562704,8.053418497435874,68414.45203459915,-2016.8288210957508,15.28779240518434,68448.96402699458,23949.556212751988,10.46017390045762,68469.60271279886,-12686.735820150136,11.283923725311126,68715.90349786653,12167.542788314253,34.45765781865196,0.9390443727410585,51.0,28.0,119.0,273.0,392.0,23.0,1127.0,1126.0,23.0,12.0,11.0,0.5217391304347826,52.31123714107176,950.6830638977498,59.0,49.0,10.0,0.8305084745762712,178.48810169346754,63.45689042373135,22.0,13.0,9.0,0.5909090909090909,1266.1973476880491,15937.790186871129,20.0,5.0,15.0,0.25,1033.204524901484,19509.74611742966,85.0,42.0,43.0,0.4941176470588235,80.08063415943943,12756.544172699423,,,,,68315.0,68338.0,68366.0,68423.0,68436.0,68458.0,68465.0,68485.0,68675.0,68758.0,0.05019747086862884,-0.08849938072408856,0.05286934490309511,-0.08143974459217967,0.006581495997396379
62,62,69423.12330450071,451.8624812483327,4.359508966259684,69508.17805189872,-2439.476088371675,22.93168860777651,69546.2146603963,24922.107457529502,10.349847321025596,69566.60271279886,-12458.072476494915,13.523330474541584,69813.70009882227,12431.11385211498,33.68140214906649,0.9356902506461844,36.0,22.0,132.0,272.0,404.0,14.0,1095.0,1098.0,14.0,7.0,7.0,0.5,56.828210705986535,297.4789611799707,74.0,61.0,13.0,0.8243243243243243,97.52792319429096,1091.646993780376,22.0,13.0,9.0,0.5909090909090909,1226.3345280457063,15407.706773396458,23.0,5.0,18.0,0.217391304347826,985.197977842604,19859.43469397195,85.0,43.0,42.0,0.5058823529411764,83.07912368488887,12879.481950869216,,,,,69416.0,69430.0,69452.0,69521.0,69533.0,69555.0,69562.0,69584.0,69772.0,69856.0,0.12576439307151754,-0.03997904454123584,0.049206694503486074,-0.07908109217548796,0.006683160067008325
63,63,70462.07594234565,616.9251282046629,5.656528109756391,70546.027373699,-2248.461431612381,17.8357578060484,70581.70383342708,24515.261399102623,10.345898016298504,70602.60271279886,-12213.882258989292,12.993612130580608,70848.31753475382,12101.101868140811,33.655140817157296,0.9302538271425472,42.0,25.0,123.0,271.0,394.0,17.0,1042.0,1035.0,17.0,8.0,9.0,0.4705882352941176,48.56247677072203,510.72462385127415,62.0,52.0,10.0,0.8387096774193549,148.533259697803,293.86351346076196,22.0,13.0,9.0,0.5909090909090909,1244.4908988912223,15159.275996899876,22.0,5.0,17.0,0.2272727272727272,973.473293058854,19516.34219601473,85.0,42.0,43.0,0.4941176470588235,85.83082595278229,12708.487253911911,,,,,70454.0,70471.0,70496.0,70556.0,70569.0,70590.0,70598.0,70619.0,70807.0,70890.0,0.07871696993773868,-0.06605995442460812,0.05076392532109719,-0.07970220053025218,0.007092810794259446
64,64,71477.40905094644,916.6675891796444,6.91566060769629,71563.027373699,-2333.204966970478,17.8357578060484,71598.2052119091,24364.00293152901,10.597289896274294,71618.60271279886,-13094.814897694883,11.749857787801472,71864.09746124424,12036.715899010223,33.55987811506276,0.9464523230590662,45.0,25.0,121.0,272.0,393.0,20.0,1015.0,1017.0,20.0,9.0,11.0,0.45,56.35278225053529,821.0102319471628,61.0,51.0,10.0,0.8360655737704918,173.57709168966946,134.9315214155679,22.0,13.0,9.0,0.5909090909090909,1258.0886348226616,16037.974252065553,21.0,5.0,16.0,0.238095238095238,1036.4326802756857,19871.83306585958,85.0,42.0,43.0,0.4941176470588235,76.58998954552474,12509.605918109237,,,,,71468.0,71488.0,71513.0,71573.0,71585.0,71607.0,71614.0,71634.0,71823.0,71906.0,0.06147570058734947,-0.07439427489092335,0.05163718943715083,-0.07914832614076368,0.00636303043023743
65,65,72549.96940843127,994.6602930880244,8.646900213116337,72636.027373699,-2035.441464267356,17.835757806048342,72671.9296138412,24424.303060080092,10.472185078861225,72692.60271279886,-13155.009115845682,11.186519162916724,72939.73371675708,12271.766836723978,33.97866405472778,0.9452827856193108,53.0,30.0,116.0,275.0,391.0,23.0,1072.0,1074.0,23.0,12.0,11.0,0.5217391304347826,46.33678303449965,944.9561806741676,60.0,49.0,11.0,0.8166666666666667,163.02446075450362,263.5143278413191,22.0,13.0,9.0,0.5909090909090909,1293.9640139948751,16119.08476068818,20.0,5.0,15.0,0.25,1063.9657457771675,20149.639366072275,84.0,42.0,42.0,0.5,83.70594537260561,12908.004584190934,,,,,72538.0,72561.0,72591.0,72646.0,72659.0,72681.0,72688.0,72707.0,72900.0,72982.0,0.04658553614384503,-0.08009292510565182,0.052978543985960184,-0.0808791340551473,0.006821018235296867
66,66,73637.73327004141,726.7044803636119,6.266476309917242,73726.027373699,-2619.5406195668,17.8357578060484,73760.68889879875,24935.040035749393,10.473749151607567,73780.60271279886,-13339.223518983756,12.350503799661936,74026.86559293159,12008.514839467558,33.817783405722174,0.934476758044952,47.0,28.0,122.0,272.0,394.0,19.0,1087.0,1088.0,19.0,10.0,9.0,0.5263157894736842,49.695004176412446,627.921759743802,61.0,51.0,10.0,0.8360655737704918,193.48330289686012,278.7385307958059,22.0,14.0,8.0,0.6363636363636364,1282.339178545616,14678.408676929092,22.0,5.0,17.0,0.2272727272727272,1052.2370514087063,20382.42836769863,86.0,43.0,43.0,0.5,73.95575184590786,12451.06227075524,,,,,73628.0,73647.0,73675.0,73736.0,73748.0,73769.0,73776.0,73797.0,73985.0,74069.0,0.06838406191131118,-0.07386153948200923,0.051427195493054155,-0.07888293122243675,0.006158609356324613
67,67,74713.93363972791,662.6523809042774,6.118066232124995,74798.60271279918,-2225.27926561042,20.383723206908527,74835.41723144871,24556.25079033621,10.446123704403709,74855.60271279886,-12680.817273180584,12.469597853059389,75101.7494723388,11677.114238369228,34.28166800969065,0.9336550143256468,45.0,27.0,122.0,273.0,395.0,18.0,1078.0,1075.0,19.0,9.0,10.0,0.4736842105263157,48.48714303818597,590.0542707513265,61.0,50.0,11.0,0.819672131147541,143.89420073251344,583.9708371369194,22.0,13.0,9.0,0.5909090909090909,1231.685280824942,16005.045099415292,22.0,5.0,17.0,0.2272727272727272,1008.9257945543262,19802.454511778815,87.0,44.0,43.0,0.5057471264367817,72.55194377570187,12101.46939917708,,,,,74705.0,74723.0,74750.0,74810.0,74822.0,74844.0,74851.0,74872.0,75060.0,75145.0,0.07317131038149868,-0.06466343481299709,0.050157708981765886,-0.07956315218642598,0.006213174102322917
68,68,75732.99091839054,1164.13771275449,9.475359638910785,75818.027373699,-1827.8206319411536,17.8357578060484,75853.83910640153,23810.788395411877,10.537714365774177,75874.60271279886,-12463.637780004185,11.56795552332463,76120.24705363535,12229.927254815908,34.49168651992211,0.9459277936368068,55.0,30.0,114.0,272.0,386.0,25.0,1018.0,1018.0,25.0,12.0,13.0,0.48,51.66850772095831,1074.3976982772938,54.0,44.0,10.0,0.8148148148148148,155.2264387422642,61.806371609802,22.0,13.0,9.0,0.5909090909090909,1235.8265148741027,15515.280186714368,21.0,5.0,16.0,0.238095238095238,1000.1744779893418,19310.755625525388,86.0,43.0,43.0,0.5,83.3633026343164,12861.9426169711,,,,,75721.0,75746.0,75776.0,75828.0,75841.0,75863.0,75870.0,75890.0,76079.0,76162.0,0.04438350132881135,-0.0849243279289462,0.05190195697645338,-0.08024739611688282,0.006816336753065277
69,69,76823.36952891598,957.1103157679532,6.973923016585242,76912.45203459915,-2380.1176121589733,15.28779240518434,76946.83358633354,23786.24874536286,10.507393404591763,76967.60271279886,-12900.030061269958,11.634116558417553,77214.1168173367,11898.620186697635,33.71721374472635,0.935335637170082,48.0,28.0,122.0,273.0,395.0,20.0,1092.0,1093.0,20.0,10.0,10.0,0.5,56.74125057078888,861.4370453130715,62.0,53.0,9.0,0.8548387096774194,184.77535435800436,76.6009920657749,22.0,13.0,9.0,0.5909090909090909,1259.074796454645,15307.370406467704,21.0,5.0,16.0,0.238095238095238,1022.8772942360364,19697.38030795646,85.0,42.0,43.0,0.4941176470588235,79.32923190951145,12407.851385402317,,,,,76813.0,76833.0,76861.0,76921.0,76934.0,76956.0,76963.0,76983.0,77173.0,77256.0,0.05928391914286453,-0.07763286713819031,0.052932886136579316,-0.07929262872859834,0.0066670950635267425
70,70,77926.34480257389,1372.60110520964,10.777976765556447,78015.87669549994,-1796.135699535567,12.73982700430668,78049.4825670077,23632.412623131662,10.400517130917263,78070.60271279886,-12295.34670511251,11.438565892977952,78317.0571525258,12217.251835363948,34.76376833881144,0.943976583738263,57.0,30.0,116.0,274.0,390.0,27.0,1103.0,1103.0,29.0,14.0,15.0,0.4827586206896552,54.76676829039884,1306.5613848816597,55.0,48.0,7.0,0.8727272727272727,215.9299576202415,956.2825480569892,22.0,13.0,9.0,0.5909090909090909,1241.3049590594835,16923.166922090826,20.0,5.0,15.0,0.25,1002.555439019699,19229.20468338125,87.0,43.0,44.0,0.4942528735632184,78.82109607015657,12830.915730464578,,,,,77913.0,77940.0,77970.0,78023.0,78036.0,78058.0,78066.0,78086.0,78276.0,78360.0,0.03989998848356909,-0.1202191781367495,0.05252552834341089,-0.08153941999885435,0.006451622437871153
71,71,78988.33938929491,1178.3766690036664,9.906476244398846,79073.45203459963,-1335.9096634793646,15.28779240518434,79107.96696145201,23176.845694742537,10.450739819563616,79129.60271279886,-11187.589962469518,10.956962003193466,79372.1334453242,12959.567795916088,36.80988022299814,0.919600435762967,50.0,24.0,120.0,273.0,393.0,26.0,1061.0,1059.0,27.0,13.0,14.0,0.4814814814814814,46.16808365612834,1128.199394926164,58.0,49.0,9.0,0.8448275862068966,164.68515458411628,608.0109099978105,22.0,13.0,9.0,0.5909090909090909,1215.489482799182,16879.87372439285,20.0,5.0,15.0,0.25,945.2730310764948,17934.292243885848,91.0,44.0,47.0,0.4835164835164835,74.49681228526381,13548.165215968009,,,,,78975.0,79001.0,79025.0,79082.0,79095.0,79117.0,79125.0,79145.0,79329.0,79418.0,0.039179393881893544,-0.12327566682555113,0.05244412888656825,-0.08449299931866987,0.00574840252841918
72,72,79995.62531866838,1072.4853552715497,7.667601810672704,80079.02737369902,-1828.8439615411069,17.835757806048232,80114.4251510873,23857.432131476955,10.375707360846624,80135.60271279886,-12053.12550487822,12.614068581995015,80382.54497220073,12179.925580901185,33.75934609299189,0.9511818774960712,43.0,22.0,124.0,272.0,396.0,21.0,1007.0,1006.0,21.0,11.0,10.0,0.5238095238095238,60.41323172599236,981.7522064998784,61.0,51.0,10.0,0.8360655737704918,156.35705744530276,17.558745942126166,22.0,13.0,9.0,0.5909090909090909,1210.122488989668,16273.620368443057,23.0,6.0,17.0,0.2608695652173913,953.9602187928303,19143.75878098196,84.0,42.0,42.0,0.5,75.30486428985374,12605.461713141574,,,,,79985.0,80006.0,80028.0,80089.0,80101.0,80123.0,80131.0,80152.0,80342.0,80424.0,0.05633012276488935,-0.08549502348661052,0.05072308211213812,-0.07914629432894707,0.006182703152795617
73,73,81027.6645291147,964.2611305340204,7.124060197139666,81114.45203459916,-2240.767119124489,15.287792405183918,81148.29105646259,23531.68789511048,10.55793379986152,81169.17805189872,-12481.691733903925,11.447539961780334,81414.55055424919,12075.040705744996,34.22849765890116,0.9451340785879482,47.0,26.0,121.0,272.0,393.0,21.0,1033.0,1034.0,21.0,11.0,10.0,0.5238095238095238,59.17838886286722,836.306207292241,59.0,50.0,9.0,0.847457627118644,195.74836646030604,238.76668852645253,22.0,13.0,9.0,0.5909090909090909,1233.387393488849,16363.033662224478,21.0,5.0,16.0,0.238095238095238,1019.561366989979,19496.713166080932,86.0,43.0,43.0,0.5,75.02437127170506,12542.822096281694,,,,,81017.0,81038.0,81064.0,81123.0,81135.0,81157.0,81164.0,81185.0,81373.0,81457.0,0.061371745670276534,-0.08735774672416147,0.05241389393682753,-0.08168454955673614,0.006213177503907741
74,74,82119.26787999892,1030.3615341461814,8.677581803900415,82204.60271279886,-1915.668967085272,20.383723206912453,82241.27845890491,23936.635072313293,10.456128114218824,82262.60271279886,-12543.535799758698,10.954681591377016,82508.8877850491,12040.73504699813,34.0689907095209,0.946069594227808,54.0,30.0,116.0,274.0,390.0,24.0,1091.0,1093.0,25.0,12.0,13.0,0.48,50.63477861871438,952.6398473617386,56.0,45.0,11.0,0.8035714285714286,146.835863522005,378.6163753434083,22.0,13.0,9.0,0.5909090909090909,1263.5638895961497,17149.64108438079,21.0,6.0,15.0,0.2857142857142857,1027.0334561757531,19447.585478828943,86.0,43.0,43.0,0.5,80.39415471770208,12613.162745916192,,,,,82107.0,82131.0,82161.0,82216.0,82228.0,82250.0,82258.0,82277.0,82468.0,82551.0,0.04914272994543935,-0.07664991501398004,0.05278786620504032,-0.08187750826967866,0.006676847750897492
75,75,83206.39133300312,477.648497323204,4.475490473050892,83291.60271279886,-2496.014802612895,20.38372320691244,83327.57014199746,24292.801905932894,10.36486471721542,83348.60271279942,-12753.533357490802,12.36272326770391,83594.30400578036,11972.977530227256,33.9150416157281,0.929870082579166,40.0,26.0,125.0,273.0,398.0,14.0,1086.0,1086.0,14.0,7.0,7.0,0.5,54.070038928490824,423.1271685285512,67.0,56.0,11.0,0.835820895522388,160.0377703782001,609.4814354675823,21.0,13.0,8.0,0.6190476190476191,1260.50987235248,14761.6929420975,22.0,6.0,16.0,0.2727272727272727,1004.917607654878,19961.199280427976,87.0,43.0,44.0,0.4942528735632184,72.1809592291475,12332.945921406244,,,,,83199.0,83213.0,83239.0,83303.0,83315.0,83336.0,83344.0,83364.0,83553.0,83637.0,0.11320047949801038,-0.06411731621570044,0.05188820446622227,-0.07879523105372509,0.0060286556996300865
76,76,84244.69864360042,304.38897772687466,3.5609457419707904,84329.60271280148,-2658.935957044981,20.383723202889833,84365.64370279557,25311.35836871396,10.386538434546967,84385.60271279891,-12660.110462302748,14.475034672766991,84632.71725122274,11973.793161570247,32.99656795203002,0.9313806738103144,35.0,23.0,130.0,270.0,400.0,12.0,1037.0,1038.0,13.0,6.0,7.0,0.4615384615384615,51.360832440122486,221.99954351643677,67.0,56.0,11.0,0.835820895522388,153.94065601212546,690.2578487745709,21.0,13.0,8.0,0.6190476190476191,1217.239165548045,13929.94934290155,24.0,5.0,19.0,0.2083333333333333,989.3586684359902,20149.03659369868,84.0,42.0,42.0,0.5,86.40994439452219,12473.099682436845,,,,,84239.0,84251.0,84274.0,84341.0,84353.0,84374.0,84381.0,84404.0,84592.0,84674.0,0.16873420589561583,-0.057895586241651344,0.04809062981987606,-0.07814771216901656,0.007216589031440256
77,77,85229.54424798986,364.3264871271131,3.80840365127054,85313.60271279886,-2849.1144732488306,20.383723206912453,85349.06620055834,25006.16344142703,10.219677968003694,85370.17805189872,-12433.805705442486,14.104577001213435,85616.15098811437,11850.304803435156,32.81599793256673,0.9345081610703732,37.0,25.0,128.0,269.0,397.0,12.0,987.0,984.0,12.0,7.0,5.0,0.5833333333333334,53.40073030032567,292.66313271293654,66.0,55.0,11.0,0.8333333333333334,170.0414084155216,839.1448858778343,22.0,13.0,9.0,0.5909090909090909,1238.3966360937195,15374.402467897262,24.0,5.0,19.0,0.2083333333333333,995.2810527231362,20402.274039309807,84.0,42.0,42.0,0.5,83.07163120697011,12388.554694481096,,,,,85223.0,85235.0,85260.0,85325.0,85336.0,85358.0,85365.0,85388.0,85575.0,85657.0,0.14657383469814592,-0.059682195998823545,0.04952365599762903,-0.08004637327471548,0.00701008392483621
78,78,86253.45382222225,911.7502279551546,7.353931109047361,86339.02737369912,-2497.1543332405668,17.83575780604591,86374.37979434499,24511.899453820926,10.606256733884605,86394.60271279897,-13361.856218457126,11.529886896137082,86640.29794314859,12095.528686195352,34.265587701377946,0.9452987597789174,47.0,26.0,120.0,273.0,393.0,21.0,1023.0,1025.0,21.0,10.0,11.0,0.4761904761904761,53.53636329197091,878.1166780263611,59.0,49.0,10.0,0.8305084745762712,173.36535492651728,304.60664322862795,22.0,13.0,9.0,0.5909090909090909,1274.9123921516425,16460.231890242,21.0,5.0,16.0,0.238095238095238,1059.9730368031164,20168.88848417102,86.0,43.0,43.0,0.5,75.21655670358626,12568.98465189869,,,,,86243.0,86264.0,86290.0,86349.0,86361.0,86383.0,86390.0,86410.0,86599.0,86683.0,0.05871823406289749,-0.06942516632583955,0.05201197869440952,-0.07932827740946236,0.006218542294015726
79,79,87300.70097789705,1036.4667347489997,8.028509027878496,87387.0273736991,-2323.8698131769447,17.835757806047287,87422.64995378275,24849.772127124364,10.541303602983268,87442.60271279886,-13419.520066981631,11.876227494484436,87689.65833944333,11724.270243611696,33.106877261185076,0.9415057827483664,50.0,28.0,118.0,273.0,391.0,22.0,1048.0,1048.0,22.0,11.0,11.0,0.5,53.20699641446485,899.747132418151,59.0,49.0,10.0,0.8305084745762712,163.0526895562293,312.4842033233738,22.0,14.0,8.0,0.6363636363636364,1289.2622410724096,14851.249283886798,21.0,5.0,16.0,0.238095238095238,1062.4638533591171,20343.626231708477,84.0,42.0,42.0,0.5,78.19529081732732,12220.007398020516,,,,,87290.0,87312.0,87340.0,87397.0,87409.0,87431.0,87438.0,87458.0,87649.0,87731.0,0.051334977409911706,-0.0701642960512152,0.05188225608174235,-0.07917301424015014,0.0066695230656197355
80,80,88363.40492853778,1259.823747138327,8.641176241313847,88450.45203460005,-1743.335849513552,15.28779240517413,88484.93253519405,24019.19089934577,10.431765914031892,88505.60271279886,-12489.060381259756,11.83834496695792,88751.18640153237,12332.527031370037,35.67589729455548,0.9461199371274328,51.0,27.0,118.0,274.0,392.0,24.0,1064.0,1062.0,25.0,12.0,13.0,0.48,64.25648294695415,1227.2944508787414,57.0,48.0,9.0,0.8421052631578947,170.16438513942757,348.3553825051709,22.0,13.0,9.0,0.5909090909090909,1249.192662479686,15667.971251637826,21.0,5.0,16.0,0.238095238095238,1012.6807320719482,19495.46689021813,89.0,44.0,45.0,0.4943820224719101,79.17747247778861,12933.642213867022,,,,,88352.0,88376.0,88403.0,88459.0,88472.0,88494.0,88501.0,88521.0,88708.0,88795.0,0.051004343340020304,-0.09760849304332785,0.05200810750514129,-0.08108542205396883,0.006420214792668707
81,81,89377.83076645304,419.39181678403753,4.092920258783836,89461.60271279886,-2840.6191586919417,20.383723206912453,89497.69351355992,25040.41077155317,10.202223347634709,89518.60271279886,-12329.927305061752,14.95015621255022,89764.98598702726,11585.626094056131,32.282037339256526,0.92868164671001,34.0,20.0,132.0,269.0,401.0,14.0,1011.0,1013.0,14.0,7.0,7.0,0.5,60.18966843899063,294.0897145175061,69.0,58.0,11.0,0.8405797101449275,155.54622177092676,1056.2096388287891,21.0,13.0,8.0,0.6190476190476191,1216.2436017247965,14218.761214720442,24.0,6.0,18.0,0.25,958.7207721957268,20138.138664490907,83.0,41.0,42.0,0.4939759036144578,76.39063417076632,12018.035124946266,,,,,89371.0,89385.0,89405.0,89473.0,89485.0,89506.0,89514.0,89537.0,89725.0,89806.0,0.1435165542821853,-0.05475785843905708,0.04857123203052619,-0.07775558999460988,0.006593569786440599
82,82,90350.53080835752,734.4808046049005,6.571948138080064,90436.027373699,-2270.2874339609293,17.8357578060484,90471.01418623312,24350.263537452855,10.451236428518063,90491.60271279886,-12702.472353313722,12.2694095021029,90736.80151651504,11884.45274138318,32.9701640187776,0.9367895922404148,44.0,25.0,123.0,270.0,393.0,19.0,972.0,973.0,19.0,10.0,9.0,0.5263157894736842,52.91637598136313,611.5867556509953,62.0,52.0,10.0,0.8387096774193549,172.20069889026652,50.041601433071264,22.0,13.0,9.0,0.5909090909090909,1252.5453827388772,15601.894963077895,22.0,5.0,17.0,0.2272727272727272,1007.419220420192,19774.570266838833,83.0,41.0,42.0,0.4939759036144578,76.13965352609254,12302.359986465495,,,,,90341.0,90360.0,90385.0,90446.0,90458.0,90480.0,90487.0,90508.0,90697.0,90778.0,0.07204596178633757,-0.07584973440558189,0.05143867871542137,-0.07930890872259087,0.006406660464975771
83,83,91353.5797972735,1024.0852530652912,7.242160883509444,91439.027373699,-2371.821109145234,17.8357578060484,91474.330279726,24608.717271482456,10.652886084509698,91494.60271279886,-13537.719449135851,11.387824973307325,91739.50538805772,11961.098957051232,34.607676005674,0.9467403502503332,49.0,28.0,118.0,272.0,390.0,21.0,1004.0,1004.0,22.0,11.0,11.0,0.5,57.3723676001972,876.4293132332172,58.0,48.0,10.0,0.8275862068965517,178.1140297924324,255.9699629703875,22.0,13.0,9.0,0.5909090909090909,1278.997998848507,16444.601130082272,21.0,5.0,16.0,0.238095238095238,1070.2082495444424,20297.98619861215,87.0,44.0,43.0,0.5057471264367817,72.24221094908056,12430.14071435568,,,,,91343.0,91364.0,91392.0,91449.0,91461.0,91483.0,91490.0,91510.0,91697.0,91782.0,0.05602303853948709,-0.07509589534626489,0.05197337125452938,-0.07905380618688745,0.006039763671254704
84,84,92366.462923292,504.26460912998385,4.806335777665473,92451.027373699,-2611.853064518797,17.8357578060484,92486.6079649854,24834.4691645962,10.382203471054089,92507.17805189872,-13334.053639226073,12.505327624671226,92752.93708490596,11644.1202223628,32.32979505690427,0.9382146316497209,43.0,28.0,121.0,271.0,392.0,15.0,1014.0,1012.0,15.0,7.0,8.0,0.4666666666666667,55.35234447522631,445.0987212005579,61.0,50.0,11.0,0.819672131147541,166.99520308614504,648.7839989324096,22.0,14.0,8.0,0.6363636363636364,1287.9858628477325,14631.613124581192,22.0,5.0,17.0,0.2272727272727272,1066.652806365552,20941.19516160513,83.0,41.0,42.0,0.4939759036144578,78.70319764845608,12025.665787001242,,,,,92359.0,92374.0,92402.0,92461.0,92474.0,92495.0,92502.0,92523.0,92713.0,92794.0,0.1097684498833393,-0.06393744171704081,0.051862830419740706,-0.07999463893168064,0.006759050589095154
85,85,93375.67405962164,1182.1313714737826,10.00283059749438,93463.027373699,-1827.7550224007452,17.8357578060484,93498.7072361872,23866.228677101237,10.431261655783624,93519.60271279886,-12561.10238981163,11.659778469583966,93764.47695511753,12173.491105574329,34.18206048246981,0.9469437295556328,54.0,27.0,119.0,272.0,391.0,27.0,1011.0,1012.0,28.0,14.0,14.0,0.5,49.77422268118475,1118.044779518974,59.0,49.0,10.0,0.8305084745762712,159.3131412141355,63.04298436103113,23.0,14.0,9.0,0.6086956521739131,1251.5533056029046,15258.314778233558,21.0,5.0,16.0,0.238095238095238,1009.1180168825288,19480.331774935312,86.0,42.0,44.0,0.4883720930232558,74.64274951804836,12687.44570549434,,,,,93362.0,93389.0,93416.0,93473.0,93486.0,93508.0,93515.0,93535.0,93723.0,93807.0,0.04210549172646557,-0.08716329008078919,0.05244034667294224,-0.08033674000627758,0.006131581226018961
86,86,94360.54341848346,431.3004032298421,4.7048519386343735,94446.60271279886,-2545.696760363759,20.383723206912453,94482.37827990796,24608.01075046706,10.291812304115588,94503.17805189872,-12417.174910332848,13.335702384445227,94746.96674347697,12192.880980556576,33.372085885921756,0.9304967456755388,39.0,24.0,128.0,269.0,397.0,15.0,985.0,984.0,15.0,8.0,7.0,0.5333333333333333,49.06835964835884,313.1554125485977,67.0,56.0,11.0,0.835820895522388,156.73107474668967,645.6245442920441,21.0,12.0,9.0,0.5714285714285714,1228.287570286585,15854.61188023686,23.0,5.0,18.0,0.217391304347826,998.6888570788726,20077.858372948136,84.0,41.0,43.0,0.4880952380952381,81.39180567556554,12715.9223658109,,,,,94353.0,94368.0,94392.0,94458.0,94470.0,94491.0,94498.0,94520.0,94707.0,94789.0,0.11376840661614238,-0.06156706375518744,0.04991413498400199,-0.08042802523848014,0.006675354725873014
87,87,95361.87669549928,570.6604046902934,5.523502728743308,95448.027373699,-2547.612490818849,17.835757806048395,95483.50198638823,24758.14859331809,10.411203456570805,95503.60271280057,-12795.97970083174,13.250363059641977,95748.40904374566,12070.704887093683,32.848884841093444,0.9368048057100198,39.0,23.0,129.0,268.0,397.0,16.0,1002.0,1001.0,17.0,9.0,8.0,0.5294117647058824,47.48919785661329,306.4820982077641,66.0,56.0,10.0,0.8484848484848485,150.65179936058976,366.9176671693996,22.0,14.0,8.0,0.6363636363636364,1248.6210887877814,14027.16794188824,23.0,5.0,18.0,0.217391304347826,1000.4487204472332,20029.042463463287,83.0,41.0,42.0,0.4939759036144578,82.06288714597135,12525.788176898535,,,,,95353.0,95369.0,95392.0,95458.0,95470.0,95492.0,95499.0,95521.0,95709.0,95789.0,0.08321796547700983,-0.05913450334519577,0.05043273264482985,-0.0781846129673216,0.006798516566643523
88,88,96407.64064240851,718.944581630955,6.385997842922875,96497.027373699,-2392.7587130664942,17.8357578060484,96532.62372364062,24387.348099488663,10.562698341230016,96553.027373699,-13343.835800505556,11.150331997079991,96797.43582761836,12109.602446929424,33.33391064841594,0.9350945050860228,50.0,31.0,120.0,271.0,391.0,19.0,1044.0,1049.0,19.0,10.0,9.0,0.5263157894736842,48.81109472832713,626.0565936077965,60.0,50.0,10.0,0.8333333333333334,169.80692728344823,404.7408574832943,22.0,14.0,8.0,0.6363636363636364,1296.8754328047587,15304.10361873886,21.0,5.0,16.0,0.238095238095238,1087.5028116680917,20340.726119397616,84.0,41.0,43.0,0.4880952380952381,82.55446052239532,12663.32614272836,,,,,96398.0,96417.0,96448.0,96507.0,96520.0,96541.0,96549.0,96568.0,96757.0,96839.0,0.06789270824963613,-0.07096700823035697,0.053178206482891455,-0.0814985157136668,0.006817272563999677
89,89,97552.83812632534,546.4060541573457,4.937194821585102,97645.027373699,-2766.377648715274,17.8357578060484,97679.68772652824,24286.954346544597,10.421001853348256,97700.60271279886,-13251.162359969529,11.5189478079564,97946.2130297322,11870.630141180907,32.692658667755005,0.938358467249134,45.0,30.0,125.0,271.0,396.0,15.0,1144.0,1147.0,16.0,8.0,8.0,0.5,53.78595540553461,481.492959222379,66.0,56.0,10.0,0.8484848484848485,186.11849699725232,391.3313072316748,22.0,13.0,9.0,0.5909090909090909,1301.3471177703684,15456.20185251696,21.0,6.0,15.0,0.2857142857142857,1052.907293871276,20314.32187200366,83.0,41.0,42.0,0.4939759036144578,78.92599108989647,12316.828476748586,,,,,97546.0,97561.0,97591.0,97655.0,97667.0,97688.0,97696.0,97716.0,97906.0,97987.0,0.09843587016707203,-0.0672787741339969,0.05358214534444152,-0.07945773097249237,0.006648845945936009
90,90,98682.9774371899,627.589503190967,5.51305759140135,98771.17805189872,-2589.076298593995,22.93168860777651,98809.17870209336,24615.059050342283,10.503439308206074,98829.60271279886,-13251.35050610704,11.787524559763664,99075.91331320078,12067.50751510662,32.817534822038745,0.9343202427637656,44.0,26.0,127.0,272.0,399.0,18.0,1130.0,1130.0,18.0,9.0,9.0,0.5,53.45941775287979,523.2975187122357,69.0,56.0,13.0,0.8115942028985508,105.68813414017065,1195.75257563919,22.0,13.0,9.0,0.5909090909090909,1271.1604619386655,15848.737867090696,21.0,5.0,16.0,0.238095238095238,1052.3936535044884,20216.06720977201,83.0,41.0,42.0,0.4939759036144578,80.65821325513328,12563.58468313309,,,,,98674.0,98692.0,98718.0,98784.0,98796.0,98818.0,98825.0,98845.0,99036.0,99117.0,0.08518214132178181,-0.040820787783490534,0.051641576781876114,-0.07941784145091328,0.00668391655477835
91,91,99781.7319678576,511.1291229346891,5.047013955808491,99869.60271279886,-2417.6406092096227,20.383723206912453,99905.82058235274,24387.851794584352,10.33213594569234,99926.60271279886,-12488.775637553044,12.842491808486855,100172.68989415916,12103.402757225962,33.21988702622048,0.932773886152574,42.0,26.0,127.0,272.0,399.0,16.0,1099.0,1096.0,16.0,8.0,8.0,0.5,48.15798906509679,416.7703166894793,67.0,56.0,11.0,0.835820895522388,152.06734584942512,564.4322876822998,22.0,13.0,9.0,0.5909090909090909,1239.8726495665258,14966.149097844873,22.0,5.0,17.0,0.2272727272727272,988.100035215578,19736.726318786477,85.0,43.0,42.0,0.5058823529411764,81.18094248009129,12570.842741823828,,,,,99774.0,99790.0,99816.0,99881.0,99893.0,99915.0,99922.0,99943.0,100131.0,100215.0,0.09421883219761341,-0.06289906997348921,0.05083976481445799,-0.07911904768666168,0.006707282580646564
92,92,100804.0550387162,732.4277733454335,6.037089498807091,100891.45203459916,-2465.2146412192787,15.28779240518434,100925.75991284092,24493.600322318227,10.323056233361354,100946.60271279886,-12509.907449642898,13.452506659046175,101191.97320414663,12315.20182055003,33.07042682725848,0.9383251784848304,43.0,23.0,126.0,270.0,396.0,20.0,1025.0,1020.0,20.0,10.0,10.0,0.5,54.3129477467202,643.9296262365265,65.0,55.0,10.0,0.8461538461538461,178.99983081552136,55.34518737902329,21.0,13.0,8.0,0.6190476190476191,1243.5171702871355,14763.260368812284,22.0,5.0,17.0,0.2272727272727272,983.7297156462304,19933.61019502234,84.0,42.0,42.0,0.5,78.95718278576496,12712.923909418168,,,,,100794.0,100814.0,100837.0,100900.0,100913.0,100934.0,100942.0,100963.0,101151.0,101233.0,0.07415468080714722,-0.07261024164897432,0.0507690643238781,-0.07863605063475601,0.006411359223850586
93,93,101813.1497892001,1057.4918856699858,8.197951672990957,101896.60271279998,-1904.471043072921,20.38372320691122,101933.74697952202,24764.947937663714,10.525836239586972,101954.027373699,-13311.453743064229,11.428177927980338,102198.86954530026,12266.988350811722,34.20193201513345,0.9395306634975036,52.0,30.0,115.0,272.0,387.0,22.0,1005.0,1008.0,22.0,11.0,11.0,0.5,54.2793042864751,1009.053325640837,57.0,46.0,11.0,0.8070175438596491,140.8755111037346,396.3534362395223,22.0,14.0,8.0,0.6363636363636364,1291.6140000885096,15437.112227149282,21.0,5.0,16.0,0.238095238095238,1083.9772127276822,20453.990352695386,85.0,42.0,43.0,0.4941176470588235,77.97881918165555,12818.681429291108,,,,,101802.0,101824.0,101854.0,101908.0,101921.0,101942.0,101950.0,101969.0,102158.0,102241.0,0.05132834116460936,-0.07397093886837353,0.052154924909983816,-0.08143191823000365,0.00635680225264872
94,94,102859.45622164346,958.8281052075838,7.405692981019352,102946.60271279894,-2365.684044983666,20.3837232069112,102983.75025758502,24918.292666887788,10.548652190417792,103003.60271279892,-13557.805319581485,11.89039878134786,103249.0577883643,11926.706021687549,33.327632796662144,0.9401237475376372,49.0,27.0,122.0,271.0,393.0,22.0,1047.0,1050.0,22.0,10.0,12.0,0.4545454545454545,54.06515613922218,910.2182692193217,61.0,50.0,11.0,0.819672131147541,140.42528166331414,687.2695694058872,22.0,14.0,8.0,0.6363636363636364,1287.5424209323637,14834.29105207571,21.0,5.0,16.0,0.238095238095238,1066.280249373054,20540.853779382283,83.0,41.0,42.0,0.4939759036144578,79.34765390158542,12434.589723903397,,,,,102849.0,102871.0,102898.0,102958.0,102971.0,102992.0,102999.0,103020.0,103209.0,103291.0,0.05638670356613839,-0.059359271565059615,0.05167057142094212,-0.07864696565844839,0.0066529395255739065
95,95,103911.44942605724,820.5718876469898,6.61886225532804,103999.17805189872,-2365.5909448612765,22.93168860777651,104036.5500666864,24304.62969267465,10.367847862889477,104057.60271279886,-12705.701922453369,11.762966966960311,104302.75404462828,12388.241992189056,33.781443172570164,0.9390907833551528,50.0,31.0,121.0,272.0,393.0,19.0,1054.0,1053.0,19.0,9.0,10.0,0.4736842105263157,53.678387137066785,774.2185971492678,63.0,50.0,13.0,0.7936507936507936,113.66186274843976,1089.9097471683233,21.0,13.0,8.0,0.6190476190476191,1278.6149037113837,15094.038710547737,21.0,6.0,15.0,0.2857142857142857,1020.807504586526,19841.32826520559,85.0,42.0,43.0,0.4941176470588235,80.16256159200039,12843.726884714986,,,,,103902.0,103921.0,103952.0,104012.0,104024.0,104045.0,104053.0,104073.0,104262.0,104345.0,0.06541582516431423,-0.04804797845347905,0.05260787429716548,-0.08034247228660124,0.006470858548173655
96,96,105022.56591454656,1034.2890731042846,8.659120118553693,105112.45203459916,-2164.075607404123,15.28779240518434,105146.99109594512,23962.497776852542,10.40432377176668,105167.60271279886,-12638.309733592134,12.227959420356584,105414.0409504697,12352.56369919677,33.7012482414502,0.939357450100606,49.0,24.0,125.0,272.0,397.0,25.0,1111.0,1110.0,25.0,13.0,12.0,0.52,50.82131901482326,974.86984161824,63.0,54.0,9.0,0.8571428571428571,177.04814298914792,16.338523218471096,22.0,13.0,9.0,0.5909090909090909,1244.635799333082,15340.123152674754,22.0,5.0,17.0,0.2272727272727272,996.6259658959674,19663.210324338048,85.0,42.0,43.0,0.4941176470588235,79.83787536915352,12830.94616548321,,,,,105010.0,105035.0,105059.0,105121.0,105134.0,105156.0,105163.0,105184.0,105373.0,105456.0,0.04913647483704885,-0.08181236477293082,0.05194098757665338,-0.0788575360870429,0.006463263603679697
97,97,106042.77600968684,232.52295733149043,2.8330591697962473,106130.027373699,-2812.526495494339,17.8357578060484,106164.63077493076,24770.717817954595,10.296896570194283,106185.60271279886,-12533.836485944195,13.914820510857082,106431.40738864552,12139.502985163155,31.718666751695228,0.9327003758197532,34.0,25.0,131.0,268.0,399.0,9.0,1020.0,1018.0,9.0,5.0,4.0,0.5555555555555556,52.49248122142622,171.60638662587576,68.0,58.0,10.0,0.8529411764705882,179.06108862640988,402.8118031661714,21.0,13.0,8.0,0.6190476190476191,1243.418122102997,14483.394847333991,24.0,6.0,18.0,0.25,978.3638341230732,20084.06297824424,81.0,40.0,41.0,0.4938271604938271,82.90078090701851,12592.127986848258,,,,,106038.0,106047.0,106072.0,106140.0,106152.0,106173.0,106181.0,106203.0,106392.0,106471.0,0.22575182177212572,-0.06366556507583673,0.05019709688032247,-0.07805781056903355,0.006829009474962811
98,98,107043.73225505502,771.8732706250623,7.534751081549759,107131.45203459916,-2427.6428879893856,15.28779240518434,107166.1448968012,24482.585557431383,10.595958628195216,107186.027373699,-13280.502546047062,11.765942707893029,107430.57632399176,12313.95675348532,33.95714350961447,0.9333267036555776,49.0,27.0,120.0,271.0,391.0,22.0,1003.0,1002.0,23.0,11.0,12.0,0.4782608695652174,41.916234605203606,614.5101419013235,58.0,49.0,9.0,0.8448275862068966,181.636696424335,139.29133234635174,22.0,13.0,9.0,0.5909090909090909,1267.3030371011937,15681.661150451251,22.0,5.0,17.0,0.2272727272727272,1065.88278386654,20258.93447740712,86.0,43.0,43.0,0.5,76.79040741491244,12796.372073556651,,,,,107033.0,107055.0,107082.0,107140.0,107153.0,107175.0,107182.0,107202.0,107390.0,107473.0,0.05430455516520202,-0.07482018764908605,0.05176344770156515,-0.08025922062593932,0.006236046540700885
99,99,108113.91271487252,680.6092230803064,5.589936615804674,108203.027373699,-2635.0749239094084,17.8357578060484,108237.51333848837,24531.176433677934,10.399048550254202,108258.60271279886,-13236.208665201091,11.53515180364853,108504.03089040228,12159.91301486242,32.55863864299532,0.9406175884276788,45.0,28.0,123.0,272.0,395.0,17.0,1067.0,1071.0,18.0,9.0,9.0,0.5,53.38454688910604,599.0293914328952,64.0,54.0,10.0,0.84375,190.21102478684804,250.45806437262036,21.0,13.0,8.0,0.6190476190476191,1315.88086348219,15388.462622966712,21.0,6.0,15.0,0.2857142857142857,1060.329546936205,20432.211119236526,83.0,41.0,42.0,0.4939759036144578,78.74948096077932,12590.736694974075,,,,,108105.0,108122.0,108150.0,108213.0,108225.0,108246.0,108254.0,108273.0,108464.0,108545.0,0.0784364141401109,-0.07218429467069959,0.05364116421565769,-0.08010825257869232,0.006476154958059978
100,100,109201.00630731108,771.6291123671167,6.7433103023074334,109288.17805189872,-2281.3513494454046,22.93168860777651,109326.23573182564,24915.463000011736,10.358398365640852,109346.60271279886,-13202.178833749684,11.937457744852146,109592.753733104,12261.543698829362,33.27346817332219,0.9384416757875972,52.0,32.0,119.0,272.0,391.0,20.0,1090.0,1089.0,21.0,10.0,11.0,0.4761904761904761,49.06437001006546,645.0286915040343,63.0,49.0,14.0,0.7777777777777778,105.1094426174009,1291.544942790389,22.0,13.0,9.0,0.5909090909090909,1285.8994344470575,16041.944554352916,21.0,5.0,16.0,0.238095238095238,1056.6984533470988,20412.40277959714,84.0,42.0,42.0,0.5,82.36697689383976,12724.392851125704,,,,,109191.0,109211.0,109243.0,109301.0,109313.0,109335.0,109342.0,109362.0,109553.0,109634.0,0.06358543142514585,-0.04607332519953709,0.051610497242072194,-0.08003970152606812,0.006717504656587696
101,101,110269.3511757146,1223.8062644169063,10.061377984849514,110358.87669549928,-1814.0359998881415,12.73982700432028,110392.6141838826,23512.235128912,10.430505845701918,110413.60271279886,-12063.321527210162,11.778412619495716,110658.78727716708,12509.570929284266,35.39580790898064,0.93799051513136,54.0,27.0,119.0,274.0,393.0,27.0,1065.0,1066.0,27.0,13.0,14.0,0.4814814814814814,48.947829509883505,1218.9130944319018,57.0,49.0,8.0,0.8596491228070176,209.11179574167556,929.9170583899412,23.0,14.0,9.0,0.6086956521739131,1235.049942330049,15105.257312457918,21.0,5.0,16.0,0.238095238095238,973.832723093568,18962.81312935979,89.0,44.0,45.0,0.4943820224719101,82.64586633599575,13156.05760099312,,,,,110256.0,110283.0,110310.0,110366.0,110379.0,110401.0,110409.0,110429.0,110617.0,110703.0,0.03999638744552852,-0.11527433620643139,0.052527968334722897,-0.08072674850761294,0.006606610794501832
102,102,,,,,,,,,,,,,,,,,,,,,,,,,,,,,,,,,,,,,,,,,,,,,,,,,,,,,,,,,,,,111017.0,111289.0,111361.0,111372.0,111393.0,111401.0,111424.0,111614.0,111691.0,,,,,
103,103,112272.80629781447,559.3731047876157,5.697440282986162,112360.027373699,-2486.5993408588597,17.8357578060484,112395.68984963185,24105.272547167537,10.434815339651454,112416.60271279886,-13209.88278042508,11.48202501471238,112661.5656651652,12126.607148961515,32.93816852027925,0.9359240695498672,45.0,27.0,123.0,271.0,394.0,18.0,2005.0,2003.0,18.0,9.0,9.0,0.5,48.31349847571619,466.38723888626697,63.0,52.0,11.0,0.8253968253968254,164.59867244030175,649.8163345898114,21.0,13.0,8.0,0.6190476190476191,1287.5647501865449,15248.875466550797,21.0,6.0,15.0,0.2857142857142857,1049.1542781272085,20205.17816212296,83.0,42.0,41.0,0.5060240963855421,78.40512915001545,12598.411712886713,,,,,112264.0,112282.0,112309.0,112370.0,112383.0,112404.0,112412.0,112432.0,112621.0,112703.0,0.08637079270026754,-0.06619428781134083,0.053414237390061736,-0.07942192187215213,0.0064655454066333655
104,104,113318.52367764252,822.0162825211394,6.76820514322663,113408.027373699,-2478.275397120614,17.8357578060484,113443.07045954058,24363.461693010453,10.488910313619224,113463.60271279886,-13322.911498677202,11.46053314726312,113709.28971477986,12067.37553988623,33.43757431895528,0.9375980094828038,50.0,30.0,121.0,272.0,393.0,20.0,1045.0,1048.0,20.0,11.0,9.0,0.55,53.820214611980894,705.4467083228888,61.0,51.0,10.0,0.8360655737704918,183.11116083725028,342.2045924757292,22.0,13.0,9.0,0.5909090909090909,1285.7277527661956,15911.756844670366,21.0,5.0,16.0,0.238095238095238,1061.2936659592897,20219.618737835368,85.0,42.0,43.0,0.4941176470588235,81.33542280222524,12586.157755003616,,,,,113308.0,113328.0,113358.0,113418.0,113430.0,113452.0,113459.0,113479.0,113669.0,113751.0,0.06547341671495033,-0.07388652651355783,0.052772786107610214,-0.07965928964285793,0.006740108695000641
105,105,114372.07554759127,770.1867511933474,6.414813719622588,114462.027373699,-2497.9428837500345,17.8357578060484,114496.89987800464,24319.5483827224,10.348285394904815,114517.60271279886,-12839.644073895452,12.132813039977814,114763.2675033386,12032.965504633015,33.55121898090668,0.9341040828798912,47.0,28.0,123.0,272.0,395.0,19.0,1055.0,1053.0,19.0,9.0,10.0,0.4736842105263157,51.75945441351276,648.1560873235587,63.0,53.0,10.0,0.8412698412698413,184.63258420022063,426.82194688646746,22.0,13.0,9.0,0.5909090909090909,1269.3639596992714,15386.293297464936,21.0,5.0,16.0,0.238095238095238,1023.8050331434008,19964.554912861386,84.0,41.0,43.0,0.4880952380952381,84.66685546918288,12579.042958213318,,,,,114363.0,114382.0,114410.0,114472.0,114484.0,114506.0,114513.0,114533.0,114723.0,114805.0,0.06720377146622597,-0.0739138534356883,0.05219521101802529,-0.07973780482162432,0.007036241850488466
106,106,115360.4659309838,642.6093745212693,5.735655379976715,115447.60271279886,-2443.1421294623556,20.383723206912453,115483.80133679736,24569.468175268223,10.25880393900015,115504.60271279886,-12386.913491295614,13.462437593188325,115749.1274064988,12217.69142657666,32.9105598082903,0.937898123281836,44.0,27.0,126.0,269.0,395.0,17.0,987.0,987.0,17.0,8.0,9.0,0.4705882352941176,48.08912950590238,588.2074694978667,64.0,53.0,11.0,0.828125,150.44312984065212,732.9987741491303,21.0,13.0,8.0,0.6190476190476191,1234.8603357564862,14776.20320649675,22.0,5.0,17.0,0.2272727272727272,975.8613570307382,19876.919547168214,85.0,42.0,43.0,0.4941176470588235,77.46134312660537,12656.643414168062,,,,,115352.0,115369.0,115396.0,115459.0,115471.0,115492.0,115500.0,115522.0,115709.0,115791.0,0.07483415495101949,-0.06157772322225029,0.0502599538153416,-0.07878163981014996,0.006340096538868773
107,107,,,,,,,,,,,,,,,,,,,,,,,,,,,,,,,,,,,,,,,,,,,,,,,,,,,,,,,,,,,,116053.0,116321.0,116388.0,116400.0,116422.0,116429.0,116450.0,116637.0,116718.0,,,,,
108,108,117276.69499349211,869.7408705883913,7.351793385494322,117363.6027127989,-2153.153252431131,20.383723206911835,117400.0140231244,24564.450747574578,10.438657541981296,117420.60271279886,-13239.246723487877,11.170868597142253,117664.59294553036,12022.157817458909,33.780077899285615,0.9411045160816136,52.0,30.0,118.0,271.0,389.0,22.0,1916.0,1917.0,22.0,11.0,11.0,0.5,51.10169655887651,780.9808490876969,58.0,47.0,11.0,0.8103448275862069,156.43870443788967,559.8897260128798,22.0,13.0,9.0,0.5909090909090909,1299.8802669046788,16238.8976198361,20.0,5.0,15.0,0.25,1068.411936961219,20254.36581495303,84.0,42.0,42.0,0.5,75.8437470730408,12566.027503115103,,,,,117266.0,117288.0,117318.0,117375.0,117387.0,117409.0,117416.0,117436.0,117624.0,117707.0,0.05875508244691954,-0.072655629255026,0.052917131356296464,-0.08070035699733119,0.006308663405075121
109,109,118295.24545409196,929.267870903023,7.6133603908594845,118384.027373699,-2256.7646510845743,17.83575780604839,118419.19194105425,24505.10562322461,10.406080600665378,118439.60271279886,-13147.521739740474,11.961197379171496,118684.05982586792,12097.603857167634,33.32391555347725,0.942237576241626,52.0,31.0,118.0,271.0,389.0,21.0,1020.0,1019.0,21.0,10.0,11.0,0.4761904761904761,51.120579630929505,860.4266150952585,59.0,49.0,10.0,0.8305084745762712,172.60006297398388,322.99730471402563,22.0,13.0,9.0,0.5909090909090909,1274.3429406502532,15910.044088425058,21.0,5.0,16.0,0.238095238095238,1050.9884306637125,20271.09985433267,85.0,42.0,43.0,0.4941176470588235,79.67842060726846,12529.64336900696,,,,,118285.0,118306.0,118337.0,118394.0,118406.0,118428.0,118435.0,118455.0,118643.0,118726.0,0.055011672340778014,-0.07648119749262926,0.052003160494133935,-0.07993813978545727,0.0065862977121754806
110,110,119280.64802782288,340.5010802149063,3.6305156178803566,119367.17805189872,-2767.511408284884,22.93168860777651,119404.26075065402,25414.200991030368,10.323869640172877,119424.60271279886,-12746.338620727644,14.284108565051875,119668.93248417888,12185.30984811733,32.66487629604845,0.9291876982718004,39.0,27.0,128.0,268.0,396.0,12.0,983.0,985.0,13.0,7.0,6.0,0.5384615384615384,52.03907720884693,245.84957073194724,69.0,56.0,13.0,0.8115942028985508,123.6264941007775,1366.125281065261,22.0,13.0,9.0,0.5909090909090909,1223.5312060972467,15184.247601644718,24.0,5.0,19.0,0.2083333333333333,994.0997002014028,20370.411961864324,84.0,42.0,42.0,0.5,84.20852428809121,12659.113161597506,,,,,119275.0,119287.0,119314.0,119380.0,119391.0,119413.0,119420.0,119442.0,119628.0,119710.0,0.15283087259518416,-0.0446706357670962,0.04814360311894429,-0.07799100037910754,0.006910659255915574
111,111,,,,,,,,,,,,,,,,,,,,,,,,,,,,,,,,,,,,,,,,,,,,,,,,,,,,,,,,,,,,120003.0,120276.0,120342.0,120354.0,120375.0,120382.0,120404.0,120592.0,120672.0,,,,,
112,112,121244.56555933616,937.1445463466232,7.921755516658904,121333.027373699,-2188.1630568504643,17.8357578060484,121368.29382522548,24185.021581347104,10.419316102390775,121389.60271279886,-12954.65622859399,10.783727278493409,121632.85576243588,12226.622011163396,33.418585558550305,0.9392292248035832,54.0,31.0,117.0,270.0,387.0,23.0,1965.0,1964.0,23.0,12.0,11.0,0.5217391304347826,47.81488854660572,811.6138853931093,58.0,48.0,10.0,0.8275862068965517,169.36327107255153,244.34267177657975,22.0,13.0,9.0,0.5909090909090909,1295.3219363787846,17472.48305728881,20.0,6.0,14.0,0.3,1057.3036330087425,19984.887002110165,83.0,41.0,42.0,0.4939759036144578,82.63159944379726,12821.49803530754,,,,,121233.0,121256.0,121287.0,121343.0,121355.0,121377.0,121385.0,121404.0,121593.0,121674.0,0.05102189276244302,-0.07739974886347126,0.05355884972117669,-0.08161572289930961,0.006758334343562048
113,113,122300.37346037466,629.5132856353397,5.781139934122203,122389.60271279886,-2513.010759403736,20.383723206912453,122425.6526421439,24351.18627065079,10.359751608149336,122446.60271279886,-13091.979090962168,11.604272303266672,122691.31597246233,11871.6518824783,32.98706233405143,0.9406490138070502,46.0,28.0,124.0,270.0,394.0,18.0,1056.0,1057.0,18.0,8.0,10.0,0.4444444444444444,52.18402686052048,542.5716011850764,64.0,53.0,11.0,0.828125,158.0101841357674,657.4129133425786,21.0,13.0,8.0,0.6190476190476191,1293.7566217393935,15263.335354174977,21.0,6.0,15.0,0.2857142857142857,1048.754850124738,20197.531672606077,83.0,41.0,42.0,0.4939759036144578,84.53844401516798,12412.818100788416,,,,,122292.0,122310.0,122338.0,122401.0,122413.0,122434.0,122442.0,122462.0,122651.0,122732.0,0.08289583087647383,-0.06287684346137005,0.05312910046188143,-0.08010667010984829,0.0071210346169213925
114,114,123337.05779210156,816.5524771903961,6.340703846233856,123425.027373699,-2157.0212628947015,17.8357578060484,123460.24071800904,23962.980932050606,10.343375739140274,123481.17805189872,-12486.566881308485,12.248374300358265,123725.50892427449,12212.57127715456,34.16249794598546,0.9408286440089078,43.0,24.0,126.0,271.0,397.0,19.0,1037.0,1035.0,19.0,9.0,10.0,0.4736842105263157,57.11377182035653,767.7014506972168,66.0,56.0,10.0,0.8484848484848485,171.59097698391807,253.1404547547378,22.0,13.0,9.0,0.5909090909090909,1240.4466359195046,15950.33765184351,22.0,5.0,17.0,0.2272727272727272,1014.1121829533424,19886.0266416413,86.0,43.0,43.0,0.5,75.96080976259769,12697.144335853594,,,,,123328.0,123347.0,123371.0,123435.0,123447.0,123469.0,123476.0,123497.0,123684.0,123768.0,0.06994501078102697,-0.07954997010722308,0.051765122187298535,-0.08121625364225592,0.006219886708435736
115,115,,,,,,,,,,,,,,,,,,,,,,,,,,,,,,,,,,,,,,,,,,,,,,,,,,,,,,,,,,,,124066.0,124335.0,124406.0,124417.0,124439.0,124446.0,124467.0,124655.0,124735.0,,,,,
116,116,125320.40380542474,775.4451056198583,6.748068677885153,125408.45203459916,-2333.70271389012,15.28779240518434,125442.45171981827,24053.574876267547,10.525533090601424,125462.60271279886,-13138.949641689927,11.391424550925928,125706.6625052097,12032.633617837671,34.09963288107944,0.9390478637807238,45.0,24.0,123.0,271.0,394.0,21.0,1981.0,1982.0,21.0,10.0,11.0,0.4761904761904761,48.250409019950375,712.995096804736,62.0,53.0,9.0,0.8548387096774194,193.27403124740212,73.51883944043482,22.0,13.0,9.0,0.5909090909090909,1264.8734176406952,16333.393878399673,21.0,5.0,16.0,0.238095238095238,1048.5491005007264,19932.164843794795,85.0,42.0,43.0,0.4941176470588235,75.35088170340399,12571.341658665562,,,,,125310.0,125331.0,125355.0,125417.0,125429.0,125451.0,125458.0,125478.0,125666.0,125749.0,0.06222285584146027,-0.08281861699737572,0.05258567278033512,-0.07980463652693187,0.006262210260578427
117,117,126226.62241070352,598.2682973641566,5.776010470015479,126313.027373699,-2758.0330110423993,17.8357578060484,126348.37485003538,24831.418223729157,10.382702629782262,126368.60271279886,-13277.61867201126,12.457686599873751,126612.24911000182,11988.11729663698,32.79018630224781,0.9368162546250132,46.0,27.0,122.0,268.0,390.0,19.0,907.0,906.0,19.0,10.0,9.0,0.5263157894736842,47.59600443450319,484.1398631556884,62.0,51.0,11.0,0.8225806451612904,165.0658834761788,598.103428204816,22.0,13.0,9.0,0.5909090909090909,1275.854980075127,16003.258745172128,22.0,5.0,17.0,0.2272727272727272,1041.4549470180837,20554.625303455137,83.0,41.0,42.0,0.4939759036144578,78.6411861305883,12456.373530469227,,,,,126217.0,126236.0,126263.0,126323.0,126335.0,126357.0,126364.0,126385.0,126572.0,126653.0,0.07955628711098534,-0.05984913263013923,0.051380673007871414,-0.07843687733052863,0.006559927984075487
118,118,127234.31225393013,723.7772510006006,6.27429050092513,127323.027373699,-2567.611959009028,17.8357578060484,127358.37058211968,24212.4422744784,10.418292499853024,127378.60271279886,-13240.403903605546,11.87827996892436,127623.35253431911,11821.498117829002,33.469400032130544,0.9338432955735811,42.0,24.0,127.0,271.0,398.0,18.0,1010.0,1010.0,18.0,9.0,9.0,0.5,50.48492460982142,640.7090208780422,69.0,58.0,11.0,0.8405797101449275,171.19450536932104,559.3098869393683,22.0,13.0,9.0,0.5909090909090909,1265.154881646783,15844.227765595642,21.0,5.0,16.0,0.238095238095238,1046.642687338691,20176.551269694843,84.0,41.0,43.0,0.4880952380952381,84.57833538374312,12406.61916732983,,,,,127225.0,127243.0,127267.0,127333.0,127345.0,127367.0,127374.0,127394.0,127583.0,127665.0,0.06975201906391436,-0.0666746019657089,0.05225226217597819,-0.07904915098954615,0.007154620720717569
119,119,128304.53442971122,623.2810509760894,5.889830890541444,128395.027373699,-2510.999749794431,17.8357578060484,128430.48400923357,24210.51339038156,10.446199122827732,128450.60271279886,-12597.038546127653,12.99433972808768,128696.66736549264,11939.578207037785,33.08588074909315,0.929082382698842,42.0,24.0,130.0,270.0,400.0,18.0,1071.0,1072.0,19.0,10.0,9.0,0.5263157894736842,47.09632885827516,503.4274759146534,68.0,58.0,10.0,0.8529411764705882,162.57538862809676,417.2006520842325,22.0,13.0,9.0,0.5909090909090909,1209.9750330005245,15561.378565608677,23.0,5.0,18.0,0.217391304347826,985.7990872397534,19648.34105939741,84.0,42.0,42.0,0.5,84.24890588961438,12452.515449623708,,,,,128296.0,128314.0,128338.0,128405.0,128417.0,128439.0,128446.0,128468.0,128656.0,128738.0,0.07556194558541439,-0.06474528268726686,0.04997725630556962,-0.07825641587345855,0.007056271538968928
120,120,,,,,,,,,,,,,,,,,,,,,,,,,,,,,,,,,,,,,,,,,,,,,,,,,,,,,,,,,,,,129044.0,129309.0,129380.0,129392.0,129413.0,129420.0,129443.0,129629.0,129711.0,,,,,
121,121,130237.66231265292,553.581576264642,5.296293819484056,130324.027373699,-2245.8320020502465,17.8357578060484,130359.33428022957,25067.50397596535,10.303518403865866,130379.60271279886,-13101.041931679383,12.648471791967694,130622.61146730688,11932.332244842712,33.47711143363679,0.9448083550911432,46.0,29.0,121.0,268.0,389.0,17.0,1932.0,1929.0,17.0,9.0,8.0,0.5294117647058824,46.447107575862695,474.1975354525689,60.0,50.0,10.0,0.8333333333333334,172.88855950811174,335.92387535033254,22.0,13.0,9.0,0.5909090909090909,1279.5399437730264,16023.52242531814,22.0,5.0,17.0,0.2272727272727272,1044.9476800986038,20504.966585519203,84.0,42.0,42.0,0.5,79.14763603965275,12422.081843333002,,,,,130229.0,130246.0,130275.0,130334.0,130346.0,130368.0,130375.0,130396.0,130582.0,130664.0,0.08390291434420581,-0.07698196452373986,0.051043771450075194,-0.07976065457601776,0.006633039913371609
122,122,131275.40135529442,985.1943900569792,8.61231688037359,131365.0273736991,-2105.4471466376563,17.835757806048065,131400.43045664614,24735.71030977155,10.570713322171729,131420.60271279886,-13594.637065334686,10.734647608501463,131664.32228686634,12017.118636863954,34.73697517584938,0.9428078138016336,54.0,31.0,117.0,272.0,389.0,23.0,1039.0,1041.0,24.0,11.0,13.0,0.4583333333333333,48.31504459892714,938.1832610926036,58.0,48.0,10.0,0.8275862068965517,177.89398932710463,145.0694918930816,22.0,13.0,9.0,0.5909090909090909,1312.907050997333,17190.52661516845,20.0,5.0,15.0,0.25,1106.90981155154,20368.95782825614,87.0,43.0,44.0,0.4942528735632184,83.10257983389037,12646.804183962386,,,,,131264.0,131287.0,131318.0,131375.0,131387.0,131409.0,131416.0,131435.0,131623.0,131707.0,0.04904112841744137,-0.08449226075857409,0.05307739436448221,-0.08142253494755501,0.006915349872552913
123,123,132380.3897371466,844.5023171833615,6.664289993526932,132469.02737369903,-2394.7264397204203,17.8357578060484,132504.67675763907,24386.830498000934,10.38004918445738,132525.60271279886,-13038.446856710094,11.327006969682014,132770.5665952797,11792.089958382148,33.26032223134959,0.9450406365595428,45.0,26.0,124.0,272.0,396.0,19.0,1103.0,1104.0,19.0,9.0,10.0,0.4736842105263157,55.27171844488957,819.055368412306,65.0,54.0,11.0,0.8307692307692308,158.9700504494119,528.0857898744256,22.0,13.0,9.0,0.5909090909090909,1306.9270913638093,15769.846332424837,20.0,5.0,15.0,0.25,1053.6768001144894,20158.31433820705,84.0,42.0,42.0,0.5,72.96400151251989,12227.1015551639,,,,,132371.0,132390.0,132416.0,132479.0,132492.0,132513.0,132521.0,132540.0,132730.0,132812.0,0.0654488653497546,-0.066383386349537,0.053591510855457096,-0.08081306091854232,0.006187537728259529
124,124,133467.17270178537,483.07677022533096,4.675177746154498,133557.02737369903,-2934.6472169150456,17.8357578060484,133591.80875800614,24405.43602141686,10.335926094253615,133612.17805189872,-13174.16398818864,12.375819606605411,133857.8626142021,11901.358646514282,33.60864739156767,0.9345640093577738,42.0,28.0,126.0,272.0,398.0,14.0,1086.0,1087.0,16.0,8.0,8.0,0.5,56.87563872097424,422.04943923737,66.0,56.0,10.0,0.8484848484848485,183.08684259810255,703.9418973237682,21.0,13.0,8.0,0.6190476190476191,1277.478910714483,14780.944629641192,22.0,5.0,17.0,0.2272727272727272,1054.591155165234,20642.001608397884,85.0,43.0,42.0,0.5058823529411764,81.76719979137742,12421.599921004294,,,,,133460.0,133474.0,133502.0,133567.0,133579.0,133600.0,133607.0,133628.0,133817.0,133900.0,0.11773623205778373,-0.06238802454441756,0.05234403145239602,-0.08004994898429478,0.006870408851625166
125,125,135562.9019688484,948.0426790530626,7.52121636410673,135648.60271279886,-2196.6963271455857,20.38372320691245,135685.19745414276,24514.70369051774,10.52733998604061,135705.60271279886,-13269.787460953225,11.65711954069197,135950.24162690013,12194.818977104616,34.471080401210756,0.941755393591663,51.0,29.0,118.0,272.0,390.0,22.0,2096.0,2094.0,22.0,11.0,11.0,0.5,54.50158949211553,908.9043260359194,58.0,47.0,11.0,0.8103448275862069,146.64630351213387,438.7284054088168,22.0,13.0,9.0,0.5909090909090909,1270.216036826004,15991.493742740971,21.0,5.0,16.0,0.238095238095238,1049.123620585303,20221.734400230493,87.0,43.0,44.0,0.4942528735632184,75.90074258837042,12663.086416815004,,,,,135552.0,135574.0,135603.0,135660.0,135672.0,135694.0,135701.0,135721.0,135909.0,135993.0,0.057488540016524974,-0.06675765862580009,0.05181445604489693,-0.07906107190280047,0.0062240155209250456
126,126,136651.85457134538,972.920756980657,7.713541054449757,136740.02737369903,-2257.0607966884336,17.83575780604839,136775.01394048528,24099.322557996264,10.447822465170828,136795.60271279886,-12812.388781069069,11.53100847744423,137040.84213091194,12084.565886828796,34.15486856030046,0.941561144486874,50.0,27.0,121.0,272.0,393.0,23.0,1091.0,1090.0,24.0,12.0,12.0,0.5,54.08230626721338,848.5632895410122,60.0,50.0,10.0,0.8333333333333334,173.3652380112586,197.55959147816137,22.0,13.0,9.0,0.5909090909090909,1266.8688539541884,15831.27505785304,21.0,5.0,16.0,0.238095238095238,1030.5315078948015,19769.961062345013,85.0,42.0,43.0,0.4941176470588235,77.7298521466572,12612.062227436843,,,,,136640.0,136663.0,136690.0,136750.0,136762.0,136784.0,136791.0,136811.0,136999.0,137083.0,0.05558757573951998,-0.0768101764319422,0.0525686500483739,-0.08043242563927362,0.00643215924134904
127,127,137719.70024855834,1115.7238616801849,9.101120090849918,137808.02737369903,-1995.274905839953,17.835757806048235,137842.9684887378,23630.74237215745,10.419737751066682,137863.60271279886,-12471.251980346156,11.891634218746669,138109.7318604786,12151.998448711103,33.339050744083984,0.9403273760633734,54.0,29.0,118.0,272.0,390.0,25.0,1067.0,1067.0,25.0,13.0,12.0,0.52,51.03912635744953,1045.277075472413,59.0,49.0,10.0,0.8305084745762712,173.1356969614923,21.48566166968635,22.0,13.0,9.0,0.5909090909090909,1230.514236549192,15195.169797384508,21.0,5.0,16.0,0.238095238095238,994.897721542034,19291.357334833847,84.0,42.0,42.0,0.5,81.87111088182385,12639.82640723394,,,,,137707.0,137732.0,137761.0,137818.0,137830.0,137852.0,137859.0,137879.0,138070.0,138151.0,0.04574530321560835,-0.08677285343224782,0.0520726017477566,-0.07977528824771764,0.006737254882591553
128,128,138749.4463085491,832.026045749639,6.900513552396772,138836.02737369965,-2299.3503998255283,17.835757806042395,138871.5997633556,24548.345381497707,10.431802860127956,138891.60271279886,-13125.702716780184,12.321647702674454,139136.41192254965,12018.02904531028,34.47651236394064,0.9324407450594568,47.0,27.0,121.0,271.0,392.0,20.0,1031.0,1029.0,21.0,10.0,11.0,0.4761904761904761,49.98882883378558,772.0270205815211,61.0,50.0,11.0,0.819672131147541,164.71025295084848,380.5355398351278,22.0,14.0,8.0,0.6363636363636364,1265.3273690095282,14250.8749162025,22.0,5.0,17.0,0.2272727272727272,1035.389112073501,20136.736078497568,87.0,43.0,44.0,0.4942528735632184,82.655949657214,12642.610892751463,,,,,138740.0,138760.0,138787.0,138846.0,138858.0,138880.0,138887.0,138908.0,139096.0,139179.0,0.06008084613354458,-0.07163338522190724,0.051544303672833934,-0.07888256609300141,0.006877662663784982
129,129,139815.16362393933,1177.9336134631412,9.312474167214887,139903.45203459918,-1901.7025919702685,15.28779240518434,139937.92750770345,23767.47055155197,10.419417466113035,139958.60271279886,-12631.273266607644,11.424211474972797,140204.02992918456,11991.577519590684,34.592679551075825,0.943295355120366,59.0,33.0,113.0,273.0,386.0,26.0,1064.0,1066.0,26.0,13.0,13.0,0.5,52.397420977035424,1116.074940395292,53.0,44.0,9.0,0.8301886792452831,179.16204986044596,135.27011626808903,22.0,13.0,9.0,0.5909090909090909,1259.0217210235214,15651.361279826924,21.0,5.0,16.0,0.238095238095238,1025.8133824460524,19488.445026350317,86.0,43.0,43.0,0.5,73.45613506987338,12459.93866055216,,,,,139802.0,139828.0,139861.0,139912.0,139925.0,139947.0,139954.0,139974.0,140162.0,140247.0,0.04448249067533295,-0.09421139278925009,0.05297247421818346,-0.08121219142316545,0.006125644015549066
130,130,140898.74124641137,1043.0451688236203,7.645414986426597,140986.02737369903,-2222.0906250911253,17.8357578060484,141021.39668614982,23917.80383731585,10.375741028144592,141042.17805189872,-12788.284055721571,12.12817724669365,141288.23975191245,12029.545751657986,33.929851149593276,0.937114267307369,49.0,28.0,120.0,272.0,392.0,21.0,1084.0,1084.0,21.0,10.0,11.0,0.4761904761904761,56.97462268605534,940.6456591964431,60.0,50.0,10.0,0.8333333333333334,165.36866319733525,425.80551145121535,22.0,13.0,9.0,0.5909090909090909,1238.5018852109338,15956.784389676975,22.0,5.0,17.0,0.2272727272727272,1033.6684355488346,20118.826601187087,86.0,43.0,43.0,0.5,82.36314846339083,12565.84317758213,,,,,140889.0,140910.0,140938.0,140996.0,141008.0,141030.0,141037.0,141058.0,141247.0,141330.0,0.05462335130731984,-0.07442030551321627,0.051781588879772474,-0.08082933027174696,0.006846738036807336
131,131,141965.33310743907,937.8899339780946,6.812023210028076,142052.45203459918,-2286.89376450846,15.28779240518434,142086.27266425718,24092.22877136247,10.398565878939594,142106.60271279886,-12429.534839669785,13.012338002302885,142352.67080732973,12368.277240662224,34.37117389262135,0.9401389045498056,46.0,26.0,123.0,271.0,394.0,20.0,1066.0,1065.0,20.0,10.0,10.0,0.5,58.74011650639485,920.8318303759128,60.0,51.0,9.0,0.85,194.47030222986092,74.79645722301348,22.0,13.0,9.0,0.5909090909090909,1213.9122292581785,15353.01149776339,23.0,5.0,18.0,0.217391304347826,976.5755319163036,19608.28374914922,87.0,44.0,43.0,0.5057471264367817,79.4232139184247,12846.913585218324,,,,,141955.0,141975.0,142001.0,142061.0,142073.0,142095.0,142102.0,142124.0,142310.0,142395.0,0.06263007457308609,-0.08503687632890981,0.050386049409472264,-0.07856895245986922,0.00642152600342036
132,132,143007.7123638071,692.5668338382231,6.713809178960227,143095.45203459918,-2475.4291765959288,15.28779240518434,143129.25600198552,23927.94693433651,10.435002545488285,143149.60271279886,-12885.753688149389,12.796718220371748,143394.9430800958,11938.54969507744,33.55557932012052,0.936555077948338,44.0,24.0,124.0,271.0,395.0,20.0,1044.0,1043.0,21.0,11.0,10.0,0.5238095238095238,46.84248640111957,528.1502931309534,63.0,54.0,9.0,0.8571428571428571,190.36520834312725,73.42562067488495,22.0,13.0,9.0,0.5909090909090909,1219.7990964342478,15043.747608121106,22.0,5.0,17.0,0.2272727272727272,997.095165517612,19852.835746105346,85.0,42.0,43.0,0.4941176470588235,76.40052205110175,12371.94640538468,,,,,142998.0,143018.0,143042.0,143104.0,143116.0,143138.0,143145.0,143166.0,143354.0,143437.0,0.06763605202044878,-0.07690190054433584,0.050978009094622356,-0.07737965427933084,0.006399481009205296
133,133,144119.55207183835,851.2190170303253,6.845737487817421,144209.45203459918,-2443.19493144107,15.28779240518434,144243.1353037195,24158.051006885173,10.395095929470196,144263.60271279886,-13014.84884682282,11.938789625700498,144509.81457986112,12104.699301799978,33.66211118632448,0.9399656837024764,53.0,33.0,116.0,273.0,389.0,20.0,1110.0,1114.0,20.0,10.0,10.0,0.5,57.268093841467376,745.1643040762788,57.0,48.0,9.0,0.8421052631578947,208.3547036346145,39.06764400482734,22.0,13.0,9.0,0.5909090909090909,1266.10567697099,15711.25923411364,21.0,5.0,16.0,0.238095238095238,1037.0469752693853,20022.59615381454,85.0,42.0,43.0,0.4941176470588235,78.85901197585669,12579.097092732514,,,,,144110.0,144130.0,144163.0,144218.0,144230.0,144252.0,144259.0,144279.0,144469.0,144552.0,0.06727774250305214,-0.08527960702330069,0.05240926416663924,-0.07968183015222254,0.0065147435726991
134,134,145224.31998291318,1220.5905763244623,9.425186629828682,145313.45203459918,-1880.663111429402,15.28779240518434,145348.13206273905,23966.04551234813,10.544383835102204,145368.60271279886,-12680.954959300409,11.16872046128981,145614.26274432114,12135.787661277904,34.355444442434,0.9404232910740647,53.0,28.0,119.0,273.0,392.0,25.0,1107.0,1105.0,27.0,13.0,14.0,0.4814814814814814,53.81276927795326,1150.9844410996498,59.0,50.0,9.0,0.847457627118644,176.10773690391864,157.0633432182965,22.0,13.0,9.0,0.5909090909090909,1258.0392585897775,16274.16741145344,21.0,5.0,16.0,0.238095238095238,1034.4492779832035,19462.76875752152,87.0,43.0,44.0,0.4942528735632184,75.8877569530167,12598.874921802006,,,,,145212.0,145237.0,145265.0,145322.0,145335.0,145357.0,145364.0,145384.0,145573.0,145657.0,0.044087485453147175,-0.09364129908948315,0.05249256736751136,-0.0815750297436805,0.006253220563108113
135,135,146317.99696853448,604.5338743306075,5.067193194298798,146404.60271279886,-2585.9240615662993,20.383723206912453,146440.55762906437,23639.76140816146,10.432793170301084,146461.60271279886,-12567.430964923631,12.451967073666744,146707.79327222554,12031.574100276728,33.645861320885984,0.9285762153359932,40.0,25.0,127.0,272.0,399.0,15.0,1091.0,1092.0,16.0,8.0,8.0,0.5,62.371553551881384,483.36811189738023,65.0,54.0,11.0,0.8307692307692308,146.6895122731541,579.6842406120941,21.0,13.0,8.0,0.6190476190476191,1225.8084456127783,14188.589976731946,22.0,6.0,16.0,0.2727272727272727,975.2935790088678,19481.437146267028,85.0,42.0,43.0,0.4941176470588235,73.43128570097191,12533.056902309729,,,,,146311.0,146326.0,146351.0,146416.0,146428.0,146449.0,146457.0,146478.0,146667.0,146750.0,0.1031729671409143,-0.056726148479512566,0.05185367248205715,-0.07760484873407812,0.006103215181069531
136,136,147356.92158704376,898.5228685558344,6.73196846949869,147443.4520345992,-2178.167491807462,15.287792405184176,147477.3895981268,24226.827667744627,10.46277107056004,147497.60271279886,-12599.108043893906,12.96066567331524,147743.46080414142,12092.247150087738,34.21505571717286,0.938219610410232,45.0,25.0,123.0,271.0,394.0,20.0,1040.0,1037.0,20.0,10.0,10.0,0.5,56.758199883573866,812.7983034025999,60.0,51.0,9.0,0.85,194.3200196193229,209.61447457826216,22.0,13.0,9.0,0.5909090909090909,1215.0123574030165,15548.335882545123,23.0,5.0,18.0,0.217391304347826,985.264851257122,19669.27484887171,86.0,42.0,44.0,0.4883720930232558,74.73071147195733,12584.137731827275,,,,,147347.0,147367.0,147392.0,147452.0,147464.0,147486.0,147493.0,147515.0,147703.0,147786.0,0.06316834203095956,-0.08921261581131876,0.05015152516318398,-0.07820115898876076,0.006180051610292724
137,137,148395.93581019327,927.9597277887058,7.576633996738988,148481.02737369903,-2246.727256347515,17.8357578060484,148517.25895393954,24113.290209829884,10.54056268433188,148537.60271279886,-12814.10449785032,12.27987632676959,148783.2585585312,11912.643744175071,33.97348920583565,0.937160097823136,47.0,25.0,122.0,272.0,394.0,22.0,1039.0,1040.0,22.0,11.0,11.0,0.5,49.347718272872925,826.2710410576958,59.0,49.0,10.0,0.8305084745762712,145.91879805859872,448.0975020840265,22.0,13.0,9.0,0.5909090909090909,1226.3412241059607,15549.737707113729,22.0,5.0,17.0,0.2272727272727272,1007.7159084697578,19715.948783122236,87.0,43.0,44.0,0.4942528735632184,80.40570333904385,12375.74912868382,,,,,148385.0,148407.0,148432.0,148491.0,148504.0,148526.0,148533.0,148554.0,148742.0,148826.0,0.05317872833820789,-0.06494726836394804,0.0508574820538608,-0.07864114957380058,0.0067496103355193385
138,138,149485.25535470442,843.7218872605928,7.087448798871091,149574.45203459918,-2541.726593514234,15.28779240518434,149608.28021648846,24153.152430373164,10.56879499169474,149628.60271279886,-13379.968868169391,11.599222949998374,149874.6805610002,11837.067338213184,33.60163511482449,0.9372029953204728,51.0,31.0,118.0,272.0,390.0,20.0,1088.0,1091.0,20.0,10.0,10.0,0.5,50.40519740625676,806.0443757066721,57.0,48.0,9.0,0.8421052631578947,206.495784434674,0.7916367859254478,22.0,13.0,9.0,0.5909090909090909,1267.071014511436,15918.828345227565,21.0,5.0,16.0,0.238095238095238,1055.268035151306,20131.673372812264,84.0,42.0,42.0,0.5,79.20052202165898,12359.71541459251,,,,,149475.0,149495.0,149526.0,149583.0,149595.0,149617.0,149624.0,149644.0,149834.0,149916.0,0.05974148373691361,-0.08124232754285717,0.05245986080550148,-0.07886924443163408,0.006690890552424142
139,139,150573.0632174173,1171.6660688051616,8.783338541979004,150661.02737369903,-1955.1770463461532,17.8357578060484,150696.1862397723,24116.029327040997,10.493855981613192,150716.60271279886,-12975.515545153608,11.53300680635351,150962.46766674903,12215.227199607198,34.448335817675854,0.9444007678933026,51.0,27.0,120.0,273.0,393.0,24.0,1090.0,1087.0,25.0,12.0,13.0,0.48,59.531744691405365,1036.864948157733,60.0,50.0,10.0,0.8333333333333334,175.11384244844572,16.715005935358704,22.0,13.0,9.0,0.5909090909090909,1258.5086561412552,15894.751374162875,21.0,5.0,16.0,0.238095238095238,1039.509734950061,19837.92829371606,87.0,43.0,44.0,0.4942528735632184,74.25008296567945,12689.891616525252,,,,,150561.0,150585.0,150612.0,150671.0,150683.0,150705.0,150712.0,150732.0,150921.0,151005.0,0.050809480854996925,-0.08956418692399215,0.052185566664994285,-0.08011317402631613,0.006078485627190553
140,140,151649.51153598225,992.6920358251448,7.979487164223142,151739.45203459918,-2338.556969597036,15.28779240518434,151773.35460518472,24008.635502074223,10.374899798934504,151793.60271279886,-12573.430364181766,12.820915640971636,152040.33593830056,12279.314179686413,34.723328307841605,0.9376615948510348,52.0,29.0,120.0,273.0,393.0,23.0,1075.0,1078.0,24.0,12.0,12.0,0.5,55.402527363770425,893.8078225184997,59.0,50.0,9.0,0.847457627118644,196.0014990259993,39.41169326757017,22.0,13.0,9.0,0.5909090909090909,1219.0248046265997,15406.408599134542,22.0,5.0,17.0,0.2272727272727272,992.7886087401972,19647.807483308847,87.0,43.0,44.0,0.4942528735632184,84.69112633716638,12902.60561760976,,,,,151638.0,151661.0,151690.0,151748.0,151760.0,151782.0,151789.0,151810.0,151999.0,152083.0,0.05581038767750239,-0.08381301014863576,0.05077443091346371,-0.07895924819119991,0.006897056716511932
