Unnamed: 0,cycle,p_center,p_height,p_width,q_center,q_height,q_width,r_center,r_height,r_width,s_center,s_height,s_width,t_center,t_height,t_width,r_squared,pr_interval,pr_segment,qrs_duration,st_segment,qt_interval,p_duration,pp_interval,rr_interval,fwhm_p,rise_time_p,decay_time_p,rise_decay_symmetry_p,sharpness_deriv_p,sharpness_diff_p,fwhm_q,rise_time_q,decay_time_q,rise_decay_symmetry_q,sharpness_deriv_q,sharpness_diff_q,fwhm_r,rise_time_r,decay_time_r,rise_decay_symmetry_r,sharpness_deriv_r,sharpness_diff_r,fwhm_s,rise_time_s,decay_time_s,rise_decay_symmetry_s,sharpness_deriv_s,sharpness_diff_s,fwhm_t,rise_time_t,decay_time_t,rise_decay_symmetry_t,sharpness_deriv_t,sharpness_diff_t,Average_Heart_Rate,SDNN,RMSSD,NN50,p_on,p_off,q_on,q_off,r_on,r_off,s_on,s_off,t_on,t_off,sharpness_deriv_p_norm,sharpness_deriv_q_norm,sharpness_deriv_r_norm,sharpness_deriv_s_norm,sharpness_deriv_t_norm
0,0,,,,,,,,,,,,,,,,,,,,,,,,,,,,,,,,,,,,,,,,,,,,,,,,,,,,,,,73.20866077138548,267.12969882365473,369.27097024615585,99.0,,,,,,,,,,,,,,,
1,1,1488.027373698992,3070.628896613222,14.77859941486508,1630.301356399424,-3577.0177877836613,6.196559595207786,1661.1868958170776,35351.49613938973,8.896958790247096,1680.452034599136,-10990.392176606572,7.558100462769961,1927.232799296688,9847.537559569868,34.976793744928855,0.948029574156844,142.0,125.0,64.0,270.0,334.0,17.0,,,20.0,5.0,15.0,0.25,405.54580644073224,3439.9318402753506,19.0,12.0,7.0,0.631578947368421,553.7938957127519,605.3549153721292,20.0,11.0,9.0,0.55,2006.082065383585,29392.99188102553,13.0,3.0,10.0,0.2307692307692307,1589.841723612639,25518.274423783616,82.0,44.0,38.0,0.5365853658536586,394.5681457089683,9762.179056506631,,,,,1484.0,1501.0,1626.0,1636.0,1650.0,1670.0,1677.0,1690.0,1889.0,1960.0,0.1320725558494003,-0.15482000050547287,0.05674673732262059,-0.14465741513725705,0.04006769644920275
2,2,2318.602712798848,3801.017227080531,20.38372320691242,2458.254625777176,-2978.441916086613,4.860953948542858,2486.252845322708,37815.594239578626,8.230762404412149,2507.87669549928,-9766.997266100514,5.755997287437255,2752.9588165962564,9827.285713894422,35.81108201758233,0.9414338669021944,146.0,121.0,64.0,275.0,339.0,25.0,831.0,826.0,31.0,19.0,12.0,0.6129032258064516,279.91860210830527,4015.625695676876,12.0,7.0,5.0,0.5833333333333334,644.8745948946786,2759.482259053816,20.0,10.0,10.0,0.5,2201.583454401725,34251.43419624661,12.0,5.0,7.0,0.4166666666666667,1478.358316230133,22158.11947360941,86.0,43.0,43.0,0.5,272.1521779150344,8774.07993975647,,,,,2305.0,2330.0,2451.0,2463.0,2476.0,2496.0,2503.0,2515.0,2722.0,2790.0,0.07364307641491642,-0.21651407449368087,0.058218930541027954,-0.15136262209893803,0.027693524523282036
3,3,3133.518950632174,4274.938202590657,21.896882653868207,3293.426657418223,-3529.8085251825055,6.2516089458251525,3320.7583748737115,38946.864470793495,9.034074439072576,3340.4520345991364,-11240.727814329475,9.109808466188538,3596.63008649784,10132.855745081832,38.21948101296085,0.927935922735878,166.0,140.0,66.0,264.0,330.0,26.0,814.0,833.0,26.0,12.0,14.0,0.4615384615384615,334.8003127780672,5850.9857496748045,10.0,5.0,5.0,0.5,730.6410162660853,4296.245763438203,21.0,12.0,9.0,0.5714285714285714,2216.115255617631,31288.012057698605,20.0,4.0,16.0,0.2,1538.9993455437077,25967.868005482225,75.0,53.0,22.0,0.7066666666666667,297.0424722287576,10299.220937308435,,,,,3122.0,3148.0,3288.0,3298.0,3309.0,3330.0,3337.0,3354.0,3545.0,3618.0,0.07831699475215215,-0.20699168554144398,0.0569009928200898,-0.13691278456025058,0.029314783482724763
4,4,3963.821948101296,3182.3047992933225,19.38986552565315,4120.061065505639,-3666.881837209268,5.466082349570096,4146.372481849141,37075.71736692349,8.984876117830407,4164.876695499281,-10497.680790680592,9.749247856318252,4408.344391968566,9356.59711130581,38.00306934396934,0.948149971140061,163.0,135.0,65.0,265.0,330.0,28.0,824.0,826.0,39.0,14.0,25.0,0.358974358974359,291.34696156286617,3259.310559696839,9.0,6.0,3.0,0.6666666666666666,809.990743533057,5260.505805063559,20.0,11.0,9.0,0.55,2105.352228577314,31262.755921793905,17.0,3.0,14.0,0.1764705882352941,1501.1148444292078,24757.807170300748,84.0,36.0,48.0,0.4285714285714285,328.79006061090814,11072.750880678774,,,,,3951.0,3979.0,4114.0,4122.0,4135.0,4155.0,4162.0,4179.0,4375.0,4444.0,0.09155218621031022,-0.2208936037463132,0.05678520546862217,-0.1429949028133753,0.03513991857292038
5,5,4796.123304500719,3507.2854310795083,12.739827004320285,4892.273982700431,-3251.7376657862137,7.64389620259217,4980.056771376096,36483.47327645281,8.556068913729009,4998.301356399425,-8928.648415255853,9.684061376995434,5242.555965663805,9466.676620085344,34.22513030689477,0.9387475386453024,95.0,67.0,127.0,276.0,403.0,28.0,834.0,832.0,53.0,29.0,24.0,0.5471698113207547,285.2218914269888,2670.8475858128368,15.0,10.0,5.0,0.6666666666666666,452.5068166049623,2880.2036111719126,20.0,11.0,9.0,0.55,2098.1015816446175,30572.351114638797,17.0,3.0,14.0,0.1764705882352941,1454.7107267521444,22182.76001392792,75.0,30.0,45.0,0.4,269.4158393908294,8563.693475796768,,,,,4789.0,4817.0,4884.0,4894.0,4969.0,4989.0,4996.0,5011.0,5214.0,5287.0,0.08132269158920444,-0.13915846329367224,0.05750827410938354,-0.16292619656370008,0.028459389731261418
6,6,5621.821948101295,3658.8163749413097,21.13239456990912,5775.2466090014395,-2476.9145923513283,25.479654004556856,5808.9365793735915,37712.65312847443,9.945143608480148,5826.876695499281,-16728.12854167877,8.765778366240024,6070.694745016396,9880.618337170996,37.27654129764083,0.956311110721536,152.0,130.0,79.0,270.0,349.0,22.0,824.0,829.0,23.0,14.0,9.0,0.6086956521739131,358.0629377462353,4734.125608359625,24.0,14.0,10.0,0.5833333333333334,395.6548162226446,200.24547815812264,20.0,12.0,8.0,0.6,2145.579615591834,27114.621702489472,16.0,3.0,13.0,0.1875,1749.7453078715985,28567.826995177,75.0,36.0,39.0,0.48,354.8463539163555,12037.029591616418,,,,,5609.0,5631.0,5761.0,5785.0,5797.0,5817.0,5824.0,5840.0,6035.0,6110.0,0.09786305216040773,-0.15973696365810117,0.05689283138692365,-0.10459898747860776,0.035913375236995
7,7,6437.151509049835,3450.0916704854194,15.28779240518434,6595.912779261227,-3013.0808582380528,5.260666538175988,6625.504148789025,37322.552629400045,8.455130292118461,6646.027373698993,-8239.140222629861,8.275892871155174,6899.931442897265,9060.209881960724,35.4933795377328,0.9194259511413349,166.0,146.0,67.0,271.0,338.0,20.0,819.0,817.0,20.0,14.0,6.0,0.7,312.8093753434246,4700.208969611093,13.0,7.0,6.0,0.5384615384615384,565.109646857236,2407.9532823215436,20.0,11.0,9.0,0.55,2197.8154279016426,31457.01900648145,15.0,4.0,11.0,0.2666666666666666,1445.7763585810856,22001.89565156404,80.0,51.0,29.0,0.6375,250.74421111823796,9692.42218693579,,,,,6423.0,6443.0,6589.0,6602.0,6615.0,6635.0,6642.0,6656.0,6856.0,6927.0,0.09066697503124986,-0.18755210146855897,0.058887060853666275,-0.17547660550916153,0.027675320371714645
8,8,7267.75339099856,4305.843978203511,20.93970841848685,7413.651039488946,-2105.671224732936,4.512212256556756,7443.332082480636,38327.08424804606,8.696008869020035,7462.452034599137,-10366.200115933792,7.450810127305664,7703.986190295249,10187.399128651396,40.96737317215077,0.9446479076222536,158.0,124.0,65.0,280.0,345.0,34.0,835.0,819.0,50.0,25.0,25.0,0.5,250.866142363536,2768.883774799084,14.0,8.0,6.0,0.5714285714285714,572.9964613959123,3160.2686743931836,19.0,10.0,9.0,0.5263157894736842,2269.8273561442807,34784.063801107026,14.0,3.0,11.0,0.2142857142857142,1620.7058061313342,25148.617995431083,77.0,30.0,47.0,0.3896103896103896,299.81026836000063,12614.295297736317,,,,,7248.0,7282.0,7406.0,7415.0,7433.0,7452.0,7459.0,7471.0,7674.0,7751.0,0.05826178180942883,-0.27212057355657976,0.05922254198765453,-0.15634521695564818,0.02942952019194024
9,9,8887.301356399426,2761.54622378319,10.191861603456228,9032.72601729957,-4289.22325110137,7.64389620259217,9058.566128499757,36767.59361234044,8.532606631950971,9079.027373698991,-8696.915557058815,10.438666894267564,9326.657460196831,8484.974635749233,33.41803160447631,0.938156080258083,135.0,126.0,69.0,269.0,338.0,9.0,1617.0,1615.0,27.0,19.0,8.0,0.7037037037037037,307.8758378326627,2149.7648011810656,18.0,13.0,5.0,0.7222222222222222,873.8441872962867,4170.1032899708935,20.0,11.0,9.0,0.55,2158.2103856909735,30006.904398186693,15.0,5.0,10.0,0.3333333333333333,1362.581565284585,22678.54381534649,87.0,47.0,40.0,0.5402298850574713,312.67050788859945,7865.148032148551,,,,,8885.0,8894.0,9020.0,9037.0,9048.0,9068.0,9074.0,9089.0,9286.0,9358.0,0.11148675882415146,-0.20373017120801637,0.05869871192676057,-0.1566741169722697,0.036849904838989575
10,10,9714.328730098418,3628.126327390544,18.610091742798748,9848.452034766917,-2273.552014420874,15.287792405173548,9884.03787074668,39411.85759595688,8.735103983738124,9902.45203459914,-10936.906863577366,8.527569941195457,10146.260172995682,9967.85315009263,38.01203085089247,0.9466074203677506,137.0,115.0,69.0,275.0,344.0,22.0,830.0,824.0,46.0,29.0,17.0,0.6304347826086957,331.93194154440886,3028.4190475594587,32.0,18.0,14.0,0.5625,328.97415155730135,588.0079264075096,19.0,11.0,8.0,0.5789473684210527,2342.09797419797,33253.90187884027,16.0,3.0,13.0,0.1875,1655.092209951827,25771.897584705825,103.0,55.0,48.0,0.5339805825242718,268.63502786903456,10449.597716550676,,,,,9708.0,9730.0,9845.0,9861.0,9874.0,9892.0,9899.0,9914.0,10123.0,10189.0,0.09148852922746606,-0.14469611843962965,0.059426226447094374,-0.15133092295626088,0.026950138994226474
11,11,11327.178051898703,3982.8182653273025,20.707858186737376,11454.27398270043,-1823.06554454072,7.643896201927078,11498.40928958853,38071.91753114662,8.67114590865005,11516.876695499284,-9773.94724984718,7.008741224438505,11769.657460196831,9380.392841164348,39.030331726731134,0.9423705709237806,128.0,109.0,76.0,275.0,351.0,19.0,1612.0,1615.0,39.0,24.0,15.0,0.6153846153846154,333.70677876642304,2183.9215809904094,7.0,4.0,3.0,0.5714285714285714,326.5320740705933,3075.223284764398,19.0,10.0,9.0,0.5263157894736842,2289.407415690565,35238.936623068774,13.0,3.0,10.0,0.2307692307692307,1554.3370104084072,23909.549034876847,107.0,68.0,39.0,0.6355140186915887,312.84572142600996,8461.878304768416,,,,,11322.0,11341.0,11450.0,11457.0,11488.0,11507.0,11514.0,11526.0,11721.0,11801.0,0.08378659445034946,-0.1791115382814476,0.060133756431301415,-0.15902858596179859,0.03335102556186525
12,12,12153.027373698991,2842.188190323438,11.087178039935695,12293.72601729957,-3443.20237189361,7.64389620259217,12320.123960547013,38637.02732635872,8.978785752741883,12338.45203459914,-12339.029196898326,9.42594303038072,12583.235946233874,9887.074563725391,34.284285102352335,0.9317055393986868,147.0,105.0,85.0,274.0,359.0,42.0,825.0,822.0,42.0,32.0,10.0,0.7619047619047619,263.1081776213628,1886.1079783122311,31.0,27.0,4.0,0.8709677419354839,789.0403605200804,6773.232550896319,19.0,11.0,8.0,0.5789473684210527,2327.3935789317675,32194.429104756513,19.0,3.0,16.0,0.1578947368421052,1598.071807985139,26547.651462563037,97.0,50.0,47.0,0.5154639175257731,301.99318877664626,9794.885432746942,,,,,12121.0,12163.0,12268.0,12298.0,12309.0,12328.0,12335.0,12353.0,12548.0,12627.0,0.09257239844889419,-0.22915886877893352,0.0602373872936127,-0.1295135769989788,0.030544241052315582
13,13,13777.821948101297,3075.9042811124746,22.931688599543588,13934.698643600574,-2873.441623384395,10.191861603456228,13975.05723996044,36692.50135622153,8.219950929813884,13996.45203459914,-7624.04257087518,7.709918262033523,14241.684833895826,9796.876498754977,37.00769464310337,0.940363718224254,164.0,136.0,76.0,278.0,354.0,28.0,1618.0,1655.0,29.0,14.0,15.0,0.4827586206896552,224.64326950136208,3659.566058396485,24.0,6.0,18.0,0.25,277.02466989103874,3876.62568543874,20.0,10.0,10.0,0.5,2168.4500780962967,32664.92330728011,13.0,4.0,9.0,0.3076923076923077,1308.7952402904182,21138.80212485201,97.0,56.0,41.0,0.5773195876288659,242.1129443731723,8630.430301859255,,,,,13765.0,13793.0,13929.0,13953.0,13965.0,13985.0,13992.0,14005.0,14199.0,14283.0,0.073033244526099,-0.09640866466072617,0.05909790823591854,-0.17166683267092234,0.024713279217507836
14,14,14619.246608998896,2954.0193344531635,18.87386740628062,14751.72601729957,-2782.9961149322376,7.64389620259217,14804.893795376564,39770.9935992089,8.745665130065856,14822.876695499284,-13265.482652286251,9.56423533021188,15078.054747397986,9644.15664617042,33.18009527823219,0.9214185050603324,147.0,125.0,86.0,262.0,348.0,22.0,841.0,829.0,25.0,18.0,7.0,0.72,319.9752629449135,2867.145157059016,10.0,2.0,8.0,0.2,412.8017364549397,2991.645528108431,19.0,11.0,8.0,0.5789473684210527,2365.241331839557,30588.916783585155,16.0,3.0,13.0,0.1875,1808.9514067523828,28253.82307869451,87.0,51.0,36.0,0.5862068965517241,432.9657750198213,8277.42442448964,,,,,14603.0,14625.0,14750.0,14757.0,14794.0,14813.0,14820.0,14836.0,15033.0,15098.0,0.10831860821389852,-0.14832997223389618,0.05947151724885759,-0.1363652913481152,0.04489410436855014
15,15,15437.698643600192,2182.940916564689,10.191861603456228,15596.72601729957,-4941.989694551278,7.64389620259217,15624.257661961186,36342.12836395341,9.229402171216732,15643.027373698991,-12409.417351034695,10.669032664706036,15886.534155696114,9302.50529856469,33.20056949955018,0.923378908377396,158.0,145.0,73.0,267.0,340.0,13.0,821.0,820.0,13.0,11.0,2.0,0.8461538461538461,366.0723431058702,2715.093451162542,16.0,12.0,4.0,0.75,835.8132514800546,3593.4573261226296,20.0,11.0,9.0,0.55,2063.852227487127,28486.964509276993,20.0,4.0,16.0,0.2,1509.0864063561885,26198.324072230986,81.0,39.0,42.0,0.4814814814814814,387.3833430794476,9241.633008008292,,,,,15427.0,15440.0,15585.0,15601.0,15613.0,15633.0,15639.0,15658.0,15859.0,15925.0,0.1676968626718313,-0.1691248471039041,0.056789525556081515,-0.12160815964742785,0.041642904856954835
16,16,16249.54796540086,3892.808714931373,15.28779240518434,16409.30135639943,-2436.4585732663822,10.191861601614525,16440.946663278628,35686.686375484715,8.746084029976377,16461.027373698995,-9497.500185177249,9.04783828354783,16706.3834774964,10498.303207997236,34.59075873746175,0.9484063556232624,166.0,143.0,67.0,268.0,335.0,23.0,811.0,817.0,37.0,12.0,25.0,0.3243243243243243,323.75593570609385,4851.35133620351,11.0,5.0,6.0,0.4545454545454545,505.46228929449904,1516.8494992910057,19.0,10.0,9.0,0.5263157894736842,2078.7846730082247,29713.724803294997,19.0,5.0,14.0,0.2631578947368421,1463.2680065721222,22296.215375390755,72.0,35.0,37.0,0.4861111111111111,326.0774719711618,12058.873750303095,,,,,16241.0,16264.0,16407.0,16415.0,16431.0,16450.0,16457.0,16474.0,16671.0,16742.0,0.08316769700609382,-0.20745778107643448,0.05825098612787609,-0.15406875262354247,0.031060016605613704
17,17,17084.876695499283,4093.4075794994296,12.739827004320285,17227.726017303456,-4193.320632981554,5.382145831916673,17254.85377088332,36968.0116373586,9.059830208885584,17274.027373698995,-13724.785695823564,8.432615266784076,17524.93144289727,10300.050308943475,32.882716389198826,0.9413532929020744,156.0,128.0,66.0,266.0,332.0,28.0,840.0,814.0,30.0,22.0,8.0,0.7333333333333333,371.5590180752215,2321.8554854614113,12.0,8.0,4.0,0.6666666666666666,849.7951294748201,4595.891385205698,21.0,12.0,9.0,0.5714285714285714,2211.37130301569,29064.738169985852,17.0,4.0,13.0,0.2352941176470588,1637.8973761859393,26811.145475495538,87.0,50.0,37.0,0.5747126436781609,302.7489510405127,9964.502129529015,,,,,17064.0,17092.0,17220.0,17232.0,17243.0,17264.0,17270.0,17286.0,17492.0,17552.0,0.09077010067017521,-0.2026544602363485,0.05981850808499948,-0.11933864852143734,0.02939295847687632
18,18,17891.488492679255,3212.0992867032646,17.666681729372968,18043.657359859295,-4006.103868353496,7.505712134177981,18074.09056001994,37383.66927832232,8.671192356469911,18093.027373698995,-11335.159854429983,7.922462570698555,18341.109494795972,9697.319294114566,33.77258084792289,0.9428715365346184,165.0,118.0,72.0,277.0,349.0,47.0,801.0,819.0,51.0,27.0,24.0,0.5294117647058824,301.2753273335928,2480.645590373933,21.0,13.0,8.0,0.6190476190476191,627.8339917807872,1178.6772551060476,20.0,11.0,9.0,0.55,2284.2606644224534,31961.64207571032,15.0,4.0,11.0,0.2666666666666666,1603.1931724216456,25604.079893103328,86.0,45.0,41.0,0.5232558139534884,242.39383901404935,9974.124797237571,,,,,17867.0,17914.0,18032.0,18052.0,18063.0,18083.0,18089.0,18104.0,18307.0,18381.0,0.09379390250505193,-0.15671934937593773,0.06110316907139526,-0.14143542684976684,0.024995963488709857
19,19,18703.397287201147,3455.3619944573857,15.446450529996486,18850.30135639943,-4226.117472741509,8.689942099438385,18882.559398081183,35486.93088014542,9.401177620786148,18900.30135639943,-13322.436657939805,7.6047660939056,19145.191774940187,9566.264986544613,33.02540481349421,0.9435128139319916,149.0,119.0,71.0,275.0,346.0,30.0,812.0,808.0,35.0,12.0,23.0,0.3428571428571428,341.1758488647693,2516.408473349515,15.0,9.0,6.0,0.6,561.2856603431951,18.81351064645014,20.0,12.0,8.0,0.6,2127.0877302796057,27735.871527945754,16.0,3.0,13.0,0.1875,1622.636477763156,24401.329937969687,76.0,34.0,42.0,0.4473684210526316,329.8493957881171,10510.631478005194,,,,,18692.0,18722.0,18841.0,18856.0,18871.0,18891.0,18898.0,18912.0,19121.0,19187.0,0.09873809152616614,-0.13281354907039192,0.059940030809192635,-0.12179727473473177,0.03448047866665467
20,20,19490.72601729957,4472.113857148928,7.64389620259217,19640.30135639943,-4178.401586545222,6.15055029449848,19670.49592547304,39101.09481339331,9.194800060826156,19688.30135639943,-12010.91486280879,10.18615018685838,19931.349786744428,10990.064844245113,37.76001759580189,0.9383370239325864,161.0,137.0,71.0,270.0,341.0,24.0,792.0,788.0,24.0,20.0,4.0,0.8333333333333334,363.6891764420237,3551.2094220318804,15.0,8.0,7.0,0.5333333333333333,655.2209567913808,2039.1164136054367,20.0,11.0,9.0,0.55,2189.5193205138626,32291.66555231678,22.0,2.0,20.0,0.0909090909090909,1619.2541588619229,26272.65466958441,79.0,37.0,42.0,0.4683544303797468,219.60838640230267,12733.013301831375,,,,,19471.0,19495.0,19632.0,19646.0,19659.0,19679.0,19686.0,19703.0,19894.0,19973.0,0.08132377395996881,-0.15681138904916253,0.05599636866852858,-0.1348152224337102,0.019982446829446998
21,21,20286.30135639943,2446.860625595756,10.191861603446911,20425.30135639943,-4524.038364652581,10.191861603456228,20452.790467629948,38511.613832787545,9.16421720227194,20472.027373698995,-13822.227966313782,9.906360757922675,20716.32814953911,9596.7851579826,30.005280101972605,0.9340023183029044,115.0,103.0,87.0,268.0,355.0,12.0,796.0,782.0,46.0,35.0,11.0,0.7608695652173914,268.574704165562,1372.2629750570566,32.0,26.0,6.0,0.8125,665.4191064989033,4077.129900898136,19.0,11.0,8.0,0.5789473684210527,2205.509095235163,28860.723283946747,19.0,4.0,15.0,0.2105263157894736,1638.654239824657,28271.094168241332,76.0,34.0,42.0,0.4473684210526316,259.0341428755543,9043.153000005032,,,,,20284.0,20296.0,20399.0,20431.0,20442.0,20461.0,20468.0,20486.0,20684.0,20754.0,0.10976297601755312,-0.14708520416139387,0.057268674971949984,-0.11855210634770524,0.02699176220070842
22,22,21028.72601729957,2999.3118323583108,7.64389620259217,21190.30135639943,-4272.626557604767,10.19186160345287,21217.98266322822,38324.40354601061,9.12855511029365,21237.027373698995,-12538.485192891132,9.902784224893834,21486.93144289727,11192.848059687934,28.551745078499632,0.9301433273271432,162.0,145.0,71.0,265.0,336.0,17.0,742.0,766.0,17.0,13.0,4.0,0.7647058823529411,298.2773027288223,2716.4820623604637,22.0,15.0,7.0,0.6818181818181818,760.7551296013543,3661.241565284655,20.0,11.0,9.0,0.55,2223.2441097949986,29248.06620451336,23.0,5.0,18.0,0.217391304347826,1599.4505801077294,26428.148831158887,73.0,42.0,31.0,0.5753424657534246,358.8309575366094,11520.936963978304,,,,,21016.0,21033.0,21178.0,21196.0,21207.0,21227.0,21233.0,21249.0,21456.0,21514.0,0.09944858000786522,-0.17805326989022727,0.05801118619173991,-0.12756330254427864,0.03205895011020224
23,23,21799.123304500717,3315.0824689313104,12.73982700432015,21961.301356399432,-3528.37908429677,10.191861601850992,21989.355755809116,35901.437819679275,9.489799668440806,22009.602712798853,-14718.175584572631,8.7962908385842,22248.36219420685,10278.701060725418,34.273766859811296,0.9388692186814488,158.0,139.0,72.0,267.0,339.0,19.0,767.0,771.0,19.0,7.0,12.0,0.3684210526315789,308.0467272214154,3448.9379638823484,30.0,24.0,6.0,0.8,675.5263810977939,4573.969795850766,20.0,11.0,9.0,0.55,2135.7263776801815,30351.82029167591,17.0,5.0,12.0,0.2941176470588235,1565.4750124971338,26583.15745181606,75.0,30.0,45.0,0.4,357.3231576385247,10572.012331453874,,,,,21792.0,21811.0,21950.0,21967.0,21978.0,21998.0,22005.0,22022.0,22219.0,22289.0,0.09292279456345501,-0.1914551597089605,0.0594886028912605,-0.1063633874661776,0.03476345459679189
24,24,23381.821948101293,3647.9726926905246,21.95063946668816,23539.87669549931,-2480.975249472428,12.739827004184445,23569.588155411413,37171.765727770704,8.935189512245238,23591.027373698995,-9616.445315811268,8.088513420162874,23830.842143539485,9224.826103811967,36.25334359657281,0.9541824189367184,166.0,122.0,67.0,266.0,333.0,44.0,1581.0,1581.0,45.0,13.0,32.0,0.2888888888888888,232.6741134476095,4588.192974613128,17.0,10.0,7.0,0.5882352941176471,573.2846901630816,3140.9681740787782,20.0,11.0,9.0,0.55,2177.3749836648312,33181.402455904456,17.0,5.0,12.0,0.2941176470588235,1360.973132921972,21210.64275238977,93.0,48.0,45.0,0.5161290322580645,266.5642604878018,10089.654749978225,,,,,23369.0,23413.0,23535.0,23547.0,23559.0,23579.0,23587.0,23602.0,23794.0,23868.0,0.06378175854052326,-0.23107231331106137,0.058576043968719335,-0.14152559373308896,0.028896399508024292
25,25,24207.40103555878,4149.835878182645,16.809990762352395,24357.876695503383,-4779.3650349329955,5.603653117379927,24387.619146395373,38546.077823731015,8.51050808007457,24408.45203459914,-11571.999363167131,6.843148449850635,24649.33282619809,10105.18987205662,37.00658967689424,0.9608522915543136,157.0,126.0,65.0,279.0,344.0,31.0,829.0,818.0,31.0,12.0,19.0,0.3870967741935484,371.1100317861753,5475.668173925194,16.0,9.0,7.0,0.5625,663.5022244889789,894.4477038004052,20.0,11.0,9.0,0.55,2388.27266238549,33093.757192921184,15.0,5.0,10.0,0.3333333333333333,1691.315445305892,24629.73034014745,86.0,39.0,47.0,0.4534883720930232,362.045093737631,9899.07141307342,,,,,24195.0,24226.0,24352.0,24365.0,24377.0,24397.0,24403.0,24417.0,24623.0,24696.0,0.08942764067785185,-0.1388264381647678,0.06195890210430547,-0.14615585364524225,0.03582763889857986
26,26,25846.27398270043,3600.7855113820024,7.64389620259217,26008.536537233027,-3037.093359420954,10.191861603448912,26037.48350089934,37497.88406742187,8.799032829309724,26057.027373698995,-10148.136483548798,8.505189098224104,26302.758006027692,9054.558016465691,33.2768448679429,0.9391288037179568,161.0,150.0,65.0,275.0,340.0,11.0,1638.0,1649.0,20.0,5.0,15.0,0.25,336.0081595888741,2489.588992116618,9.0,6.0,3.0,0.6666666666666666,606.4233551125767,2070.8025057810587,21.0,11.0,10.0,0.5238095238095238,2128.205213146132,33613.91737882024,16.0,4.0,12.0,0.25,1541.42328585944,24167.862397384317,77.0,36.0,41.0,0.4675324675324675,310.25867000326303,10528.186138507905,,,,,25842.0,25853.0,26003.0,26012.0,26026.0,26047.0,26053.0,26068.0,26268.0,26343.0,0.09331523872409501,-0.19967227982356003,0.05675534142992123,-0.1518922502035965,0.034265468224849674
27,27,26678.324246840333,3872.783763997779,10.191861603456228,26820.460185128097,-3946.478942915055,6.80472039376967,26850.207559945982,39531.083468523866,8.84336625795773,26867.336075914507,-13081.96863519466,10.191861603456228,27110.474764699546,9329.498645907164,36.47014992274829,0.934340702142226,140.0,126.0,70.0,272.0,342.0,14.0,833.0,813.0,14.0,4.0,10.0,0.2857142857142857,366.4994028386112,4882.858384283296,14.0,6.0,8.0,0.4285714285714285,600.9342293586237,903.1421413270978,19.0,11.0,8.0,0.5789473684210527,2353.4891919617344,31079.39718513012,23.0,3.0,20.0,0.1304347826086956,1641.6415187499724,28367.882310995185,103.0,53.0,50.0,0.5145631067961165,292.82287166992745,9136.46337168948,,,,,26674.0,26688.0,26814.0,26828.0,26839.0,26858.0,26865.0,26884.0,27066.0,27156.0,0.09463461560794269,-0.1522709833375534,0.05953515526169858,-0.12548887438343448,0.03138677465786314
28,28,27456.424988307135,2317.306745182246,14.812936829030502,27616.72601729957,-3789.216640043319,7.64389620259217,27644.497129365176,35888.9804876034,8.133496646087716,27669.876695499283,-8729.309141949127,9.446950338751886,27905.979012013915,8470.45162900318,35.32250756748414,0.9217374944237728,157.0,133.0,79.0,269.0,348.0,24.0,776.0,796.0,29.0,20.0,9.0,0.6896551724137931,236.7129885165851,2038.924734261182,36.0,31.0,5.0,0.8611111111111112,642.2237498377667,3572.1766898677115,20.0,10.0,10.0,0.5,2089.8189523275023,31625.98864975813,18.0,10.0,8.0,0.5555555555555556,921.8970229322192,15867.589204878002,66.0,23.0,43.0,0.3484848484848485,253.9196814210428,7631.028127956042,,,,,27441.0,27465.0,27598.0,27621.0,27634.0,27654.0,27660.0,27677.0,27883.0,27946.0,0.10215004509382235,-0.16948720826646235,0.058230100825777356,-0.10560939106876138,0.029977112501488257
29,29,28283.597299326164,2825.2764546815733,16.11930976005357,28435.000245710507,4163.980094363628,186.00147426307615,28460.197159437714,36582.38898079074,8.627484778459317,28480.30135639943,-9513.331275735569,6.604537036901932,28744.054747397982,9223.566709828572,35.6715156120968,0.917658443512804,76.0,14.0,161.0,278.0,439.0,62.0,836.0,814.0,62.0,35.0,27.0,0.5645161290322581,311.9281507010841,6403.025413022973,66.0,25.0,41.0,0.3787878787878788,821.2558723829932,12717.881778422754,21.0,11.0,10.0,0.5238095238095238,2178.330386483693,37471.53049093283,10.0,3.0,7.0,0.3,1491.4278285178311,18272.478994073652,101.0,68.0,33.0,0.6732673267326733,363.9601033361176,7825.451066672104,,,,,28249.0,28311.0,28325.0,28477.0,28449.0,28470.0,28478.0,28486.0,28677.0,28764.0,0.11040624013420322,0.1972285778922543,0.059545875684267786,-0.15677240551076196,0.03945980061577308
30,30,29889.27398270043,4829.431038143007,7.64389620259217,30027.72601729957,-3979.5925920055593,5.196912253277084,30079.711742130956,34091.083190355756,9.019601305865692,30099.027373698995,-10390.305487780086,7.180439309867788,30347.98619029525,12901.307376698069,54.93599100872666,0.8712527631149547,133.0,115.0,93.0,284.0,377.0,18.0,1598.0,1620.0,25.0,11.0,14.0,0.44,349.8141664935371,5226.691578128306,15.0,10.0,5.0,0.6666666666666666,446.93271230685326,3360.921105441057,19.0,10.0,9.0,0.5263157894736842,2044.954198636976,28732.27267146531,17.0,4.0,13.0,0.2352941176470588,1500.9928818963388,22494.05318931928,125.0,67.0,58.0,0.536,340.2188385357579,11479.97456170065,,,,,29885.0,29903.0,30018.0,30032.0,30070.0,30089.0,30095.0,30111.0,30288.0,30395.0,0.07243382579245737,-0.1123061474193811,0.05998501682150968,-0.1444608999862072,0.026370880764398374
31,31,31544.684833895823,4240.857407437329,73.89099662505764,31682.150678199716,-1344.4715144526665,2.450458588052861,31729.94973711358,37144.85730056343,9.43036642496615,31748.876695499283,-12776.669585043514,6.819506011130534,31976.72147223553,9859.173364796434,65.16023726525769,0.9293664358337804,153.0,94.0,78.0,272.0,350.0,59.0,1669.0,1650.0,59.0,17.0,42.0,0.288135593220339,408.0551297179309,6441.127234638274,4.0,1.0,3.0,0.25,286.9231597579407,181.32127327570697,21.0,12.0,9.0,0.5714285714285714,2122.139497105352,31490.51446873582,14.0,3.0,11.0,0.2142857142857142,1703.178005926231,24860.51240762149,125.0,62.0,63.0,0.496,354.999443665558,11042.536473113669,,,,,31528.0,31587.0,31681.0,31685.0,31718.0,31739.0,31746.0,31759.0,31950.0,32031.0,0.0962199599077091,-0.2134096235387679,0.05713144837073213,-0.1333037529529594,0.03600701910092518
32,32,33188.87695036745,3791.60429597366,10.191861603456228,33340.45203459914,-3240.5567656937164,15.28779240518434,33372.84986291529,34468.81425529184,9.415590082409064,33394.027373699,-11082.446736042624,8.48882509076815,33635.53912483243,8835.107455311503,35.55914327051102,0.939081112035918,162.0,144.0,67.0,273.0,340.0,18.0,1632.0,1644.0,18.0,14.0,4.0,0.7777777777777778,266.10712003011383,4494.580404046913,16.0,6.0,10.0,0.375,434.0492435599456,262.03994392912955,21.0,11.0,10.0,0.5238095238095238,1923.1893751678572,28530.14063428585,15.0,5.0,10.0,0.3333333333333333,1353.8033289239493,23028.6395546332,88.0,46.0,42.0,0.5227272727272727,266.8037508842436,10890.755720775564,,,,,33175.0,33193.0,33337.0,33349.0,33362.0,33383.0,33389.0,33404.0,33591.0,33677.0,0.07018325206369648,-0.13394279901374517,0.0557950546521222,-0.12215744060569897,0.03019813309954098
33,33,34020.72756113954,2761.692768434653,14.472957568871454,34170.602712798885,-3278.372654351108,20.3837232067222,34205.52625167639,38202.57032443804,8.699084547741785,34226.178051898714,-13109.127629735938,9.5514237595994,34475.10949479597,9059.993445898544,32.88732114634267,0.9287478447791736,152.0,121.0,79.0,276.0,355.0,31.0,830.0,831.0,34.0,15.0,19.0,0.4411764705882353,275.60944980889406,2976.5129502400487,28.0,16.0,12.0,0.5714285714285714,413.1248961383106,1202.9081946019242,19.0,11.0,8.0,0.5789473684210527,2350.135985950279,28885.871067830405,20.0,6.0,14.0,0.3,1560.9665155803882,26035.725031806855,84.0,44.0,40.0,0.5238095238095238,356.82104476286406,8648.426378737215,,,,,34008.0,34039.0,34160.0,34182.0,34195.0,34214.0,34220.0,34239.0,34432.0,34515.0,0.09979728844534413,-0.12601523368309112,0.06151774516718593,-0.11907478206555773,0.03938424976724424
34,34,34842.178051898714,3110.3602768875608,13.894761842308046,34959.54796540086,-3092.3698346316746,15.28779240518434,35020.024075292495,37074.870873885535,9.134833013472482,35037.30135639943,-14301.163387322436,9.343519852585432,35304.05474739799,8140.198297603172,35.313055328507126,0.9088656355124508,115.0,96.0,101.0,272.0,373.0,19.0,827.0,814.0,24.0,10.0,14.0,0.4166666666666667,407.48816151413865,2659.4375362417222,46.0,10.0,36.0,0.217391304347826,332.0065764019019,3022.149718009986,20.0,12.0,8.0,0.6,2117.5868725911123,26902.93173511414,19.0,3.0,16.0,0.1578947368421052,1640.277336391984,27810.649954358676,84.0,63.0,21.0,0.75,247.24485764449295,7236.1710426715,,,,,34836.0,34855.0,34951.0,34966.0,35008.0,35028.0,35035.0,35052.0,35244.0,35324.0,0.13100995551611763,-0.1073631532308122,0.057116500278431966,-0.1146953777093437,0.03037332121470463
35,35,35662.60271279886,3458.1475343174507,20.383723206911732,35787.12330450071,-1509.3926313102077,12.739827004320285,35832.40800403457,35791.75092800128,8.154075172729785,35854.45203459914,-7583.08434570978,7.056370245334529,36092.45286895497,9228.70247529331,42.66635392744796,0.9495739506845312,122.0,105.0,83.0,280.0,363.0,17.0,820.0,814.0,19.0,6.0,13.0,0.3157894736842105,406.7866342989904,2731.4774860289817,12.0,7.0,5.0,0.5833333333333334,255.84423038768605,1538.4530481544896,20.0,10.0,10.0,0.5,2096.676448681751,34241.79702050159,16.0,5.0,11.0,0.3125,1268.360065275319,18659.55775860903,92.0,40.0,52.0,0.4347826086956521,221.13777853793783,10312.661120397684,,,,,35658.0,35675.0,35780.0,35792.0,35822.0,35842.0,35849.0,35863.0,36052.0,36143.0,0.1176313706289803,-0.16950144387918734,0.058579879282782986,-0.16726176413861316,0.023961957721571205
36,36,36238.15067819971,3010.9228669289496,2.155306430302631,36626.027373699,-4262.865395864868,17.8357578060484,36658.2043734774,38695.91989886883,8.97905454064534,36677.027373699,-14272.708248118504,10.453928348218724,36923.112495865666,9140.961004796149,27.513651377832662,0.9070578358757084,386.0,380.0,69.0,267.0,336.0,6.0,573.0,825.0,6.0,3.0,3.0,0.5,444.1087839979498,3879.1195735872434,15.0,5.0,10.0,0.3333333333333333,571.9509662437748,1052.057420149716,19.0,10.0,9.0,0.5263157894736842,2229.2240291259723,28559.676025871937,18.0,4.0,14.0,0.2222222222222222,1653.9699061018002,28860.187816242516,75.0,38.0,37.0,0.5066666666666667,201.7579987102644,9318.444292226864,,,,,36235.0,36241.0,36621.0,36636.0,36648.0,36667.0,36673.0,36690.0,36892.0,36957.0,0.14749922320359118,-0.13417054331543934,0.057608761723510225,-0.11588339629375065,0.022071858593905442
37,37,37291.289588618674,4422.539983937376,13.615687919949492,37444.726017299574,-3961.0714680256897,5.536558956161619,37473.53840666951,37374.95298836973,9.407043581905375,37491.87669549929,-12317.281386385974,9.54075732734242,37735.391411041295,9089.146373942376,37.470709698572655,0.9523052886326412,160.0,131.0,68.0,270.0,338.0,29.0,1053.0,815.0,29.0,14.0,15.0,0.4827586206896552,283.6400963850245,5189.336485445034,13.0,9.0,4.0,0.6923076923076923,756.5895534560245,3263.5302944754844,21.0,12.0,9.0,0.5714285714285714,2089.3929941084216,27442.542436264128,17.0,3.0,14.0,0.1764705882352941,1571.9415500834975,24686.8895328118,99.0,52.0,47.0,0.5252525252525253,350.10007265512104,9948.257286265369,,,,,37277.0,37306.0,37437.0,37449.0,37462.0,37482.0,37489.0,37505.0,37711.0,37775.0,0.06413511181701075,-0.1910062869512249,0.05590356179868895,-0.12762081994984142,0.03851847668102486
38,38,38141.027373699,3614.54073209795,16.11258234347461,38268.84932180029,-2776.013953674329,5.095930801728113,38314.31621662412,37920.69333726464,8.316274510710262,38335.45203459914,-9304.526190462006,8.1369546689231,38590.65746019684,9224.085902897652,36.239564876293755,0.935979033015464,126.0,106.0,81.0,278.0,359.0,20.0,852.0,842.0,24.0,7.0,17.0,0.2916666666666667,318.76514450155275,2973.2749923780725,9.0,7.0,2.0,0.7777777777777778,304.5517669092894,3069.2943480329395,21.0,11.0,10.0,0.5238095238095238,2198.7271621136874,33301.94425249017,19.0,5.0,14.0,0.2631578947368421,1492.62749325956,23358.621437076705,92.0,57.0,35.0,0.6195652173913043,245.04406105777085,9251.80085644636,,,,,38137.0,38157.0,38263.0,38270.0,38303.0,38324.0,38331.0,38344.0,38536.0,38622.0,0.08818966727109899,-0.10970829829806332,0.05798225107748755,-0.1604195058088654,0.026565674218275957
39,39,38990.027373699,2193.330562827776,11.011361963471582,39133.282452772335,-5014.142888428483,5.719147378104072,39163.68699211894,38555.888742028605,8.441010427251094,39182.027373699,-13367.746406244005,10.245639643716258,39427.383477496405,9073.935633206063,30.50776473861653,0.9211841909788264,143.0,127.0,68.0,268.0,336.0,16.0,849.0,848.0,19.0,9.0,10.0,0.4736842105263157,284.2012271363348,1562.7174592000367,11.0,6.0,5.0,0.5454545454545454,645.601266544374,1474.9553374671364,19.0,11.0,8.0,0.5789473684210527,2362.4213333132293,28170.075248365305,17.0,4.0,13.0,0.2352941176470588,1738.585615906399,29054.958401181204,76.0,34.0,42.0,0.4473684210526316,347.9659522643718,8640.625442504948,,,,,38984.0,39000.0,39127.0,39138.0,39153.0,39172.0,39178.0,39195.0,39395.0,39463.0,0.12957519124245695,-0.12875605679971283,0.06127264629068258,-0.13005824340700498,0.038347853272288
40,40,39812.66301199888,3007.0629295827234,15.87058146088301,39947.753390998565,-2409.895396639719,25.47965400864057,39996.231235322295,36968.37410907773,9.205642959629264,40016.45203459914,-11735.04998922144,8.527346324341252,40257.146422691694,9548.13713083574,37.83235246242947,0.9445248422875856,145.0,109.0,83.0,275.0,358.0,36.0,816.0,833.0,40.0,19.0,21.0,0.475,242.29272522845793,3335.985681841537,43.0,23.0,20.0,0.5348837209302325,210.34693578637925,2212.921391897663,20.0,11.0,9.0,0.55,2105.89196109717,31164.389807256324,15.0,4.0,11.0,0.2666666666666666,1623.0872270089312,25368.960614057927,85.0,41.0,44.0,0.4823529411764706,340.33033112686695,10757.923279187698,,,,,39797.0,39833.0,39942.0,39967.0,39985.0,40005.0,40013.0,40025.0,40225.0,40300.0,0.08057454429863888,-0.08728467471230505,0.056964689734084355,-0.13831106203209406,0.035643636707705956
41,41,40664.32873009842,3354.696591526338,15.772358897500771,40802.60271279886,-2677.2234395503024,20.383723206912453,40837.00933570261,38091.24108392851,8.943886567150749,40855.45203459914,-11125.38356644866,8.91937319337716,41108.50678199713,9533.154447260264,34.74488864120047,0.9444613654463796,140.0,116.0,71.0,268.0,339.0,24.0,860.0,841.0,49.0,30.0,19.0,0.6122448979591837,269.26680778082607,3133.071698021834,30.0,19.0,11.0,0.6333333333333333,466.79720105487814,225.2794037793176,20.0,11.0,9.0,0.55,2211.6353349758315,31088.196467471636,18.0,3.0,15.0,0.1666666666666666,1589.4036073960503,24852.31023501658,77.0,49.0,28.0,0.6363636363636364,282.07740717956756,10826.999069537318,,,,,40658.0,40682.0,40798.0,40814.0,40826.0,40846.0,40852.0,40869.0,41060.0,41137.0,0.08026562177365602,-0.17435870094327532,0.058061519447550024,-0.1428628143832532,0.02958909443249751
42,42,41527.726017299574,4710.629888082906,7.64389620259217,41659.45203459914,-2325.7757276679863,15.287792388505062,41694.90965516425,38494.83737622131,9.5402371081199,41712.30135639943,-15295.26438738286,8.907057332762967,41955.772301310775,9080.48474618554,37.31394041043443,0.9431296206778352,135.0,122.0,72.0,275.0,347.0,13.0,860.0,857.0,13.0,9.0,4.0,0.6923076923076923,496.2353330251135,5081.21878865529,27.0,14.0,13.0,0.5185185185185185,352.8810949266811,72.0716404565494,19.0,11.0,8.0,0.5789473684210527,2264.6685538264137,29089.57498029063,19.0,3.0,16.0,0.1578947368421052,1733.0253800316598,28245.572345909663,89.0,41.0,48.0,0.4606741573033708,284.1425165288006,9756.432130446592,,,,,41519.0,41532.0,41654.0,41668.0,41684.0,41703.0,41710.0,41726.0,41915.0,42001.0,0.1053437321154236,-0.1517261921382715,0.05883044865713148,-0.11330470243203125,0.031291558156976255
43,43,42349.12330450071,3296.08557283473,12.739827004320285,42515.726017299574,-4288.370169456692,5.187616980026765,42541.801107920415,36590.765456304005,8.956696133012239,42562.027373699,-13792.04883344833,7.375056422205439,42803.830508907056,8802.241736413487,37.141109324732405,0.9490803094545922,169.0,155.0,65.0,270.0,335.0,14.0,818.0,848.0,25.0,11.0,14.0,0.44,352.48489333556216,3279.043774127821,13.0,9.0,4.0,0.6923076923076923,801.1116891085936,5287.621231956793,20.0,11.0,9.0,0.55,2261.0009879363815,30058.241111730225,15.0,5.0,10.0,0.3333333333333333,1678.5138434367716,26679.257016127412,87.0,48.0,39.0,0.5517241379310345,316.2410698264355,8577.131803113669,,,,,42338.0,42352.0,42507.0,42520.0,42531.0,42551.0,42557.0,42572.0,42772.0,42842.0,0.10694045574563613,-0.18681029329380144,0.061791573905072464,-0.12170155889863568,0.03592733297907464
44,44,43210.726017299574,2295.7084053777007,7.643896185139516,43324.91787890302,-3067.4822936451537,53.50727341813435,43394.92433212332,38182.02867969218,8.795833536566613,43414.02737369903,-11474.950758340545,9.219126435818346,43665.08212109698,8757.45149617869,28.931546765947743,0.9175618775247152,86.0,80.0,131.0,269.0,400.0,6.0,865.0,852.0,7.0,2.0,5.0,0.2857142857142857,338.37790454065447,2681.2970261290125,52.0,38.0,14.0,0.7307692307692307,275.17127391800665,2092.892835339594,20.0,11.0,9.0,0.55,2207.953950480037,29281.791365981488,19.0,4.0,15.0,0.2105263157894736,1592.3447281923372,25311.948098837747,81.0,41.0,40.0,0.5061728395061729,237.84315751333185,9024.194500106263,,,,,43209.0,43215.0,43295.0,43338.0,43384.0,43404.0,43410.0,43426.0,43631.0,43695.0,0.14739585556597853,-0.08970590457459979,0.05782704656692006,-0.13876702059352583,0.02715894659731939
45,45,44032.574683987405,3459.9996018447646,15.28779240518434,44142.06094228169,-2553.5831113961676,22.93168860773738,44218.976986222166,38128.48721506217,8.83261381291662,44236.87669549929,-12531.850716569064,11.0545190543301,44486.808138396555,9119.740645115278,33.99942683209289,0.9440703691489608,116.0,93.0,121.0,268.0,389.0,23.0,821.0,824.0,23.0,17.0,6.0,0.7391304347826086,270.3212586964552,3441.618775444368,21.0,10.0,11.0,0.4761904761904761,263.7890485355044,3749.880709390016,20.0,11.0,9.0,0.55,2170.938733295088,27461.50162147175,21.0,4.0,17.0,0.1904761904761904,1520.0028853888264,26977.11906949196,100.0,57.0,43.0,0.57,291.3787012125474,8833.689237668474,,,,,44016.0,44039.0,44132.0,44153.0,44208.0,44227.0,44234.0,44253.0,44442.0,44521.0,0.07812754040559088,-0.10330153240686109,0.056937447348749955,-0.12129117396675856,0.0319503275971577
46,46,44883.027373699,2353.913794667635,17.835757805708283,44970.69864360057,-3247.203570992913,10.191861603456228,45053.63517533559,37207.19724690206,8.505406236284172,45071.45203459914,-12519.10329319914,8.483739516996879,45316.09593080172,8716.844542640147,30.57558481036868,0.9385103320855668,86.0,71.0,119.0,263.0,382.0,15.0,853.0,834.0,15.0,4.0,11.0,0.2666666666666666,293.1729234413636,2315.748660633518,19.0,6.0,13.0,0.3157894736842105,360.5355519078597,2960.2898025052714,20.0,12.0,8.0,0.6,2274.4051415912463,27159.538030099684,17.0,3.0,14.0,0.1764705882352941,1698.1089096228905,26978.846131912964,92.0,40.0,52.0,0.4347826086956521,409.797632886142,8894.140897571138,,,,,44879.0,44894.0,44965.0,44984.0,45042.0,45062.0,45068.0,45084.0,45299.0,45347.0,0.12454700937030647,-0.11102955020390577,0.06112809644055136,-0.13564141694919707,0.04701215340958955
47,47,45721.027373699,3872.246686769206,17.8357578060484,45860.576608415366,-2899.6578137091415,5.475946804562744,45888.30915261463,38162.023323045825,8.870430575758753,45909.45203459914,-10916.251012565965,7.856991610147892,46150.657914539115,9382.955207539217,40.21431017995745,0.9506446480943456,148.0,126.0,61.0,282.0,343.0,22.0,838.0,837.0,22.0,12.0,10.0,0.5454545454545454,338.68959268429296,3726.270820211342,6.0,4.0,2.0,0.6666666666666666,773.5157231684187,4723.755148476914,21.0,11.0,10.0,0.5238095238095238,2217.980802942371,33466.308828183275,19.0,5.0,14.0,0.2631578947368421,1578.7931519754763,24244.55879840634,87.0,37.0,50.0,0.425287356321839,367.28012598670927,11070.727485388314,,,,,45709.0,45731.0,45857.0,45863.0,45877.0,45898.0,45905.0,45918.0,46114.0,46200.0,0.0874659132233327,-0.26676103625446906,0.05812010501033747,-0.14462778019286004,0.03914333148383776
48,48,47339.12330450071,3842.3649008432767,12.739827004319103,47499.273982700426,-3516.880519087999,5.296130355455932,47530.39761022035,37062.75586319381,9.174541254245955,47548.45203459914,-13311.899020599045,7.579007790507728,47793.57686932128,9416.66331041391,38.000228625277565,0.946320439975638,162.0,147.0,66.0,278.0,344.0,15.0,1613.0,1641.0,17.0,9.0,8.0,0.5294117647058824,303.2345967481735,5594.35184855347,10.0,6.0,4.0,0.6,650.7326938739682,647.2496144067491,20.0,11.0,9.0,0.55,2195.7134605235615,30568.008154288793,16.0,3.0,13.0,0.1875,1662.344648330975,26068.912234911368,86.0,40.0,46.0,0.4651162790697674,343.87494081584305,10427.798107493316,,,,,47332.0,47347.0,47494.0,47501.0,47519.0,47539.0,47545.0,47560.0,47772.0,47838.0,0.0789187400399226,-0.18503122023682422,0.0592431245163848,-0.12487659692720297,0.03651770584550379
49,49,48148.15067819971,3484.03259940544,5.095930801728113,48290.18712546969,-2947.162073978027,12.739827004320285,48328.40784006736,34866.00408589639,8.540963585368697,48351.027373699,-9712.914216617855,9.43627386953048,48592.68483389583,8703.745657435979,33.754012773886515,0.9229449892771964,149.0,136.0,74.0,273.0,347.0,13.0,812.0,799.0,15.0,11.0,4.0,0.7333333333333333,309.38119925627245,3716.1296820790753,25.0,8.0,17.0,0.32,333.39237009129283,2977.43879437711,20.0,10.0,10.0,0.5,2023.577860982474,30950.1904737926,16.0,6.0,10.0,0.375,1235.190754572627,21279.612005165232,81.0,36.0,45.0,0.4444444444444444,394.72093691798506,9145.872347555747,,,,,48138.0,48151.0,48287.0,48306.0,48318.0,48338.0,48345.0,48361.0,48566.0,48634.0,0.08879974294989927,-0.11312318824776602,0.058038708880924765,-0.1271699437496663,0.045350697556374275
50,50,48952.726017299574,2808.1809898662405,6.716085642646333,49073.47940829813,-4239.994875440222,33.12355021123273,49114.38762186696,41793.41904170164,8.561354329452161,49135.178051898714,-10236.986266807187,13.049393470445214,49378.06920135294,8132.398737618725,31.985095373755183,0.9337551713375236,112.0,95.0,99.0,272.0,371.0,17.0,805.0,785.0,18.0,13.0,5.0,0.7222222222222222,367.1010406929851,2106.566281847202,41.0,22.0,19.0,0.5365853658536586,268.1084274579054,3967.847972637206,19.0,10.0,9.0,0.5263157894736842,2280.197820894139,33256.73568795725,22.0,5.0,17.0,0.2272727272727272,1432.368498423444,25976.903578323545,85.0,40.0,45.0,0.4705882352941176,346.8756896273884,8490.772812836507,,,,,48940.0,48957.0,49052.0,49092.0,49104.0,49123.0,49130.0,49151.0,49347.0,49423.0,0.13072556292408735,-0.06323319610853746,0.05455877679256029,-0.13992091628254036,0.04265355165417752
51,51,49709.05474739799,3746.8249629830984,21.557806260833473,49856.87669549929,-1866.5389459640344,12.739827003504203,49887.46284848667,39549.819326716526,8.811257334181231,49907.60271279886,-12139.91214573476,7.928674463886641,50145.82194349239,10182.363848414045,42.77879137403493,0.9562930319287836,162.0,125.0,66.0,273.0,339.0,37.0,761.0,773.0,38.0,17.0,21.0,0.4473684210526316,275.59686503792784,3572.1595245636445,27.0,20.0,7.0,0.7407407407407407,478.876807733703,3415.8576646329275,19.0,10.0,9.0,0.5263157894736842,2305.8873927110317,35952.14044990774,17.0,5.0,12.0,0.2941176470588235,1626.8925383896249,25123.530932051544,83.0,36.0,47.0,0.4337349397590361,452.2302657162543,10727.35467566047,,,,,49692.0,49729.0,49854.0,49864.0,49877.0,49896.0,49903.0,49920.0,50113.0,50193.0,0.07355477444521634,-0.25655870120961854,0.058303360975238853,-0.13401188730687955,0.04441309232793635
52,52,50490.76310610827,3415.7521168504572,17.835757805608576,50581.766186685214,-3949.974829382398,5.256088926511029,50674.24301309253,35415.91801367051,7.958669856603453,50699.30135639943,-9328.120658447577,7.5647263811749985,50936.43154275749,8960.23110043693,35.89924581045675,0.943685023274512,94.0,59.0,130.0,276.0,406.0,35.0,773.0,787.0,55.0,30.0,25.0,0.5454545454545454,297.04260029150925,3414.7954796182507,13.0,8.0,5.0,0.6153846153846154,402.2873407468013,4068.2931366005328,20.0,10.0,10.0,0.5,2082.090046166721,33213.249792727496,15.0,8.0,7.0,0.5333333333333333,1060.997199001151,17255.996193632713,85.0,40.0,45.0,0.4705882352941176,281.1498085862846,9434.34258569667,,,,,50481.0,50516.0,50575.0,50587.0,50664.0,50684.0,50691.0,50705.0,50897.0,50981.0,0.08696257518985354,-0.1018455453828047,0.058789667554658226,-0.11374179621490087,0.03137751754779794
53,53,51285.69864360057,3352.2215900009637,10.191861603456228,51437.45203459914,-2881.0875589143634,15.287792401699994,51470.80195948206,37858.50673799305,8.847695791347167,51491.45203459914,-9624.87112024806,9.360076472785517,51733.04749583893,8724.837054210038,36.499875167615265,0.9548725552264312,161.0,144.0,70.0,272.0,342.0,17.0,796.0,797.0,47.0,16.0,31.0,0.3404255319148936,338.17950280889164,3354.364290237325,14.0,5.0,9.0,0.3571428571428571,386.286150889779,1049.9891479849332,19.0,10.0,9.0,0.5263157894736842,2235.582761808406,32906.91641251267,17.0,4.0,13.0,0.2352941176470588,1445.5360954057762,23849.7116014982,91.0,45.0,46.0,0.4945054945054945,287.4256009744701,9464.209180270833,,,,,51271.0,51288.0,51432.0,51446.0,51461.0,51480.0,51488.0,51502.0,51695.0,51774.0,0.10088220415309551,-0.13407650513590685,0.05905100212430931,-0.15018757938116895,0.0329433775311342
54,54,52067.69864360057,3879.8006181152537,10.191861603456228,52218.602712799155,-3038.9246139147685,20.383723206895723,52254.431019717944,40013.30671666014,9.295923361516005,52273.45203459914,-13367.29513786571,8.76032232968015,52512.68483389605,9389.869679365283,40.046769779090745,0.9456582213904544,152.0,113.0,70.0,270.0,340.0,39.0,782.0,782.0,61.0,23.0,38.0,0.3770491803278688,291.42123079326115,2433.2252135859217,18.0,6.0,12.0,0.3333333333333333,375.8712987409536,1194.9383631849448,19.0,10.0,9.0,0.5263157894736842,2234.4574389635477,32895.88807446517,18.0,3.0,15.0,0.1666666666666666,1719.0829601300463,28245.623715052636,91.0,46.0,45.0,0.5054945054945055,348.7481561980092,10538.316988063696,,,,,52062.0,52101.0,52214.0,52231.0,52244.0,52263.0,52270.0,52284.0,52482.0,52554.0,0.07511242444588016,-0.12368562781054085,0.0558428588465846,-0.12860365110517966,0.03714089418774374
55,55,52857.972626301,4035.596300126883,17.8357578060484,52971.726017299574,-2274.9854536823336,7.643896202530851,53042.176977564915,38614.07518633303,8.328901031971098,53061.45203459914,-10850.80082786055,7.964140435302936,53313.2327992967,10149.80927000879,35.974096784619874,0.9342422196733444,134.0,108.0,101.0,275.0,376.0,26.0,789.0,789.0,51.0,22.0,29.0,0.4313725490196078,255.1612426463234,3870.522369814059,17.0,9.0,8.0,0.5294117647058824,289.8190960996404,2017.081320558207,19.0,10.0,9.0,0.5263157894736842,2305.993433326785,32496.966950460243,15.0,4.0,11.0,0.2666666666666666,1680.7217037487894,25331.85542973911,101.0,62.0,39.0,0.6138613861386139,334.28986988108346,8870.670285107004,,,,,52836.0,52862.0,52970.0,52979.0,53032.0,53051.0,53058.0,53071.0,53262.0,53346.0,0.06322764312136496,-0.12739382382886616,0.0597189864628161,-0.15489379359294506,0.03293558144672348
56,56,53658.74767314831,3841.421285061646,20.76864480039284,53800.273982700426,-2590.639195924297,7.64389620259217,53848.54904880978,38880.15083830151,8.657568497976461,53867.45203459914,-13635.260168532188,8.72526230575825,54109.14760839434,9877.581185099134,37.25421648346192,0.94858440695301,153.0,130.0,82.0,269.0,351.0,23.0,802.0,807.0,46.0,17.0,29.0,0.3695652173913043,319.4705898664431,3991.776103283104,13.0,4.0,9.0,0.3076923076923077,235.9024521613936,2983.409897605673,19.0,11.0,8.0,0.5789473684210527,2312.9380861847812,29542.973776667804,16.0,4.0,12.0,0.25,1816.2175405965927,29767.642776193195,83.0,40.0,43.0,0.4819277108433735,283.8933499225761,10834.92460180936,,,,,53643.0,53666.0,53796.0,53809.0,53838.0,53857.0,53864.0,53878.0,54071.0,54147.0,0.08316468467251603,-0.0910595549285772,0.059488917514853516,-0.1332000649894534,0.02874118112548086
57,57,54509.99650475605,2202.0378699001267,5.095930801728113,54641.45203459914,-3545.0400696064494,15.28779240518434,54673.67666710244,36972.93216078515,8.721692862780085,54693.60271279886,-12976.993867442448,8.545744065901413,54937.281698360894,8767.953479098327,30.41641773506138,0.9260883600335088,124.0,118.0,74.0,274.0,348.0,6.0,853.0,826.0,6.0,2.0,4.0,0.3333333333333333,364.0366326632157,1542.54168981598,21.0,11.0,10.0,0.5238095238095238,496.87824297315984,154.01914075486638,20.0,11.0,9.0,0.55,2315.31063436993,30037.512941734378,17.0,5.0,12.0,0.2941176470588235,1512.2191391674023,25785.12928104092,81.0,37.0,44.0,0.4567901234567901,403.3242466848653,7287.518533681803,,,,,54508.0,54514.0,54632.0,54650.0,54663.0,54683.0,54689.0,54706.0,54903.0,54980.0,0.16531806180051142,-0.14016153081968422,0.06262177487847809,-0.11653077396925948,0.045999815994272594
58,58,55296.931764254135,2630.7324443130733,7.64389620259217,55404.54796540086,-3942.628146914165,15.28779240518434,55491.358913999706,38926.59418897685,8.300746809608382,55510.48847512746,-9989.768671942516,10.191861603456228,55754.5341557184,9117.662520547248,32.98969684241795,0.9329946962354086,103.0,88.0,127.0,270.0,397.0,15.0,786.0,815.0,26.0,15.0,11.0,0.5769230769230769,298.6182746236611,2026.540929524205,45.0,9.0,36.0,0.2,288.3494834241765,3411.332835223702,19.0,10.0,9.0,0.5263157894736842,2220.3173257145845,32371.00087377541,20.0,3.0,17.0,0.15,1600.8660092974746,27449.174319734575,91.0,45.0,46.0,0.4945054945054945,335.5780735018588,8296.870872890193,,,,,55293.0,55308.0,55396.0,55437.0,55481.0,55500.0,55507.0,55523.0,55732.0,55793.0,0.11351145771938626,-0.0731363630247157,0.05703857149525116,-0.1602505585333224,0.03680527467929545
59,59,56135.821948101286,3193.369707164979,15.412692839793154,56241.12300106184,-2963.343319975854,12.739827004320285,56320.68338220826,41361.72459647071,8.280414526276775,56338.87669549929,-10521.919099603068,10.042241991095674,56582.62883206228,9606.00817891241,36.31844996536378,0.957013396016942,113.0,95.0,117.0,274.0,391.0,18.0,836.0,830.0,23.0,15.0,8.0,0.6521739130434783,306.6490872004791,3837.428695182867,14.0,5.0,9.0,0.3571428571428571,318.61069520005805,4277.340298800349,19.0,11.0,8.0,0.5789473684210527,2430.099023735574,33354.77388473773,17.0,3.0,14.0,0.1764705882352941,1589.563105970696,26124.983312794273,88.0,44.0,44.0,0.5,269.55753446016035,10214.18757557074,,,,,56123.0,56141.0,56236.0,56250.0,56310.0,56329.0,56336.0,56353.0,56539.0,56627.0,0.09602680407234059,-0.10751730758036304,0.058752362176477724,-0.1510715954878099,0.028061347589928825
60,60,56956.60271279886,2124.9995354006505,13.69020399221618,57101.45203459914,-4805.708366555126,15.28779240518434,57130.99073248718,40422.074268927376,9.180422170458712,57150.45203459914,-13772.85568420352,11.25099632558501,57388.39728720114,10492.54606195024,20.383723206912453,0.8829998488540161,141.0,124.0,72.0,269.0,341.0,17.0,828.0,810.0,20.0,6.0,14.0,0.3,296.67555249541147,644.2346400602796,22.0,13.0,9.0,0.5909090909090909,622.3742684355562,750.6215813519761,20.0,11.0,9.0,0.55,2228.6339045040663,30117.378356986424,19.0,4.0,15.0,0.2105263157894736,1736.3287106705584,29028.040163261096,81.0,34.0,47.0,0.419753086419753,419.9099839193997,9311.679457893191,,,,,56951.0,56968.0,57092.0,57110.0,57120.0,57140.0,57147.0,57164.0,57377.0,57433.0,0.13961205522780307,-0.1295072902814726,0.055134080692569185,-0.12606889598516619,0.04001983707673631
61,61,57761.09593080172,3476.100696146236,25.41439433742943,57868.86907103581,-1462.3947995628955,7.64389620259217,57949.9784285729,36846.412102609334,9.418425754461852,57968.87669549929,-12548.687647698418,8.224153395242027,58217.50678199713,9535.605845889748,37.769636673389414,0.9482656251439944,123.0,98.0,114.0,265.0,379.0,25.0,796.0,819.0,50.0,18.0,32.0,0.36,247.4303322742024,3478.1156266348016,7.0,2.0,5.0,0.2857142857142857,277.729450830628,2141.854937329526,21.0,12.0,9.0,0.5714285714285714,2073.993821346279,29341.42742500487,15.0,3.0,12.0,0.2,1617.582235905748,26413.73077639267,95.0,55.0,40.0,0.5789473684210527,484.9989777434092,8489.753366114332,,,,,57744.0,57769.0,57867.0,57874.0,57938.0,57959.0,57966.0,57981.0,58178.0,58246.0,0.07118042712298726,-0.1899141400896942,0.0562875379988329,-0.12890449434387127,0.05086189441780088
62,62,58581.273982700426,2679.07882548825,7.643896202583912,58740.30135639943,-2590.8788424645236,10.191861602905888,58770.12247873542,35682.66260893368,9.329775127638444,58788.87669549929,-12205.91166076,7.513535713597164,59039.50678199713,8784.120332996357,34.177966355441995,0.942693935901234,156.0,146.0,67.0,268.0,335.0,10.0,824.0,820.0,10.0,4.0,6.0,0.4,373.7407863980724,3816.5992473953825,14.0,7.0,7.0,0.5,600.1654400839833,3364.8363200057256,20.0,11.0,9.0,0.55,2108.421041485401,29867.195787392076,14.0,3.0,11.0,0.2142857142857142,1549.946936272923,25080.7109938595,77.0,47.0,30.0,0.6103896103896104,285.52515224797224,9468.410440991896,,,,,58577.0,58587.0,58733.0,58746.0,58759.0,58779.0,58786.0,58800.0,58994.0,59068.0,0.13950346770030547,-0.23164550585973656,0.05908810854707706,-0.12698329951508233,0.03250469499779457
63,63,59414.12330450071,2787.046976438884,12.73982700432024,59525.39728720114,-3368.865964747761,20.383723206912453,59601.7875111672,37995.65710927922,8.448090441452292,59621.60271279886,-8906.231290157444,11.811567256009326,59876.78076469755,8858.406497704524,30.31614621560111,0.933622713000408,107.0,91.0,123.0,264.0,387.0,16.0,832.0,833.0,19.0,9.0,10.0,0.4736842105263157,372.5168825010099,3281.344802945732,25.0,11.0,14.0,0.44,338.02957990519616,3900.727530977038,20.0,11.0,9.0,0.55,2118.924595739391,28550.30937842641,21.0,5.0,16.0,0.238095238095238,1392.993860401872,23354.072270667028,77.0,52.0,25.0,0.6753246753246753,284.7651313611179,10889.537620554793,,,,,59407.0,59423.0,59514.0,59539.0,59591.0,59611.0,59617.0,59637.0,59825.0,59901.0,0.1336600658870088,-0.10033927839290147,0.055767547055316266,-0.15640665675742257,0.0321463156420863
64,64,60243.92532556314,4474.319251010152,34.631945691825436,60399.72638753015,-2965.8213904236704,3.973690580747819,60427.44975118555,38101.857552572445,8.739523368744662,60447.30135639943,-8552.128070873061,6.492150504266411,60684.86308395371,9447.319906841109,47.50645771540691,0.9607092577448824,166.0,119.0,62.0,283.0,345.0,47.0,832.0,826.0,47.0,15.0,32.0,0.3191489361702128,281.63975104684954,6922.872856751749,11.0,6.0,5.0,0.5454545454545454,738.7369721919642,3860.7212981679263,20.0,10.0,10.0,0.5,2104.746762231352,34985.4758282283,14.0,3.0,11.0,0.2142857142857142,1565.6778411315986,22527.012618042863,98.0,42.0,56.0,0.4285714285714285,268.2110703240709,10897.515186780276,,,,,60229.0,60276.0,60395.0,60405.0,60417.0,60437.0,60445.0,60457.0,60649.0,60740.0,0.06294583270589481,-0.24908343252809131,0.05524000396377657,-0.18307464857361092,0.028390175517381454
65,65,61047.72244008574,3621.0707495091,22.291430871841445,61200.301356401775,-2806.2760905867867,10.191861603456186,61231.21049545252,39229.840090445585,8.767258433397238,61249.87669549929,-10340.027115569575,8.81997512991384,61490.827614194925,10329.064599947218,37.82217904314545,0.9519270944495514,172.0,125.0,65.0,267.0,332.0,47.0,799.0,803.0,60.0,31.0,29.0,0.5166666666666667,234.51035034991048,3602.03872907768,13.0,4.0,9.0,0.3076923076923077,491.273946495192,1144.5951684642796,19.0,10.0,9.0,0.5263157894736842,2332.3799928602434,34941.21295654605,18.0,4.0,14.0,0.2222222222222222,1569.8032631439344,24146.66666984504,89.0,48.0,41.0,0.5393258426966292,285.02025808108107,11640.371470309532,,,,,61026.0,61073.0,61198.0,61209.0,61221.0,61240.0,61247.0,61263.0,61469.0,61530.0,0.06476270876002699,-0.175062584947751,0.0594542314595948,-0.15181809927559967,0.027594004793283753
66,66,61863.726017299574,2572.534036314602,7.6438962025921695,61950.15067819976,-2767.40663557537,5.095930801728113,62026.45189845441,35787.79496198884,8.6786027824981,62047.040635652185,-11254.369732425292,7.6438962025921695,62287.95881659626,9254.73882725402,34.708529819919406,0.9192334354033804,87.0,79.0,110.0,268.0,378.0,8.0,822.0,796.0,9.0,5.0,4.0,0.5555555555555556,344.6347623969693,1480.0404385925222,6.0,3.0,3.0,0.5,353.20763062616913,2197.2130568547163,19.0,10.0,9.0,0.5263157894736842,2100.474023822223,31782.30058910201,16.0,5.0,11.0,0.3125,1511.9767890549838,25446.74142821981,81.0,39.0,42.0,0.4814814814814814,386.6099876519712,8872.41580632863,,,,,61860.0,61868.0,61947.0,61953.0,62016.0,62035.0,62043.0,62057.0,62251.0,62325.0,0.13396703698843618,-0.12763127257326026,0.058692468369543074,-0.13434575413839334,0.041774273144635304
67,67,62649.972626301,3571.4302045569634,17.056283495625745,62797.30135639951,-3079.272152526729,10.19186160343436,62833.117480362576,36838.54897123736,9.30392764026576,62850.87669549929,-12132.894823856395,9.449793747359292,63095.4108511954,9447.369576447369,36.97690400518159,0.9430483803740024,155.0,141.0,70.0,276.0,346.0,14.0,782.0,805.0,42.0,15.0,27.0,0.3571428571428571,397.3163322327244,3854.78089400152,19.0,7.0,12.0,0.3684210526315789,457.85485974878503,417.77310488151943,21.0,12.0,9.0,0.5714285714285714,2121.5800836391486,29269.280820487595,18.0,3.0,15.0,0.1666666666666666,1614.6731945943714,24798.04419258521,87.0,36.0,51.0,0.4137931034482758,371.4642045880194,10358.68432750024,,,,,62640.0,62654.0,62795.0,62804.0,62821.0,62842.0,62848.0,62865.0,63069.0,63141.0,0.11124852215388921,-0.14868931262639046,0.05759130429636701,-0.13308227080478008,0.03931932603908002
68,68,63456.12330450071,3975.706280444951,12.739827004320285,63603.20641314104,-2845.4804692620487,5.095930801728113,63631.99910041639,36090.05809922314,9.137444225859165,63650.87669549929,-11141.17150475238,6.980578482801431,63893.50420991389,9489.187296799884,37.42056640677573,0.9516515014782672,157.0,138.0,64.0,277.0,341.0,19.0,807.0,801.0,36.0,16.0,20.0,0.4444444444444444,350.25817422870483,3776.771066504186,12.0,6.0,6.0,0.5,654.9804157963026,3738.893244456314,20.0,11.0,9.0,0.55,2071.604615942002,30572.902024043935,13.0,3.0,10.0,0.2307692307692307,1576.5880477970854,24549.098208704883,80.0,36.0,44.0,0.45,324.9812737455852,10798.377458046856,,,,,63440.0,63459.0,63597.0,63606.0,63621.0,63641.0,63648.0,63661.0,63860.0,63938.0,0.08809961036394892,-0.23018271355985312,0.05740097758353552,-0.14151007792354475,0.034247534965948165
69,69,64242.52059170187,3949.9610928897537,21.42216271086609,64401.21375285818,-3979.605736997572,4.101486488320293,64428.31141167893,39619.780390923195,8.616014492238582,64447.45203459914,-9424.475260365598,9.118433559424687,64688.60301905266,9298.01689972323,37.8021435791059,0.9551611745524734,172.0,125.0,66.0,270.0,336.0,47.0,783.0,796.0,58.0,29.0,29.0,0.5,279.5812346397043,3388.755350464521,9.0,5.0,4.0,0.5555555555555556,818.9342462096846,4044.3931212256934,19.0,10.0,9.0,0.5263157894736842,2263.385992215865,34547.890366856336,18.0,3.0,15.0,0.1666666666666666,1530.2142466395117,24955.872692116147,86.0,40.0,46.0,0.4651162790697674,309.64718328594125,11060.607785857108,,,,,64224.0,64271.0,64396.0,64405.0,64418.0,64437.0,64444.0,64462.0,64665.0,64732.0,0.07078075658592509,-0.20578275847685668,0.05712767637486455,-0.16236598901954685,0.033302497363191325
70,70,65051.52995490537,4326.757272554567,18.734785720331622,65206.18573810773,-2542.1505808928273,5.504860057123455,65233.01961578766,38092.85925057755,8.44812849498637,65254.027373699,-9710.306909209628,7.206728009039908,65492.432474338275,10319.04152396503,40.61579158614464,0.9556668820521343,159.0,117.0,68.0,274.0,342.0,42.0,812.0,805.0,45.0,18.0,27.0,0.4,302.56080524539686,4363.708286869267,16.0,10.0,6.0,0.625,706.0156825950309,5828.073946664403,19.0,10.0,9.0,0.5263157894736842,2235.479143220708,34561.946649281745,15.0,5.0,10.0,0.3333333333333333,1453.1816955966326,23289.07146937263,89.0,43.0,46.0,0.4831460674157303,233.78971742669492,11000.379287783368,,,,,65037.0,65079.0,65196.0,65211.0,65223.0,65242.0,65249.0,65264.0,65453.0,65538.0,0.06992784346018133,-0.2777237854836559,0.05868499207464492,-0.1496535288929312,0.022656146589171068
71,71,65854.15067819973,2898.3261663816033,5.0959308016925835,66007.87669550383,-5201.545160233576,12.739827002144466,66037.90434479796,38991.42160944326,9.47227364345305,66054.87669549929,-16501.03719991459,10.061456380105572,66314.054747398,8526.02156645441,27.924243563738052,0.8861499827839091,139.0,132.0,79.0,266.0,345.0,7.0,806.0,803.0,8.0,5.0,3.0,0.625,264.599719406433,3553.38769322976,34.0,26.0,8.0,0.7647058823529411,650.0285958896261,1134.7357544742808,20.0,12.0,8.0,0.6,2275.6593387885537,27364.19988781355,20.0,3.0,17.0,0.15,1753.4050192513564,29055.677064889445,67.0,47.0,20.0,0.7014925373134329,381.37417060324304,9325.531765512227,,,,,65850.0,65857.0,65989.0,66015.0,66026.0,66046.0,66052.0,66068.0,66267.0,66334.0,0.09129397597675172,-0.12496836533481841,0.058363076924525775,-0.1062602912779587,0.04473061293954003
72,72,66662.14093276205,3190.521870299947,11.057714367449972,66807.72601729959,-4533.442904329688,7.643896202330647,66834.28399493324,38471.910433743025,8.999879167485176,66853.027373699,-12133.122616961173,10.130819475919823,67094.46203654919,8525.207245622578,37.2072824844432,0.9329681498988024,148.0,121.0,70.0,277.0,347.0,27.0,811.0,797.0,28.0,14.0,14.0,0.5,236.1737796249031,2911.4953034842933,15.0,11.0,4.0,0.7333333333333333,833.795330272215,3038.861998304323,19.0,10.0,9.0,0.5263157894736842,2205.338752184091,30684.297482055877,22.0,4.0,18.0,0.1818181818181818,1579.093028872288,26961.720327253777,120.0,66.0,54.0,0.55,348.4743561885153,7590.06379682653,,,,,66649.0,66676.0,66797.0,66812.0,66824.0,66843.0,66849.0,66867.0,67065.0,67144.0,0.07402355765788872,-0.1839209951173962,0.057323349096015455,-0.13014729008547538,0.04087576362057893
73,73,67444.32806553977,2881.975582460146,6.8919538114824785,67599.02737369935,-4863.905801226511,17.835757806047987,67632.39608195874,40022.90872743376,8.935934873988122,67649.87669549929,-11690.835316631554,12.73982700432026,67910.78076469757,8100.566837737564,26.98319439158631,0.9016453351402294,160.0,141.0,71.0,269.0,340.0,19.0,778.0,798.0,19.0,9.0,10.0,0.4736842105263157,285.52297454337344,3356.5934073320905,18.0,5.0,13.0,0.2777777777777778,546.4463211948436,2106.217286068856,19.0,10.0,9.0,0.5263157894736842,2143.553367585964,30314.180947717286,26.0,3.0,23.0,0.1153846153846153,1584.6723191834494,26645.56611828528,67.0,43.0,24.0,0.6417910447761194,338.15517207681455,7053.085026048839,,,,,67435.0,67454.0,67595.0,67611.0,67622.0,67641.0,67647.0,67666.0,67869.0,67935.0,0.09907196170608841,-0.11234722536300938,0.053558160457154946,-0.13554825436032542,0.04174463082033641
74,74,68231.972626301,4434.581428198167,17.8357578060484,68382.69864360057,-2033.3974992034464,6.957496832578732,68413.44460650993,37993.04457547296,8.699258007364016,68435.027373699,-10353.22144540252,7.687647668634526,68672.46529939139,9991.012442930292,40.139321448457046,0.9396008488688656,155.0,117.0,68.0,272.0,340.0,38.0,785.0,781.0,38.0,10.0,28.0,0.2631578947368421,313.4379260909051,3974.0143611252606,9.0,6.0,3.0,0.6666666666666666,620.0671033367822,3034.392144754795,20.0,10.0,10.0,0.5,2136.7901621723145,34585.67815566986,16.0,5.0,11.0,0.3125,1500.607739901994,21472.728458271777,87.0,41.0,46.0,0.4712643678160919,262.30426478395106,10713.098787181829,,,,,68222.0,68260.0,68377.0,68385.0,68403.0,68423.0,68430.0,68445.0,68636.0,68717.0,0.07068038577391945,-0.30494141139628844,0.05624161438095843,-0.14494114202187358,0.0262540224308858
75,75,69016.027373699,2816.460598339318,14.935605252845328,69151.027373699,-2940.6569294106016,17.83575780604362,69183.19488939982,37466.401159715606,8.856261296876738,69204.027373699,-10755.827229859642,8.105064899970806,69444.36991350215,9326.477227495625,34.85148910530716,0.9307377574243486,109.0,93.0,95.0,265.0,360.0,16.0,790.0,771.0,24.0,14.0,10.0,0.5833333333333334,327.69189028348995,2819.6109632319876,52.0,41.0,11.0,0.7884615384615384,385.8848504052022,1123.8526071297615,20.0,10.0,10.0,0.5,2213.6123445973108,32086.630896228715,16.0,5.0,11.0,0.3125,1490.6298133854807,23652.7844729955,66.0,22.0,44.0,0.3333333333333333,294.2799711326189,10382.98943268626,,,,,69010.0,69026.0,69119.0,69161.0,69173.0,69193.0,69199.0,69214.0,69423.0,69479.0,0.11634882819830973,-0.1312240290752126,0.05908259870385996,-0.13858811428722928,0.03155317532594672
76,76,69739.12330450071,3328.0690946637915,12.73982700432028,69902.52029441041,-6956.80860777358,5.397275668858971,69931.34995288945,39249.097054853184,8.563177147197752,69951.60271279886,-10772.279317372504,9.948816332850406,70193.10949479598,9969.614363466935,33.81531781020168,0.9427365221249258,164.0,131.0,67.0,270.0,337.0,33.0,718.0,748.0,42.0,8.0,34.0,0.1904761904761904,305.5844693581272,5165.959442495656,13.0,7.0,6.0,0.5384615384615384,882.0866590083816,366.0993502373085,19.0,10.0,9.0,0.5263157894736842,2283.326688764997,33319.1949121745,20.0,5.0,15.0,0.25,1472.6657188689833,24179.02390044433,91.0,46.0,45.0,0.5054945054945055,252.07636826469695,10388.073823180468,,,,,69732.0,69765.0,69896.0,69909.0,69921.0,69940.0,69947.0,69963.0,70153.0,70233.0,0.09182035007869871,-0.1267947285516426,0.05817526669655351,-0.13670883157420627,0.025284465283673955
77,77,70500.23188714546,2866.5001384880456,17.416514265986915,70627.12330450071,-3843.0473274765473,12.739827004320285,70683.72774840964,40320.24328054083,8.896047912649628,70702.027373699,-13615.79495112576,10.466491641861998,70942.68483389584,9456.237173250734,36.34880617151889,0.9439841998992848,140.0,95.0,97.0,267.0,364.0,45.0,758.0,751.0,46.0,21.0,25.0,0.4565217391304347,255.30370075225633,3020.6707872377033,20.0,9.0,11.0,0.45,294.02860893147016,3472.816902306159,20.0,12.0,8.0,0.6,2301.212663316226,28240.31421075524,19.0,4.0,15.0,0.2105263157894736,1671.859431004352,29205.600640973345,97.0,50.0,47.0,0.5154639175257731,402.5057379942528,10559.25065904749,,,,,70480.0,70525.0,70620.0,70635.0,70672.0,70692.0,70698.0,70717.0,70916.0,70984.0,0.08906460436695389,-0.0765092344372812,0.05707338240260139,-0.122788235061231,0.04256510603740335
78,78,71297.87669549929,4203.254327966209,12.73982700431229,71437.99541966355,-3207.904642317098,3.986886243659253,71466.0340239749,35532.849101857115,8.771715265586211,71488.60271279886,-10584.903663316123,7.7022343592381075,71741.08212109699,8336.984509855594,32.56968749605783,0.9486644047775707,145.0,128.0,67.0,271.0,338.0,17.0,805.0,783.0,20.0,10.0,10.0,0.5,365.9923863262787,3801.967457702988,9.0,5.0,4.0,0.5555555555555556,646.291659764725,3887.4812673034703,20.0,10.0,10.0,0.5,2016.3253902222343,31023.561522688942,18.0,7.0,11.0,0.3888888888888889,1339.316297488176,20408.011588587513,82.0,49.0,33.0,0.5975609756097561,318.8941104076724,7963.854220292726,,,,,71288.0,71305.0,71433.0,71442.0,71456.0,71476.0,71483.0,71500.0,71693.0,71771.0,0.08707357627425989,-0.20146847610093008,0.05674539028498144,-0.12653079707563292,0.03825053411466588
79,79,72077.60271279886,3774.6967947265744,20.383723186215516,72222.30135639943,-1871.7178745557128,10.191861603434248,72254.81716978911,36276.668058213414,8.584039845694946,72275.45203459915,-9861.481092279508,7.00256547174407,72517.10949479598,9201.725477161695,39.361468274676966,0.9552747294132528,147.0,123.0,72.0,273.0,345.0,24.0,781.0,789.0,33.0,20.0,13.0,0.6060606060606061,360.20941009718445,3496.160551996581,18.0,11.0,7.0,0.6111111111111112,456.4758112109983,2353.1668228559365,19.0,10.0,9.0,0.5263157894736842,2183.472635794604,32482.736052784203,14.0,4.0,10.0,0.2857142857142857,1486.2907508403382,23251.86731813365,97.0,51.0,46.0,0.5257731958762887,229.9696549178097,8979.281484477393,,,,,72065.0,72089.0,72212.0,72228.0,72245.0,72264.0,72271.0,72284.0,72469.0,72557.0,0.09542737594193357,-0.24388067102225616,0.060189448278181734,-0.15071678756286883,0.024992014322594704
80,80,72879.12330450071,3558.6152424679217,12.739827004320285,73035.45203459922,-3167.1488976584014,15.28779239847785,73067.04500277156,34792.26571675844,9.190174729160228,73085.45203459915,-10786.648623058723,7.555018020974854,73327.0845761593,8219.806161585826,35.806526250912974,0.9493646939732217,157.0,144.0,66.0,275.0,341.0,13.0,796.0,813.0,19.0,8.0,11.0,0.4210526315789473,300.1367968629256,4397.058379559678,15.0,6.0,9.0,0.4,485.73794860649286,522.7327006041154,19.0,10.0,9.0,0.5263157894736842,2055.263102363554,29567.151323452268,17.0,3.0,14.0,0.1764705882352941,1469.2563791110992,23800.118712800708,71.0,28.0,43.0,0.3943661971830985,250.4748764430748,8083.693926246368,,,,,72872.0,72885.0,73029.0,73044.0,73057.0,73076.0,73082.0,73095.0,73300.0,73370.0,0.08434089566108273,-0.15336757579210064,0.059072413366100286,-0.13621064618441872,0.030472114733512322
81,81,73702.63008649785,3286.064031194656,17.453559910555875,73856.27852206113,-3052.9065930687343,6.431637692403246,73886.39876618519,36497.437871612674,8.536474499001635,73907.027373699,-11095.236162770529,8.058319253108616,74153.38347749642,9128.273588992768,32.09530806964586,0.94524447435493,162.0,125.0,68.0,272.0,340.0,37.0,832.0,819.0,39.0,17.0,22.0,0.4358974358974359,280.49924176940004,3001.3383246787143,16.0,8.0,8.0,0.5,522.1389207702799,1577.7633606002864,20.0,10.0,10.0,0.5,2206.0564733075885,30922.86294432277,16.0,6.0,10.0,0.375,1482.3853099084906,24070.184329686963,79.0,42.0,37.0,0.5316455696202531,332.8326163975467,9706.51152352486,,,,,73687.0,73724.0,73849.0,73863.0,73876.0,73896.0,73901.0,73917.0,74125.0,74189.0,0.08536024834166847,-0.17103010028401622,0.060444146273167194,-0.13360556622332703,0.03646172665101639
82,82,75307.12330450071,3197.080387967868,12.739827004320196,75463.69688701541,-4020.3380917856407,5.2399838995997765,75492.90900201946,35871.660659723566,8.444598517869766,75512.60271279886,-9867.400163595448,9.109541756306848,75764.08212109699,8038.206241127617,32.91186572826842,0.9411182844971556,157.0,145.0,67.0,270.0,337.0,12.0,1596.0,1606.0,19.0,12.0,7.0,0.631578947368421,288.26493909183876,4381.3149979566515,12.0,7.0,5.0,0.5833333333333334,649.9773042075298,1718.7358302640048,20.0,11.0,9.0,0.55,2104.345591148485,29469.83645757035,16.0,5.0,11.0,0.3125,1454.9515232130027,24130.222602449077,64.0,34.0,30.0,0.53125,220.0475816209303,8323.768005487664,,,,,75300.0,75312.0,75457.0,75469.0,75482.0,75502.0,75508.0,75524.0,75732.0,75794.0,0.0901650581501537,-0.16167229953509735,0.05866317735078344,-0.14745034143652816,0.027375209719682624
83,83,76943.18187748094,4286.340651448671,24.20571043248605,77098.15067819973,-2892.3150969256976,4.035122725002659,77123.4262622947,36978.62855918265,8.870990822444016,77143.60271279886,-10953.25940683164,8.000492599465828,77380.7249599925,9856.04611579714,44.42279088072391,0.9561810096160142,171.0,128.0,60.0,275.0,335.0,43.0,1638.0,1631.0,43.0,19.0,24.0,0.4418604651162791,326.3901870057245,5683.0365825759345,13.0,9.0,4.0,0.6923076923076923,833.5438662041744,7220.257884234705,20.0,10.0,10.0,0.5,2116.188635611031,32527.013408930412,17.0,5.0,12.0,0.2941176470588235,1518.5663768109116,23181.84888892953,90.0,40.0,50.0,0.4444444444444444,291.9176524838379,10445.467643099808,,,,,76924.0,76967.0,77095.0,77101.0,77113.0,77133.0,77139.0,77155.0,77342.0,77430.0,0.07614658132582465,-0.2881926201920965,0.05722734233434766,-0.1386405927594273,0.029618129730131452
84,84,77750.04998315705,3862.914059622083,15.048703657056654,77881.3013622334,-2876.6448459835196,10.191861603456228,77930.35408231498,40124.56916664636,8.408199950040164,77948.45203459915,-11870.154749889136,10.127839896646602,78189.02476805236,9468.903700571927,37.59725690479574,0.9472883896635288,146.0,111.0,85.0,269.0,354.0,35.0,811.0,806.0,43.0,20.0,23.0,0.4651162790697674,279.6209408925955,2266.9412981672285,13.0,5.0,8.0,0.3846153846153846,377.08899065632016,3145.709597789558,20.0,11.0,9.0,0.55,2329.598758261745,32322.475299333342,17.0,3.0,14.0,0.1764705882352941,1685.5507716887878,27491.87435586065,73.0,30.0,43.0,0.410958904109589,274.24963232956276,10932.22157591904,,,,,77731.0,77766.0,77877.0,77887.0,77919.0,77939.0,77945.0,77962.0,78162.0,78231.0,0.07238601133154679,-0.1310863908635875,0.05805915942888751,-0.14199905622161585,0.028963187397607382
85,85,79355.972626301,2603.8654347402553,17.73651972348543,79507.27398270041,-3813.805038997462,7.64389620259217,79542.5112629734,37546.560507369206,8.21752299524441,79562.027373699,-9491.108275569348,9.818197910574336,79803.21923530243,8424.047958593437,33.11474785091086,0.9398301418886236,161.0,143.0,71.0,270.0,341.0,18.0,1599.0,1613.0,43.0,14.0,29.0,0.3255813953488372,306.02257146994054,3744.686973379484,17.0,4.0,13.0,0.2352941176470588,515.9298799000665,3271.321305997968,19.0,11.0,8.0,0.5789473684210527,2310.46403312906,30596.64792625404,17.0,5.0,12.0,0.2941176470588235,1492.024388363763,23954.97520448263,70.0,25.0,45.0,0.3571428571428571,276.6241662194062,9241.919107554637,,,,,79342.0,79360.0,79503.0,79520.0,79532.0,79551.0,79558.0,79574.0,79779.0,79844.0,0.11752626206679047,-0.1352795632247865,0.06153597032344917,-0.15720233560124042,0.03283743962274333
86,86,80170.30135639943,3311.385673154064,10.191861603456228,80300.32873009867,-3078.2015774867937,28.02761940950413,80356.80612924793,39510.23679697853,8.763548226690911,80376.027373699,-11444.759508544164,10.555136010820991,80619.95881659626,9186.858737308849,32.99020324163437,0.9345982579885616,135.0,118.0,97.0,266.0,363.0,17.0,819.0,814.0,18.0,11.0,7.0,0.6111111111111112,342.52822248338947,4084.9433864234247,39.0,6.0,33.0,0.1538461538461538,267.1878413764151,3615.520033255541,19.0,11.0,8.0,0.5789473684210527,2230.218704064499,30470.40398966343,20.0,4.0,16.0,0.2,1586.61164290688,26664.30994620765,86.0,42.0,44.0,0.4883720930232558,297.5123748306315,8194.655010526234,,,,,80159.0,80176.0,80294.0,80328.0,80346.0,80365.0,80372.0,80391.0,80580.0,80657.0,0.10343954353016649,-0.08679998195393084,0.05644660434520734,-0.13863215227217174,0.03238455965610975
87,87,81819.87669549929,3094.921788902564,12.739827004319643,81961.72601729959,-3192.822061462675,7.64389620259217,81989.52620461519,38561.416388175254,9.018959143803384,82007.30135639943,-12015.623628516769,9.876743836059417,82250.10761405101,8725.788627481073,33.5436086282132,0.942377027673926,116.0,102.0,91.0,271.0,362.0,14.0,1650.0,1631.0,16.0,4.0,12.0,0.25,292.2085254142688,3211.8279086476405,34.0,30.0,4.0,0.8823529411764706,764.2680896206733,5105.592438150391,20.0,12.0,8.0,0.6,2227.2254409724624,28399.994707341804,21.0,3.0,18.0,0.1428571428571428,1574.0607602567688,26360.743898154848,95.0,50.0,45.0,0.5263157894736842,346.49260339032446,7263.357744390181,,,,,81817.0,81831.0,81933.0,81966.0,81978.0,81998.0,82005.0,82024.0,82210.0,82295.0,0.09441547972618841,-0.2393707118368356,0.057757874310224624,-0.13100117055273258,0.039709030115521904
88,88,82632.30135639943,5073.813391384846,10.191861603456228,82784.61080636241,-2542.202699208173,7.199250917695468,82816.72323664378,38030.52304487432,8.563935978151239,82839.027373699,-10545.442280538762,7.117226195666485,83076.84783593527,10838.222221568156,37.687861176305056,0.9500812915593126,164.0,141.0,70.0,267.0,337.0,23.0,812.0,830.0,24.0,17.0,7.0,0.7083333333333334,385.114387384664,4782.181693866469,17.0,8.0,9.0,0.4705882352941176,470.1363631863,1772.9956679385189,20.0,11.0,9.0,0.55,2226.209897483307,33687.0026054942,16.0,6.0,10.0,0.375,1443.7156179316146,21510.716625544475,96.0,45.0,51.0,0.46875,330.4144406865719,11385.939032064292,,,,,82615.0,82638.0,82779.0,82793.0,82806.0,82826.0,82833.0,82849.0,83046.0,83116.0,0.07590235542335366,-0.184932681934739,0.058537451479604395,-0.1369042264444366,0.03048603672556596
89,89,83450.61417978008,3083.4145202339396,13.479553540509771,83597.75339099858,-2878.4202992153646,25.47965400864057,83635.03907359022,36959.108092427174,9.209731396859656,83654.45203459915,-13014.762734401857,10.41975787338638,83898.80813839656,9108.38278764647,33.06418964609358,0.9343912564602423,152.0,135.0,79.0,264.0,343.0,17.0,815.0,817.0,31.0,14.0,17.0,0.4516129032258064,315.99359207486503,2779.4971569039126,23.0,9.0,14.0,0.391304347826087,347.47183818054503,1268.940376924602,19.0,11.0,8.0,0.5789473684210527,2169.9580810119937,29255.578716601965,20.0,4.0,16.0,0.2,1537.7168759144708,26816.86972274993,100.0,56.0,44.0,0.56,432.2013147645493,7484.604682295127,,,,,83438.0,83455.0,83590.0,83612.0,83624.0,83643.0,83651.0,83669.0,83862.0,83933.0,0.10248170980620877,-0.12071615749627086,0.05871240387039028,-0.11815174101098529,0.047450938859391806
90,90,84282.72601729959,4337.861300387994,7.64389620259217,84439.72601729959,-3848.3640105299874,3.8289495702627137,84466.49802889688,36710.055748579085,8.454868171344339,84487.87669549929,-9802.66097898368,6.192295902379929,84729.97964350818,9560.426610825134,35.03272068834519,0.9463172371815444,168.0,146.0,62.0,276.0,338.0,22.0,835.0,832.0,25.0,20.0,5.0,0.8,321.8579028967244,4240.086785462463,11.0,7.0,4.0,0.6363636363636364,785.3778051329663,3777.3244304448326,20.0,10.0,10.0,0.5,2104.050704684507,33834.68757519434,12.0,5.0,7.0,0.4166666666666667,1436.0681932242749,22906.049430621108,80.0,38.0,42.0,0.475,330.2302442116321,10896.671154378077,,,,,84265.0,84287.0,84433.0,84444.0,84456.0,84476.0,84483.0,84495.0,84708.0,84771.0,0.07419737068770187,-0.20408095569545823,0.05731537753837236,-0.14649779241607144,0.03454137118083383
91,91,85136.87669549929,3568.277613760612,12.739827004320285,85280.72601729972,-2588.7080299530517,7.64389620259217,85311.73659754112,37575.16576694524,8.789686001684395,85331.45203459915,-9701.185935172289,8.646757629022037,85575.41070041411,10198.611791741372,34.89318207337358,0.9429496719161102,161.0,135.0,62.0,275.0,337.0,26.0,855.0,845.0,29.0,21.0,8.0,0.7241379310344828,235.9065602087419,2358.872057996049,9.0,2.0,7.0,0.2222222222222222,580.817208473084,2610.403326042197,20.0,11.0,9.0,0.55,2113.4627832159354,30647.43127696393,21.0,4.0,17.0,0.1904761904761904,1585.1705429340727,24061.276696671375,76.0,35.0,41.0,0.4605263157894737,406.43370411588086,12334.188770117076,,,,,85118.0,85144.0,85279.0,85288.0,85301.0,85321.0,85328.0,85341.0,85540.0,85616.0,0.06611216551621377,-0.2243656688018299,0.05624626638573987,-0.16339966613637746,0.039851865372991506
92,92,85953.12330450071,3749.315300935085,12.739827004320285,86108.6027127989,-3026.7314454341567,20.38372320691092,86144.22009266129,37800.01626868464,9.756885504619438,86161.87669549929,-15398.495066224445,9.199689184248982,86404.41515306804,9443.121685556098,36.64053296369474,0.9351284242945708,157.0,140.0,73.0,272.0,345.0,17.0,812.0,832.0,42.0,8.0,34.0,0.1904761904761904,355.85845747510746,4421.476545876076,22.0,10.0,12.0,0.4545454545454545,488.36230035023294,368.73283507214376,20.0,11.0,9.0,0.55,2222.5759474324177,28765.528909647608,20.0,4.0,16.0,0.2,1632.6550017463005,27587.356329771043,88.0,44.0,44.0,0.5,293.6852948876955,10975.929803172152,,,,,85946.0,85963.0,86103.0,86120.0,86133.0,86153.0,86159.0,86176.0,86360.0,86448.0,0.09491291846976856,-0.16134972961903526,0.05879828018152752,-0.10602691982071798,0.0311004458765905
93,93,86817.00224221993,3123.1545870802415,13.924500378247782,86935.69864360057,-3051.759217690227,10.191861603456228,87001.90736195663,37208.71675120491,8.481304650746665,87020.12792054653,-11695.700762713495,8.70767643310624,87265.66057120776,8294.647363214532,32.25003579274616,0.9428853991078144,121.0,99.0,109.0,272.0,381.0,22.0,867.0,858.0,22.0,14.0,8.0,0.6363636363636364,354.95968747876213,3579.1176162865568,32.0,15.0,17.0,0.46875,225.7088270302529,2960.834395970828,19.0,11.0,8.0,0.5789473684210527,2242.2522554608895,29491.427809079574,16.0,3.0,13.0,0.1875,1609.471531977709,26042.62899475561,71.0,27.0,44.0,0.380281690140845,308.84016190214896,8146.28606359783,,,,,86803.0,86825.0,86924.0,86938.0,86991.0,87010.0,87017.0,87033.0,87241.0,87305.0,0.11365421646022492,-0.07396023438608117,0.06026147771914977,-0.1376122358660875,0.03723366990522189
94,94,87672.96725899185,3762.5324377016864,22.93168860777651,87830.170774816,-3162.4647710564577,5.762471279115852,87858.90680022904,36969.24129102251,8.518273224430786,87880.027373699,-9874.134389616012,8.326502553097708,88126.53415569612,10041.394437542189,38.4509121599293,0.9407396305263463,170.0,140.0,66.0,275.0,341.0,30.0,857.0,856.0,49.0,22.0,27.0,0.4489795918367347,272.25375927248336,3104.602538899054,14.0,7.0,7.0,0.5,591.2427425833647,2619.4970278113283,20.0,11.0,9.0,0.55,2189.5461192525386,31459.62963505912,15.0,5.0,10.0,0.3333333333333333,1411.1760104167215,23369.28236981186,95.0,54.0,41.0,0.5684210526315789,299.33691375587875,9530.59416510251,,,,,87654.0,87684.0,87824.0,87837.0,87848.0,87868.0,87875.0,87890.0,88079.0,88165.0,0.07235917929754446,-0.18695630951988543,0.05922615782175224,-0.1429164273782585,0.02981029334299777
95,95,88502.27398270041,3467.1926106387073,7.64389620259217,88664.87669549929,-2482.7708728053803,12.739827004320285,88699.23771874847,36572.26236527461,8.958146944165646,88717.30135639943,-11740.32388855151,9.16313269258163,88973.47940829814,9348.457128282264,30.676795633308316,0.9236701627031498,164.0,152.0,67.0,263.0,330.0,12.0,826.0,840.0,12.0,4.0,8.0,0.3333333333333333,358.12568894374436,4954.009303847016,74.0,65.0,9.0,0.8783783783783784,363.37903092933135,159.59587676400815,20.0,11.0,9.0,0.55,2090.7365763427124,29388.183527416422,17.0,3.0,14.0,0.1764705882352941,1610.5548666058908,25822.688436777717,55.0,30.0,25.0,0.5454545454545454,325.1797459940973,9852.462978019465,,,,,88498.0,88510.0,88662.0,88674.0,88688.0,88708.0,88715.0,88729.0,88944.0,88992.0,0.10328981662134207,-0.14636027629836623,0.05716727489978493,-0.13718146806634623,0.03478432232526562
96,96,89366.972626301,2563.234809904263,15.326290908556931,89526.30135639943,-4608.2725877475505,10.191861603454818,89553.60182680728,35135.27982396517,8.806190014420821,89575.027373699,-8458.00421282709,10.677333408609067,89817.20298636738,8787.915410375355,34.74556261382261,0.9431870915585104,160.0,144.0,70.0,275.0,345.0,16.0,863.0,857.0,19.0,14.0,5.0,0.7368421052631579,234.62751587492437,3479.9027473597876,18.0,12.0,6.0,0.6666666666666666,696.7009238377892,2290.298021328682,20.0,11.0,9.0,0.55,2003.84731373129,29109.002289775177,16.0,5.0,11.0,0.3125,1283.3028693031806,21493.339298373183,90.0,46.0,44.0,0.5111111111111111,275.7683708398225,8285.303187473233,,,,,89355.0,89371.0,89515.0,89532.0,89543.0,89563.0,89570.0,89585.0,89779.0,89860.0,0.09153570908460304,-0.15118483348623382,0.05703234252782299,-0.15172644006927447,0.03138040797641721
97,97,90243.7260172996,3621.7225469203263,6.054656087820699,90367.02737370164,-2709.916815611463,17.83575780382062,90405.40554638872,37954.0680443708,8.978606682080805,90424.60271279886,-14060.334800498658,9.32714525595861,90666.56840381662,8707.89288680272,35.16351020206937,0.9266533567925048,126.0,108.0,80.0,276.0,356.0,18.0,881.0,850.0,18.0,14.0,4.0,0.7777777777777778,396.6910038274937,2095.7513898515354,29.0,12.0,17.0,0.4137931034482758,317.26116042959814,2354.2970670688874,19.0,10.0,9.0,0.5263157894736842,2247.472080955861,30231.575343243167,17.0,5.0,12.0,0.2941176470588235,1579.6526392237304,27151.971997153105,101.0,51.0,50.0,0.504950495049505,278.5118115683662,7448.823781467062,,,,,90230.0,90248.0,90356.0,90377.0,90395.0,90414.0,90420.0,90436.0,90630.0,90712.0,0.10953103079771076,-0.11707413253495445,0.059215578112164914,-0.11234815256089827,0.031983835261738904
98,98,91061.84932180028,2561.101798892551,5.095930801728113,91204.69864360055,-3393.609860975678,10.191861603456228,91241.46066604822,38231.25903299873,8.533677307001813,91260.027373699,-9658.471439555296,13.008059382658724,91504.18999317408,8296.942785391228,31.012055589037104,0.925464963143343,140.0,134.0,74.0,272.0,346.0,6.0,816.0,837.0,6.0,3.0,3.0,0.5,295.9404716959074,3027.4083127707186,20.0,7.0,13.0,0.35,372.5082014506304,2626.118415212286,19.0,10.0,9.0,0.5263157894736842,2097.3910630176233,29600.307769057872,22.0,4.0,18.0,0.1818181818181818,1483.2147575796107,25151.37763878092,74.0,33.0,41.0,0.4459459459459459,264.4425032403632,7649.571882736782,,,,,91059.0,91065.0,91199.0,91218.0,91231.0,91250.0,91256.0,91273.0,91473.0,91545.0,0.11555201430254562,-0.10976753861256539,0.0548606327928487,-0.1535662000826812,0.031872282367184465
99,99,91903.82194810128,3981.499823580648,16.288722268820667,92063.52490110548,-4029.3319190687857,5.22955424630682,92092.16201714528,34716.09371207,8.286974974009976,92113.87669549928,-10092.611633432583,6.199508821312611,92371.78076469756,9381.118089467318,31.673199830501016,0.9216185665914536,167.0,141.0,63.0,275.0,338.0,26.0,839.0,852.0,26.0,13.0,13.0,0.5,319.0299120640759,4138.178485437336,13.0,7.0,6.0,0.5384615384615384,668.7809534535744,2854.3040655439586,20.0,10.0,10.0,0.5,2059.5994134459265,30576.351129465605,13.0,6.0,7.0,0.4615384615384615,1415.671856608101,21539.782727093065,80.0,55.0,25.0,0.6875,294.98455218236995,9379.74200675766,,,,,91891.0,91917.0,92058.0,92070.0,92082.0,92102.0,92108.0,92121.0,92323.0,92396.0,0.08012807389180429,-0.16597812413729757,0.059326934375967845,-0.14026813950896266,0.031444498339016205
100,100,92777.15067819972,3867.8115328052104,5.095930801728113,92914.15067819972,-3556.221811946336,3.809518891289701,92940.45884359728,36470.5645472333,9.03714839590195,92959.45203459916,-12781.56402639568,8.180391812176529,93201.2260588054,9399.7177464427,36.82100442296605,0.9193357056539314,163.0,128.0,64.0,275.0,339.0,35.0,878.0,846.0,36.0,32.0,4.0,0.8888888888888888,394.5904317825788,2815.360297571338,10.0,7.0,3.0,0.7,831.8766597441779,5922.370663201476,19.0,10.0,9.0,0.5263157894736842,2191.69345616725,31071.889597456044,17.0,4.0,13.0,0.2352941176470588,1680.5430073709044,26485.719340736297,85.0,39.0,46.0,0.4588235294117647,349.5808258481182,10428.557164112835,,,,,92745.0,92780.0,92908.0,92917.0,92930.0,92949.0,92956.0,92972.0,93163.0,93247.0,0.10201904318135012,-0.23392147726828325,0.060094859604620916,-0.13148179705553664,0.03719056627848386
101,101,93575.12330450072,3890.098031723271,12.73982700432024,93745.7260172996,-3140.50704653532,4.904396673392389,93772.45333013656,36828.5156947142,8.743971635445128,93792.02737369902,-11039.215968525888,8.279438666610096,94047.2327992967,9015.993011212991,34.66133095245837,0.9244209411635048,171.0,118.0,63.0,278.0,341.0,53.0,795.0,833.0,57.0,11.0,46.0,0.1929824561403508,301.1270456656835,4782.118939952242,14.0,10.0,4.0,0.7142857142857143,783.6195594076261,5753.036657196575,19.0,10.0,9.0,0.5263157894736842,2177.533128706468,31641.592745781843,15.0,4.0,11.0,0.2666666666666666,1569.8237313750744,24390.678812060796,87.0,52.0,35.0,0.5977011494252874,426.6242536026981,8338.897057468657,,,,,93568.0,93621.0,93739.0,93750.0,93762.0,93781.0,93788.0,93802.0,94001.0,94080.0,0.0774086008141773,-0.24952007678891638,0.05912627993907985,-0.14220427753663192,0.04731860961650203
102,102,94435.12308314048,3323.2150450109984,12.739827004320285,94580.45203459916,-2816.2121630987745,15.28779240518434,94615.19177663798,38321.30405182578,8.612035675626565,94632.87669549928,-11304.797245051896,9.486575168729484,94877.71061809977,9508.895748581392,34.25778395765237,0.9514028464282284,157.0,139.0,68.0,277.0,345.0,18.0,860.0,842.0,25.0,19.0,6.0,0.76,299.1341778162118,3297.2339685752145,21.0,10.0,11.0,0.4761904761904761,394.5326093801699,1750.5452755245556,19.0,10.0,9.0,0.5263157894736842,2279.196575587745,32110.115496278253,18.0,3.0,15.0,0.1666666666666666,1587.9937060633883,25208.72459906872,86.0,40.0,46.0,0.4651162790697674,377.44349862718497,10518.601517974505,,,,,94420.0,94438.0,94577.0,94591.0,94605.0,94624.0,94630.0,94645.0,94841.0,94922.0,0.0900134880724283,-0.14009335466616699,0.05947596596674677,-0.14047078170804456,0.03969372560252275
103,103,95252.93681551446,3909.218915384622,15.769366782236675,95372.39728720114,-2665.408324566138,20.383723206912453,95435.95060319638,40325.11440392213,8.629315001727843,95453.87669549928,-12096.584682560557,10.94003638817989,95698.96286000332,10048.625423069048,34.31787050535188,0.9487164701345664,126.0,102.0,105.0,271.0,376.0,24.0,819.0,820.0,24.0,18.0,6.0,0.75,307.3300162539194,4439.365884841518,55.0,13.0,42.0,0.2363636363636363,280.53078187994674,2699.9067975026132,19.0,11.0,8.0,0.5789473684210527,2279.3474032368263,30643.771033594785,16.0,3.0,13.0,0.1875,1698.022985107061,27577.44607785416,81.0,37.0,44.0,0.4567901234567901,340.5348241619176,10781.130035473569,,,,,95235.0,95259.0,95361.0,95385.0,95425.0,95444.0,95451.0,95466.0,95663.0,95737.0,0.07861673211608351,-0.10524870778499205,0.05652426377282963,-0.14037209920541227,0.033888697192367985
104,104,96859.71671180724,3130.2174063337957,19.230836250200618,97004.5804400651,-2620.0662439452835,25.47965400864057,97040.32807687292,37379.88860736977,9.319013608782752,97059.45203459916,-10919.277288083716,8.826055505133446,97304.10949479598,9223.417561745588,34.42716167362433,0.9581632446906212,150.0,125.0,74.0,275.0,349.0,25.0,1610.0,1605.0,25.0,15.0,10.0,0.6,267.26128381374104,4291.926586313284,23.0,10.0,13.0,0.4347826086956521,380.4377422145621,1872.762141926794,21.0,11.0,10.0,0.5238095238095238,2063.405019219587,31524.48643399128,20.0,3.0,17.0,0.15,1505.0386148171538,24889.85283362407,79.0,36.0,43.0,0.4556962025316455,307.7488206310713,9031.043639001466,,,,,96845.0,96870.0,96995.0,97018.0,97029.0,97050.0,97056.0,97069.0,97268.0,97344.0,0.08538106115982706,-0.14520157385093466,0.05520094082925567,-0.1378331711073601,0.03336602930213949
105,105,97671.16002399308,2599.6126105649514,7.64389620259217,97814.7260172996,-4442.245116262045,7.64389620254546,97841.29313579404,35729.6451736969,8.995539222178724,97862.17805189872,-11667.280780573752,9.316974497522883,98103.98143121164,9371.897239951362,31.635861930693594,0.9332897984209456,136.0,121.0,73.0,265.0,338.0,15.0,808.0,801.0,17.0,5.0,12.0,0.2941176470588235,266.0755054563447,2188.6299177963124,16.0,12.0,4.0,0.75,811.3401801775515,4443.621166326646,20.0,11.0,9.0,0.55,2177.4199331031623,31023.61193738225,21.0,5.0,16.0,0.238095238095238,1429.2478474052289,23826.998972709393,85.0,43.0,42.0,0.5058823529411764,373.4968713566299,7586.237967063495,,,,,97667.0,97682.0,97803.0,97819.0,97830.0,97850.0,97857.0,97876.0,98068.0,98141.0,0.10235198289737515,-0.18264192068272425,0.0609415493078032,-0.12250051012614303,0.03985285602198603
106,106,98467.45203459916,3212.910345737423,14.265665212915945,98606.027373699,-3654.962622766627,17.8357578060484,98637.4970430623,40763.286416498704,8.897753784583237,98656.87669549928,-10782.51004079859,12.739827004320285,98898.5552773881,9614.602433306376,34.63197147052131,0.9452407196219378,137.0,119.0,75.0,259.0,334.0,18.0,800.0,797.0,18.0,3.0,15.0,0.1666666666666666,316.9754709176743,2508.2955872749153,17.0,7.0,10.0,0.4117647058823529,543.7761767437297,7.733970849972366,19.0,10.0,9.0,0.5263157894736842,2155.6023393636606,31739.976383221376,24.0,4.0,20.0,0.1666666666666666,1506.6991387119308,26853.44154547061,80.0,41.0,39.0,0.5125,356.92553696845334,10717.437914718246,,,,,98464.0,98482.0,98601.0,98616.0,98627.0,98646.0,98654.0,98676.0,98866.0,98935.0,0.09865680545310157,-0.14877749319693942,0.05288097523194776,-0.13973547281763898,0.037123275709457476
107,107,99217.69864360055,3600.294445398592,10.191861603456193,99376.69864360055,-3308.348756563278,10.191861603397689,99409.09939816578,37598.63496015679,8.654829600771713,99428.45203459916,-11060.557093162348,9.052574328860734,99677.35610379744,10529.255967618205,31.882095394138855,0.9224910515684376,159.0,140.0,68.0,264.0,332.0,19.0,746.0,771.0,22.0,6.0,16.0,0.2727272727272727,339.9025746969468,3964.5456399421178,16.0,6.0,10.0,0.375,573.7961449093076,823.102516133453,20.0,11.0,9.0,0.55,2240.837797845283,31288.706035615254,16.0,4.0,12.0,0.25,1582.769995238487,26552.90673248234,82.0,46.0,36.0,0.5609756097560976,307.01783646146447,9213.781728176184,,,,,99212.0,99231.0,99371.0,99387.0,99398.0,99418.0,99425.0,99439.0,99634.0,99703.0,0.09440966005748895,-0.1734388322183326,0.05959891363662258,-0.14310038652727153,0.029158549987356244
108,108,100019.30473197748,2978.395473403686,10.191861603456228,100179.30135639945,-3670.3374601352207,10.19186160345568,100208.07002943128,39375.18035403795,9.168898809924093,100225.87669549928,-14734.215025262269,11.063786935891851,100469.95881659626,9610.42293672083,32.54288562687412,0.9203986959438156,158.0,145.0,71.0,266.0,337.0,13.0,805.0,798.0,17.0,8.0,9.0,0.4705882352941176,320.1547329686211,2525.788471940976,16.0,10.0,6.0,0.625,649.262336672086,3261.158906201452,19.0,11.0,8.0,0.5789473684210527,2226.415689889135,28302.673842433174,19.0,3.0,16.0,0.1578947368421052,1679.8821072636974,29276.173444000196,93.0,48.0,45.0,0.5161290322580645,237.2730323477353,8423.752836272437,,,,,100012.0,100025.0,100170.0,100185.0,100197.0,100216.0,100223.0,100241.0,100437.0,100507.0,0.10749235144476998,-0.17689445281910568,0.05654363154328549,-0.11401232467311542,0.024689135317981663
109,109,100840.12330450072,3434.0714321373375,12.739827004314892,101008.7260172996,-4076.077369041696,7.64389620259217,101034.1322979511,37350.53441089705,9.075848894485135,101053.45203459916,-10083.922146382232,10.949211509770794,101303.082121097,9337.038104971942,32.776204560742514,0.940561087919808,165.0,152.0,76.0,262.0,338.0,13.0,817.0,826.0,24.0,15.0,9.0,0.625,376.19335703191337,3903.6538207777057,18.0,14.0,4.0,0.7777777777777778,939.3031214421468,6716.437278775168,20.0,11.0,9.0,0.55,2099.4126386416274,31306.671472451064,21.0,3.0,18.0,0.1428571428571428,1461.7694899167172,24655.441269759707,70.0,40.0,30.0,0.5714285714285714,270.4583922046027,10664.918158719984,,,,,100830.0,100843.0,100995.0,101013.0,101023.0,101043.0,101050.0,101071.0,101263.0,101333.0,0.10954733017821174,-0.23044290782512333,0.056208369485313756,-0.14496041011593394,0.028966187046038136
110,110,101700.027373699,4230.618031545066,10.704651808034956,101832.60271279886,-2569.3243261964276,20.383723206912453,101868.46651134352,37028.26411343538,8.811049220013599,101887.87669549928,-9172.50258156765,8.911095073598096,102132.39391975486,9544.094301327186,34.00627442679399,0.9382619595014624,139.0,118.0,71.0,274.0,345.0,21.0,865.0,836.0,23.0,12.0,11.0,0.5217391304347826,403.63406825084894,2767.6331958265723,37.0,24.0,13.0,0.6486486486486487,386.0147914500123,48.28146921819359,19.0,10.0,9.0,0.5263157894736842,2095.7436730294553,32935.00019630718,15.0,4.0,11.0,0.2666666666666666,1458.3007951992329,22842.906589598457,90.0,44.0,46.0,0.4888888888888889,220.38293262722587,10279.088593116696,,,,,101689.0,101710.0,101828.0,101846.0,101858.0,101877.0,101885.0,101899.0,102095.0,102173.0,0.09540782581674895,-0.1502398072186785,0.05659848559492782,-0.15898614170245326,0.0230910263110644
111,111,102565.027373699,3011.107104004364,17.8357578060484,102707.027373699,-2396.9134872584955,17.8357578060484,102737.9203987392,39001.17354946798,8.96229178282261,102757.027373699,-14175.21536661466,8.256812657391773,103000.83551209555,9737.152565841516,38.91265607848681,0.9516159324454226,147.0,125.0,70.0,275.0,345.0,22.0,865.0,868.0,34.0,24.0,10.0,0.7058823529411765,250.8521406125812,3489.316892282298,20.0,10.0,10.0,0.5,535.2825631973243,2392.7541082887865,20.0,11.0,9.0,0.55,2350.238439510728,30807.222108102844,17.0,4.0,13.0,0.2352941176470588,1683.5808846694397,28936.453870415586,97.0,46.0,51.0,0.4742268041237113,306.2185857051733,8903.563261897438,,,,,102553.0,102575.0,102700.0,102717.0,102727.0,102747.0,102753.0,102770.0,102956.0,103045.0,0.08330893985105407,-0.22332160340486942,0.06026071078424736,-0.11876933373686824,0.031448473630720904
112,112,103394.87669549928,4277.036531556614,12.739827003964669,103534.87669549928,-2782.090645861616,12.739827004319718,103567.96562172324,36390.36567918191,9.357882038509356,103586.30135639945,-11185.22590105962,8.71519806087659,103833.10949479598,9202.924899083637,36.34419659498408,0.9477103803324396,140.0,126.0,66.0,275.0,341.0,14.0,829.0,830.0,38.0,27.0,11.0,0.7105263157894737,374.7911705101497,2546.22291734406,32.0,24.0,8.0,0.75,514.0656403359499,1358.757354859956,20.0,11.0,9.0,0.55,2073.2962741917854,28889.85876293893,15.0,2.0,13.0,0.1333333333333333,1589.1751501362166,24624.01027893604,91.0,50.0,41.0,0.5494505494505495,222.75310268957665,10012.926997918184,,,,,103392.0,103406.0,103532.0,103543.0,103557.0,103577.0,103584.0,103598.0,103789.0,103873.0,0.08762870453522771,-0.18477674014706422,0.056973768619694595,-0.14207805583843128,0.024204598552331646
113,113,104245.66204957616,3401.0844794544987,15.030963717857793,104372.027373699,-2725.192469256787,17.8357578060484,104429.47751126856,36647.82656862942,9.272312165439947,104446.30135639945,-13829.402707100877,8.163160415771522,104699.80813839656,9105.334554901863,32.05931242998458,0.9479639488095636,135.0,100.0,92.0,276.0,368.0,35.0,849.0,863.0,35.0,15.0,20.0,0.4285714285714285,292.44667758064924,4262.112086068557,37.0,26.0,11.0,0.7027027027027027,242.95231652829665,2307.973348296878,21.0,12.0,9.0,0.5714285714285714,2118.8706844147423,28745.351263491604,16.0,2.0,14.0,0.125,1695.60402769516,24741.330557538902,73.0,37.0,36.0,0.5068493150684932,285.0817944763812,10085.7063923558,,,,,104231.0,104266.0,104366.0,104382.0,104417.0,104438.0,104444.0,104458.0,104664.0,104734.0,0.08598630211842162,-0.089150516621879,0.05781708992883355,-0.12260862335179026,0.03130931573765263
114,114,105114.17805189872,3566.846871812327,22.571068023927836,105251.69864360055,-2336.368861717241,10.191861603228288,105290.9226377123,38576.07982090771,9.124085282297392,105309.30135649248,-13601.65066697165,8.583688886232455,105559.10949479598,9655.192181173852,37.93329416720656,0.9453038902887654,157.0,119.0,74.0,279.0,353.0,38.0,872.0,861.0,68.0,34.0,34.0,0.5,380.7572602830763,2120.7326660590434,18.0,7.0,11.0,0.3888888888888889,310.6365945490938,3070.6511314424447,21.0,12.0,9.0,0.5714285714285714,2217.9432090586897,31126.550160669907,17.0,3.0,14.0,0.1764705882352941,1750.4633429616874,28201.64151145449,90.0,49.0,41.0,0.5444444444444444,314.64745498421127,11326.497614948905,,,,,105089.0,105127.0,105246.0,105255.0,105279.0,105300.0,105307.0,105320.0,105511.0,105599.0,0.10674897857042352,-0.13295699991514806,0.0574952981058639,-0.12869491989029452,0.032588419689638666
115,115,105938.15067819972,2301.6032454550973,5.095930801728113,106092.4520346024,-3778.169160510606,15.287792404615386,106123.97232084093,35340.5302039718,9.098883046527389,106144.60271279886,-12513.4015386969,9.05499023212582,106389.38569196392,8248.106771718927,32.03407564848846,0.928918297358653,148.0,142.0,71.0,276.0,347.0,6.0,821.0,833.0,7.0,2.0,5.0,0.2857142857142857,338.6617728278555,3056.935546238306,19.0,9.0,10.0,0.4736842105263157,523.7692523398571,192.25594233247648,20.0,11.0,9.0,0.55,2152.0101001611265,29424.934657922044,18.0,6.0,12.0,0.3333333333333333,1413.1581767406872,23601.118678784085,81.0,38.0,43.0,0.4691358024691358,352.24725514461846,9111.346377671394,,,,,105937.0,105943.0,106085.0,106101.0,106113.0,106133.0,106139.0,106156.0,106351.0,106432.0,0.14714168199779876,-0.13863043979456746,0.0608935431285428,-0.11293157758668458,0.0427064373551034
116,116,106788.0636574021,3407.443540585206,19.22795537626182,106933.76961306923,-4012.644950014698,6.123759555265051,106965.01328064749,37228.24105974058,8.816797551316157,106984.45203459916,-9386.879912151198,9.39257944298828,107230.1730312992,9004.881531362706,37.43735669597364,0.9556675834668727,154.0,132.0,71.0,275.0,346.0,22.0,846.0,841.0,48.0,17.0,31.0,0.3541666666666667,298.22103818873467,2945.41823427159,17.0,9.0,8.0,0.5294117647058824,624.2847132909795,688.879183623693,20.0,11.0,9.0,0.55,2208.237694356049,32891.5273758067,19.0,3.0,16.0,0.1578947368421052,1465.6533497647613,23780.66203725285,80.0,37.0,43.0,0.4625,238.1558052125367,11144.13123416077,,,,,106772.0,106794.0,106926.0,106942.0,106954.0,106974.0,106981.0,106997.0,107211.0,107272.0,0.08752046354890364,-0.15557935503082396,0.05931619736781184,-0.1561385000640619,0.026447411260556213
117,117,107602.82194810128,3755.081992518892,22.69798454605106,107761.72846439412,-3045.950109651306,4.83060827604529,107788.66900751086,37731.28846296308,8.914073509752326,107806.30135639945,-11434.002735334425,7.438410263026106,108065.35610379744,8837.866295057005,34.36292315962501,0.9342765379565322,164.0,123.0,63.0,274.0,337.0,41.0,814.0,823.0,42.0,13.0,29.0,0.3095238095238095,238.58930237649287,4784.3872622053805,12.0,8.0,4.0,0.6666666666666666,755.0363824818625,5319.361072721857,19.0,11.0,8.0,0.5789473684210527,2185.5791675011815,30065.54448200855,14.0,2.0,12.0,0.1428571428571428,1698.2970365314484,25099.454222513126,90.0,63.0,27.0,0.7,371.2770942933319,8659.837194147773,,,,,107590.0,107631.0,107754.0,107765.0,107778.0,107797.0,107804.0,107817.0,108022.0,108091.0,0.06353770779222007,-0.2478820582416885,0.05792484848871619,-0.14853040320545072,0.04200981118044139
118,118,108437.87669549928,3650.415543060172,12.739827004320285,108574.63886919856,-4046.3536876552807,6.71404610717449,108603.8773656366,38020.07095294795,8.999924845384067,108622.027373699,-14401.656909909963,8.855340657224232,108883.054747398,8970.521459369922,31.717850572359687,0.904688135831434,140.0,123.0,66.0,269.0,335.0,17.0,841.0,815.0,42.0,30.0,12.0,0.7142857142857143,395.95616255556536,2009.7469055449396,13.0,7.0,6.0,0.5384615384615384,724.7366946476099,2087.2507438409634,19.0,11.0,8.0,0.5789473684210527,2326.4391205993047,28810.41658404936,17.0,4.0,13.0,0.2352941176470588,1723.876741213251,28587.876012867113,78.0,57.0,21.0,0.7307692307692307,294.66662118498704,8057.253262042614,,,,,108428.0,108445.0,108568.0,108581.0,108593.0,108612.0,108618.0,108634.0,108830.0,108903.0,0.10846879153479393,-0.17910858777833857,0.06118976273028024,-0.11969988953333763,0.03284832688039565
119,119,109233.7260172996,2517.364642833674,7.643896202591768,109345.75763618016,-3284.1400029911006,17.8357578060484,109402.25686164308,36082.29356862704,8.747130677510006,109421.027373699,-13434.154582615944,9.277260962328734,109667.80813839656,8498.48418207096,31.22119864489241,0.9381757684473782,107.0,98.0,97.0,269.0,366.0,9.0,795.0,798.0,11.0,6.0,5.0,0.5454545454545454,364.48466266696744,2184.1358248745555,16.0,10.0,6.0,0.625,243.7564915301529,3792.125624284411,20.0,11.0,9.0,0.55,2186.6407337554283,27321.281115443737,17.0,4.0,13.0,0.2352941176470588,1590.858209522265,27103.48838610063,82.0,41.0,41.0,0.5,305.5036965477786,8459.295494228754,,,,,109229.0,109238.0,109336.0,109352.0,109391.0,109411.0,109417.0,109433.0,109628.0,109702.0,0.14478818700523452,-0.07422232039686082,0.060601489470078374,-0.11841892988047542,0.03594802202400895
120,120,110050.30135639945,3590.457178610252,10.191861603456228,110190.7260172996,-4300.320800164337,7.64389620182673,110217.02670943669,35919.60313950427,9.223899906523355,110239.45203459916,-11399.761410300824,7.270460120606274,110499.63008649784,8601.957753256842,35.561971717258146,0.913625650360878,165.0,127.0,65.0,273.0,338.0,38.0,817.0,817.0,40.0,33.0,7.0,0.825,377.2124868234128,1386.004655198463,12.0,8.0,4.0,0.6666666666666666,833.9527875779492,5051.65837183338,21.0,11.0,10.0,0.5238095238095238,1982.0007873673644,31826.23023974011,15.0,5.0,10.0,0.3333333333333333,1494.4147246612006,22870.71546187179,84.0,57.0,27.0,0.6785714285714286,310.07322829542323,7929.899186197764,,,,,110018.0,110056.0,110183.0,110195.0,110206.0,110227.0,110234.0,110248.0,110445.0,110521.0,0.10505973698018573,-0.193928040797812,0.055178805279938244,-0.13109175454416508,0.036046820641269066
121,121,110840.90406919828,3569.913906813289,20.721933000232617,110988.90668927206,-3037.5005083431824,10.191861603456102,111018.68193017392,38837.61468427268,9.20575905671403,111037.30135639945,-11723.239671836816,9.060695816955992,111279.34214854435,9931.447556398798,38.43433000545931,0.963638715167148,155.0,128.0,63.0,274.0,337.0,27.0,794.0,801.0,36.0,17.0,19.0,0.4722222222222222,277.3202690613316,3881.44978949012,12.0,4.0,8.0,0.3333333333333333,672.4888626762296,2463.8010932076154,21.0,12.0,9.0,0.5714285714285714,2171.7816783595713,31231.769525456933,17.0,3.0,14.0,0.1764705882352941,1647.848853564599,26837.108088708337,95.0,42.0,53.0,0.4421052631578947,263.52703833584945,9993.420135168531,,,,,110831.0,110858.0,110986.0,110995.0,111007.0,111028.0,111035.0,111049.0,111245.0,111323.0,0.0776826210100074,-0.22139547329427164,0.05591954336060283,-0.14056258335511887,0.026534605035099832
122,122,112465.7260172996,2533.771021671511,7.64389620259217,112590.12330450072,-4272.670369883894,12.739827004320285,112651.51903360286,39185.043153550134,8.112441750747827,112671.17805189872,-8370.09645740945,14.9560456062074,112914.64104918973,8273.682235603148,33.1107261278846,0.9273769288435704,120.0,113.0,101.0,277.0,378.0,7.0,1621.0,1632.0,8.0,3.0,5.0,0.375,423.0120309051739,3763.769842175515,18.0,7.0,11.0,0.3888888888888889,367.17279851679865,5067.224020804787,19.0,11.0,8.0,0.5789473684210527,2236.88223999092,28761.79234001183,23.0,5.0,18.0,0.217391304347826,1391.7269235942915,24139.725538229657,79.0,33.0,46.0,0.4177215189873418,248.57334616570503,9187.41860044056,,,,,112463.0,112470.0,112583.0,112600.0,112641.0,112660.0,112666.0,112684.0,112883.0,112961.0,0.1669495890856451,-0.08593520368545919,0.05708510339584149,-0.16627370194309946,0.03004385944338653
123,123,113279.2739827004,3742.180969532189,7.64389620259217,113389.54008632238,-3464.3949773505988,20.383723206912453,113463.42516887668,36354.58278375894,7.965546143319948,113485.87669549928,-9870.751013427393,7.154961180672039,113749.17805189872,9427.691547152755,22.93168860777651,0.8724869278560959,107.0,86.0,111.0,269.0,380.0,21.0,811.0,812.0,22.0,5.0,17.0,0.2272727272727272,305.3489479192236,4386.780208707949,19.0,9.0,10.0,0.4736842105263157,293.1167819632679,4160.795020963715,20.0,10.0,10.0,0.5,2133.0486409501023,33502.01983997332,15.0,7.0,8.0,0.4666666666666667,1337.431722957128,21222.91815323059,83.0,64.0,19.0,0.7710843373493976,369.8775450356659,5926.00897084912,,,,,113275.0,113296.0,113382.0,113399.0,113453.0,113473.0,113480.0,113493.0,113697.0,113762.0,0.08159652096071542,-0.08460836130972266,0.05867344575614333,-0.13549442399446518,0.03923309785706471
124,124,114104.75202759732,4284.084783852217,15.661668141816175,114258.78497664708,-2688.214256521594,22.93168860777651,114289.19310304416,38717.36754093975,8.87309873558385,114310.17805189872,-10223.582628750635,10.563504098987012,114551.24308939608,9570.189900945135,36.53121585576617,0.951248474718532,154.0,138.0,76.0,267.0,343.0,16.0,825.0,826.0,35.0,13.0,22.0,0.3714285714285714,377.8748841725836,5248.050059521211,28.0,19.0,9.0,0.6785714285714286,544.6027103190817,1947.284780543679,20.0,11.0,9.0,0.55,2138.872168082072,32794.05918343804,19.0,5.0,14.0,0.2631578947368421,1389.7365550869076,23474.685241332507,85.0,44.0,41.0,0.5176470588235295,376.09514668026907,11921.685548488862,,,,,114094.0,114110.0,114248.0,114268.0,114278.0,114298.0,114305.0,114324.0,114527.0,114591.0,0.08820434310658096,-0.20258902689689942,0.05524322297533345,-0.13593439849341143,0.03929860855144855
125,125,114936.027373699,2259.1178359538208,17.835757805380148,115022.917878903,-2840.7844044276544,53.50727341814519,115106.72916161788,36501.28833940728,8.855774392247978,115127.027373699,-10469.714886573416,11.002219905916473,115369.8357849962,8260.321972560785,32.884014292823345,0.9288203653264538,54.0,37.0,156.0,275.0,431.0,17.0,836.0,817.0,18.0,7.0,11.0,0.3888888888888889,301.9383597175619,398.58098687984545,55.0,41.0,14.0,0.7454545454545455,241.77599767003508,1404.5045826592304,21.0,12.0,9.0,0.5714285714285714,2030.764744391579,27145.92134370408,20.0,5.0,15.0,0.25,1348.9069577426594,23722.802256399827,94.0,49.0,45.0,0.5212765957446809,303.9877471581965,8171.705908728194,,,,,114929.0,114946.0,114983.0,115035.0,115095.0,115116.0,115123.0,115139.0,115336.0,115414.0,0.1336532140609127,-0.08510888657836982,0.05563542649532012,-0.12883893901184704,0.03680095620582174
126,126,115745.972626301,2902.3365927864356,13.389597816396714,115892.87669549928,-4222.645430560738,12.739827004320285,115926.73586774392,35367.33540113608,9.142698703361097,115946.45203459916,-10212.707134233438,8.374377641022818,116193.54339541028,8669.426763208214,30.503476731187263,0.9364221547241351,149.0,134.0,71.0,268.0,339.0,15.0,804.0,821.0,17.0,11.0,6.0,0.6470588235294118,386.3648607353098,4579.713064119404,16.0,8.0,8.0,0.5,565.6842152361129,1884.1463124022569,20.0,11.0,9.0,0.55,2079.680466354634,30200.677247188396,14.0,4.0,10.0,0.2857142857142857,1538.8846948958278,23953.678138166902,65.0,34.0,31.0,0.5230769230769231,240.30500533509556,11350.540566688393,,,,,115736.0,115751.0,115885.0,115900.0,115916.0,115936.0,115943.0,115956.0,116161.0,116224.0,0.13312200304251198,-0.13396441272148063,0.05880229434213554,-0.1506833276103081,0.027718672975578392
127,127,116555.90477368784,3616.370459502027,17.8357578060484,116710.7260172996,-2835.4563305407073,5.261790067290672,116737.27046118582,37794.40041702943,8.34756628509111,116757.45203459916,-10042.174401404318,7.129580233031932,116998.95833608344,9763.094268402,39.09798459645318,0.9565178850258858,160.0,142.0,65.0,273.0,338.0,18.0,810.0,810.0,27.0,22.0,5.0,0.8148148148148148,270.60049807430727,4460.318989426071,13.0,9.0,4.0,0.6923076923076923,696.6082827343647,4599.325752335288,19.0,10.0,9.0,0.5263157894736842,2279.068934539645,34477.73516086418,15.0,4.0,11.0,0.2666666666666666,1607.9520026129542,23907.883491201253,106.0,52.0,54.0,0.490566037735849,301.681503415969,8842.746831658818,,,,,116542.0,116560.0,116702.0,116715.0,116727.0,116746.0,116754.0,116767.0,116962.0,117040.0,0.07482654255271426,-0.2456776622624003,0.06030176188514795,-0.16011990415025007,0.03090019363966948
128,128,117359.12330450072,2536.374690662302,12.739827004320285,117517.30135639945,-3983.952880709472,10.191861602762348,117545.97362896791,39750.207487382475,9.21309183825775,117563.30135641358,-15233.813514136851,10.191861603456184,117812.80813839656,9212.819008105207,32.39747100510685,0.9365031277956988,158.0,147.0,68.0,269.0,337.0,11.0,804.0,809.0,19.0,14.0,5.0,0.7368421052631579,267.0542304310023,2931.748117181671,14.0,8.0,6.0,0.5714285714285714,682.2806397127414,3059.8453590410363,19.0,11.0,8.0,0.5789473684210527,2308.646611232863,29400.43678318646,22.0,3.0,19.0,0.1363636363636363,1726.2330161922223,29039.622620137223,75.0,40.0,35.0,0.5333333333333333,319.8779801005232,8562.412429788174,,,,,117352.0,117363.0,117510.0,117523.0,117535.0,117554.0,117561.0,117578.0,117774.0,117847.0,0.1052897394908434,-0.17125720613222695,0.05807885687051255,-0.11331588210596727,0.03472096649452275
129,129,118171.87669549928,3886.4402247050775,12.739827004320285,118315.421542516,-3749.519376754651,6.69565296680058,118346.38055715122,37275.22591583434,8.887299339922677,118364.45203459916,-11345.743670968635,8.3962860404048,118612.38347749642,9201.037400410503,32.590533838047186,0.9481606745590524,144.0,130.0,68.0,271.0,339.0,14.0,817.0,801.0,43.0,24.0,19.0,0.5581395348837209,332.7445425809716,3355.190689768832,15.0,7.0,8.0,0.4666666666666667,523.7130261789924,631.6838513302093,20.0,11.0,9.0,0.55,2221.557278705829,30833.20610120605,17.0,3.0,14.0,0.1764705882352941,1604.1542275539473,25966.89907280387,88.0,47.0,41.0,0.5340909090909091,238.8303550673286,8732.97204551792,,,,,118165.0,118179.0,118309.0,118323.0,118335.0,118355.0,118361.0,118377.0,118579.0,118648.0,0.0856167915476487,-0.13967470855752334,0.05959876094975248,-0.14138819579175224,0.0259568942798421
130,130,118964.75339099858,3632.216280453052,25.479654008640296,119117.2644296509,-3045.385246080944,8.196941080753744,119147.42402222408,36474.86415942238,8.880465514129988,119167.45203459916,-9243.077540031269,8.788911873626674,119407.81852360662,10117.603278657438,41.06646125573682,0.9608027120878052,151.0,118.0,70.0,275.0,345.0,33.0,795.0,801.0,63.0,35.0,28.0,0.5555555555555556,257.1502934990793,3601.4723954888314,20.0,12.0,8.0,0.6,528.3755693401303,2054.1010855695745,20.0,10.0,10.0,0.5,2089.1713056578214,32377.17643885888,20.0,4.0,16.0,0.2,1417.7406393000954,23171.93478903283,86.0,37.0,49.0,0.4302325581395348,248.91103572132656,10926.80784820082,,,,,118959.0,118992.0,119110.0,119125.0,119137.0,119157.0,119164.0,119180.0,119372.0,119455.0,0.07079707639739022,-0.17350040360906327,0.05727701401509224,-0.15338404694323263,0.02460177858983575
131,131,119759.91970288588,2874.741411797869,14.224239940228848,119909.87669549928,-3687.004747820965,12.739827004320285,119938.76554923668,39616.5726451354,8.768562479591964,119955.87669549928,-13807.91649772775,9.733138485455209,120200.1348473162,9635.03922942035,34.335321734086705,0.9387900578220416,139.0,118.0,82.0,270.0,352.0,21.0,791.0,791.0,21.0,10.0,11.0,0.4761904761904761,240.97941705681595,4606.97742808297,32.0,24.0,8.0,0.75,653.7199095452163,3681.891691563589,19.0,11.0,8.0,0.5789473684210527,2353.8769061652297,29227.79745491717,18.0,3.0,15.0,0.1666666666666666,1698.323929733628,27791.558221681895,74.0,33.0,41.0,0.4459459459459459,291.41892856995526,11370.171914618972,,,,,119750.0,119771.0,119889.0,119917.0,119928.0,119947.0,119953.0,119971.0,120168.0,120241.0,0.08382646733645059,-0.1773037883749858,0.05941647015379224,-0.1229963934104835,0.030245743855418346
132,132,120532.87669549928,2724.9648098793905,12.739827003825924,120662.52792497864,-4031.1877606197418,7.64389620259217,120702.9775872508,37973.91289577435,8.527672943516171,120722.60271279886,-11474.591544790208,11.101203361659458,120964.04262546582,9047.352786662805,32.845819155219544,0.9269724519157206,118.0,104.0,88.0,266.0,354.0,14.0,775.0,763.0,14.0,3.0,11.0,0.2142857142857142,316.3983722207177,2103.785267157144,18.0,15.0,3.0,0.8333333333333334,326.58106817261336,4300.694661929776,19.0,11.0,8.0,0.5789473684210527,2231.478589436846,29108.75840465411,21.0,5.0,16.0,0.238095238095238,1436.7227029694927,24915.8090959587,72.0,30.0,42.0,0.4166666666666667,309.64927827539645,8687.074295632203,,,,,120530.0,120544.0,120648.0,120666.0,120692.0,120711.0,120718.0,120736.0,120935.0,121002.0,0.11611099382774114,-0.08101360878373123,0.058763462052528165,-0.1252090496956997,0.034225401128589496
133,133,121291.30135639945,3724.761799901371,10.191861603456228,121428.47248864143,-3702.928394497189,7.744335596087147,121457.38243744164,39570.11123760565,8.750432348879542,121475.87669549928,-9909.783399556742,11.215630300401342,121716.43424253588,10194.571843115216,38.15154975880056,0.9367174975838316,148.0,121.0,76.0,274.0,350.0,27.0,758.0,756.0,28.0,21.0,7.0,0.75,270.59401431712166,2933.861444615313,18.0,10.0,8.0,0.5555555555555556,649.7833629092598,2763.198680568721,20.0,11.0,9.0,0.55,2161.127575014338,32522.417466615116,21.0,3.0,18.0,0.1428571428571428,1582.2107563686034,26280.55665367722,77.0,25.0,52.0,0.3246753246753247,346.9565207135702,12603.934613217758,,,,,121270.0,121297.0,121418.0,121436.0,121446.0,121466.0,121473.0,121494.0,121691.0,121768.0,0.07264733393804855,-0.1754782414574593,0.05461515036026737,-0.15966148729742918,0.034033456829075485
134,134,122040.12330450072,2829.367350779643,10.942051851231025,122197.45203460006,-4150.460360797312,15.287792403512375,122228.23276569755,40555.72913452168,8.811486189712257,122245.87669549928,-13970.258656042395,11.59953422628167,122495.65746019685,9388.54837141739,29.82178773334969,0.9185214882815032,156.0,146.0,72.0,266.0,338.0,10.0,745.0,769.0,11.0,8.0,3.0,0.7272727272727273,364.702206971048,3908.7869895874223,22.0,13.0,9.0,0.5909090909090909,563.4782662726606,28.80792797668164,18.0,10.0,8.0,0.5555555555555556,2379.087757874252,30137.20987459143,21.0,4.0,17.0,0.1904761904761904,1656.53929260644,28446.19089791918,73.0,42.0,31.0,0.5753424657534246,359.509800043633,9946.567703166167,,,,,122033.0,122043.0,122189.0,122206.0,122218.0,122236.0,122243.0,122261.0,122457.0,122527.0,0.1288988532615084,-0.135762835273631,0.058662186789514154,-0.11857613616122678,0.038292373412926003
135,135,122844.30135639945,2257.5639394292384,10.191861603456184,122989.7260172996,-3498.0942318630314,7.64389620259217,123020.75266792015,36213.629998223354,8.401148351207382,123041.60271279886,-9255.051450828489,11.501778402520568,123283.80813839656,8192.50004910252,32.71078713525402,0.9339743805157784,116.0,106.0,98.0,262.0,360.0,10.0,808.0,794.0,32.0,21.0,11.0,0.65625,256.38992700551984,1219.313791856574,40.0,32.0,8.0,0.8,552.1416156608636,1818.165691733867,19.0,11.0,8.0,0.5789473684210527,2052.3337272713075,28739.289332541863,21.0,6.0,15.0,0.2857142857142857,1295.8797511776854,21440.483912795626,83.0,48.0,35.0,0.5783132530120482,315.7683301213427,9579.9800182582,,,,,122842.0,122852.0,122958.0,122994.0,123010.0,123029.0,123037.0,123056.0,123236.0,123318.0,0.11356928702109798,-0.15784069240661977,0.05667296339450078,-0.14001864366315128,0.03854358599069337
136,136,123639.12330450072,2986.629977893049,12.739827004319883,123810.41213631972,-3743.1030470712567,6.982903933360663,123841.05954190595,38661.08154532821,8.622740896293404,123859.30135639945,-9390.369808284042,8.920342992506221,124102.83232506976,8426.151302772612,35.58835945137421,0.9444726077263748,175.0,161.0,70.0,270.0,340.0,14.0,791.0,819.0,26.0,12.0,14.0,0.4615384615384615,298.55855969206425,2979.825521479386,14.0,7.0,7.0,0.5,527.447451696426,122.00049363042194,20.0,11.0,9.0,0.55,2228.448449023292,32421.415577838277,18.0,3.0,15.0,0.1666666666666666,1576.82814989782,24282.855740776977,97.0,54.0,43.0,0.5567010309278351,296.9378776124187,8617.88505679304,,,,,123628.0,123642.0,123803.0,123817.0,123830.0,123850.0,123857.0,123873.0,124070.0,124143.0,0.09996503145752447,-0.14091181703082434,0.05764061324592139,-0.1679197073268367,0.035240036280230536
137,137,124464.7260172996,3592.4270406433648,4.055535250248205,124634.7260172996,-4577.251215474608,7.643896202583155,124661.26571446414,34352.68717692844,8.895198962720064,124681.45203459916,-10343.76352950074,7.837550347308426,124937.50678199712,8930.543402877925,32.21422418842913,0.9059953529699488,158.0,149.0,72.0,276.0,348.0,9.0,829.0,822.0,9.0,5.0,4.0,0.5555555555555556,385.8063868617941,4613.850140583201,21.0,17.0,4.0,0.8095238095238095,804.6807570330348,3887.596469682745,20.0,10.0,10.0,0.5,2051.862585432865,29264.716035856793,15.0,5.0,10.0,0.3333333333333333,1480.2297769743143,23798.325575708423,89.0,55.0,34.0,0.6179775280898876,313.3083747389673,7910.554763667478,,,,,124460.0,124469.0,124618.0,124639.0,124651.0,124671.0,124677.0,124690.0,124884.0,124966.0,0.1073943555420684,-0.1757999985477307,0.05972931825871584,-0.14310359790734312,0.03508278954649072
