Unnamed: 0,cycle,p_center,p_height,p_width,q_center,q_height,q_width,r_center,r_height,r_width,s_center,s_height,s_width,t_center,t_height,t_width,r_squared,pr_interval,pr_segment,qrs_duration,st_segment,qt_interval,p_duration,pp_interval,rr_interval,fwhm_p,rise_time_p,decay_time_p,rise_decay_symmetry_p,sharpness_deriv_p,sharpness_diff_p,fwhm_q,rise_time_q,decay_time_q,rise_decay_symmetry_q,sharpness_deriv_q,sharpness_diff_q,fwhm_r,rise_time_r,decay_time_r,rise_decay_symmetry_r,sharpness_deriv_r,sharpness_diff_r,fwhm_s,rise_time_s,decay_time_s,rise_decay_symmetry_s,sharpness_deriv_s,sharpness_diff_s,fwhm_t,rise_time_t,decay_time_t,rise_decay_symmetry_t,sharpness_deriv_t,sharpness_diff_t,Average_Heart_Rate,SDNN,RMSSD,NN50,p_on,p_off,q_on,q_off,r_on,r_off,s_on,s_off,t_on,t_off,sharpness_deriv_p_norm,sharpness_deriv_q_norm,sharpness_deriv_r_norm,sharpness_deriv_s_norm,sharpness_deriv_t_norm
0,0,,,,,,,,,,,,,,,,,,,,,,,,,,,,,,,,,,,,,,,,,,,,,,,,,,,,,,,73.55497981696763,167.15538772738324,224.76052125143104,36.0,,,,,,,,,,,,,,,
1,1,1156.7260172995682,5667.842149909229,7.64389620259217,1192.178051898704,-3323.0137703694604,16.826229505923923,1242.0006695067586,44019.291328887135,7.393848676992449,1262.018172888336,-7122.572168956339,3.386826798557154,1552.7058933248366,16278.127917652062,36.46877197646831,0.9289544844464284,51.0,26.0,80.0,328.0,408.0,25.0,,,39.0,34.0,5.0,0.8717948717948718,520.4944140253057,1812.4866591111152,44.0,23.0,21.0,0.5227272727272727,361.925499387787,2075.705255460459,18.0,9.0,9.0,0.5,2653.808383585701,41743.762894728505,8.0,3.0,5.0,0.375,1719.1281368640773,23486.64579204717,90.0,47.0,43.0,0.5222222222222223,287.56185427288545,16279.13175545271,,,,,1136.0,1161.0,1187.0,1206.0,1233.0,1251.0,1259.0,1267.0,1507.0,1595.0,0.09183290576178826,-0.10891483586826885,0.060287394537044056,-0.24136338615941028,0.017665535971188206
2,2,1997.8493218002875,4263.607665774245,5.095930801728113,2051.1780518987043,-3705.014464427487,22.93168860777651,2091.671360940334,40908.83328702304,7.302459678703899,2112.7260172995684,-8189.502570341127,3.734596182998331,2402.893186604212,15451.10670831456,33.96501791702775,0.9121461637385668,42.0,28.0,80.0,330.0,410.0,14.0,839.0,849.0,24.0,12.0,12.0,0.5,402.2388226336406,2210.938991872325,27.0,14.0,13.0,0.5185185185185185,462.4260835027115,2694.2494292113033,18.0,9.0,9.0,0.5,2475.935104992679,37331.89406546985,8.0,4.0,4.0,0.5,1497.8902126273942,22335.349229266096,95.0,48.0,47.0,0.5052631578947369,379.1946589842635,14826.459005892528,,,,,1995.0,2009.0,2037.0,2064.0,2083.0,2100.0,2109.0,2117.0,2363.0,2447.0,0.09434236312655576,-0.12481087130497003,0.06052323926280457,-0.18290368673332022,0.024541585670378615
3,3,2861.1780518987043,5478.493436362943,12.86559198054476,2907.9040691982723,-3080.690678634279,20.8033115328862,2955.725008514473,47509.518624758704,7.923901292401947,3040.643896202592,-2757.683268035317,45.86337721553165,3265.4868934220444,16586.4790540799,36.23070302516121,0.9477414813423938,44.0,8.0,173.0,255.0,428.0,36.0,868.0,865.0,41.0,26.0,15.0,0.6341463414634146,296.99520003040914,3780.4222975046487,44.0,27.0,17.0,0.6136363636363636,346.3728816553091,3078.4688581336027,20.0,10.0,10.0,0.5,2697.845048159306,44909.077189034986,55.0,41.0,14.0,0.7454545454545455,325.63779422657916,2191.182432760028,91.0,44.0,47.0,0.4835164835164835,332.14306925237383,17668.1249984351,,,,,2838.0,2874.0,2882.0,2925.0,2946.0,2966.0,3015.0,3055.0,3222.0,3310.0,0.054211108123108025,-0.11243351500932314,0.05678535851873216,-0.11808382710265942,0.02002492923117846
4,4,3731.017803635404,5708.464213175506,14.541186359226687,3782.602712798848,-2881.6484972535695,15.692846545541173,3831.53833790323,47324.29700251612,7.622068448901983,3851.2723952721935,-5581.020293574191,2.442543392704468,4141.385917645554,16490.939838810173,36.95058589308729,0.9465054216843308,62.0,25.0,79.0,331.0,410.0,37.0,869.0,875.0,38.0,18.0,20.0,0.4736842105263157,264.90259172401426,4924.1132148715515,20.0,9.0,11.0,0.45,297.14594729463903,2511.1099002652436,19.0,10.0,9.0,0.5263157894736842,2767.7459454312066,43971.21331134692,6.0,2.0,4.0,0.3333333333333333,1732.8364393585582,22765.77202085992,96.0,49.0,47.0,0.5104166666666666,373.8596765349326,16691.099887337787,,,,,3713.0,3750.0,3775.0,3794.0,3822.0,3841.0,3849.0,3854.0,4101.0,4185.0,0.0464052294683046,-0.10311665269995343,0.05848467110423325,-0.31048739266432895,0.02267061066192736
5,5,4610.876695499281,4298.979291156101,12.739827004317824,4655.876695499281,-2725.7684282256223,12.739827004320285,4700.756006747263,41702.428596563484,7.482981416851746,4721.0671464943525,-6732.348918689987,3.561042340720153,5022.232799296688,16380.333635572217,36.03963802291864,0.91778814448073,71.0,35.0,74.0,328.0,402.0,36.0,879.0,870.0,41.0,31.0,10.0,0.7560975609756098,397.696834276124,2104.769517697682,38.0,22.0,16.0,0.5789473684210527,240.6153327708714,2838.3454746266457,18.0,9.0,9.0,0.5,2528.356345833879,39497.386133892905,9.0,3.0,6.0,0.3333333333333333,1624.1565785260348,21364.439798252235,92.0,58.0,34.0,0.6304347826086957,341.93039796941855,16621.208396688337,,,,,4582.0,4618.0,4653.0,4672.0,4692.0,4710.0,4718.0,4727.0,4965.0,5055.0,0.09250959526468748,-0.08827431203592866,0.060628515674557855,-0.24124664335461551,0.020874446490324727
6,6,5468.631715899199,4722.335603120416,13.209344022632898,5516.602712798849,-3038.836928558796,18.491753464756044,5566.517364459424,45827.55290210729,7.871883773723135,5586.150678199713,-5017.0812509813495,2.2875316939861827,5878.2601729956805,16743.170587369103,35.69303622774636,0.9474950578163912,53.0,28.0,78.0,331.0,409.0,25.0,859.0,865.0,38.0,22.0,16.0,0.5789473684210527,326.29534223552645,3261.3358075052433,39.0,24.0,15.0,0.6153846153846154,268.41432764206263,1955.2140338849829,20.0,10.0,10.0,0.5,2573.739939173299,41865.16393439026,5.0,1.0,4.0,0.2,1717.7097188991725,22164.140227629163,94.0,49.0,45.0,0.5212765957446809,399.5157535277238,16890.41913294939,,,,,5459.0,5484.0,5512.0,5531.0,5557.0,5576.0,5585.0,5590.0,5830.0,5921.0,0.06909617817503645,-0.08832798006353085,0.05616140893822307,-0.34237231429393045,0.02386141570038801
7,7,6367.876695499281,5546.843191537832,12.739827004312112,6411.726017299569,-3145.3767453234327,7.64389620259217,6456.2514923091585,48288.37296586174,7.7193137611619855,6528.849321800287,-1907.5987968832808,5.095930801728113,6780.657460196832,17279.474509065025,37.485038011096904,0.9162700871760352,72.0,35.0,120.0,282.0,402.0,37.0,898.0,890.0,39.0,31.0,8.0,0.7948717948717948,384.4987466365244,3067.459981104389,11.0,2.0,9.0,0.1818181818181818,413.55157128922906,3010.8821447643077,19.0,9.0,10.0,0.4736842105263157,2658.90424378009,46931.094355683046,10.0,9.0,1.0,0.9,369.4923433520196,1571.4124295752663,99.0,65.0,34.0,0.6565656565656566,502.0576141206185,16356.452714251836,,,,,6338.0,6375.0,6410.0,6421.0,6447.0,6466.0,6524.0,6530.0,6728.0,6812.0,0.06931848140634461,-0.13147918509415457,0.05506303237137118,-0.19369499705897933,0.029055143653658733
8,8,7267.301356399425,4357.061413744275,10.191861603456228,7305.205425597696,-3856.047030160126,18.600721597067245,7355.442659875109,41643.45689401352,7.23374782581352,7376.726017299569,-6955.448146139548,3.5164909617629156,7678.232799296688,14899.26195250878,33.34105498871344,0.8963182738188717,37.0,16.0,92.0,330.0,422.0,21.0,899.0,899.0,38.0,31.0,7.0,0.8157894736842105,399.55645256567914,1532.7032306112724,39.0,16.0,23.0,0.4102564102564102,428.8821561435312,3367.937007957267,17.0,8.0,9.0,0.4705882352941176,2489.6177360087468,40842.28592868414,9.0,5.0,4.0,0.5555555555555556,1550.5613437487843,20048.29781877855,97.0,63.0,34.0,0.6494845360824743,372.1445928879375,14364.32585834234,,,,,7252.0,7273.0,7289.0,7328.0,7347.0,7364.0,7372.0,7381.0,7627.0,7711.0,0.09170319502619016,-0.11122326900813796,0.05978412748838445,-0.22292759735537468,0.024977384388176004
9,9,8156.178051898705,5324.06289687594,11.126413362533656,8204.637834165353,-3809.035191866272,5.095930801728113,8248.932301606825,45247.14371901384,7.585261060772706,8269.150678199714,-4302.238664443241,2.655621736747739,8560.033210667441,17129.310827836453,37.49837136044561,0.9504981796578632,57.0,30.0,74.0,330.0,404.0,27.0,891.0,893.0,39.0,26.0,13.0,0.6666666666666666,401.3194624548625,3549.031830254341,8.0,6.0,2.0,0.75,366.77071975485177,3514.5147190874795,20.0,10.0,10.0,0.5,2726.462013143828,42971.371459596194,5.0,1.0,4.0,0.2,1566.8856115565934,20815.929814686267,96.0,47.0,49.0,0.4895833333333333,424.8978666841537,17855.069566126083,,,,,8142.0,8169.0,8199.0,8207.0,8240.0,8258.0,8268.0,8273.0,8520.0,8603.0,0.07537842249954432,-0.09628966425357417,0.0602571077209921,-0.36420239177023117,0.024805310088346456
10,10,9081.328730098418,6771.363819826125,13.95843513681679,9143.150678199714,-1689.709914704947,3.1441909465348803,9177.877066760158,47928.65776330553,7.886115742749791,9251.849321800286,-1231.371850466336,5.095930801728113,9491.410851195393,17106.4851530229,39.06359585953776,0.944302536458988,75.0,39.0,117.0,284.0,401.0,36.0,926.0,929.0,39.0,22.0,17.0,0.5641025641025641,392.869432560784,5059.32633146164,12.0,9.0,3.0,0.75,424.5404008251245,91.57446185596496,20.0,10.0,10.0,0.5,2708.9981399109543,46255.44658239708,17.0,4.0,13.0,0.2352941176470588,292.22109614406605,1367.5102103877728,99.0,51.0,48.0,0.5151515151515151,337.64644926836326,18204.493694511773,,,,,9061.0,9097.0,9136.0,9146.0,9168.0,9188.0,9248.0,9253.0,9444.0,9537.0,0.05801924737975046,-0.2512504644320896,0.05652146891509613,-0.23731344518993047,0.01973792080886339
11,11,10022.876695499284,4889.069729285627,12.210516631691444,10067.204402082038,-2454.7296734716765,5.095930801728113,10110.70321487261,41401.69010736344,7.443155817845526,10130.77400796201,-6793.358981821665,3.1969582406586756,10423.02908399888,16281.27065052507,40.17530372979994,0.9430556709922352,73.0,35.0,71.0,336.0,407.0,38.0,939.0,933.0,39.0,32.0,7.0,0.8205128205128205,423.306266224575,2878.5998224480995,7.0,2.0,5.0,0.2857142857142857,243.04922587589317,2837.3499746546076,18.0,9.0,9.0,0.5,2466.650144609921,38052.32212143002,8.0,3.0,5.0,0.375,1624.3119484411802,20872.040785287456,98.0,48.0,50.0,0.4897959183673469,321.0683762003401,17368.075527534547,,,,,9992.0,10030.0,10065.0,10072.0,10102.0,10120.0,10128.0,10136.0,10379.0,10472.0,0.086582169955352,-0.0990126238756683,0.059578489144123566,-0.23910291694987312,0.019720105579719337
12,12,10961.72601729957,5337.2270489675475,7.64389620259217,11001.849321800286,-2867.0942272029,5.095930801728113,11046.387846330696,46290.986212106385,7.675110108445137,11101.849321800286,-2089.8593194721993,5.095930801728113,11359.410851195393,17623.188178678807,40.52164571079623,0.946350892846396,68.0,31.0,106.0,302.0,408.0,37.0,938.0,936.0,39.0,35.0,4.0,0.8974358974358975,482.738396404833,2153.9729871968866,19.0,18.0,1.0,0.9473684210526316,305.7887625841441,2018.9427927160907,19.0,9.0,10.0,0.4736842105263157,2640.9663379316394,45075.89955115471,6.0,5.0,1.0,0.8333333333333334,321.7963599867193,2194.5779779737145,99.0,50.0,49.0,0.5050505050505051,263.23101321309724,18273.38315767027,,,,,10929.0,10966.0,10997.0,11003.0,11037.0,11056.0,11097.0,11103.0,11315.0,11405.0,0.09044741622866047,-0.10665459114766089,0.05705141657234671,-0.1539799148145484,0.01493662840935694
13,13,11896.47940829813,6759.597343341212,15.09440360397,11949.60271279885,-1922.330328499869,15.675476049858489,11995.453569623483,47775.3612534927,7.642982215952915,12059.849321800286,-2386.3836459326603,5.095930801728113,12306.986190295249,17979.766711650213,41.12401389591682,0.9518475256716316,65.0,28.0,118.0,293.0,411.0,37.0,939.0,949.0,40.0,20.0,20.0,0.5,366.4041011601322,6146.153701683186,19.0,8.0,11.0,0.4210526315789473,389.9925500511346,1686.030889720562,19.0,9.0,10.0,0.4736842105263157,2746.157666906174,48518.876399274974,11.0,10.0,1.0,0.9090909090909092,268.6789922047712,2880.0479597955655,98.0,48.0,50.0,0.4897959183673469,378.94043438219165,18446.034057567176,,,,,11878.0,11915.0,11943.0,11961.0,11986.0,12005.0,12050.0,12061.0,12265.0,12354.0,0.054205018812410764,-0.2028748879780061,0.05748062588863023,-0.11258834792247518,0.021075937216507516
14,14,12838.301356399426,5585.679461162215,10.191861603456228,12878.849321800286,-2962.0996244440375,5.095930801728113,12925.151928124207,42939.7619634278,7.480378920468289,12945.270253813716,-6178.423511490365,3.0314823793170875,13236.286572798608,17064.6211649133,40.200923641910656,0.9438700693754868,58.0,32.0,74.0,334.0,408.0,26.0,938.0,930.0,38.0,31.0,7.0,0.8157894736842105,443.26742685987153,2527.583769884356,4.0,3.0,1.0,0.75,333.6239979837151,2913.561472034992,18.0,9.0,9.0,0.5,2458.490525809291,42062.376718115454,9.0,3.0,6.0,0.3333333333333333,1665.2409484282111,19908.077151804093,102.0,50.0,52.0,0.4901960784313725,346.81508564735594,17376.85519930596,,,,,12818.0,12844.0,12876.0,12880.0,12916.0,12934.0,12942.0,12950.0,13189.0,13284.0,0.07935783460937099,-0.11263091735016634,0.05725440508736891,-0.26952521874411295,0.020323632285517427
15,15,13718.140936560056,5310.294204235237,14.36231961388398,13776.150678199714,-2710.205865447924,5.095930801728113,13817.7393422392,43616.58981381325,7.657108175932529,13837.242993397824,-5829.672163738704,2.9328632777266055,14128.238290236648,18055.90958977962,39.50770483088453,0.9456981489680688,74.0,35.0,70.0,333.0,403.0,39.0,879.0,892.0,39.0,20.0,19.0,0.5128205128205128,305.3505748433052,5089.588460027612,7.0,4.0,3.0,0.5714285714285714,449.9319291056275,1332.832688432448,19.0,10.0,9.0,0.5263157894736842,2525.2513526464213,41537.40871386025,7.0,2.0,5.0,0.2857142857142857,1660.7355024418405,21921.654912777485,95.0,47.0,48.0,0.4947368421052631,383.3725043316568,19585.97080472902,,,,,13698.0,13737.0,13772.0,13779.0,13808.0,13827.0,13835.0,13842.0,14084.0,14175.0,0.05750163043692987,-0.16601393083889066,0.05789657933887077,-0.2848763113596378,0.021232522373099454
16,16,14613.75339099856,5396.1776119838205,11.896943044606568,14661.027373698991,-3502.155442977873,17.835757801310713,14708.580984901157,46618.08132462561,7.72081016482283,14728.233747220069,-5257.750875063511,2.52230806812644,15025.958816596258,17805.66622691584,34.887038464005606,0.9268209980009544,53.0,29.0,75.0,331.0,406.0,24.0,899.0,891.0,39.0,24.0,15.0,0.6153846153846154,417.21869765048166,2962.138616821341,20.0,4.0,16.0,0.2,254.83390655552728,3668.6229832302542,20.0,10.0,10.0,0.5,2729.0257896250714,43298.93604606119,7.0,2.0,5.0,0.2857142857142857,1749.2925565126982,22795.961384454924,91.0,51.0,40.0,0.5604395604395604,432.495032182752,16545.275387321337,,,,,14604.0,14628.0,14657.0,14677.0,14699.0,14718.0,14727.0,14732.0,14975.0,15063.0,0.07731745091635293,-0.07276487600414525,0.058540070978500065,-0.33270738726120563,0.02428974162893008
17,17,15506.60271279885,5108.652143093476,9.304000532147963,15553.15067820456,-4687.073702524802,5.095930801728113,15598.211323315803,43292.97781322876,7.423142262245537,15618.408582369191,-7467.534832158442,3.3798003501561196,15909.145707591711,16348.350008354686,35.78606657622145,0.9351256790570218,42.0,18.0,88.0,329.0,417.0,24.0,892.0,889.0,37.0,26.0,11.0,0.7027027027027027,496.05157476401746,2703.4092777278374,20.0,17.0,3.0,0.85,367.95074722355065,3920.992549299416,19.0,9.0,10.0,0.4736842105263157,2658.0929445657416,41307.828852673745,8.0,2.0,6.0,0.25,1705.048017868461,23192.52105935051,96.0,48.0,48.0,0.5,415.3262402576681,17714.910221906015,,,,,15494.0,15518.0,15536.0,15556.0,15589.0,15607.0,15616.0,15624.0,15872.0,15953.0,0.09710028415903064,-0.0785032987694103,0.06139778501800181,-0.22832809704827692,0.025404780301707456
18,18,16381.027373698991,5363.349977283776,13.068127470300812,16430.72601729957,-2350.10207148524,6.768854850181189,16472.255893971196,42201.20313637428,7.648092206604979,16492.30638339319,-5681.732464990562,2.8961866759212285,16781.755538324887,17899.047614260096,39.16832168099071,0.9458510555441234,57.0,33.0,73.0,331.0,404.0,24.0,874.0,875.0,39.0,28.0,11.0,0.717948717948718,456.90443903121286,3561.5344430585915,11.0,7.0,4.0,0.6363636363636364,384.4162878203354,1022.7631121893384,19.0,9.0,10.0,0.4736842105263157,2475.0124101864267,41416.32232977498,8.0,2.0,6.0,0.25,1607.9910463493786,20953.032683702117,97.0,49.0,48.0,0.5051546391752577,379.306403241686,18597.39287510114,,,,,16367.0,16391.0,16424.0,16435.0,16463.0,16481.0,16490.0,16497.0,16740.0,16828.0,0.08519012202567626,-0.16357429427624323,0.05864791110785065,-0.28301069370256765,0.02119142936630294
19,19,17287.842563457372,5281.308208530955,14.160397036430531,17345.876695499283,-3005.3322940796115,12.739827004320285,17388.877115650168,47794.52740722204,7.641843079871077,17465.397287201147,-3363.6101056870034,20.383723206912453,17699.83551209554,17307.876062021252,36.88123778862524,0.9492054906950088,63.0,26.0,139.0,271.0,410.0,37.0,909.0,916.0,41.0,20.0,21.0,0.4878048780487805,308.90243216714856,4377.103852068451,19.0,12.0,7.0,0.631578947368421,372.82154568059053,1239.0922841927406,20.0,10.0,10.0,0.5,2747.996846350528,44956.4628133651,19.0,11.0,8.0,0.5789473684210527,391.3236281439979,3349.268292771154,95.0,48.0,47.0,0.5052631578947369,333.1678624865608,17384.39031455303,,,,,17271.0,17308.0,17334.0,17353.0,17379.0,17399.0,17454.0,17473.0,17658.0,17744.0,0.05848975669857235,-0.12405335224162552,0.05749605646137823,-0.11634036521723187,0.019249494351166085
20,20,18263.72601729957,5334.882642067475,7.64389620259217,18289.150678199716,-2752.5233483848538,5.095930801728113,18348.23506768279,47725.38563790836,7.774034397453218,18368.150678199716,-4516.8871261613385,1.8399235349071617,18659.608478227437,17179.657062482056,39.04661579262978,0.9337894342779276,49.0,11.0,92.0,336.0,428.0,38.0,972.0,960.0,38.0,34.0,4.0,0.8947368421052632,477.2635004161627,3227.421549469014,19.0,16.0,3.0,0.8421052631578947,251.37165134999543,2892.0152105535594,19.0,9.0,10.0,0.4736842105263157,2748.3777136737294,46719.63077297809,5.0,2.0,3.0,0.4,1737.8950595008416,21553.96566961054,92.0,44.0,48.0,0.4782608695652174,457.6748949412788,17975.738932890057,,,,,18230.0,18268.0,18279.0,18292.0,18339.0,18358.0,18366.0,18371.0,18618.0,18707.0,0.08946091834387654,-0.09132407596015386,0.05758733380439546,-0.38475503393368743,0.026640514026369952
21,21,19225.753390998565,6224.1225190314235,12.775209049461026,19272.726017299603,-2298.192335677701,7.643896202586714,19315.886371485056,41118.910372716535,7.386431189699526,19336.321743259472,-6518.0054080031705,3.204890185583466,19628.955551363713,17717.772716927033,39.4227554788368,0.9475181283516256,57.0,31.0,71.0,333.0,404.0,26.0,965.0,968.0,42.0,27.0,15.0,0.6428571428571429,467.1628628948792,3550.0486022785353,16.0,2.0,14.0,0.125,298.43772759119526,1717.1357844146653,18.0,9.0,9.0,0.5,2412.8381148882404,39577.228982165005,9.0,3.0,6.0,0.3333333333333333,1587.0559200376058,20782.09022293885,88.0,41.0,47.0,0.4659090909090909,306.9159376811615,19674.979131211217,,,,,19214.0,19240.0,19271.0,19287.0,19307.0,19325.0,19333.0,19342.0,19588.0,19675.0,0.07505682310501456,-0.12985759414396036,0.0586795246522199,-0.2434879722696962,0.01732248982898077
22,22,20227.72601729957,7721.236346614213,7.64389620259217,20266.150678199716,-1376.262745240943,4.321036949060442,20308.43277908769,48265.64834433559,8.05642897463735,20392.849321800284,-1360.320847816408,5.0959308013175,20620.16242900682,17678.93911211558,40.71589765033977,0.9337791190067044,71.0,30.0,134.0,274.0,408.0,41.0,999.0,993.0,42.0,37.0,5.0,0.8809523809523809,461.8844278754057,4011.6393053507218,7.0,4.0,3.0,0.5714285714285714,323.70009086074606,472.6069188167876,21.0,10.0,11.0,0.4761904761904761,2596.509039243789,48433.85353087589,6.0,3.0,3.0,0.5,346.53870665037647,1248.725122471143,101.0,50.0,51.0,0.495049504950495,385.6004757942089,18815.553997149,,,,,20191.0,20232.0,20262.0,20269.0,20298.0,20319.0,20390.0,20396.0,20576.0,20670.0,0.0598200090168129,-0.23520224752147578,0.053796211763692446,-0.2547477730762133,0.02181129044841568
23,23,21224.178051898707,6610.0091123482125,14.263768934352742,21269.726017299836,-2763.65727680871,7.643896202297195,21313.076938448572,47994.693034499935,7.702451490097151,21370.84932180003,-2906.252073813208,5.095930801622146,21627.018681717735,17926.213725088983,38.407409781471614,0.9473506621388892,72.0,31.0,119.0,286.0,405.0,41.0,999.0,1004.0,43.0,29.0,14.0,0.6744186046511628,461.8716330037991,3714.2445348560914,14.0,2.0,12.0,0.1428571428571428,325.8175431772032,2405.9848280592696,20.0,10.0,10.0,0.5,2629.686913189652,46221.37919110419,19.0,3.0,16.0,0.1578947368421052,423.9550726803072,3843.981950933362,88.0,42.0,46.0,0.4772727272727273,322.7663575568822,19895.320276174327,,,,,21196.0,21237.0,21268.0,21282.0,21303.0,21323.0,21368.0,21387.0,21585.0,21673.0,0.06987458340125022,-0.11789361362253858,0.05479120183765649,-0.14587691016218293,0.018005272195608615
24,24,22201.77906453892,5819.589822568882,14.940913887203784,22249.876695499283,-2527.2124008261817,12.739827004320285,22297.69879766954,42366.37424888199,7.461099668322933,22319.72601729957,-6273.954775190925,3.392702442871545,22610.756456000297,16767.047081895842,40.30963984148534,0.9423271613293864,63.0,27.0,77.0,336.0,413.0,36.0,978.0,984.0,44.0,24.0,20.0,0.5454545454545454,331.00915943961087,4414.372162145666,19.0,3.0,16.0,0.1578947368421052,325.9948297749327,2243.879862364808,18.0,9.0,9.0,0.5,2561.1384038142646,39917.57682608727,9.0,5.0,4.0,0.5555555555555556,1405.751016223625,18121.73220441379,107.0,55.0,52.0,0.514018691588785,361.0252106173472,16378.030817405352,,,,,22184.0,22220.0,22247.0,22266.0,22289.0,22307.0,22315.0,22324.0,22568.0,22660.0,0.05687843465460885,-0.1289938390886181,0.060452149829221,-0.22406138816658047,0.021531830193711504
25,25,23159.904069198277,6324.008971789454,14.193539977031492,23221.150678199716,-3005.555366740831,3.034382038327833,23253.653402435633,43949.37510032466,7.6396669335008625,23273.72601729957,-5154.866029709565,2.89639558639164,23570.410851195396,17552.321652663308,37.5782894949037,0.9321049034131698,68.0,28.0,73.0,338.0,411.0,40.0,959.0,956.0,43.0,25.0,18.0,0.5813953488372093,360.05065885435044,5539.945108396492,19.0,16.0,3.0,0.8421052631578947,415.3351751233464,906.9361967424504,19.0,10.0,9.0,0.5263157894736842,2586.4910876811045,40500.40548058323,7.0,3.0,4.0,0.4285714285714285,1587.051572108877,20796.91522537796,94.0,48.0,46.0,0.5106382978723404,292.75972518824926,18422.68537167578,,,,,23137.0,23177.0,23205.0,23224.0,23244.0,23263.0,23271.0,23278.0,23523.0,23616.0,0.056933926004926236,-0.1381891612177247,0.058851601001762545,-0.3078744555070997,0.016679259358480778
26,26,24119.178051898707,7115.370199366097,14.47710901797254,24164.72601729957,-2661.398270876004,7.643896202591487,24208.086931675585,48236.54549097474,7.706734353493029,24267.27398270043,-2194.8807154247133,7.643896201787196,24532.808138396547,18114.73133466711,36.29430348930936,0.9229168848015477,72.0,31.0,115.0,289.0,404.0,41.0,958.0,954.0,42.0,28.0,14.0,0.6666666666666666,439.42840971401426,5070.400782078108,14.0,2.0,12.0,0.1428571428571428,309.88536869415987,1834.8763557290367,20.0,10.0,10.0,0.5,2655.748663357821,46794.877156322866,16.0,4.0,12.0,0.25,310.4820488157102,3010.398315947611,95.0,60.0,35.0,0.631578947368421,383.5568078975989,17708.254814169228,,,,,24091.0,24132.0,24163.0,24176.0,24199.0,24218.0,24263.0,24278.0,24477.0,24567.0,0.06175763135320248,-0.11643705193817554,0.055056775652699314,-0.141457367880528,0.021173750844627
27,27,,,,,,,,,,,,,,,,,,,,,,,,,,,,,,,,,,,,,,,,,,,,,,,,,,,,,,,,,,,,,,,,,,,,,,,,,
28,28,,,,,,,,,,,,,,,,,,,,,,,,,,,,,,,,,,,,,,,,,,,,,,,,,,,,,,,,,,,,,,,,,,,,,,,,,
29,29,26694.32873009842,6261.253652628836,20.50788526598832,26721.725780811605,-4678.589798827033,7.64389620259217,26784.21198108927,49075.78619554616,7.939431083923814,26857.849321800284,-2771.9658425349166,5.095930801728113,27103.40186459484,16597.1250270135,41.994340326246586,0.955004665999388,51.0,9.0,140.0,296.0,436.0,42.0,2576.0,2576.0,44.0,27.0,17.0,0.6136363636363636,400.3380971156941,5464.448473882684,9.0,3.0,6.0,0.3333333333333333,446.47084562003926,5916.730128994561,20.0,10.0,10.0,0.5,2633.697737410982,47536.894536050626,19.0,18.0,1.0,0.9473684210526316,323.5897138177518,1589.073862655874,99.0,46.0,53.0,0.4646464646464646,315.61066169304706,16879.112507241676,,,,,26668.0,26710.0,26719.0,26728.0,26774.0,26794.0,26853.0,26859.0,27057.0,27155.0,0.06393896802880826,-0.09542850833641663,0.05366593062649705,-0.11673654445966562,0.019015983863431698
30,30,27661.246626628727,5868.321084790127,14.130644773636988,27706.602712798853,-3479.273130097448,14.872892059851273,27755.9360731858,44987.41062198777,7.580048389323385,27775.1361750427,-5872.291205016032,2.988481046626325,28066.64119768101,16617.939324677925,39.49192957961747,0.9400180329791086,58.0,19.0,82.0,333.0,415.0,39.0,967.0,972.0,43.0,24.0,19.0,0.5581395348837209,335.17461242167894,4984.887110283385,41.0,21.0,20.0,0.5121951219512195,384.2999110139477,2516.8669944008716,20.0,10.0,10.0,0.5,2700.1829035420355,42078.79160907005,7.0,2.0,5.0,0.2857142857142857,1662.6271625385373,22403.741518137344,92.0,46.0,46.0,0.5,418.6972187419069,18084.11524582092,,,,,27640.0,27679.0,27698.0,27718.0,27747.0,27765.0,27773.0,27780.0,28023.0,28113.0,0.0571159293397229,-0.11045407952872736,0.06002085619531769,-0.28313091168202686,0.02519549569663757
31,31,28599.32873009842,5534.781247173433,15.976504497685228,28633.150678199716,-3022.903487505319,5.095930801728113,28692.089883395776,40768.3130395229,7.383329501441829,28712.39106181054,-6891.700796685491,3.31268171127745,29005.75597221603,16673.057667835965,37.9592565032814,0.9459316739859464,56.0,16.0,85.0,334.0,419.0,40.0,938.0,937.0,44.0,25.0,19.0,0.5681818181818182,378.6302438230451,4304.7053976839925,12.0,9.0,3.0,0.75,391.4313177240728,3647.928406027034,18.0,9.0,9.0,0.5,2471.900582403036,38663.651751736266,7.0,3.0,4.0,0.4285714285714285,1629.7542187637312,22132.01644390112,93.0,46.0,47.0,0.4946236559139785,376.5739700020087,17228.297508562573,,,,,28575.0,28615.0,28631.0,28636.0,28683.0,28701.0,28710.0,28716.0,28962.0,29050.0,0.06840925176878641,-0.12948852629334368,0.0606328885869437,-0.23648069857408038,0.022585777456312555
32,32,29545.602712798853,6454.877146076877,20.383723206912368,29571.150678199716,-5768.497770809833,5.095930801728113,29632.713641959985,47771.497006065845,7.845269388586158,29697.849321800284,-1539.6612438467623,5.095930801728113,29943.376762816733,17843.779034162788,40.01344167261465,0.9549998680108178,54.0,11.0,134.0,290.0,424.0,43.0,945.0,940.0,44.0,33.0,11.0,0.75,481.27509879141,3695.8035174215383,6.0,3.0,3.0,0.5,383.37575011643065,4637.119447269964,20.0,10.0,10.0,0.5,2645.302865484553,44976.766326623314,7.0,3.0,4.0,0.4285714285714285,294.21469317062,2200.6046534509023,98.0,46.0,52.0,0.4693877551020408,347.9865227336688,18675.95818526509,,,,,29514.0,29557.0,29568.0,29574.0,29623.0,29643.0,29695.0,29702.0,29899.0,29992.0,0.07455991615331017,-0.06646024066376799,0.0553740835282734,-0.19109053653616698,0.019501839944746656
33,33,30477.604627858767,7051.35548473483,14.426557535257809,30530.150678199716,-3666.4099462308977,5.095930801728113,30574.3005657589,47910.150160648634,7.562638906946779,30650.258398459977,-3331.177359430625,5.095930801728113,30888.410851195396,17578.65178900195,38.20529534869069,0.9529813618080032,64.0,24.0,130.0,282.0,412.0,40.0,934.0,942.0,41.0,21.0,20.0,0.5121951219512195,323.729134171102,7029.55026378034,11.0,8.0,3.0,0.7272727272727273,328.9902857641217,2609.3817134102565,19.0,9.0,10.0,0.4736842105263157,2809.1322491766455,47262.34243330563,6.0,4.0,2.0,0.6666666666666666,329.2374761972986,3878.4475076703407,96.0,49.0,47.0,0.5104166666666666,412.659025199764,18035.383008350214,,,,,30458.0,30498.0,30522.0,30533.0,30565.0,30584.0,30646.0,30652.0,30844.0,30934.0,0.045910199091781574,-0.08973090586946686,0.05863334261648688,-0.09883516867248787,0.023475009924136696
34,34,31412.09085618177,5164.96722933681,12.789462839880526,31468.150678199716,-4077.2063658599104,5.095930801728113,31508.01189544222,40849.21744898744,7.271349184238304,31528.417642580753,-7580.575623739387,3.550103968406652,31820.15479847777,16597.69353810764,38.328139490272086,0.9383867228528936,68.0,29.0,74.0,333.0,407.0,39.0,933.0,933.0,39.0,21.0,18.0,0.5384615384615384,252.4181830473165,5911.644563043888,19.0,16.0,3.0,0.8421052631578947,447.56547931417384,1575.584558794274,18.0,9.0,9.0,0.5,2513.768495582863,38126.41391084279,9.0,3.0,6.0,0.3333333333333333,1651.5733096171382,23084.66392603325,98.0,51.0,47.0,0.5204081632653061,316.35492375125824,17514.996450570958,,,,,31391.0,31430.0,31459.0,31471.0,31499.0,31517.0,31525.0,31533.0,31776.0,31866.0,0.04887120708406264,-0.10977258425323273,0.061537739339121024,-0.2178691159606744,0.01906017381420617
35,35,32345.32873009842,5705.9850191637415,18.7055265872789,32374.75198111414,-4814.969560005328,7.64389620259217,32438.431369797418,46718.373434192894,7.622611655846795,32507.849321800284,-3174.741208053522,5.095930801728113,32757.95881659626,17528.867750795493,35.81707542720238,0.9399101578905564,49.0,10.0,138.0,286.0,424.0,39.0,934.0,931.0,43.0,26.0,17.0,0.6046511627906976,275.8531501334891,4617.573107130255,19.0,4.0,15.0,0.2105263157894736,563.8994618643311,5868.437866883544,19.0,9.0,10.0,0.4736842105263157,2683.8511416601928,45600.99541186381,19.0,18.0,1.0,0.9473684210526316,304.1488471618102,2357.4914743201575,90.0,51.0,39.0,0.5666666666666667,462.8558402749377,17750.346996552096,,,,,32322.0,32361.0,32371.0,32383.0,32429.0,32448.0,32490.0,32509.0,32708.0,32795.0,0.04834452758060652,-0.1171138165749291,0.057447444000605946,-0.0958027213022154,0.02640534727372408
36,36,33304.60271279886,6378.100164063914,13.899302682113076,33350.30135639943,-2997.3334299419976,10.191861603456228,33393.23823123374,47542.99785879685,7.625424914436011,33456.12330450071,-2403.8676942218467,12.739827004320285,33705.44415109225,17975.493541367105,38.238151986898615,0.9445527274445108,73.0,32.0,120.0,283.0,403.0,41.0,958.0,954.0,42.0,30.0,12.0,0.7142857142857143,491.6452008255081,4023.210016415788,16.0,2.0,14.0,0.125,405.3015917687387,2458.8455817881486,19.0,9.0,10.0,0.4736842105263157,2608.1336625123395,46083.281053235376,39.0,8.0,31.0,0.2051282051282051,413.116228753059,2611.260103677826,100.0,50.0,50.0,0.5,323.5739485320463,18432.06326221725,,,,,33275.0,33316.0,33348.0,33356.0,33384.0,33403.0,33449.0,33468.0,33666.0,33751.0,0.07708333017339258,-0.13522072243279984,0.05485841827346523,-0.17185481120531818,0.018000838073647534
37,37,34264.30135639943,6307.769583199232,10.191861603456228,34308.424660900135,-1944.236266673789,2.5479654008640567,34346.34163896572,44573.04641237565,7.555809473109767,34368.150678199716,-4972.384341016238,2.8652724053620875,34658.76052226709,17167.059127844826,40.284569330724494,0.9293986648978596,81.0,37.0,64.0,337.0,401.0,44.0,958.0,955.0,45.0,39.0,6.0,0.8666666666666667,484.6977662368856,2369.4402222573885,10.0,1.0,9.0,0.1,386.9632480686334,347.77131765776335,19.0,9.0,10.0,0.4736842105263157,2628.417506035329,44701.166516505335,7.0,4.0,3.0,0.5714285714285714,1527.820335662624,18994.625820555662,99.0,50.0,49.0,0.5050505050505051,361.6805436701085,18881.98830848698,,,,,34226.0,34270.0,34307.0,34317.0,34337.0,34356.0,34364.0,34371.0,34612.0,34708.0,0.07684138741019962,-0.19903097925986762,0.0589687651527797,-0.3072611107431759,0.02106828787485596
38,38,35179.90406919828,6081.984190401472,17.12961500296962,35208.849321800284,-3931.401409987044,5.095930801728113,35274.089298203886,41761.9907653456,7.586179428855866,35294.726017299574,-5744.935570422916,3.148859353670401,35591.68483389583,18312.498674542367,37.99633984863328,0.945197490273231,49.0,9.0,93.0,334.0,427.0,40.0,919.0,927.0,42.0,24.0,18.0,0.5714285714285714,431.2911019162872,4905.112867239458,18.0,3.0,15.0,0.1666666666666666,579.3381940784477,5622.171414487781,19.0,10.0,9.0,0.5263157894736842,2441.033981061635,40072.91864543405,7.0,3.0,4.0,0.4285714285714285,1574.6002113138557,19576.647715960324,92.0,49.0,43.0,0.532608695652174,371.8403577387418,18416.93466225243,,,,,35157.0,35197.0,35206.0,35224.0,35264.0,35283.0,35292.0,35299.0,35547.0,35633.0,0.07091289428159754,-0.14736175059782483,0.05845109240068178,-0.27408492088588227,0.02030527697761235
39,39,36118.32873009842,6729.209216394208,12.775843386007477,36164.726017299574,-2986.9459156291905,7.64389620259217,36210.275464655526,47068.9730613277,7.662960886855725,36267.273982700426,-2618.4403791836735,7.64389620259217,36524.073080545255,17453.169726827167,36.14948916345077,0.9404605337660432,62.0,29.0,120.0,288.0,408.0,33.0,938.0,935.0,41.0,25.0,16.0,0.6097560975609756,322.3103105098922,5536.095477207028,18.0,2.0,16.0,0.1111111111111111,293.5697591351901,2368.712065523149,19.0,9.0,10.0,0.4736842105263157,2658.4538277328024,46272.74249645525,20.0,4.0,16.0,0.2,323.90212393050626,3442.214846290933,90.0,43.0,47.0,0.4777777777777778,293.0257388324254,17509.910806427728,,,,,36101.0,36134.0,36163.0,36181.0,36201.0,36220.0,36263.0,36283.0,36481.0,36571.0,0.04789720458158077,-0.09828425670484582,0.0564799623792305,-0.12370040062989182,0.016789256245071476
40,40,37042.90406919828,6528.973834885838,14.021896429573347,37098.15067819971,-2893.4647826444957,5.095930801728113,37138.32619117414,45693.28509912852,7.618222939648305,37158.15067819971,-5421.318801864648,2.2731547233234246,37450.821812364906,17426.904766041742,40.01336658990154,0.9455053231872804,62.0,22.0,79.0,337.0,416.0,40.0,925.0,929.0,42.0,23.0,19.0,0.5476190476190477,277.8076271383441,5246.377923822934,19.0,16.0,3.0,0.8421052631578947,345.0544661989892,424.2287199943878,19.0,9.0,10.0,0.4736842105263157,2663.276882448614,44590.61810738982,5.0,2.0,3.0,0.4,1665.686009876014,22051.205793734134,100.0,52.0,48.0,0.52,309.03030617340784,18610.719664726763,,,,,37020.0,37060.0,37082.0,37101.0,37129.0,37148.0,37156.0,37161.0,37407.0,37498.0,0.042549967906740996,-0.11925303818062201,0.05828595769971043,-0.3072473821873574,0.01773294284453701
41,41,37937.147898833035,4647.663875288551,13.437257519512166,37994.30135639943,-3386.590388558004,10.191861603456228,38036.70161838749,42088.55036949406,7.30876744838019,38057.0604774067,-7462.788497144701,3.170082251555275,38349.17578692519,16892.67768795968,36.67736164510197,0.9302984450132464,62.0,24.0,81.0,333.0,414.0,38.0,892.0,898.0,39.0,19.0,20.0,0.4871794871794871,288.2820512240118,3880.0031017779665,20.0,14.0,6.0,0.7,426.5238080093264,2511.2408689316326,19.0,10.0,9.0,0.5263157894736842,2540.739369973562,38952.0280933316,8.0,3.0,5.0,0.375,1624.889694411101,22951.981726461712,92.0,45.0,47.0,0.4891304347826087,271.9372060267608,17713.37304303925,,,,,37919.0,37957.0,37981.0,38000.0,38028.0,38046.0,38054.0,38062.0,38305.0,38395.0,0.06202730209402541,-0.12594490595921712,0.060366521243152615,-0.21773224512965783,0.016097933734956955
42,42,38821.753390998565,5278.358817237296,14.22496559481153,38870.90406919828,-3070.169150061866,20.247321173249375,38917.41838832276,46510.79937610297,7.5542166891447025,38976.73153956799,-3438.0768103478113,5.095930801728113,39228.42023803544,17066.239650857624,37.24183104136269,0.944519938362371,61.0,23.0,119.0,295.0,414.0,38.0,886.0,881.0,40.0,25.0,15.0,0.625,359.58334549088005,2989.632887912527,29.0,12.0,17.0,0.4137931034482758,346.519165910558,3184.514674337952,19.0,9.0,10.0,0.4736842105263157,2640.3066857163353,46300.79267357445,35.0,14.0,21.0,0.4,280.2821110339075,3576.7715031784346,100.0,52.0,48.0,0.52,363.0822093154814,17755.876806705346,,,,,38798.0,38836.0,38859.0,38888.0,38908.0,38927.0,38966.0,38978.0,39190.0,39273.0,0.06812408135585726,-0.11286647379137903,0.056767604967738146,-0.0815229346215662,0.021274880509323888
43,43,39706.60271279886,6107.6164849173965,11.544850958637852,39755.84873800096,-3506.881923569156,5.095930801728113,39798.38686190992,47188.001143238944,7.565786689332141,39874.84932180029,-2998.035746500441,5.095930801728113,40109.34787515013,17170.38714855341,37.26223851521954,0.9410495405778792,53.0,29.0,129.0,278.0,407.0,24.0,884.0,881.0,38.0,26.0,12.0,0.6842105263157895,496.7269824674206,4250.372554068976,19.0,18.0,1.0,0.9473684210526316,382.4367032650682,1145.7674053355777,19.0,9.0,10.0,0.4736842105263157,2805.566091175758,47151.30955692375,10.0,9.0,1.0,0.9,349.2258593693585,2586.3016640686524,96.0,47.0,49.0,0.4895833333333333,373.7233104771189,18048.936781961096,,,,,39694.0,39718.0,39747.0,39757.0,39789.0,39808.0,39866.0,39876.0,40065.0,40154.0,0.08132910501078043,-0.10905320213229203,0.059455073815470084,-0.11648488840635214,0.021765572741241582
44,44,40600.027373699,5772.152899830298,11.8817179931965,40652.15067819971,-2971.2847599484867,5.095930801728113,40692.04331171335,46477.10881313444,7.459531073683424,40712.15067819971,-5505.496726428709,2.2996395545561548,41001.98849841594,18021.31097151094,40.445487443231514,0.9428295680562512,66.0,30.0,75.0,334.0,409.0,36.0,893.0,893.0,37.0,26.0,11.0,0.7027027027027027,500.1876220175124,4413.727205067069,15.0,12.0,3.0,0.8,461.82050729494256,992.7646923464569,19.0,9.0,10.0,0.4736842105263157,2724.533687995516,44310.98480602879,5.0,2.0,3.0,0.4,1732.228049930385,21966.18592350315,98.0,49.0,49.0,0.5,474.0781869620397,18589.09615391539,,,,,40574.0,40610.0,40640.0,40655.0,40683.0,40701.0,40710.0,40715.0,40958.0,41049.0,0.08665529668006854,-0.15542788544540212,0.058620980469111336,-0.3146361056968682,0.026306531623114884
45,45,41469.60543169588,5687.57723068423,13.68956313932334,41526.87669549929,-2749.9932489545263,12.739827004320285,41568.67969979368,46438.39236459979,7.388441895071904,41590.15067819971,-4166.512992311672,2.2208816269669196,41879.835512095546,18450.751485899094,37.80288344217518,0.9483689855677376,56.0,29.0,76.0,331.0,407.0,27.0,871.0,877.0,41.0,21.0,20.0,0.5121951219512195,367.2439533003895,3841.805672270483,19.0,12.0,7.0,0.631578947368421,528.4231528049494,657.3165071992873,19.0,10.0,9.0,0.5263157894736842,2688.388983163932,42877.08759101592,6.0,3.0,3.0,0.5,1538.2378300649652,19448.43798601418,95.0,48.0,47.0,0.5052631578947369,383.9078257115691,19404.631215474034,,,,,41461.0,41488.0,41517.0,41534.0,41560.0,41578.0,41587.0,41593.0,41840.0,41924.0,0.06456948862498507,-0.19215434547188132,0.05789151704599713,-0.36919069564967744,0.020807164738247598
46,46,42369.87669549929,4997.028864201856,8.958382080621686,42414.726017299574,-3149.0138413308086,7.64389620259217,42458.80981783101,46455.248887751666,7.558744456634789,42521.54796540086,-2476.0127712255135,15.28779240518434,42781.383477496405,18016.84970798745,35.80862404411134,0.917409066718912,62.0,36.0,119.0,285.0,404.0,26.0,898.0,890.0,39.0,31.0,8.0,0.7948717948717948,411.2021462112641,1646.1614367158909,18.0,2.0,16.0,0.1111111111111111,303.1231449950763,2647.8209826121015,20.0,10.0,10.0,0.5,2648.9631888984945,43791.51945846257,19.0,9.0,10.0,0.4736842105263157,450.7011480088987,3078.258791145264,88.0,51.0,37.0,0.5795454545454546,356.7690029807839,17322.168539868024,,,,,42351.0,42377.0,42413.0,42431.0,42450.0,42468.0,42513.0,42532.0,42730.0,42817.0,0.08228932779577668,-0.09625970550417558,0.05702182750756755,-0.1820269884092004,0.019801963648651447
47,47,43248.178051898714,5519.218821782179,10.462837082820906,43294.06185548351,-4115.21896668624,7.64389620259217,43342.099192825095,44305.99669524835,7.334275082830296,43362.610431091125,-6085.587062820661,3.0054961068418553,43656.835512095546,16972.15398995765,36.9197811354837,0.9437950447674172,56.0,31.0,75.0,334.0,409.0,25.0,880.0,884.0,26.0,13.0,13.0,0.5,464.3982733459982,3402.3972296098655,18.0,2.0,16.0,0.1111111111111111,370.5769998633119,4138.661723592223,19.0,9.0,10.0,0.4736842105263157,2656.8459220154773,42766.72118123522,7.0,3.0,4.0,0.4285714285714285,1573.8576160186872,20548.235398532925,93.0,48.0,45.0,0.5161290322580645,360.6165787619067,17959.560461998244,,,,,43236.0,43261.0,43292.0,43310.0,43333.0,43352.0,43360.0,43367.0,43609.0,43701.0,0.08414202957730203,-0.09005037225557824,0.059965831268624044,-0.2586205077294887,0.02124754341583761
48,48,44107.38811539129,4816.477291223533,13.145696965833451,44163.178051898714,-2499.205258924729,22.93168860777651,44204.988993899555,41905.266076276435,7.422038210427705,44226.15067819971,-6554.627534901484,3.0663259122679736,44517.56276960028,17373.06884372527,37.292480869527154,0.9422374154842968,63.0,26.0,79.0,332.0,411.0,37.0,858.0,863.0,39.0,21.0,18.0,0.5384615384615384,317.7419148941617,3089.940863390719,46.0,32.0,14.0,0.6956521739130435,437.3104398547117,778.2150471512023,18.0,9.0,9.0,0.5,2498.1610358645307,39741.69588017563,6.0,3.0,3.0,0.5,1524.04056798378,20802.77737999808,97.0,51.0,46.0,0.5257731958762887,355.7333949964959,17584.201710999077,,,,,44087.0,44124.0,44150.0,44176.0,44196.0,44214.0,44223.0,44229.0,44479.0,44561.0,0.06596977327665247,-0.17497980139608957,0.059614489293955325,-0.23251367981913657,0.020476140294866683
49,49,44976.76968329212,5176.5114449891735,11.630498646434129,45030.30135639943,-3089.7180532970383,10.191861603456228,45073.7249304515,46904.82132710769,7.501467716237114,45148.12330450071,-3472.719805672318,12.739827004320285,45385.27998240522,17202.016611949028,37.22319956494336,0.9482815196141448,61.0,35.0,139.0,263.0,402.0,26.0,868.0,868.0,26.0,10.0,16.0,0.3846153846153846,384.42028581710935,5276.613773033455,38.0,22.0,16.0,0.5789473684210527,294.02851203768944,2103.177133435637,20.0,10.0,10.0,0.5,2672.360123475873,43575.004631053685,79.0,31.0,48.0,0.3924050632911392,263.70242027596726,2004.3240231110435,101.0,53.0,48.0,0.5247524752475248,370.61025892033,17786.26689750062,,,,,44967.0,44993.0,45028.0,45045.0,45064.0,45083.0,45141.0,45167.0,45346.0,45430.0,0.07426242362300299,-0.09516354145127631,0.05697410304239741,-0.07593541518818692,0.02154458208480587
50,50,45844.87669549929,5833.57671474236,12.739827004320276,45903.15067819971,-4485.907897370301,5.095930801728113,45944.98118489661,46369.78666564661,7.60035269297501,45964.6716161633,-5111.757002304827,2.80584832246755,46254.927286755614,17178.45023873548,38.547750977175376,0.942712871934662,62.0,36.0,81.0,333.0,414.0,26.0,869.0,871.0,39.0,20.0,19.0,0.5128205128205128,497.2776066606984,4554.9925024008935,29.0,15.0,14.0,0.5172413793103449,371.1412525923644,2822.2873062051767,20.0,10.0,10.0,0.5,2761.3230608935887,44208.82222452265,6.0,2.0,4.0,0.3333333333333333,1653.6450666021806,22442.425942671936,93.0,45.0,48.0,0.4838709677419355,398.5750851655527,17771.453193580935,,,,,45826.0,45852.0,45888.0,45906.0,45936.0,45955.0,45963.0,45969.0,46212.0,46302.0,0.08524403311676697,-0.08273492480974307,0.05955004884547668,-0.3234983716668403,0.02320203974319002
51,51,46685.982035336216,4887.28354091852,12.346304410372614,46736.90406919828,-3622.149002268395,19.77541163503304,46783.28466280381,45843.62557001784,7.497943924525074,46803.10856276524,-5922.7756667163585,2.738742069637188,47094.69924609606,16934.472060635973,35.25875619143101,0.9378364102438554,58.0,24.0,82.0,331.0,413.0,34.0,838.0,839.0,38.0,22.0,16.0,0.5789473684210527,323.6669186635228,4472.077141390468,30.0,12.0,18.0,0.4,358.0964385032501,3216.56093771677,19.0,9.0,10.0,0.4736842105263157,2691.357834239353,45129.51920411305,7.0,2.0,5.0,0.2857142857142857,1660.0543240398897,22685.951209038496,90.0,44.0,46.0,0.4888888888888889,410.34501092156376,17541.954378480834,,,,,46668.0,46702.0,46726.0,46754.0,46774.0,46793.0,46801.0,46808.0,47053.0,47139.0,0.06622634352061607,-0.09886297838078716,0.058707351366195745,-0.2802831674629742,0.024231343584392395
52,52,47509.32873009842,5311.1546758469185,10.624920597707913,47561.57407341024,-3724.176470332351,5.095930801728113,47604.996691851746,47193.865882340986,7.584880074187115,47625.15067819971,-5541.38711378311,2.8698060357572452,47913.56579399549,17539.006278883986,38.710006711506615,0.9554029778455092,65.0,28.0,76.0,331.0,407.0,37.0,829.0,821.0,37.0,21.0,16.0,0.5675675675675675,343.75363781556996,4262.437650901959,10.0,9.0,1.0,0.9,433.2843386925015,2163.4514033962173,20.0,10.0,10.0,0.5,2818.034327184695,44996.74192901084,7.0,2.0,5.0,0.2857142857142857,1763.9262175542865,22560.10244215661,97.0,47.0,50.0,0.4845360824742268,446.40774501276934,17231.026002082246,,,,,47488.0,47525.0,47553.0,47563.0,47596.0,47614.0,47624.0,47629.0,47870.0,47960.0,0.06472295739734879,-0.11634366473880722,0.05971187726409902,-0.31831853312808034,0.02545228263873878
53,53,48341.0746984216,4778.727619089958,10.485972784433232,48399.15067819971,-5253.609886106313,5.095930801728113,48438.336879708135,42065.17925673293,7.069038235766549,48459.411086928616,-7874.075248785388,3.356930017427496,48749.56698608272,14760.193755334429,35.048026099784,0.939517285722516,52.0,25.0,82.0,328.0,410.0,27.0,828.0,834.0,36.0,20.0,16.0,0.5555555555555556,384.86867271903134,3819.2747342191824,20.0,17.0,3.0,0.85,439.1661160161129,2221.24827205785,18.0,9.0,9.0,0.5,2561.3846742332366,41458.068414893976,8.0,3.0,5.0,0.375,1629.2139081486491,23253.38103100727,89.0,43.0,46.0,0.4831460674157303,473.6565409239218,15283.428274841992,,,,,48330.0,48357.0,48382.0,48402.0,48429.0,48447.0,48456.0,48464.0,48708.0,48792.0,0.08053789698780199,-0.08359321029479763,0.06089085365833221,-0.20690860281021098,0.032090130304200055
54,54,49179.726017299574,4307.154798931057,7.64389620190655,49219.84932180029,-3785.472315316052,5.095930801728113,49265.68933164263,42091.60727238561,7.458187841821398,49286.06630144633,-6460.286053310408,2.8052682565315927,49575.57565917602,15588.41162822312,36.536563526509006,0.9354624859201958,55.0,30.0,77.0,327.0,404.0,25.0,839.0,827.0,38.0,33.0,5.0,0.868421052631579,459.150254891824,1621.984244540659,26.0,9.0,17.0,0.3461538461538461,312.85890516021817,2691.050136009143,19.0,10.0,9.0,0.5263157894736842,2410.588571616475,39910.08726542416,8.0,3.0,5.0,0.375,1558.9710424220873,20536.306595014168,95.0,49.0,46.0,0.5157894736842106,253.5883887726706,16374.993419967732,,,,,49159.0,49184.0,49214.0,49221.0,49257.0,49275.0,49283.0,49291.0,49532.0,49618.0,0.10660175366944676,-0.08264725748868601,0.05727005281639488,-0.24131610110719984,0.016267750353316558
55,55,50016.07818955634,4869.231825839503,12.549497717189062,50056.15067819971,-4181.971653685982,5.095930801728113,50115.305616318,46320.45150562133,7.514768895073451,50177.84932180029,-3456.7479946324584,5.095930801728113,50425.51043244093,16130.982814147665,37.437308201632995,0.9524103639502824,31.0,7.0,138.0,292.0,430.0,24.0,839.0,849.0,37.0,19.0,18.0,0.5135135135135135,276.1378779404682,4471.2426655669715,38.0,15.0,23.0,0.3947368421052631,290.95820234611335,4374.317738346335,19.0,9.0,10.0,0.4736842105263157,2670.2339028498577,44999.85118804153,51.0,10.0,41.0,0.196078431372549,255.64830081097395,3157.9634300459466,90.0,44.0,46.0,0.4888888888888889,354.34427492812597,16660.279331791826,,,,,50010.0,50034.0,50041.0,50059.0,50106.0,50125.0,50168.0,50179.0,50383.0,50471.0,0.05671076831361574,-0.06957440806411572,0.05764697484707819,-0.07395630263124112,0.02196668851555335
56,56,50874.178051898714,4877.812068059581,15.626425800837865,50903.27398269839,-4764.652757834338,7.64389620259217,50967.97588095642,44621.93800236643,7.378936062565361,50988.726017299574,-6252.499516455517,2.9657795017793456,51276.07379908933,15838.547818598876,38.65141263040448,0.9411442497612484,36.0,12.0,94.0,328.0,422.0,24.0,858.0,853.0,38.0,25.0,13.0,0.6578947368421053,459.5418309588191,2662.44361409813,39.0,4.0,35.0,0.1025641025641025,446.9813799514548,5082.028852652501,18.0,9.0,9.0,0.5,2692.888340883256,42630.81893426801,7.0,3.0,4.0,0.4285714285714285,1592.9282340539926,21890.253393240608,104.0,52.0,52.0,0.5,343.07226513372666,16669.78743253088,,,,,50863.0,50887.0,50899.0,50918.0,50959.0,50977.0,50986.0,50993.0,51235.0,51321.0,0.09421064701691699,-0.09381195286823373,0.06034897768762183,-0.25476663050699583,0.02166058839882177
57,57,51722.30135639943,4243.3916286179765,5.617893497243386,51759.63008649785,-4499.022525885041,17.694043710357906,51808.31015117453,37655.63266103237,7.077670960785519,51829.440700906795,-8777.702536650562,4.890858499815144,52124.95881659626,14016.944259181775,30.487351915775527,0.8973395269498448,23.0,10.0,98.0,326.0,424.0,13.0,846.0,841.0,13.0,7.0,6.0,0.5384615384615384,484.4239821188907,1166.346128719988,44.0,23.0,21.0,0.5227272727272727,297.7990265382877,4731.7339911209365,17.0,8.0,9.0,0.4705882352941176,2421.2935875079183,37043.35055617715,11.0,4.0,7.0,0.3636363636363636,1510.783087415734,22678.31054707206,82.0,43.0,39.0,0.524390243902439,391.6641217282206,14332.425120463196,,,,,51715.0,51728.0,51738.0,51781.0,51800.0,51817.0,51825.0,51836.0,52088.0,52162.0,0.11415962148105147,-0.06619193943237817,0.06430096685146323,-0.1721160042855845,0.027942190144022418
58,58,52552.45203459914,4849.067694356738,10.539540211457698,52608.30135639943,-2208.378353097899,10.191861603452482,52641.7231352635,46369.77096922422,7.746455251316507,52719.273982700426,-3069.5907363022425,7.64389620259217,52957.383477496405,15443.07928708558,34.13735706793712,0.9469791554128252,62.0,35.0,139.0,258.0,397.0,27.0,831.0,833.0,29.0,19.0,10.0,0.6551724137931034,377.4965270326134,2352.9944034647024,38.0,32.0,6.0,0.8421052631578947,444.8527190872865,148.8759300146537,20.0,10.0,10.0,0.5,2627.5186178321824,43878.01369267011,20.0,4.0,16.0,0.2,364.01967070588813,3524.303150199845,90.0,50.0,40.0,0.5555555555555556,287.18994725582877,14656.346124557638,,,,,52534.0,52561.0,52596.0,52614.0,52632.0,52652.0,52715.0,52735.0,52913.0,52993.0,0.07784930028342096,-0.2014386341286356,0.056664472627567554,-0.11858899181602349,0.018596676343946125
59,59,53389.243450121976,6200.688436214614,14.569941884961969,53449.726017299574,-3085.0110519047607,7.64389620259217,53490.88682526381,47046.62504858081,7.637689272331984,53511.575339099865,-4476.005890836914,1.9165273140213357,53800.04407332663,17044.32551913478,38.034755123323805,0.9538132204497798,72.0,34.0,69.0,333.0,402.0,38.0,839.0,849.0,40.0,18.0,22.0,0.45,325.2896832526853,4838.872804451083,10.0,6.0,4.0,0.6,497.2940294082895,1428.3622689735157,20.0,10.0,10.0,0.5,2700.851358935509,44193.62817135107,3.0,2.0,1.0,0.6666666666666666,1592.0253555696625,20491.535008727507,96.0,48.0,48.0,0.5,428.30963467967825,16974.693042762083,,,,,53372.0,53410.0,53444.0,53454.0,53481.0,53500.0,53510.0,53513.0,53757.0,53846.0,0.052460252857224283,-0.16119683885775646,0.057407972540997,-0.35567990623711826,0.025129163028413018
60,60,54249.60271279886,5234.7631863417855,10.435008082870786,54296.135766553234,-4011.973668201857,7.64389620259217,54342.05136114599,43954.317513055066,7.376182152756058,54362.726017299574,-6930.599198188901,3.285301988774194,54649.81890801752,15798.449486985215,39.00981560613138,0.9459483232988378,55.0,32.0,74.0,329.0,403.0,23.0,859.0,852.0,40.0,27.0,13.0,0.675,490.10326451739394,2097.088858144905,19.0,3.0,16.0,0.1578947368421052,334.9185592319047,4200.922668297218,18.0,9.0,9.0,0.5,2665.1099509476994,42739.81002939246,8.0,4.0,4.0,0.5,1624.855207270943,21267.583655929306,104.0,52.0,52.0,0.5,361.5926638743043,15579.126881265642,,,,,54238.0,54261.0,54293.0,54312.0,54333.0,54351.0,54359.0,54367.0,54610.0,54696.0,0.09362472514442306,-0.08347975010065638,0.06063363286567067,-0.23444656959755356,0.022887857708579873
61,61,55086.32873009842,4605.276495773833,11.688402771617858,55135.273982700426,-3851.496637111212,7.64389620259217,55182.85617703433,39599.9213311878,7.324654705295692,55203.48356863361,-6772.337088561342,3.327423741772873,55498.95881659626,15983.041043285728,36.12696709601123,0.934035308146266,53.0,29.0,78.0,327.0,405.0,24.0,838.0,840.0,37.0,21.0,16.0,0.5675675675675675,409.8262635674826,3149.6962700302547,20.0,4.0,16.0,0.2,375.07938367711233,3452.256435781444,18.0,9.0,9.0,0.5,2413.9027945895964,37693.15148816268,9.0,3.0,6.0,0.3333333333333333,1526.777549172452,20430.284035803277,90.0,50.0,40.0,0.5555555555555556,414.0930336949788,15907.055737980423,,,,,55078.0,55102.0,55131.0,55151.0,55174.0,55192.0,55200.0,55209.0,55449.0,55536.0,0.08899058806644329,-0.09738535925567833,0.060957262374369256,-0.225443230188766,0.025908275688807922
62,62,55945.753390998565,5820.3938363512825,14.017435121588871,55994.60271279886,-2120.7613528632182,20.196002471601624,56040.78651487141,47386.5413738525,7.777670977576136,56107.57251299786,-2248.16886514138,5.095930801728113,56357.10949479597,17304.542428382865,38.15242071360407,0.9481594279737692,67.0,30.0,119.0,288.0,407.0,37.0,859.0,858.0,39.0,24.0,15.0,0.6153846153846154,365.49034768992817,3932.243123361856,19.0,5.0,14.0,0.2631578947368421,312.739519883489,1542.5605348950178,20.0,10.0,10.0,0.5,2716.752424810215,44768.208636115305,6.0,5.0,1.0,0.8333333333333334,286.3554479688873,1932.540746710724,97.0,56.0,41.0,0.5773195876288659,329.6806270487895,16958.78501006065,,,,,55923.0,55960.0,55990.0,56009.0,56031.0,56051.0,56103.0,56109.0,56307.0,56397.0,0.0627947795228662,-0.14746568229436213,0.05733173061474574,-0.12737274873294685,0.01905168128040463
63,63,56824.753390998565,5458.48884410708,12.757978139375862,56871.45203459914,-2855.872738858359,15.287792401808172,56918.68742471696,47052.18389809972,7.739111370125587,56939.15067819971,-5111.923363343944,2.249585665808101,57236.10949479597,16475.99404050683,35.230430649269394,0.9293694708081096,56.0,29.0,74.0,334.0,408.0,27.0,879.0,878.0,39.0,25.0,14.0,0.6410256410256411,402.13860072183087,3506.2628591470643,32.0,22.0,10.0,0.6875,332.2449682592581,3550.0253354090046,20.0,10.0,10.0,0.5,2773.5415122764766,44570.64484932418,5.0,2.0,3.0,0.4,1676.0811473569593,21304.78589161256,95.0,55.0,40.0,0.5789473684210527,360.6130153994064,16392.282091086538,,,,,56812.0,56839.0,56868.0,56881.0,56909.0,56928.0,56937.0,56942.0,57182.0,57276.0,0.07367214850241473,-0.11633745570612286,0.05894607396509157,-0.32787681430743465,0.021887178067242934
64,64,57686.86326415075,5000.801544151898,12.692794638206925,57735.60271279886,-2515.1402879007437,15.21773727645949,57783.30183740484,40745.59987404075,7.248988995073477,57803.859927024394,-7347.002336829044,3.5047859696779504,58092.9224686316,15464.312441172273,37.4567090785044,0.9464070489377864,48.0,25.0,82.0,330.0,412.0,23.0,858.0,865.0,23.0,8.0,15.0,0.3478260869565217,382.9130085589738,5462.909267024991,47.0,28.0,19.0,0.5957446808510638,339.23552027618956,2279.1667556483826,18.0,9.0,9.0,0.5,2486.9512846230327,40096.60333718364,9.0,4.0,5.0,0.4444444444444444,1526.7581970338836,21640.397326755512,96.0,48.0,48.0,0.5,412.3834936226279,16730.11582058076,,,,,57679.0,57702.0,57727.0,57747.0,57774.0,57792.0,57800.0,57809.0,58053.0,58139.0,0.0765703268122617,-0.13487737519378362,0.06103606996365473,-0.20780695677481303,0.026666784908244336
65,65,58542.87669549929,5400.375480989139,12.739827004320285,58586.32873009842,-2629.8420823812694,23.936460984253237,58631.200188791394,43535.13476262416,7.754529467363231,58650.90752749082,-6071.407557979212,2.82461559186766,58940.203078235194,16944.28290578337,38.51114896744297,0.946524766723828,67.0,29.0,77.0,331.0,408.0,38.0,858.0,848.0,39.0,31.0,8.0,0.7948717948717948,344.2746441722947,1911.6902736916995,37.0,20.0,17.0,0.5405405405405406,266.12544456306256,2019.904073589442,19.0,9.0,10.0,0.4736842105263157,2468.857572157044,42162.22456301136,7.0,2.0,5.0,0.2857142857142857,1653.8017974730144,21571.57374493243,96.0,48.0,48.0,0.5,312.63749740561246,17247.241635196537,,,,,58512.0,58550.0,58579.0,58602.0,58622.0,58641.0,58649.0,58656.0,58894.0,58987.0,0.06375013096482635,-0.10119445815624462,0.056709542433221335,-0.27239182704833287,0.018450913452283307
66,66,59409.25193817497,5020.476912123871,12.674716394405294,59456.05474739799,-3750.633617973566,17.026817653743585,59505.64245678306,46603.54209381579,7.655910706573216,59589.21923530245,-2811.884424409061,43.31528993141324,59816.10354269682,16570.327796683876,36.11057512242025,0.9409704219299784,55.0,18.0,160.0,257.0,417.0,37.0,868.0,874.0,38.0,21.0,17.0,0.5526315789473685,386.7024949933631,4372.463678876276,45.0,24.0,21.0,0.5333333333333333,404.4722803104652,2823.9661400390833,20.0,10.0,10.0,0.5,2796.614075779056,42802.916927931765,40.0,25.0,15.0,0.625,331.4046759784623,2490.838183961262,91.0,46.0,45.0,0.5054945054945055,334.64719410538055,17893.531843725774,,,,,59389.0,59426.0,59444.0,59476.0,59496.0,59515.0,59565.0,59604.0,59776.0,59861.0,0.0770250519546303,-0.10784105340819666,0.060008616301080724,-0.11785856954206414,0.020195568742602157
67,67,60304.98753952389,6513.748854377394,15.166429855169078,60334.2054256002,-3980.7668088321825,20.793695336045715,60397.257368570965,44323.55314659866,7.27047989120416,60419.15067819971,-5840.772023552647,3.027205824653002,60708.835512095546,16750.360181688982,37.794884761911426,0.9460720064039936,40.0,8.0,97.0,331.0,428.0,32.0,890.0,892.0,36.0,24.0,12.0,0.6666666666666666,409.6701428907514,2448.314414609539,38.0,10.0,28.0,0.2631578947368421,427.88958129764904,4959.718550266527,19.0,9.0,10.0,0.4736842105263157,2618.847872377874,42522.63422504433,7.0,4.0,3.0,0.5714285714285714,1475.9631119097965,20239.000592925728,93.0,48.0,45.0,0.5161290322580645,471.3476589681768,17650.188800877368,,,,,60285.0,60317.0,60325.0,60362.0,60388.0,60406.0,60415.0,60422.0,60668.0,60753.0,0.06289314372558949,-0.10748923557850325,0.05908479096240599,-0.25270000369095774,0.028139553648729335
68,68,61183.273982700426,5173.083091887534,7.64389620259217,61236.726017299574,-3050.3765234926022,7.64389620259217,61279.782262725326,40500.89385224905,7.358677690501368,61300.30963439795,-7222.31241974051,3.614995299574605,61589.405814011094,15716.773608853688,36.511131544027144,0.92906135974275,43.0,23.0,84.0,329.0,413.0,20.0,879.0,885.0,36.0,20.0,16.0,0.5555555555555556,334.5779362881295,3793.708249668139,19.0,15.0,4.0,0.7894736842105263,336.8331355697634,2442.9090810452453,18.0,9.0,9.0,0.5,2445.87384960101,37761.53605414611,9.0,3.0,6.0,0.3333333333333333,1600.0226314083563,21498.5563926069,93.0,45.0,48.0,0.4838709677419355,296.30432196515477,16254.641432980428,,,,,61179.0,61199.0,61222.0,61241.0,61271.0,61289.0,61297.0,61306.0,61547.0,61635.0,0.06467669866212221,-0.11042346181713271,0.06039061405715589,-0.2215388283446541,0.018852744802421693
69,69,62099.81745875639,6653.697307149216,15.96804797288177,62157.575339099865,-2158.420219483595,2.5479654008640567,62200.79794403771,47888.19889780827,7.872907994692297,62276.15067819971,-1369.0221404092665,5.095930801728113,62510.00473189141,17563.70068272951,41.38335334751192,0.9594995280661226,70.0,28.0,130.0,278.0,408.0,42.0,918.0,918.0,42.0,21.0,21.0,0.5,322.5436619333264,7669.332219780091,10.0,9.0,1.0,0.9,344.9363852992349,1026.4241737369352,20.0,10.0,10.0,0.5,2743.6656903901953,45759.49051160012,18.0,15.0,3.0,0.8333333333333334,245.7619939305792,1566.2599119002844,104.0,52.0,52.0,0.5,411.6200378684919,18408.480602487,,,,,62079.0,62121.0,62149.0,62159.0,62191.0,62211.0,62269.0,62279.0,62465.0,62557.0,0.04847585440755805,-0.15980965253455673,0.05729314849040535,-0.1795164494981134,0.023435837657677705
70,70,63054.60271279886,5347.836885289704,10.933112162553794,63100.72123212627,-3937.400672541517,7.64389620259217,63146.70325329754,47522.66086323841,7.550570192660783,63216.84932180029,-2744.6927579761496,5.095930801728113,63457.76602304946,17818.027937519135,38.080776404583105,0.9402232950972014,69.0,32.0,120.0,286.0,406.0,37.0,958.0,946.0,39.0,27.0,12.0,0.6923076923076923,403.01490550430384,2720.097871345659,19.0,3.0,16.0,0.1578947368421052,296.3969939248825,4415.561649188398,19.0,10.0,9.0,0.5263157894736842,2724.6251205240765,44940.34318962172,20.0,19.0,1.0,0.95,273.2437619930016,1910.0892142260775,89.0,43.0,46.0,0.4831460674157303,280.9866045856042,19864.040506800236,,,,,63029.0,63066.0,63098.0,63117.0,63137.0,63156.0,63208.0,63218.0,63416.0,63504.0,0.0753603586176828,-0.07527732597596269,0.05733317686829559,-0.0995534969074218,0.01576979257025045
71,71,64014.87669549929,5753.636838895796,12.739827004299665,64054.32873009842,-2552.0403614105635,20.66964811057392,64101.53848879415,43812.86422659198,7.496893715606306,64121.59066905775,-5930.586049747965,2.8721730012321465,64412.92778799222,16609.116526231235,38.283089658288205,0.9327247449696604,53.0,26.0,78.0,332.0,410.0,27.0,959.0,955.0,41.0,33.0,8.0,0.8048780487804879,463.5441430674782,2525.954671663125,35.0,17.0,18.0,0.4857142857142857,237.5401667118992,1955.5861798194776,19.0,10.0,9.0,0.5263157894736842,2576.6081191842327,40757.97178539744,7.0,3.0,4.0,0.4285714285714285,1611.9505241517406,20531.07346444053,94.0,48.0,46.0,0.5106382978723404,390.4322687796493,17127.14409928168,,,,,63995.0,64022.0,64048.0,64070.0,64093.0,64111.0,64119.0,64126.0,64374.0,64458.0,0.08056541558789777,-0.0930785305372702,0.05880939684423495,-0.271802906260882,0.023507106363124666
72,72,64930.753390998565,5535.294223301484,11.173281350538486,64973.84932180029,-3852.428236590244,5.095930801728113,65025.74091063637,41481.65558681057,7.402333555380832,65046.02396863471,-6273.997996801179,3.225674726212594,65342.10949479597,16908.249863744044,35.60044739139257,0.9276486287597352,34.0,10.0,96.0,331.0,427.0,24.0,918.0,925.0,39.0,24.0,15.0,0.6153846153846154,367.3858985656907,3817.830646111128,44.0,23.0,21.0,0.5227272727272727,305.69915981344883,2758.330075953074,18.0,9.0,9.0,0.5,2509.9506609780537,39527.26747263328,8.0,3.0,5.0,0.375,1527.9719228454346,21037.3327721174,93.0,50.0,43.0,0.5376344086021505,359.884340139635,16609.745101267945,,,,,64921.0,64945.0,64955.0,64975.0,65017.0,65035.0,65043.0,65051.0,65293.0,65382.0,0.0663715213220529,-0.07935233080007245,0.06050748518764793,-0.24354039061288776,0.02128454115829731
73,73,65851.90473896216,5781.323607082203,13.377183021550234,65911.15067819973,-4250.960071361954,5.095930801728113,65951.8027393524,46282.941816562336,7.595902227880746,66011.45869360601,-2891.4456939793517,5.095930801728113,66262.56519649342,17533.387289851253,37.08649008985207,0.947968112582337,61.0,23.0,119.0,296.0,415.0,38.0,919.0,925.0,40.0,20.0,20.0,0.5,319.3414996375199,4668.547137885539,20.0,17.0,3.0,0.85,455.06310536304494,1879.402930343246,20.0,10.0,10.0,0.5,2611.3043975116625,43386.98590922532,11.0,9.0,2.0,0.8181818181818182,249.84040412234216,3508.031269958333,92.0,45.0,47.0,0.4891304347826087,354.55428619610456,17846.890164220065,,,,,65833.0,65871.0,65894.0,65914.0,65942.0,65962.0,66002.0,66013.0,66220.0,66309.0,0.05523674530972839,-0.10704948946209426,0.05642044984653953,-0.08640674270402753,0.020221665120083734
74,74,66767.32873009844,5077.447897271276,12.103475052453556,66829.15067819973,-3885.772112774174,5.095930801728113,66864.8623897475,44697.27909486967,7.319335623208026,66884.77063716957,-5965.557525223146,3.006792262712015,67180.53415569612,17394.994678482657,35.0198021585287,0.9314583810455808,65.0,30.0,77.0,329.0,406.0,35.0,918.0,913.0,38.0,21.0,17.0,0.5526315789473685,413.1687718516799,3543.490353990914,19.0,16.0,3.0,0.8421052631578947,526.6682688074599,2180.965267624827,18.0,9.0,9.0,0.5,2692.9559349097813,42661.79274157763,8.0,3.0,5.0,0.375,1622.43379066513,21779.057804136348,90.0,51.0,39.0,0.5666666666666667,380.4868690825163,17469.4906285422,,,,,66748.0,66783.0,66813.0,66832.0,66856.0,66874.0,66882.0,66890.0,67135.0,67219.0,0.08137331592781587,-0.1355376109360811,0.06024876657914681,-0.2719668335784662,0.0218733535775767
75,75,67670.15067819973,5355.18380539485,5.095930801728113,67709.84932180027,-3070.970321908842,5.095930801728113,67752.9724472699,40826.50215816648,7.291039154889485,67773.67461210939,-6918.694703528603,3.2346654970124784,68061.54702752887,16958.548411936248,38.68508144589316,0.9287762554636868,44.0,20.0,86.0,328.0,414.0,24.0,899.0,888.0,38.0,35.0,3.0,0.9210526315789472,412.2174163670386,2420.6753653821306,32.0,18.0,14.0,0.5625,357.6628076448495,711.0759960429875,18.0,9.0,9.0,0.5,2584.2340642014196,38573.407918064986,8.0,3.0,5.0,0.375,1530.2580667348311,20729.49752402949,94.0,48.0,46.0,0.5106382978723404,455.0874971843578,17231.641851206285,,,,,67649.0,67673.0,67693.0,67711.0,67744.0,67762.0,67771.0,67779.0,68017.0,68107.0,0.0769754001630659,-0.11646573237560136,0.06329795421096339,-0.2211772787075551,0.026835286023893717
76,76,68542.17805189872,4972.343887628438,15.9632358432104,68568.27398270041,-4933.80448244345,7.64389620259217,68635.59209568174,45854.61089635344,7.586747505625477,68707.84932180027,-3478.5165008475037,5.095930801728113,68943.36375477807,17859.9198692445,37.40780682129685,0.9330435083697054,45.0,8.0,146.0,278.0,424.0,37.0,875.0,883.0,38.0,25.0,13.0,0.6578947368421053,365.8534235744164,3616.525388240422,7.0,5.0,2.0,0.7142857142857143,436.6093244621864,6777.715195328146,20.0,10.0,10.0,0.5,2592.837239705758,43020.92287267765,12.0,11.0,1.0,0.9166666666666666,280.7458151788389,3185.5076648799504,96.0,47.0,49.0,0.4895833333333333,354.2154799745118,19113.37425789898,,,,,68518.0,68555.0,68563.0,68570.0,68626.0,68645.0,68702.0,68709.0,68899.0,68987.0,0.07357765911659629,-0.08849343868729008,0.05654474411671328,-0.08070849027464384,0.019832982598342177
77,77,69447.08199911541,6465.0914377406925,14.245291724384792,69505.15067819973,-2059.49748872408,5.095930801728113,69545.98691990136,47721.73978977708,7.87775380269894,69565.57533909987,-3704.565473820416,1.8072536657931977,69855.79991071847,18498.509776348397,39.13042692366063,0.9539460883684328,71.0,33.0,70.0,335.0,405.0,38.0,902.0,910.0,39.0,20.0,19.0,0.5128205128205128,358.9440126740797,6593.006942679467,12.0,9.0,3.0,0.75,385.8727282174619,658.0792245775908,20.0,10.0,10.0,0.5,2730.3608051300407,45488.864342493194,3.0,1.0,2.0,0.3333333333333333,1623.754019955221,20153.799763309693,94.0,45.0,49.0,0.4787234042553192,304.2973276740459,19226.422534126206,,,,,69427.0,69465.0,69498.0,69508.0,69536.0,69556.0,69565.0,69568.0,69812.0,69903.0,0.05552033039760335,-0.1873625631155887,0.057214192465693314,-0.4383115999514751,0.016449829275605257
78,78,70384.87669549929,5602.313123231479,12.739827004320285,70423.63008649785,-3377.8823696565055,19.332803969142336,70473.28998977355,41527.55339322675,7.265441984898383,70494.72601729959,-6447.52689162431,3.2255895618109727,70784.3025507099,16302.749036252344,38.15876881229516,0.9452987430590548,50.0,23.0,84.0,330.0,414.0,27.0,939.0,928.0,38.0,30.0,8.0,0.7894736842105263,414.2359829481867,2978.5162813373995,38.0,17.0,21.0,0.4473684210526316,304.8921619486096,2948.3874366346954,17.0,8.0,9.0,0.4705882352941176,2496.629878208606,41407.894300797154,9.0,5.0,4.0,0.5555555555555556,1483.1500062838488,19619.072358249377,93.0,47.0,46.0,0.5053763440860215,287.66390050673573,17391.805594170222,,,,,70365.0,70392.0,70415.0,70445.0,70465.0,70482.0,70490.0,70499.0,70741.0,70829.0,0.07394016968284889,-0.09026133197752943,0.06011984030380688,-0.2300339387820998,0.017645116162130627
79,79,71302.17805189872,5071.45227063355,10.686399136390818,71362.15067819973,-3194.9429088745533,5.095930800322838,71395.71408837385,43902.97977512203,7.632101177757045,71415.15067819973,-4454.302576805038,2.6644282213807458,71713.95881659626,17624.12589970049,34.99683988440413,0.9256201513340518,48.0,11.0,93.0,332.0,425.0,37.0,919.0,922.0,39.0,25.0,14.0,0.6410256410256411,395.3486427895271,2057.175890149971,39.0,36.0,3.0,0.9230769230769232,325.40047857686113,1885.2051724631583,20.0,10.0,10.0,0.5,2557.9556376967525,40346.19126436835,6.0,2.0,4.0,0.3333333333333333,1673.627840775997,21051.894579181673,89.0,50.0,39.0,0.5617977528089888,427.7286314675378,17878.732796029668,,,,,71278.0,71315.0,71326.0,71365.0,71386.0,71406.0,71414.0,71419.0,71668.0,71751.0,0.07795570611574311,-0.10184860507929587,0.058263827439481414,-0.37573285871757034,0.02426949477674843
80,80,72260.60271279886,6497.534865422346,13.262656405906132,72306.72601729959,-2748.010854128197,7.64389620259217,72351.29163165376,47578.93259407657,7.721948441618369,72407.84932179908,-950.4448002498274,5.095930801728084,72671.2601729957,18534.21350505493,39.91781945314028,0.938925936969814,73.0,33.0,104.0,305.0,409.0,40.0,958.0,955.0,42.0,30.0,12.0,0.7142857142857143,479.2588558528635,3690.175393123489,8.0,3.0,5.0,0.375,340.11313499318425,2625.6796706261757,19.0,9.0,10.0,0.4736842105263157,2675.1065024585646,46622.6324790326,6.0,3.0,3.0,0.5,302.42104882465776,2179.521373168461,100.0,56.0,44.0,0.56,396.45643814254447,19439.92528792678,,,,,72232.0,72272.0,72305.0,72312.0,72342.0,72361.0,72405.0,72409.0,72620.0,72714.0,0.07376010529829011,-0.12376702751455641,0.05622460102838892,-0.3181889666240117,0.021390518569046207
81,81,73220.45203459915,5388.31400899293,13.332708820642864,73266.72601729959,-2400.9579161207084,7.64389620259217,73306.75500728578,42693.127433567766,7.342596874607391,73327.72601729959,-6524.640617940942,2.9590486227490103,73618.56152939511,16726.14757380389,39.71363242229132,0.9347220207326172,75.0,35.0,68.0,335.0,403.0,40.0,959.0,956.0,41.0,31.0,10.0,0.7560975609756098,383.6301637882042,3244.096877250179,7.0,3.0,4.0,0.4285714285714285,473.4304414595698,714.0843881057609,18.0,9.0,9.0,0.5,2530.0984565031804,39880.29011117911,8.0,4.0,4.0,0.5,1529.6714649064536,19672.7471838751,99.0,49.0,50.0,0.494949494949495,330.43555734912667,18109.498102714777,,,,,73189.0,73229.0,73264.0,73271.0,73298.0,73316.0,73324.0,73332.0,73573.0,73667.0,0.07119669773289701,-0.19718398156036984,0.059262429543024596,-0.234445321126237,0.019755628478768612
82,82,74138.52692015185,6084.575559840128,16.98505338999005,74198.15067819973,-2103.1130268165903,5.095930801728113,74238.37154733937,42973.08560539984,7.579220006811443,74257.91765360135,-5626.339186999226,2.609702938307054,74550.55540763665,17676.02018946074,39.19265611811254,0.9490548104777068,63.0,24.0,79.0,336.0,415.0,39.0,919.0,932.0,42.0,21.0,21.0,0.5,272.5457033834429,4970.132406008794,18.0,15.0,3.0,0.8333333333333334,403.8704663944253,296.585997766487,19.0,9.0,10.0,0.4736842105263157,2515.5375844062705,41576.61212034804,6.0,2.0,4.0,0.3333333333333333,1660.3525060832226,20979.148714327403,94.0,46.0,48.0,0.4893617021276595,427.9639014323619,19057.423254088542,,,,,74120.0,74159.0,74183.0,74201.0,74229.0,74248.0,74256.0,74262.0,74508.0,74598.0,0.04479288665298521,-0.19203459882788618,0.058537513631326886,-0.2951035212949473,0.024211553101050075
83,83,75070.17805189872,6036.888169460407,11.73789046347703,75122.15067819973,-3177.625941206834,5.095930801728113,75163.53081045194,45453.51729663184,7.6259643865109314,75183.22430181595,-4885.974541539018,2.1912361524986506,75476.11141330645,17221.608376311204,37.05489004574704,0.9434999443490396,63.0,38.0,66.0,335.0,401.0,25.0,932.0,924.0,26.0,12.0,14.0,0.4615384615384615,563.2451295401487,4830.903575957221,14.0,2.0,12.0,0.1428571428571428,400.0539895292916,892.3730690733463,19.0,10.0,9.0,0.5263157894736842,2653.0046474341607,41785.1118333323,6.0,2.0,4.0,0.3333333333333333,1641.2335551058482,21950.932580291137,95.0,48.0,47.0,0.5052631578947369,427.2598448816318,17312.23317047006,,,,,75058.0,75083.0,75121.0,75129.0,75154.0,75173.0,75181.0,75187.0,75438.0,75522.0,0.09330057369449218,-0.1258971310441136,0.058367422483952665,-0.3359071033122659,0.02480952043186277
84,84,75977.87669549929,5372.64294541303,12.739827004320285,76016.63008649785,-2907.020813262267,18.92359755586153,76066.69441371688,43571.86517007365,7.413609024329579,76086.74226364103,-6532.573201462072,2.8795888591855587,76388.80813839656,16532.55058144728,36.5854031913589,0.9126861456994342,42.0,15.0,92.0,331.0,423.0,27.0,906.0,904.0,39.0,30.0,9.0,0.7692307692307693,443.4304862264876,2540.9362984653376,38.0,17.0,21.0,0.4473684210526316,269.4605200288557,2326.185111782189,18.0,9.0,9.0,0.5,2621.355736077271,40937.618243613106,8.0,3.0,5.0,0.375,1696.4942670663995,21648.6282498046,94.0,59.0,35.0,0.6276595744680851,370.7708348974676,16729.749612529708,,,,,75958.0,75985.0,76000.0,76038.0,76058.0,76076.0,76084.0,76092.0,76337.0,76423.0,0.08253488845840251,-0.09269301368587944,0.060161659957528965,-0.25969770483194937,0.022426717103986613
85,85,76838.506863312,4508.463297899198,12.09677465653716,76883.63008649785,-4392.269197279692,17.273456278694955,76933.20903797926,39177.74141694715,7.044756689438528,76955.15067819973,-7681.534453955829,3.717997987727241,77245.27979724498,16030.645438367064,34.469327645271804,0.9215636864286044,30.0,8.0,98.0,330.0,428.0,22.0,858.0,867.0,23.0,10.0,13.0,0.4347826086956521,403.1384316177435,3813.6446064939423,46.0,25.0,21.0,0.5434782608695652,343.179109804997,4064.542384587462,18.0,9.0,9.0,0.5,2424.5733362010897,38352.16972967312,8.0,5.0,3.0,0.625,1422.6346699710275,20189.053149843232,91.0,44.0,47.0,0.4835164835164835,400.94012104303505,15829.28113185136,,,,,76830.0,76852.0,76860.0,76905.0,76924.0,76942.0,76950.0,76958.0,77205.0,77288.0,0.08941814649031153,-0.07813253113391627,0.06188650107206766,-0.18520188622449002,0.025010853280020905
86,86,77714.45203459915,5076.223774247261,15.28779240518434,77754.63008649785,-4111.844283544863,21.990027535078887,77804.94665255275,46490.22964628446,7.727468942600096,77877.945252602,-3249.041250933496,35.6715156120968,78115.99500297342,16749.322852502533,35.12125220281418,0.941361977220814,41.0,14.0,180.0,242.0,422.0,27.0,879.0,871.0,38.0,28.0,10.0,0.7368421052631579,386.5816732294731,2044.3168908092616,45.0,24.0,21.0,0.5333333333333333,311.1328741132686,3453.1686614453047,20.0,10.0,10.0,0.5,2655.2442882884584,43598.85231362883,80.0,21.0,59.0,0.2625,278.6014411670893,2868.4199514326497,84.0,41.0,43.0,0.4880952380952381,281.9096502670066,18432.13895676039,,,,,77696.0,77723.0,77737.0,77776.0,77796.0,77815.0,77858.0,77917.0,78075.0,78159.0,0.07615536477936263,-0.07566747489888838,0.0571140282268033,-0.08574881623526422,0.01683110730801193
87,87,78613.45203459915,5372.455134853787,11.803998818369127,78659.45203459915,-3077.7381939557545,15.28779240518434,78702.85952139815,46419.40430322158,7.729489908539072,78722.15067819973,-4672.335132150989,2.2915235232690327,79013.32384042749,17603.603315487693,36.12528986270546,0.9352081918930863,62.0,34.0,70.0,332.0,402.0,28.0,899.0,898.0,29.0,19.0,10.0,0.6551724137931034,407.0830956342499,2840.905904246711,38.0,23.0,15.0,0.6052631578947368,314.7995177521039,2944.023155316378,20.0,10.0,10.0,0.5,2681.488785708347,44117.38789236055,5.0,1.0,4.0,0.2,1702.822720783045,21764.668410997292,92.0,47.0,45.0,0.5108695652173914,297.3669531878922,17888.37242902528,,,,,78594.0,78622.0,78656.0,78674.0,78694.0,78712.0,78721.0,78726.0,78973.0,79058.0,0.0757722652709186,-0.1022827472363718,0.05776654883790156,-0.36444789866756017,0.016892391168930057
88,88,79511.6553705048,4625.124410691202,15.824756479230505,79552.12330449795,-3742.751031055659,12.739827004320285,79608.54270112827,43253.744164148586,7.25674676588145,79628.8987369565,-7710.843080411347,3.06082880057898,79922.68483389584,17389.795044165898,36.30542349351611,0.9389568421444436,35.0,7.0,98.0,330.0,428.0,28.0,899.0,906.0,41.0,23.0,18.0,0.5609756097560976,407.2357941326265,3359.8396178418625,19.0,16.0,3.0,0.8421052631578947,356.9153131696924,3548.71268930719,19.0,10.0,9.0,0.5263157894736842,2604.850823123251,39997.2169070198,9.0,4.0,5.0,0.4444444444444444,1740.1905334252376,22502.337573533605,93.0,51.0,42.0,0.5483870967741935,337.3398978830672,17646.385058047872,,,,,79501.0,79529.0,79536.0,79555.0,79600.0,79617.0,79625.0,79634.0,79873.0,79964.0,0.08804861404187983,-0.09536175668864165,0.060222551214012925,-0.22568096838152807,0.01939872764608812
89,89,80413.13266353897,5144.652435891325,13.769347185355018,80459.60271279886,-2369.631000512256,14.33704747436143,80510.0120599578,44181.55337840438,7.72938699426431,80531.57533909987,-4369.778715229915,2.2301529267331275,80820.83551209555,17746.62906434635,37.156475626884735,0.9295868748077284,51.0,26.0,78.0,332.0,410.0,25.0,899.0,901.0,38.0,21.0,17.0,0.5526315789473685,329.1726492319361,5287.710062768772,19.0,5.0,14.0,0.2631578947368421,376.7404063409475,2687.8345454579007,20.0,10.0,10.0,0.5,2516.6492857185576,42190.91382237589,5.0,4.0,1.0,0.8,1391.984343097239,17952.183895354774,93.0,49.0,44.0,0.5268817204301075,412.0139319251456,18978.16028350462,,,,,80404.0,80429.0,80455.0,80474.0,80500.0,80520.0,80528.0,80533.0,80776.0,80865.0,0.06398345725660397,-0.1589869503983977,0.05696153922348682,-0.31854801668692734,0.023216461584408567
90,90,81350.03386295667,5869.54173696832,13.544600907524536,81391.84932180027,-2986.5277587177657,5.095930801728113,81449.19691507898,47677.10442849628,7.75361665755792,81510.84932180018,-2656.7072914877313,5.095930801728113,81760.66653946243,17177.539393043324,37.723215413987774,0.954943480636404,56.0,19.0,125.0,294.0,419.0,37.0,939.0,940.0,38.0,19.0,19.0,0.5,281.41872919066117,4728.904602460702,18.0,17.0,1.0,0.9444444444444444,300.9740795908857,1993.0672798526648,20.0,10.0,10.0,0.5,2662.978518723219,46015.852393932306,10.0,9.0,1.0,0.9,295.3501804433791,3023.747911784617,97.0,50.0,47.0,0.5154639175257731,350.80539366984135,17415.745077934745,,,,,81331.0,81368.0,81387.0,81393.0,81440.0,81459.0,81502.0,81512.0,81718.0,81806.0,0.04794560492145285,-0.10077725837716833,0.05585445153694307,-0.11117151723477438,0.020422330907994477
91,91,82309.45203459915,5812.870721203858,12.366058475182092,82350.84932180027,-2463.210835582162,5.095930801728113,82397.77804790412,45406.429859129435,7.570556432156793,82417.38453114686,-5345.3721823531305,2.7081039029913465,82721.2327992967,16994.05901295333,36.79117892482698,0.9207058708977672,68.0,29.0,75.0,332.0,407.0,39.0,959.0,948.0,40.0,30.0,10.0,0.75,432.78116242979,3032.3930892955086,24.0,6.0,18.0,0.25,279.2575177166066,2178.495674548052,19.0,10.0,9.0,0.5263157894736842,2641.939903067793,42765.29915419938,7.0,2.0,5.0,0.2857142857142857,1700.1958641988783,21543.082314551382,97.0,60.0,37.0,0.6185567010309279,414.96635284905005,16056.57198431106,,,,,82279.0,82318.0,82347.0,82352.0,82389.0,82407.0,82415.0,82422.0,82667.0,82754.0,0.0744522256191103,-0.11337134186104136,0.05818426842331017,-0.31806875296949316,0.024418318927382297
92,92,83235.17805189872,5243.1984355503355,11.942707815647264,83288.57533909987,-3005.2087079949492,2.5479654008640567,83327.966275209,40337.855013117856,7.371510619692953,83348.61057010839,-6665.97460686311,3.5966777987471854,83640.18442131483,16372.8914753866,37.44809026431578,0.9315369714932662,61.0,23.0,83.0,332.0,415.0,38.0,927.0,931.0,40.0,26.0,14.0,0.65,395.36203114416344,2846.7708793637676,19.0,18.0,1.0,0.9473684210526316,397.63339371784207,287.92643254905306,18.0,9.0,9.0,0.5,2457.3792762087846,38430.53540060372,8.0,3.0,5.0,0.375,1435.075610277538,20124.64667674403,94.0,47.0,47.0,0.5,373.4900323919272,16671.625419761178,,,,,83210.0,83248.0,83271.0,83290.0,83319.0,83337.0,83346.0,83354.0,83597.0,83686.0,0.07540474311700651,-0.13231473496665722,0.06091992931725412,-0.21528368991985394,0.022811488914673102
93,93,84146.8968804209,6186.607590271945,13.895192530906236,84206.15067819973,-3036.4632916665923,5.095930801728113,84246.69916780028,46876.82700819774,7.702081377588913,84307.84932180027,-2884.639468248834,5.095930801728113,84557.93105880157,17020.06620938047,37.91231345274728,0.9494570764270308,62.0,23.0,119.0,295.0,414.0,39.0,911.0,918.0,39.0,19.0,20.0,0.4871794871794871,292.49420359778986,5430.062335670773,20.0,16.0,4.0,0.8,373.9137723335468,372.6624090514268,20.0,10.0,10.0,0.5,2698.211428481884,42947.80004948232,11.0,10.0,1.0,0.9090909090909092,293.9957631777898,2886.195836366363,91.0,45.0,46.0,0.4945054945054945,350.15356018668257,17764.608369226815,,,,,84128.0,84167.0,84190.0,84209.0,84237.0,84256.0,84299.0,84309.0,84514.0,84604.0,0.047278609371914714,-0.12314121279178072,0.05755960035456379,-0.10191768032497475,0.02057298460999513
94,94,85066.45203459915,5370.1380242008445,15.28779240518434,85104.20542559771,-3323.202673888836,18.379087898178497,85155.37174130554,47184.66082572749,7.723603839195607,85225.15067819973,-2611.827802551832,5.095930801728113,85466.23023733083,17830.225079082677,37.333698876590375,0.944760407761321,42.0,14.0,139.0,283.0,422.0,28.0,919.0,909.0,39.0,28.0,11.0,0.717948717948718,388.1109430196118,3027.729769014625,45.0,22.0,23.0,0.4888888888888889,248.40080657719463,2759.124405717512,19.0,9.0,10.0,0.4736842105263157,2649.572006486516,47110.29856985292,21.0,17.0,4.0,0.8095238095238095,244.83531227685737,2205.6669989881902,99.0,51.0,48.0,0.5151515151515151,302.54261366508814,18162.73427115675,,,,,85047.0,85075.0,85089.0,85127.0,85146.0,85165.0,85209.0,85228.0,85426.0,85511.0,0.07227206102907725,-0.0747474141522985,0.056153248960980846,-0.09374098554186693,0.01696796379873031
95,95,85984.5507172525,6191.272187015997,14.373626434747829,86045.15067819973,-2923.1542862793062,5.095930801728113,86083.89553076777,45512.96588990451,7.437960905185507,86104.15067819973,-5337.346978631871,2.575189981573668,86394.20287152419,17253.550076479904,40.970782858692466,0.9548185842989918,66.0,29.0,75.0,333.0,408.0,37.0,919.0,928.0,38.0,19.0,19.0,0.5,333.77276342400586,5772.167372250722,19.0,16.0,3.0,0.8421052631578947,398.90875183264944,367.8239245813156,19.0,10.0,9.0,0.5263157894736842,2696.3763580077966,43232.87409821373,6.0,2.0,4.0,0.3333333333333333,1636.401201963179,21244.982738812785,100.0,50.0,50.0,0.5,446.33851182675875,18594.222520272557,,,,,85966.0,86003.0,86032.0,86048.0,86075.0,86093.0,86102.0,86107.0,86353.0,86440.0,0.05391020671389253,-0.13646517178550796,0.05924413637490268,-0.3065944950767731,0.02586937238123584
96,96,86906.15067819973,5557.958202796039,5.095930801728105,86945.84932180027,-2589.388376118682,5.095930801728113,86990.19980246758,39767.52490862498,7.243781234314482,87011.72601729959,-7118.436159920311,3.318791546770049,87301.51752173527,16504.401580450387,37.138802022864546,0.9250392435499376,53.0,29.0,78.0,332.0,410.0,24.0,919.0,907.0,25.0,21.0,4.0,0.84,449.804256333653,2977.394524680414,25.0,8.0,17.0,0.32,368.30212238823464,1720.0494726878703,18.0,9.0,9.0,0.5,2407.2377796528863,37997.52361390498,9.0,5.0,4.0,0.5555555555555556,1446.254389983141,17985.038978060595,95.0,48.0,47.0,0.5052631578947369,336.0355536517725,16858.0812047645,,,,,86885.0,86909.0,86938.0,86947.0,86981.0,86999.0,87007.0,87016.0,87258.0,87348.0,0.08092976591788154,-0.14223518023985826,0.060532753425918955,-0.20317024097598024,0.020360359750929088
97,97,87806.59635308365,4624.395450102614,12.877115826362957,87863.32869541629,-4825.960821195975,5.095930801728113,87905.87519802111,46212.289780448096,7.601888800504691,87970.27398270041,-3516.167107499688,7.64389620259217,88217.5061085604,16709.333129377974,35.95078063515614,0.941945707149623,58.0,20.0,138.0,277.0,415.0,38.0,899.0,916.0,42.0,22.0,20.0,0.5238095238095238,263.4278758456223,4807.051672959024,19.0,16.0,3.0,0.8421052631578947,385.89979926581,2969.142943712436,20.0,10.0,10.0,0.5,2646.678038294779,44583.14051108787,20.0,4.0,16.0,0.2,346.56647170773834,3000.0406150218946,92.0,47.0,45.0,0.5108695652173914,401.5551325617957,17986.752688262553,,,,,87789.0,87827.0,87847.0,87866.0,87896.0,87916.0,87966.0,87985.0,88172.0,88262.0,0.05696482463232614,-0.07996330960063117,0.05727216830996674,-0.09856370903662152,0.02403178687339655
98,98,88759.91507746017,5828.7598602996095,13.586801199205624,88807.87669549929,-3230.283520033937,12.739827004320285,88857.9695029623,47832.25926882507,7.640609109920264,88930.69864360057,-2996.8493399993176,10.191861603456228,89170.02222176072,18282.81013461196,39.61696282301874,0.9560711975658612,55.0,27.0,139.0,273.0,412.0,28.0,959.0,951.0,40.0,21.0,19.0,0.525,386.6443693779158,4623.637931465115,19.0,3.0,16.0,0.1578947368421052,295.6936770827872,2977.7673092555774,20.0,10.0,10.0,0.5,2723.2536063127545,46450.25773668333,19.0,6.0,13.0,0.3157894736842105,330.0033914193393,2769.731813794674,99.0,48.0,51.0,0.4848484848484848,368.47002767504415,18974.888578534257,,,,,88750.0,88778.0,88805.0,88824.0,88848.0,88868.0,88925.0,88944.0,89123.0,89217.0,0.0663338992589826,-0.09153799511681274,0.05693340954286994,-0.11011677731500992,0.020153905497135697
99,99,89742.30135639943,5646.677517699772,8.26268513459273,89786.87669549929,-2432.220067543222,12.739827004319704,89825.8079263446,43805.284595771824,7.46593804925618,89846.05558913617,-5873.116386847678,3.1643695795598057,90138.94783376231,16819.06288334354,36.81215876368926,0.9315900511743666,56.0,36.0,67.0,334.0,401.0,20.0,979.0,968.0,41.0,34.0,7.0,0.8292682926829268,565.1761611654603,2229.538102588839,12.0,3.0,9.0,0.25,389.45710686844023,1039.0598433727666,18.0,9.0,9.0,0.5,2703.262528117941,41167.2072646818,7.0,2.0,5.0,0.2857142857142857,1608.632323915552,22324.432226834015,97.0,47.0,50.0,0.4845360824742268,295.9641119798851,16933.145554159397,,,,,89728.0,89748.0,89784.0,89795.0,89817.0,89835.0,89844.0,89851.0,90095.0,90185.0,0.10009003691000407,-0.16012412366198,0.06171087696526153,-0.2738975729338416,0.017596944255020765
100,100,90681.39695298468,6456.859950485979,14.550465237022022,90740.15067819972,-3237.999393973063,5.095930801728113,90777.66352282572,43594.526751305246,7.472674524720795,90799.15067819972,-4563.139690118806,2.476100036694618,91091.14434983264,18205.588664323674,37.836215531638445,0.9449495820843028,64.0,24.0,77.0,336.0,413.0,40.0,939.0,952.0,41.0,21.0,20.0,0.5121951219512195,229.4123076124457,5812.622575455279,18.0,15.0,3.0,0.8333333333333334,362.0377556893017,1089.0692167003388,19.0,10.0,9.0,0.5263157894736842,2528.3218707607152,40004.3180919392,6.0,3.0,3.0,0.5,1426.302896765136,19032.257752542195,93.0,45.0,48.0,0.4838709677419355,303.7132068968304,18966.57769973523,,,,,90661.0,90701.0,90725.0,90743.0,90769.0,90787.0,90796.0,90802.0,91048.0,91138.0,0.03553001139434329,-0.11180908692051272,0.057996314197516,-0.31257050926003993,0.01668241617981833
101,101,91637.6106893925,6590.525075708045,14.70258454198258,91699.15067819972,-2154.848816493973,4.253832810689204,91734.80397459531,47014.652677884565,7.739435163014804,91811.79457440229,-2089.9212962333404,40.767446413824906,92049.1323628904,17734.653427550016,38.29059744697535,0.9517944251603876,65.0,25.0,138.0,273.0,411.0,40.0,959.0,957.0,42.0,21.0,21.0,0.5,305.3206659519398,5839.311049581791,19.0,16.0,3.0,0.8421052631578947,389.4123953243401,495.691759974372,20.0,10.0,10.0,0.5,2699.459097177607,44997.24592415493,40.0,30.0,10.0,0.75,362.46924827999027,1663.6260292881716,96.0,49.0,47.0,0.5104166666666666,319.18668681580544,18707.140207929144,,,,,91618.0,91658.0,91683.0,91702.0,91725.0,91745.0,91783.0,91821.0,92008.0,92094.0,0.04632721406027547,-0.18071448555631384,0.05741739954291777,-0.17343679349708893,0.017997909466895064
102,102,92597.60271279886,6023.264243128566,10.72036804385391,92639.84932180028,-3408.2554772903886,5.095930801728113,92685.78265791852,43851.63657766422,7.337411300166752,92705.76614822097,-6613.216026765027,2.963238358557493,93009.80813839656,16480.15446559757,34.34980218560168,0.9108084260799176,31.0,7.0,94.0,334.0,428.0,24.0,959.0,952.0,42.0,30.0,12.0,0.7142857142857143,468.7609338467717,3373.4645372918567,43.0,25.0,18.0,0.5813953488372093,251.90199820851709,2298.3938786481062,18.0,9.0,9.0,0.5,2582.995739880621,41543.34823743041,7.0,3.0,4.0,0.4285714285714285,1645.7927070733042,21737.015814377897,89.0,54.0,35.0,0.6067415730337079,387.5538694278422,15857.187429651687,,,,,92585.0,92609.0,92616.0,92641.0,92677.0,92695.0,92703.0,92710.0,92958.0,93044.0,0.07782506543383706,-0.07390936503644462,0.058903063636084836,-0.24886419866105194,0.023516397873385435
103,103,93516.17805189872,6057.946235875041,12.373692439242213,93557.15067819972,-3006.910059014705,5.095930801728113,93606.88193536336,41038.535681516674,7.458012239333379,93627.30135639945,-6376.838727428641,3.278441186761191,93918.61549558792,17209.535189519054,39.33434763157599,0.9358732781719178,51.0,21.0,83.0,333.0,416.0,30.0,919.0,921.0,42.0,28.0,14.0,0.6666666666666666,413.795714243371,3489.558787484173,10.0,7.0,3.0,0.7,381.121760824293,2595.0539946917543,18.0,9.0,9.0,0.5,2436.8544202385574,39177.912804073145,9.0,3.0,6.0,0.3333333333333333,1593.5008520933916,20738.026614520197,89.0,41.0,48.0,0.4606741573033708,331.20026903272174,19514.60098350814,,,,,93499.0,93529.0,93550.0,93560.0,93598.0,93616.0,93624.0,93633.0,93878.0,93966.0,0.06830627049690219,-0.12674864008043454,0.059379663035494,-0.24988884307819803,0.019245160626675684
104,104,94456.45203459916,5703.340430544798,15.28779240518434,94496.15067819972,-2881.6761311676323,5.095930801728113,94543.98602465582,48063.95290273392,7.866753410262266,94616.57533909989,-1261.684086208386,2.547965400862618,94854.91691726907,18249.184357153157,41.00966494974045,0.9523938418039852,67.0,27.0,126.0,285.0,411.0,40.0,939.0,936.0,40.0,31.0,9.0,0.775,441.85752997927653,2755.1664737421615,7.0,4.0,3.0,0.5714285714285714,333.54546294965826,2916.7139260331583,20.0,10.0,10.0,0.5,2582.987339408203,46496.056136422805,5.0,4.0,1.0,0.8,306.90085030710185,1464.279240915887,100.0,50.0,50.0,0.5,310.96886627528227,18885.832083458536,,,,,94425.0,94465.0,94492.0,94499.0,94534.0,94554.0,94613.0,94618.0,94807.0,94903.0,0.07747346232619488,-0.11574703324294403,0.0537406347878907,-0.24324698524921604,0.0170401515042721
105,105,95381.47940829814,7412.421470413727,16.112312775008427,95435.15067819972,-1804.371638778066,5.095930801728113,95476.84906311284,48169.94752980586,7.88883035910892,95496.57533909989,-3917.941724401523,2.1470105949426177,95788.05205665034,18532.37463164597,40.18289580396896,0.9503139200055136,74.0,31.0,67.0,336.0,403.0,43.0,928.0,933.0,44.0,25.0,19.0,0.5681818181818182,346.59875222573186,5354.858531127333,7.0,4.0,3.0,0.5714285714285714,354.48947489846836,339.0239098873403,20.0,10.0,10.0,0.5,2738.388702793934,46251.87110984052,3.0,2.0,1.0,0.6666666666666666,1617.995468992141,20341.67183945885,91.0,44.0,47.0,0.4835164835164835,443.5925002864485,20203.328518590493,,,,,95357.0,95400.0,95431.0,95438.0,95467.0,95487.0,95495.0,95498.0,95745.0,95834.0,0.04675918033117271,-0.19646145354985256,0.05684848838790028,-0.4129707848677342,0.023936085315746203
106,106,96316.15067819972,5047.911274094096,5.095930801728113,96335.3386203206,-3676.772834172702,5.095930801728113,96399.27068550064,41744.12327118785,7.31485214511638,96420.02599873942,-6885.255724469447,3.503043425357777,96710.94509089342,16833.113246303277,36.584003626692954,0.9246468095717724,35.0,9.0,97.0,333.0,430.0,26.0,930.0,922.0,39.0,35.0,4.0,0.8974358974358975,445.293003303175,1562.442668137407,9.0,7.0,2.0,0.7777777777777778,387.90988077615737,5480.104089739782,18.0,9.0,9.0,0.5,2565.427989868363,40150.73702188136,8.0,3.0,5.0,0.375,1565.6228327940007,22001.406292156957,96.0,48.0,48.0,0.5,321.3336449286074,17650.38920597682,,,,,96293.0,96319.0,96328.0,96337.0,96390.0,96408.0,96417.0,96425.0,96671.0,96758.0,0.08821331816754005,-0.10550281409034606,0.06145602755152468,-0.22738775369372966,0.019089377005122657
107,107,97230.95652032664,5428.689674018901,12.471265141776886,97293.15067819972,-3791.8864070488376,5.095930801728113,97329.76030054824,45828.520423072914,7.439367988516041,97403.12330450072,-4236.927213512151,12.739827004320285,97643.41932660548,17364.651128597445,35.22071726264189,0.9454063716610958,53.0,28.0,180.0,230.0,410.0,25.0,919.0,931.0,40.0,21.0,19.0,0.525,353.03479947634224,3949.6751710004064,25.0,17.0,8.0,0.68,353.10948131159694,1641.1437336198296,20.0,10.0,10.0,0.5,2637.4687296225816,43295.49437839857,60.0,7.0,53.0,0.1166666666666666,296.91643137039716,3929.443139215895,89.0,44.0,45.0,0.4943820224719101,294.8848656930346,17818.49877229695,,,,,97223.0,97248.0,97276.0,97296.0,97320.0,97339.0,97396.0,97456.0,97602.0,97686.0,0.0650313097036891,-0.09312237852251914,0.05755081563346122,-0.07007824690107711,0.016981905568341393
108,108,98189.90406919828,5475.634662545001,13.638940762509304,98238.45203459916,-3591.325647227021,15.28779240510658,98286.61310015128,46734.64875951224,7.563743133984677,98363.54796540084,-3283.190880298917,15.28779240518434,98601.83551209555,18105.86927320582,38.06949321761522,0.9442845804251754,67.0,28.0,140.0,271.0,411.0,39.0,959.0,957.0,40.0,23.0,17.0,0.575,287.7608628251359,4091.815204055727,20.0,3.0,17.0,0.15,300.53241809252563,4272.035893409609,20.0,10.0,10.0,0.5,2728.853856991957,43590.739941384,20.0,9.0,11.0,0.45,375.7226850561347,2643.570394523108,96.0,49.0,47.0,0.5104166666666666,341.35508572766236,18626.63503949711,,,,,98168.0,98207.0,98235.0,98255.0,98277.0,98296.0,98355.0,98375.0,98558.0,98646.0,0.05255296975773554,-0.08368286466157043,0.058390379074723095,-0.11443827019339405,0.01885328346166846
109,109,99168.47940829814,6726.144439790623,14.871970808869012,99216.30135639945,-3111.784295326004,10.191861603456228,99263.72678936365,47456.37769487,7.610079353380936,99342.54796540084,-2275.465361385526,15.28779240518434,99580.83551209555,18462.00420971098,37.222980502364486,0.9435563192968242,68.0,27.0,140.0,271.0,411.0,41.0,979.0,977.0,43.0,23.0,20.0,0.5348837209302325,288.7210035849454,6528.531650482697,20.0,2.0,18.0,0.1,329.2831646919125,2707.046027610896,20.0,10.0,10.0,0.5,2725.43086531983,44763.68679468936,20.0,9.0,11.0,0.45,333.6581716306679,2117.46890219082,94.0,49.0,45.0,0.5212765957446809,349.56177998452,18504.537174450077,,,,,99146.0,99187.0,99214.0,99234.0,99254.0,99273.0,99334.0,99354.0,99532.0,99625.0,0.04292518636336821,-0.10581812022976847,0.05743023377897734,-0.1466329381641319,0.018934118745387956
110,110,100150.87669549928,5761.676642827862,12.739827004312742,100190.15067819972,-2997.950589424259,5.095930801728113,100234.83957397376,43846.467207886555,7.461418963051091,100255.07855629142,-5723.935142783343,2.8330767398245604,100547.7763081422,17317.58999316331,40.21032990880229,0.9352518008746792,65.0,25.0,77.0,336.0,413.0,40.0,979.0,971.0,42.0,34.0,8.0,0.8095238095238095,514.8218008385854,2445.7518007625526,11.0,8.0,3.0,0.7272727272727273,387.5104440091629,2915.36055869071,18.0,9.0,9.0,0.5,2681.786593261705,41460.95979475902,7.0,2.0,5.0,0.2857142857142857,1632.8003427405322,21128.16674168312,101.0,51.0,50.0,0.504950495049505,353.1173653612576,17428.089239787427,,,,,100118.0,100158.0,100183.0,100193.0,100226.0,100244.0,100253.0,100260.0,100500.0,100596.0,0.08935277572014316,-0.12925844921399532,0.06116311675799821,-0.28525835845627007,0.020390675925499008
111,111,101096.47940829814,7299.779930984494,16.108660653415455,101149.15067819972,-1990.852100771731,5.095930801728105,101191.5295021072,45505.784674104696,7.855682722558255,101210.57533909989,-4106.678291607763,2.25758020058165,101503.41655862794,17709.81014696453,41.23561791133969,0.948862447221927,71.0,30.0,67.0,342.0,409.0,41.0,949.0,957.0,45.0,25.0,20.0,0.5555555555555556,370.0626435627884,5727.79178417682,12.0,9.0,3.0,0.75,330.53110985007066,618.5987898790534,19.0,10.0,9.0,0.5263157894736842,2583.9618395466428,43862.125443803525,3.0,2.0,1.0,0.6666666666666666,1569.2217188089105,19857.494163738855,104.0,52.0,52.0,0.5,391.7925492008739,18090.125165381614,,,,,101074.0,101115.0,101145.0,101152.0,101182.0,101201.0,101209.0,101212.0,101458.0,101554.0,0.05069504109185925,-0.16602494465658402,0.056783150934590076,-0.38211459661101455,0.022122910745490252
112,112,102052.25825590386,7115.097813793651,14.571352193200545,102108.15067819972,-2431.324815550818,5.095930801728113,102149.31147193798,46112.73128231383,7.786889008222405,102168.44356855728,-4440.815165120172,2.042397693125348,102462.1925607404,18206.15532293151,39.403427701267375,0.947093071229308,67.0,28.0,70.0,338.0,408.0,39.0,949.0,957.0,43.0,22.0,21.0,0.5116279069767442,328.65904844591387,7568.258788128602,10.0,7.0,3.0,0.7,383.26086194782147,881.355086180416,20.0,10.0,10.0,0.5,2633.616046072601,45329.8764595626,4.0,1.0,3.0,0.25,1654.192301898162,20229.140520128298,100.0,48.0,52.0,0.48,449.88811342426095,18156.487195571903,,,,,102034.0,102073.0,102101.0,102111.0,102140.0,102159.0,102167.0,102171.0,102419.0,102509.0,0.04619178218586968,-0.1576345782745583,0.05711255813386841,-0.3724974448139181,0.024710769816272283
113,113,103006.17805189872,6153.053154342944,13.916223964199515,103051.72605944744,-3257.403369091436,7.64389620259217,103095.8943613314,43019.970181837474,7.331028660240867,103116.7260172996,-6280.077750644475,2.8027954123745884,103409.83551209555,16766.46667709681,38.68978701232034,0.9409096631169614,62.0,31.0,71.0,333.0,404.0,31.0,959.0,948.0,41.0,27.0,14.0,0.6585365853658537,485.5426552765873,4356.598750726413,18.0,2.0,16.0,0.1111111111111111,344.5169250478936,3357.3588668501225,18.0,9.0,9.0,0.5,2543.2525548191234,41294.55814032369,8.0,4.0,4.0,0.5,1598.366904681688,19858.650793061857,88.0,43.0,45.0,0.4886363636363636,344.72066108753614,18309.86502455395,,,,,102988.0,103019.0,103050.0,103068.0,103087.0,103105.0,103113.0,103121.0,103368.0,103454.0,0.07891085012549938,-0.10576428093521227,0.05911795252458949,-0.25451387198473147,0.020560125620171874
114,114,103927.30135639945,5281.456874729696,7.937758231180637,103970.7260172996,-3713.3782266929657,7.643896202521344,104011.17913851498,40146.092765914735,7.288101554947485,104031.28393662113,-6536.728272937825,3.573273486365106,104325.04150729402,17078.818760396705,36.4151500474414,0.9209910304163428,62.0,36.0,67.0,334.0,401.0,26.0,919.0,915.0,38.0,32.0,6.0,0.8421052631578947,440.1082096346033,1841.476597227606,14.0,2.0,12.0,0.1428571428571428,385.39586188226656,1732.453550245672,18.0,9.0,9.0,0.5,2506.41291341696,38575.51237261027,7.0,2.0,5.0,0.2857142857142857,1548.977617072628,22033.329143122726,96.0,49.0,47.0,0.5104166666666666,288.05828983124604,17436.556280285455,,,,,103907.0,103933.0,103969.0,103983.0,104002.0,104020.0,104029.0,104036.0,104287.0,104370.0,0.08333083466806268,-0.10378578166692427,0.062432300150140174,-0.236965275654095,0.016866405919079796
115,115,104829.72677497928,5848.533659896212,13.838271693678358,104889.7260172996,-2624.259838899556,7.64389620259217,104929.82565636744,47755.29718578174,7.738830739941688,105006.33033363563,-3912.776100762792,5.095930801728113,105241.8938571822,18075.82742634245,37.53937139177233,0.953811281941124,77.0,38.0,120.0,282.0,402.0,39.0,899.0,918.0,43.0,22.0,21.0,0.5116279069767442,338.317303517507,4216.925073963641,24.0,14.0,10.0,0.5833333333333334,374.0633729912034,932.4869242193832,20.0,10.0,10.0,0.5,2786.754063661191,44883.99881603816,10.0,8.0,2.0,0.8,287.51368947928324,3604.507767089171,95.0,47.0,48.0,0.4947368421052631,347.4817363351841,19025.232058128666,,,,,104811.0,104850.0,104888.0,104900.0,104920.0,104939.0,104998.0,105008.0,105200.0,105290.0,0.057846517296698055,-0.14254052416854468,0.05835486800176161,-0.07348074156945314,0.019223559073638225
116,116,105762.32873009844,6292.999188720314,14.684656677852711,105810.87669549928,-1892.995437676247,12.739827004320285,105857.3569441387,47911.39291378368,7.710239794211073,105915.12330450072,-1688.618439145322,8.22618983245095,106175.10949479598,18415.25203603102,37.74795902809344,0.9422053601330536,70.0,30.0,119.0,288.0,407.0,40.0,939.0,927.0,41.0,25.0,16.0,0.6097560975609756,362.65272878666,4998.767011730397,11.0,3.0,8.0,0.2727272727272727,313.7961767324695,1947.6345025028252,21.0,10.0,11.0,0.4761904761904761,2714.4967882007236,47233.53796613698,19.0,7.0,12.0,0.3684210526315789,361.9758632284981,2692.2005649185216,92.0,51.0,41.0,0.5543478260869565,407.9112358840509,18248.418177639527,,,,,105738.0,105778.0,105808.0,105818.0,105848.0,105867.0,105908.0,105927.0,106125.0,106215.0,0.05762796369602039,-0.16576700106455147,0.056656603432203426,-0.21436214057434352,0.02215072783614026
117,117,106704.7260172996,5325.0395936084515,7.643896202591999,106744.84932180028,-2712.5533586422735,5.095930801728113,106789.9380177081,42786.66685236336,7.351898530064484,106810.7260172996,-6591.897081868303,2.9739563570025336,107102.95991046989,17340.932909192357,38.04136639363957,0.9356201398692778,65.0,28.0,78.0,333.0,411.0,37.0,939.0,934.0,38.0,34.0,4.0,0.8947368421052632,457.31135007598874,2316.762178208541,9.0,8.0,1.0,0.8888888888888888,335.35296863053276,1871.28886900857,18.0,9.0,9.0,0.5,2535.780908118672,40271.533638035165,8.0,4.0,4.0,0.5,1580.17601738343,19431.77264756848,97.0,50.0,47.0,0.5154639175257731,312.67124539626417,18197.47905683452,,,,,106672.0,106709.0,106737.0,106746.0,106781.0,106799.0,106807.0,106815.0,107064.0,107148.0,0.08587942719240835,-0.12362999885775094,0.05926568005094806,-0.2397149102539644,0.018030820315931124
118,118,107641.28596932476,5638.85098159768,12.716797061109466,107703.57533909989,-3337.9143058838554,2.5479654008640567,107740.52970409588,46960.06512059471,7.627165609180445,107810.69864360055,-3888.509410892808,10.191861603456228,108053.57295026424,17574.80428684259,36.75893224833164,0.9453280039264808,53.0,25.0,140.0,273.0,413.0,28.0,939.0,950.0,39.0,20.0,19.0,0.5128205128205128,300.3886400948812,4397.846820797995,20.0,19.0,1.0,0.95,354.5170637452627,655.866022299015,20.0,10.0,10.0,0.5,2701.701050843903,42917.10331124872,20.0,6.0,14.0,0.3,344.52902576101684,2717.7613436752345,91.0,45.0,46.0,0.4945054945054945,372.2376894321844,18507.29619465236,,,,,107632.0,107660.0,107685.0,107705.0,107731.0,107750.0,107805.0,107825.0,108011.0,108098.0,0.05327124995414771,-0.10620915675406747,0.057531884674901154,-0.0886018238237753,0.021180189739629752
119,119,108627.87714609993,7093.963615316117,15.214189632350012,108682.84932180028,-2810.095624554057,5.095930801728113,108725.75335309208,47481.877886476424,7.7039174070551635,108782.84932180028,-2699.4604928826056,5.095930801728113,109039.6363359013,18004.155086385188,39.01904747946936,0.9485723020258948,66.0,25.0,110.0,303.0,413.0,41.0,979.0,985.0,43.0,21.0,22.0,0.4883720930232558,326.3618110043577,5729.580364651612,23.0,9.0,14.0,0.391304347826087,338.9266565118194,742.2789125458386,20.0,10.0,10.0,0.5,2767.334500246211,44202.98561469469,6.0,5.0,1.0,0.8333333333333334,332.8604731764368,3650.92362126878,99.0,49.0,50.0,0.494949494949495,373.53487123543863,18480.31369795734,,,,,108608.0,108649.0,108674.0,108684.0,108716.0,108735.0,108778.0,108784.0,108997.0,109087.0,0.046005565957475604,-0.1206103641279484,0.058281909297323534,-0.12330629548165507,0.020747148057945086
120,120,109598.66329134798,6214.897814637535,16.46581679356021,109645.7260172996,-2736.22530355589,7.64389620259217,109696.1846216237,43006.05701550208,7.508503261174062,109716.76453807956,-6483.7883005580325,3.209078675566185,110010.68580972384,16923.920396709178,38.905169528522514,0.9455236342262948,64.0,25.0,78.0,335.0,413.0,39.0,980.0,971.0,41.0,20.0,21.0,0.4878048780487805,271.47562636971776,5360.952591475322,19.0,2.0,17.0,0.1052631578947368,350.61481040079855,2870.3158987378115,18.0,9.0,9.0,0.5,2570.8352354174954,42323.98979487279,8.0,3.0,5.0,0.375,1571.9239662316463,20318.54889036019,93.0,45.0,48.0,0.4838709677419355,398.2895413783221,17693.921078043386,,,,,109580.0,109619.0,109644.0,109663.0,109687.0,109705.0,109714.0,109722.0,109970.0,110057.0,0.04368143040587559,-0.12813813611954886,0.05977844549875393,-0.2424391256106183,0.023534118102787147
121,121,110551.32873009844,6906.377950872752,13.231076525578825,110600.15067819972,-2669.5342208918933,5.095930801728113,110644.20426608516,45233.79070438552,7.782780980008008,110664.1506781998,-3729.229962208124,2.593152274442546,110958.10433606236,17469.32167019852,37.934061209459074,0.9458231759084242,67.0,29.0,72.0,336.0,408.0,38.0,952.0,947.0,40.0,23.0,17.0,0.575,378.9160551590874,6173.5019934954125,7.0,4.0,3.0,0.5714285714285714,280.95114721536225,2089.3551091080412,19.0,9.0,10.0,0.4736842105263157,2638.0836954807105,44015.15912455502,5.0,1.0,4.0,0.2,1616.6038138760186,20293.02926545892,95.0,48.0,47.0,0.5052631578947369,295.22989358795,18075.0554049314,,,,,110529.0,110567.0,110596.0,110603.0,110635.0,110654.0,110663.0,110668.0,110915.0,111004.0,0.054864656677412825,-0.10524350840555859,0.05832108373851016,-0.4334953409305998,0.016899905970109434
122,122,111499.027373699,6299.490218222996,12.271501734921005,111540.84932178736,-3153.654307527645,5.095930801728113,111587.76208929229,46989.35264555114,7.762156617754522,111606.7260172996,-5051.498184522409,2.3380901645477934,111908.2601729957,17920.641603960175,38.388337093044704,0.9299427135042848,64.0,23.0,79.0,340.0,419.0,41.0,946.0,944.0,41.0,31.0,10.0,0.7560975609756098,420.04214100313055,3228.921712160267,38.0,19.0,19.0,0.5,306.9298151757031,1813.001151676595,20.0,10.0,10.0,0.5,2686.1305140681256,44131.20237033332,6.0,2.0,4.0,0.3333333333333333,1716.4250357999442,21001.80654917701,100.0,56.0,44.0,0.56,294.8481387837737,18348.676255667186,,,,,111468.0,111509.0,111532.0,111542.0,111578.0,111597.0,111605.0,111611.0,111852.0,111951.0,0.06667875120879527,-0.09732512991137743,0.057164663116984725,-0.33978534151689943,0.016452990093759647
123,123,112396.75339099858,5499.292838718325,12.136257161399286,112444.30135641056,-3076.113003700453,10.191861603456228,112490.96769177058,41788.09823665338,7.359139854258961,112511.7260172996,-7442.843063096683,3.461323049183494,112806.83551209555,16820.323596476817,37.75299974911517,0.9509953771489508,63.0,31.0,74.0,335.0,409.0,32.0,899.0,904.0,38.0,24.0,14.0,0.631578947368421,430.89239284594504,3570.2650782241253,19.0,2.0,17.0,0.1052631578947368,356.8551965336514,3658.351481892114,18.0,9.0,9.0,0.5,2595.1944429248497,40232.43713637571,9.0,4.0,5.0,0.4444444444444444,1544.4908969112655,21164.68197639983,94.0,48.0,46.0,0.5106382978723404,308.36172349219817,17396.52362378541,,,,,112379.0,112411.0,112442.0,112461.0,112482.0,112500.0,112508.0,112516.0,112765.0,112851.0,0.07835414579347436,-0.11600848086671961,0.06210367431003453,-0.2075135648861393,0.018332686747880852
124,124,113260.43343829014,5658.536788698093,13.44860494631454,113315.7260172996,-3266.094083869498,7.64389620259217,113360.33015712663,43546.63186198029,7.63098536604171,113381.15067819972,-4480.046849451189,2.8663584205136137,113670.98944771213,18631.533128181258,38.20274496054459,0.9522150465011212,66.0,30.0,76.0,332.0,408.0,36.0,859.0,870.0,36.0,17.0,19.0,0.4722222222222222,321.27963752187253,6862.333758971929,12.0,8.0,4.0,0.6666666666666666,381.52687295308255,2637.470143407172,19.0,9.0,10.0,0.4736842105263157,2574.9608621533293,43882.17431277301,8.0,4.0,4.0,0.5,1545.2019097114692,18775.699631436382,95.0,48.0,47.0,0.5052631578947369,364.2114827929131,19317.29781906783,,,,,113243.0,113279.0,113309.0,113320.0,113351.0,113370.0,113380.0,113385.0,113626.0,113717.0,0.05677786493560856,-0.1168144159831028,0.05913111421141797,-0.34490753370151883,0.019548122008382792
125,125,114157.58132156072,6006.898630710281,14.425537478257755,114205.90406919828,-4854.461286104212,19.761977842380368,114255.16663951465,46322.4694917492,7.341868087222111,114317.84932180024,-5147.656049161307,5.095930801728113,114569.26696330844,16572.224747776512,34.24734742790813,0.9447509319377484,61.0,25.0,120.0,292.0,412.0,36.0,899.0,893.0,39.0,22.0,17.0,0.5641025641025641,333.76760164090143,4248.551768666486,46.0,25.0,21.0,0.5434782608695652,449.64736640248816,4436.136840921654,19.0,9.0,10.0,0.4736842105263157,2736.048651777418,44495.20670962643,99.0,18.0,81.0,0.1818181818181818,277.66910002406064,4203.39848088781,88.0,44.0,44.0,0.5,416.727137043395,17285.264382501286,,,,,114138.0,114174.0,114199.0,114226.0,114246.0,114265.0,114300.0,114319.0,114531.0,114611.0,0.055564047632585954,-0.0926255952827544,0.05906525886459386,-0.053940880542961,0.02514611908695645
126,126,115080.93540984442,6696.110468714454,14.1601265803892,115136.84932180028,-2789.841024596238,5.095930801728113,115180.1882602632,45513.70607524916,7.656359471466097,115200.15067819972,-4351.160542136854,2.6935092612551506,115491.83844698255,17583.86081951981,39.749760271933376,0.9570115067360366,71.0,33.0,71.0,336.0,407.0,38.0,919.0,926.0,40.0,20.0,20.0,0.5,331.02930624056245,4962.19776354093,5.0,4.0,1.0,0.8,399.72154295125455,1521.7206457313896,19.0,9.0,10.0,0.4736842105263157,2717.3137147705047,43982.637737511104,5.0,1.0,4.0,0.2,1606.647327400926,20447.505274471176,100.0,50.0,50.0,0.5,344.0018710775136,17606.59539090717,,,,,115062.0,115100.0,115133.0,115138.0,115171.0,115190.0,115199.0,115204.0,115446.0,115540.0,0.04943605810973348,-0.14327753424914402,0.05970319600600947,-0.3692457016563912,0.019563500564997522
127,127,116015.7260172996,4616.865880910917,7.64389620259217,116052.17805189872,-3193.1402201590267,17.721369350059522,116100.71567509568,40694.80048379288,7.273354655176427,116121.17796058775,-7044.94137447921,3.3063677043703574,116427.65746019685,16872.500652722643,33.29798820715606,0.8960969413908234,63.0,27.0,79.0,333.0,412.0,36.0,939.0,920.0,37.0,33.0,4.0,0.8918918918918919,416.6929783361578,1209.1045027825085,34.0,14.0,20.0,0.4117647058823529,370.5635552767433,3206.649759475811,18.0,9.0,9.0,0.5,2503.462437164715,37513.01183520003,8.0,3.0,5.0,0.375,1527.312724807936,21984.749124212984,83.0,52.0,31.0,0.6265060240963856,420.6229531796327,16191.164928969378,,,,,115984.0,116020.0,116047.0,116071.0,116092.0,116110.0,116118.0,116126.0,116376.0,116459.0,0.09025451227834745,-0.11604988498071289,0.06151799265269145,-0.2167956614004955,0.024929496927401724
128,128,116954.027373699,4987.24303075569,10.801938057549004,116998.72601730202,-3817.588037308104,7.64389620259217,117044.46522876115,46239.163131258545,7.521684225473643,117121.2739827004,-3894.6676881114913,7.64389620259217,117359.10207764084,17168.11989424603,35.843502265981556,0.9315791001902024,71.0,33.0,199.0,208.0,407.0,38.0,940.0,944.0,40.0,29.0,11.0,0.725,412.7459978411688,2367.1154803128184,19.0,2.0,17.0,0.1052631578947368,274.99756180185346,3467.8342575291063,19.0,9.0,10.0,0.4736842105263157,2639.9081633263495,45357.55701394312,79.0,4.0,75.0,0.050632911392405,322.76551313884545,3642.0842858806127,91.0,44.0,47.0,0.4835164835164835,291.13921017589183,17024.260347537074,,,,,116926.0,116964.0,116997.0,117016.0,117035.0,117054.0,117117.0,117196.0,117319.0,117404.0,0.08276035382591485,-0.07203437330439733,0.05709247279913943,-0.08287369783154802,0.016958130067199054
129,129,117915.62130825262,5774.381901618478,14.733180876649312,117973.95188252976,-2594.255408474224,5.095930801728113,118014.68887342275,45474.15904418696,7.707148203352259,118033.75875859548,-4647.355706477718,2.585201555219887,118329.19622595103,16993.126459408228,39.16855916053087,0.9525159992916928,72.0,32.0,71.0,340.0,411.0,40.0,959.0,970.0,40.0,21.0,19.0,0.525,274.7077530891838,6833.921549217725,9.0,7.0,2.0,0.7777777777777778,428.5069983711459,668.6945576803255,19.0,10.0,9.0,0.5263157894736842,2639.9984409197723,43170.4164551476,6.0,2.0,4.0,0.3333333333333333,1622.1742127173716,21098.724021800575,96.0,47.0,49.0,0.4895833333333333,349.30108419353905,18183.530024559263,,,,,117895.0,117935.0,117967.0,117976.0,118005.0,118024.0,118032.0,118038.0,118283.0,118378.0,0.04757353388978085,-0.16517533199368617,0.05805491506405873,-0.34905316381449,0.02055543369420104
130,130,118870.32873009844,5601.437991753204,14.40569630699034,118918.87669549928,-2025.2215874713447,12.73982699987106,118965.31728230228,41502.7761298836,7.50209472065479,118985.70202169058,-5556.340751590953,3.2046127166351828,119281.83551209555,17351.068527689684,39.509713644637365,0.943600263437252,55.0,30.0,75.0,335.0,410.0,25.0,959.0,951.0,40.0,23.0,17.0,0.575,355.2959010461907,4484.417172526796,20.0,4.0,16.0,0.2,275.7663052943912,2455.139111468944,18.0,9.0,9.0,0.5,2468.454990135651,40734.88006360145,8.0,3.0,5.0,0.375,1506.8529173869915,19980.953637311173,102.0,55.0,47.0,0.5392156862745098,351.0198213549777,17694.07934556664,,,,,118861.0,118886.0,118916.0,118935.0,118956.0,118974.0,118983.0,118991.0,119238.0,119326.0,0.06342940894271794,-0.13616599141563965,0.059476864449033044,-0.27119519567901457,0.020230444067165263
131,131,119809.32873009844,6433.087563697836,14.407875377965444,119856.72601730812,-2247.3156760619704,7.64389620259217,119905.0336792368,46626.35161137991,7.764210253563411,119978.04439538594,-2621.766900456009,12.739827004320285,120220.4108511954,17353.098918041764,38.288166868257555,0.949126907568346,68.0,30.0,133.0,278.0,411.0,38.0,939.0,939.0,40.0,23.0,17.0,0.575,388.423073704883,5031.676607020832,19.0,2.0,17.0,0.1052631578947368,273.33831904128573,2591.3043943329317,20.0,10.0,10.0,0.5,2643.6957803078626,43920.59769355162,20.0,4.0,16.0,0.2,343.5804451077609,2353.863767246301,102.0,53.0,49.0,0.5196078431372549,390.6661047749671,17486.382030400324,,,,,119787.0,119825.0,119855.0,119868.0,119895.0,119915.0,119975.0,119988.0,120176.0,120266.0,0.060378950209969084,-0.12162880451235207,0.0566996063158119,-0.1310491962683644,0.022512757324790977
132,132,120731.21265437406,5447.121740577596,10.862448872117474,120789.7260172996,-4231.508965211904,7.64389620259217,120827.76708732604,44228.57177680481,7.474968881269381,120847.86964743688,-5631.0861946600535,2.8270260822370825,121141.5899202978,16602.730805802526,36.340894858637434,0.9356660279825284,56.0,26.0,78.0,333.0,411.0,30.0,920.0,923.0,36.0,19.0,17.0,0.5277777777777778,289.83010548440836,4602.838537225216,26.0,16.0,10.0,0.6153846153846154,444.1525290213856,1293.4691734660294,19.0,10.0,9.0,0.5263157894736842,2580.5023908901776,41020.15639713344,8.0,3.0,5.0,0.375,1710.868074511699,21992.491232754222,91.0,45.0,46.0,0.4945054945054945,459.3113842995657,17186.332701748463,,,,,120718.0,120748.0,120774.0,120794.0,120819.0,120837.0,120845.0,120852.0,121099.0,121185.0,0.05320793609684877,-0.10496315443801582,0.05834469184111194,-0.30382558806045473,0.02766480946249155
133,133,121632.15067819972,5291.705566661422,5.095930801728113,121670.15067849004,-3111.6538863469436,5.095930801728113,121715.06195679984,40974.79571061152,7.321244255938621,121735.67666289816,-6740.344327627025,3.163380506383062,122027.6783900942,16643.52525010617,38.247822971015594,0.931083303226279,56.0,31.0,74.0,335.0,409.0,25.0,899.0,887.0,38.0,34.0,4.0,0.8947368421052632,427.1430379536845,2118.2131270845825,19.0,16.0,3.0,0.8421052631578947,327.55843406153474,2876.4357500700075,18.0,9.0,9.0,0.5,2561.5362640650255,39319.110933552496,7.0,3.0,4.0,0.4285714285714285,1514.6129412580792,21289.60466687318,98.0,51.0,47.0,0.5204081632653061,309.6228280781774,16856.055944595308,,,,,121610.0,121635.0,121666.0,121673.0,121706.0,121724.0,121733.0,121740.0,121978.0,122075.0,0.08071935079773766,-0.1052682740515481,0.06251492459306264,-0.22470854123135084,0.018603199948652845
134,134,122493.94889939764,4884.03904399109,12.389337258033118,122549.15067819972,-4399.519556592681,5.095930801728113,122591.74898892907,45933.26989049752,7.444316665630526,122677.21923530244,-3319.802843063542,43.31541181468896,122903.21987078896,16595.481757013724,35.84555436116394,0.9441890409437028,46.0,20.0,159.0,255.0,414.0,26.0,859.0,878.0,43.0,23.0,20.0,0.5348837209302325,309.29918656141916,3794.0191135786,20.0,17.0,3.0,0.85,386.1531441860015,2764.8021079385426,19.0,10.0,9.0,0.5263157894736842,2664.617611634922,43880.76590854081,40.0,25.0,15.0,0.625,366.9226585570247,3450.734367933477,93.0,47.0,46.0,0.5053763440860215,353.9439359538599,17050.16160523759,,,,,122487.0,122513.0,122533.0,122552.0,122582.0,122601.0,122653.0,122692.0,122859.0,122947.0,0.06332856551217682,-0.08777166215964445,0.058010623192888924,-0.1105254365703312,0.02132772890454193
135,135,123387.17805189872,5891.682667473648,11.841527721596622,123433.30135639945,-3646.602851948552,10.191861603456116,123479.82268440982,47262.79571746965,7.702414938949016,123556.21923530244,-2649.547936893506,39.40884454548646,123791.32819176045,18075.931384993983,37.85753397703611,0.9456339296303397,57.0,31.0,140.0,268.0,408.0,26.0,899.0,888.0,41.0,27.0,14.0,0.6585365853658537,451.5973678659447,3421.463818486569,39.0,21.0,18.0,0.5384615384615384,345.17877364749114,3280.237458301904,20.0,10.0,10.0,0.5,2712.610348179041,44108.04192978151,40.0,25.0,15.0,0.625,338.343441426002,2735.7612478331844,91.0,43.0,48.0,0.4725274725274725,358.53282456344226,19614.958445871656,,,,,123374.0,123400.0,123431.0,123450.0,123470.0,123489.0,123532.0,123571.0,123748.0,123839.0,0.07664998156792949,-0.09465762729359076,0.05739419996215722,-0.12769855442687209,0.019834818849837187
136,136,124274.60271279886,5581.010596237739,15.897059431104791,124305.87816082282,-4082.059120777639,17.668078171392107,124366.33654756247,42734.87138753908,7.409544438289601,124386.7260172996,-6361.730290734879,3.080450087173499,124678.36728707212,16635.007742683756,36.639815947504395,0.9399846357668604,47.0,10.0,95.0,331.0,426.0,37.0,887.0,886.0,38.0,26.0,12.0,0.6842105263157895,398.7197231022153,2788.51683849284,42.0,11.0,31.0,0.2619047619047619,266.4919168874853,4083.0945521929702,18.0,9.0,9.0,0.5,2544.843131018432,41585.99629313853,7.0,3.0,4.0,0.4285714285714285,1521.2595969584536,20618.64992381387,92.0,44.0,48.0,0.4782608695652174,359.7181866515993,16276.481558855206,,,,,124249.0,124286.0,124296.0,124330.0,124357.0,124375.0,124384.0,124391.0,124637.0,124722.0,0.07144220857975069,-0.06528369849692871,0.05954956803170523,-0.23912670412544704,0.02162416707078522
137,137,125147.87669549928,4749.739322621103,12.739827004320285,125173.7260172996,-3524.3094989971455,7.64389620259217,125235.16859447888,40344.13920202402,7.483106060060889,125255.35777917066,-6606.116767933643,3.0242672741773844,125546.08678668202,16819.211275404927,37.864419662551995,0.9407534847603718,42.0,15.0,90.0,332.0,422.0,27.0,872.0,869.0,38.0,30.0,8.0,0.7894736842105263,370.7763601454385,2780.6777589815715,8.0,4.0,4.0,0.5,408.6703331495251,3340.953319237351,18.0,9.0,9.0,0.5,2377.209937282546,39490.35009897764,8.0,3.0,5.0,0.375,1579.7474253130858,20402.149384317418,97.0,48.0,49.0,0.4948453608247423,265.1779106846079,17442.954996585657,,,,,125128.0,125155.0,125170.0,125178.0,125226.0,125244.0,125252.0,125260.0,125505.0,125592.0,0.07806246510825961,-0.11595756084016277,0.05892330297044197,-0.23913404512939335,0.015766370155084676
138,138,126030.69864360055,4979.994796660709,10.191861603456228,126081.2341196736,-3696.162189082744,16.540970244583793,126129.71828228411,46561.00571033435,7.60651076694046,126191.24660900142,-3244.3498003609416,25.47965400864057,126441.4392176411,16899.31177863337,36.33115523017745,0.9351525903067132,33.0,8.0,210.0,217.0,427.0,25.0,879.0,894.0,38.0,19.0,19.0,0.5,391.8310374790548,3557.611798695363,49.0,28.0,21.0,0.5714285714285714,322.0943479487339,3228.3678529010085,20.0,10.0,10.0,0.5,2743.6096836828797,43197.083264659246,96.0,19.0,77.0,0.1979166666666666,261.0539563519431,3992.9040183885463,96.0,47.0,49.0,0.4895833333333333,419.5299747810804,17970.822480028306,,,,,126025.0,126050.0,126058.0,126101.0,126120.0,126139.0,126177.0,126268.0,126400.0,126485.0,0.07868101343033403,-0.08714291512967029,0.05892505202210285,-0.08046418309237192,0.0248252698261661
139,139,126982.47940829814,5988.399491773935,15.72712955014648,127030.87669549928,-2690.4003729787037,12.739827004320285,127080.8260292018,47524.01631115778,7.6446564790940705,127149.72601731648,-3089.7262399867705,7.64389620259217,127393.55411439604,17462.935759875196,39.41821929142066,0.9509694701987846,65.0,27.0,139.0,275.0,414.0,38.0,959.0,951.0,41.0,21.0,20.0,0.5121951219512195,375.2925308538776,5574.462054781231,19.0,3.0,16.0,0.1578947368421052,299.5202828654207,2660.424396062196,20.0,10.0,10.0,0.5,2733.9005537216785,45627.06263649652,20.0,2.0,18.0,0.1,313.7290794889555,2688.191545362776,98.0,48.0,50.0,0.4897959183673469,352.52015104919616,18113.402761053032,,,,,126963.0,127001.0,127028.0,127047.0,127071.0,127091.0,127148.0,127167.0,127351.0,127442.0,0.0626699223005086,-0.11132926008845435,0.05752671524691418,-0.10153944237153478,0.02018676331955513
140,140,127976.60271279886,5396.906846367467,10.64225550725864,128019.87669549928,-3464.1127796289647,12.739827004320285,128064.79912221697,43520.59694147057,7.453273597389264,128084.4792358597,-5879.875256037342,3.156784093961538,128380.38524464388,16663.550139161518,37.033333988353654,0.9378170012421696,59.0,20.0,82.0,334.0,416.0,39.0,992.0,984.0,39.0,28.0,11.0,0.717948717948718,490.86031292533943,2452.2936837424586,20.0,13.0,7.0,0.65,411.5635361321335,2639.4809198291914,19.0,10.0,9.0,0.5263157894736842,2626.4579644731134,40707.449591586395,8.0,2.0,6.0,0.25,1654.6383599747858,22277.134484980328,94.0,45.0,49.0,0.4787234042553192,336.6615457345757,18352.83066459419,,,,,127949.0,127988.0,128008.0,128027.0,128056.0,128074.0,128082.0,128090.0,128339.0,128424.0,0.09095215591051496,-0.11880777628037138,0.06034976882337692,-0.28140705166760727,0.020203470624388566
