Unnamed: 0,cycle,p_center,p_height,p_width,q_center,q_height,q_width,r_center,r_height,r_width,s_center,s_height,s_width,t_center,t_height,t_width,r_squared,pr_interval,pr_segment,qrs_duration,st_segment,qt_interval,p_duration,pp_interval,rr_interval,fwhm_p,rise_time_p,decay_time_p,rise_decay_symmetry_p,sharpness_deriv_p,sharpness_diff_p,fwhm_q,rise_time_q,decay_time_q,rise_decay_symmetry_q,sharpness_deriv_q,sharpness_diff_q,fwhm_r,rise_time_r,decay_time_r,rise_decay_symmetry_r,sharpness_deriv_r,sharpness_diff_r,fwhm_s,rise_time_s,decay_time_s,rise_decay_symmetry_s,sharpness_deriv_s,sharpness_diff_s,fwhm_t,rise_time_t,decay_time_t,rise_decay_symmetry_t,sharpness_deriv_t,sharpness_diff_t,Average_Heart_Rate,SDNN,RMSSD,NN50,p_on,p_off,q_on,q_off,r_on,r_off,s_on,s_off,t_on,t_off,sharpness_deriv_p_norm,sharpness_deriv_q_norm,sharpness_deriv_r_norm,sharpness_deriv_s_norm,sharpness_deriv_t_norm
0,0,0.0,0.0,0.0,0.0,0.0,0.0,0.0,0.0,0.0,0.0,0.0,0.0,0.0,0.0,0.0,0.0,0.0,0.0,0.0,0.0,0.0,0.0,0.0,0.0,0.0,0.0,0.0,0.0,0.0,0.0,0.0,0.0,0.0,0.0,0.0,0.0,0.0,0.0,0.0,0.0,0.0,0.0,0.0,0.0,0.0,0.0,0.0,0.0,0.0,0.0,0.0,0.0,0.0,0.0,67.44205157644713,293.9610237865683,472.9341056151145,208.0,,,,,,,,,,,,,,,
1,1,1872.8493218002875,672.0256171003997,5.0959308016879294,1996.123304500715,-1988.5873823093043,10.394743658092038,2022.474714225946,15906.613358757637,9.629029021967895,2044.87669549928,-2751.228942917502,5.217515915853597,2310.236123902077,3779.538898328344,32.26943521501444,0.985309194476217,115.0,104.0,67.0,296.0,363.0,11.0,,,13.0,3.0,10.0,0.2307692307692307,52.67091227885922,799.1496627561457,17.0,13.0,4.0,0.7647058823529411,349.389923560911,2133.44624769671,24.0,11.0,13.0,0.4583333333333333,791.7148539124425,16197.32445957017,13.0,4.0,9.0,0.3076923076923077,493.42142207019776,7360.829324213729,84.0,40.0,44.0,0.4761904761904761,57.12199118598789,3851.6443919489334,0.0,0.0,0.0,0.0,1870.0,1881.0,1985.0,1999.0,2011.0,2035.0,2042.0,2052.0,2275.0,2348.0,0.07837634598829625,-0.17569754624268605,0.049772684861077075,-0.17934582410541086,0.015113481491420137
2,2,2831.849321800255,525.7935343462921,2.357480190481936,2964.972626300273,-2783.644288716004,8.987337105822446,2991.326004924093,15541.20066505119,9.933687584769098,3013.3013563994245,-3039.994738492133,5.910867711289532,3281.183026228793,3647.3783943028207,30.66745947352346,0.9813710570405751,125.0,120.0,70.0,296.0,366.0,5.0,959.0,967.0,8.0,3.0,5.0,0.375,83.97041105957405,768.0354181965008,16.0,12.0,4.0,0.75,410.9939906152744,1398.4372273345855,23.0,11.0,12.0,0.4782608695652174,795.5509030209349,15832.64648439803,14.0,3.0,11.0,0.2142857142857142,506.25176354328977,7941.791923371145,78.0,38.0,40.0,0.4871794871794871,91.90983013732598,3720.244056928948,0.0,0.0,0.0,0.0,2829.0,2834.0,2954.0,2969.0,2980.0,3003.0,3011.0,3024.0,3243.0,3320.0,0.15970225112024755,-0.14764601651199166,0.051189796732369425,-0.1665304736002259,0.025198874424679513
3,3,3730.849321800288,396.13906917111353,5.095930801707039,3852.961991429167,-2621.893981957689,9.03790751851716,3880.452214485891,15691.329947938244,9.771013113372666,3902.87669549928,-2607.047726570156,6.165005365117489,4167.606043164596,3551.0564846358975,32.09982243306718,0.9837829410404956,115.0,107.0,71.0,292.0,363.0,8.0,899.0,890.0,18.0,3.0,15.0,0.1666666666666666,74.09420560983035,659.4968754020049,15.0,10.0,5.0,0.6666666666666666,361.45496017085145,605.4078545512702,24.0,11.0,13.0,0.4583333333333333,783.6818221396791,15719.550613304864,16.0,4.0,12.0,0.25,478.6798632892723,7163.9164401207945,83.0,41.0,42.0,0.4939759036144578,77.1748040005762,3814.665924294099,0.0,0.0,0.0,0.0,3728.0,3736.0,3843.0,3857.0,3869.0,3893.0,3900.0,3914.0,4132.0,4206.0,0.18704089390846002,-0.137860250131458,0.049943620122693974,-0.18360993487412128,0.02173291366512555
4,4,5468.198980135176,417.9313043733318,0.9197243697565504,5586.972626301007,-2430.92241866814,9.15004425329094,5613.89494459435,15145.00883262912,9.759052699929525,5635.876695499281,-2829.7138929222847,7.649204657470895,5909.232799296688,3392.648113520351,29.185022448486947,0.9722812535037232,110.0,107.0,70.0,295.0,365.0,3.0,1738.0,1733.0,3.0,1.0,2.0,0.3333333333333333,95.96628917448476,515.7797347801809,15.0,10.0,5.0,0.6666666666666666,366.0289253906328,1490.9260736392448,23.0,12.0,11.0,0.5217391304347826,788.3321606942175,14422.42686209128,16.0,4.0,12.0,0.25,483.4158129150835,7618.36951434441,77.0,43.0,34.0,0.5584415584415584,59.81954619365286,3214.1980469480213,0.0,0.0,0.0,0.0,5467.0,5470.0,5577.0,5591.0,5602.0,5625.0,5633.0,5647.0,5866.0,5942.0,0.229622160795975,-0.15057203083888365,0.05205227473989962,-0.17083557957014986,0.017632110431748147
5,5,6366.86393485997,544.651844217806,5.095930801728113,6479.972626301007,-2520.896052590846,9.84856292357107,6505.853087899958,15863.608556702857,9.75666907421284,6528.301356399425,-2625.6502910245495,6.404907307830257,6796.232799296688,3752.025539489081,29.55290189642303,0.9822187422853564,103.0,95.0,71.0,290.0,361.0,8.0,899.0,894.0,8.0,2.0,6.0,0.25,72.07973253556607,546.2400335008574,16.0,12.0,4.0,0.75,400.9862525588104,2238.635756330933,23.0,11.0,12.0,0.4782608695652174,823.3691170192094,15644.48248856918,16.0,4.0,12.0,0.25,498.3168673768821,7548.823317014932,74.0,40.0,34.0,0.5405405405405406,82.19442677055586,3846.7906799331313,0.0,0.0,0.0,0.0,6365.0,6373.0,6468.0,6484.0,6495.0,6518.0,6526.0,6539.0,6757.0,6829.0,0.13234093173609346,-0.1590649690401544,0.05190301526138647,-0.18978798093573798,0.021906681046139256
6,6,7217.343519587277,592.1699622731411,8.241624695671039,7339.600626125949,-2583.2023464624385,8.374993906872092,7367.079836228347,15791.590033520086,9.79281836217732,7389.301356399425,-2351.110750836424,7.125315372947926,7654.205997752099,3704.760534569281,31.22905327226783,0.9854060270845676,119.0,107.0,75.0,289.0,364.0,12.0,849.0,859.0,13.0,6.0,7.0,0.4615384615384615,82.86100355865632,644.0257573330473,16.0,11.0,5.0,0.6875,383.58882172344914,1340.7623226560231,24.0,12.0,12.0,0.5,806.5897772506669,15387.650759483688,19.0,3.0,16.0,0.1578947368421052,486.35131362092943,7582.604800951556,76.0,36.0,40.0,0.4736842105263157,75.39022110667696,3983.1091104157967,0.0,0.0,0.0,0.0,7211.0,7223.0,7330.0,7344.0,7356.0,7379.0,7387.0,7405.0,7618.0,7694.0,0.13992773838203618,-0.14849352480991437,0.05107717307367755,-0.20686023125363473,0.020349553069141053
7,7,8112.31123049181,412.4821606860819,3.571881074758698,8237.972626301007,-2649.7969140947125,9.763331822328476,8264.442379362368,15330.175630721616,10.118607952796518,8286.301356399426,-2625.274887474164,8.322361703052996,8552.977173709982,3471.508329083262,31.455724702624327,0.9823490161745096,118.0,111.0,72.0,294.0,366.0,7.0,897.0,898.0,7.0,3.0,4.0,0.4285714285714285,103.83682647906078,694.2012986546127,16.0,12.0,4.0,0.75,393.2997432255419,1748.8231528516046,23.0,11.0,12.0,0.4782608695652174,766.229927968285,15400.926260588754,21.0,3.0,18.0,0.1428571428571428,485.6931027175784,7456.293289302777,79.0,38.0,41.0,0.4810126582278481,83.02173171851886,3559.274563660505,0.0,0.0,0.0,0.0,8109.0,8116.0,8227.0,8242.0,8253.0,8276.0,8284.0,8299.0,8516.0,8593.0,0.2517365267539059,-0.14842637227536754,0.04998181015178737,-0.18500657018239894,0.023915175724335023
8,8,8969.876695499283,581.8126584697695,12.739827004320285,9078.123304500716,-2341.194708526551,6.732723533310922,9107.10249591296,14903.85315784595,9.670023958755154,9129.2810509714,-2518.4708804710094,5.571621862806009,9401.657460196831,3358.9807476739593,31.96233157514684,0.9840170343475796,104.0,91.0,70.0,292.0,362.0,13.0,859.0,841.0,31.0,20.0,11.0,0.6451612903225806,88.09785364045803,497.7026668830582,13.0,7.0,6.0,0.5384615384615384,308.5760518604107,117.07885450220851,24.0,12.0,12.0,0.5,730.2601615862475,14244.200826092649,16.0,3.0,13.0,0.1875,467.71787858749633,7001.452726735169,80.0,48.0,32.0,0.6,69.14538713010238,3220.3734528878567,0.0,0.0,0.0,0.0,8967.0,8980.0,9071.0,9084.0,9095.0,9119.0,9126.0,9141.0,9356.0,9433.0,0.15141962340964693,-0.13180281449321035,0.04899807813805593,-0.18571502343518176,0.020585228771550553
9,9,9816.150678199714,250.64246477220627,3.1979517613015793,9940.123304500716,-2740.466664962025,10.267727222034178,9965.452720492489,15451.362228521462,10.303296385879516,9987.301356399515,-3175.041450774516,6.705195960004716,10253.96240584546,3600.6144966250677,29.941467260441353,0.9799282931188104,118.0,109.0,72.0,292.0,364.0,9.0,845.0,858.0,9.0,6.0,3.0,0.6666666666666666,95.89957775532488,513.916904170176,16.0,13.0,3.0,0.8125,413.2622599332391,2286.384382376065,24.0,11.0,13.0,0.4583333333333333,766.8554455830811,15470.292946239217,17.0,3.0,14.0,0.1764705882352941,508.47534525554255,7872.450346900738,79.0,39.0,40.0,0.4936708860759494,62.50717930604021,3670.2451411378033,0.0,0.0,0.0,0.0,9810.0,9819.0,9928.0,9943.0,9954.0,9978.0,9985.0,10000.0,10217.0,10292.0,0.3826150442722553,-0.15079995871395346,0.04963028076369557,-0.1601476242558993,0.017360142099252646
10,10,10671.27398270043,357.23763109588873,5.2329341744160205,10793.931450213737,-2499.6078002371355,8.708859380930939,10821.473103620678,15670.125644389633,9.679993297184277,10843.301356399426,-2543.9835235541036,5.918589012913945,11108.506626886869,3604.103995106154,31.26192802470371,0.9841111025833365,116.0,107.0,71.0,297.0,368.0,9.0,853.0,859.0,11.0,5.0,6.0,0.4545454545454545,80.83660295747312,370.5062823297029,16.0,11.0,5.0,0.6875,345.90261542128997,814.6290357558298,23.0,11.0,12.0,0.4782608695652174,799.2543995320141,15993.258591123316,14.0,2.0,12.0,0.1428571428571428,492.9147748059898,7501.460469157168,79.0,37.0,42.0,0.4683544303797468,79.46295940560664,3891.783108520904,0.0,0.0,0.0,0.0,10667.0,10676.0,10783.0,10799.0,10810.0,10833.0,10841.0,10854.0,11072.0,11151.0,0.22628244037307252,-0.13838275564209493,0.05100497709271213,-0.19375706259188233,0.02204790969225797
11,11,11581.84931758016,393.82445133696206,5.095930801728113,11700.972626301009,-2603.074795387319,9.481736858638149,11727.370527089332,15775.59810083865,9.893030619923335,11749.301356399426,-2899.559926816992,5.532050972790505,12018.657460196831,3712.3079240228026,30.562460779323533,0.9834832556346798,111.0,107.0,69.0,291.0,360.0,4.0,911.0,906.0,19.0,10.0,9.0,0.5263157894736842,69.55876411144261,137.99144292884037,16.0,12.0,4.0,0.75,392.7223617143535,1893.285290300326,24.0,11.0,13.0,0.4583333333333333,791.726885335907,15944.741392802853,14.0,3.0,11.0,0.2142857142857142,523.1680329662876,7676.250143198082,75.0,41.0,34.0,0.5466666666666666,83.44470540831392,3839.3361879663903,0.0,0.0,0.0,0.0,11579.0,11583.0,11690.0,11705.0,11716.0,11740.0,11747.0,11759.0,11979.0,12050.0,0.17662378218341526,-0.1508686428873509,0.05018680624817755,-0.18043015015061203,0.02247785127638064
12,12,12480.760156693514,297.44527041077424,5.095930795943124,12593.828962081849,-2606.6418243561698,9.332155977106972,12620.946073512843,15602.11728659119,9.777263086585432,12643.301356399426,-2533.950305502992,5.720251758370113,12908.427612565089,3657.069681125208,32.034426894577116,0.9848693588604456,105.0,101.0,69.0,293.0,362.0,4.0,899.0,892.0,5.0,3.0,2.0,0.6,78.13040593722279,407.4004712571822,16.0,11.0,5.0,0.6875,375.1467635438809,1193.1280734998631,24.0,12.0,12.0,0.5,794.1968242811865,15331.301747033029,13.0,3.0,10.0,0.2307692307692307,490.45946776922625,7513.140358797022,73.0,36.0,37.0,0.4931506849315068,88.67298572528723,4144.568882703306,0.0,0.0,0.0,0.0,12478.0,12482.0,12583.0,12599.0,12610.0,12633.0,12641.0,12652.0,12872.0,12945.0,0.2626715356049336,-0.14391956732933214,0.05090314408569003,-0.19355528271572378,0.024247004694207607
13,13,14158.849321800286,273.7163950067579,5.095930801728101,14268.54796540086,-2480.0905936075596,11.383125978553986,14294.661392987817,15114.466508017224,10.154378563572394,14316.876695499284,-3058.8921665967296,7.521311830212541,14582.994430602148,3446.314288985521,29.7094189596919,0.9790271264840956,102.0,96.0,71.0,290.0,361.0,6.0,1678.0,1674.0,10.0,3.0,7.0,0.3,64.68193566393275,287.1998970762963,18.0,15.0,3.0,0.8333333333333334,396.001967569264,2230.0972278928975,24.0,12.0,12.0,0.5,775.3090387712401,14408.6653689534,17.0,4.0,13.0,0.2352941176470588,484.9781599828123,7396.762833493508,70.0,33.0,37.0,0.4714285714285714,97.7550654229694,3682.409818038369,0.0,0.0,0.0,0.0,14156.0,14162.0,14258.0,14272.0,14283.0,14306.0,14314.0,14329.0,14552.0,14619.0,0.23631005246264397,-0.15967237994852293,0.05129582564889009,-0.15854699465342403,0.028365104638133624
14,14,15057.849321800286,553.4948455089033,5.095930801726052,15180.54796540086,-2505.611386939212,8.676471056883452,15206.707422304677,15406.893568928708,9.928354190657144,15228.876695499284,-2900.2935207745236,5.493988714412359,15495.74119785248,3707.074319798352,31.829574590232543,0.984715294669791,116.0,104.0,68.0,294.0,362.0,12.0,899.0,913.0,12.0,3.0,9.0,0.25,74.25219956586602,682.8398882966378,14.0,11.0,3.0,0.7857142857142857,423.8681220116196,2356.6375560212855,24.0,12.0,12.0,0.5,770.0541295506587,14838.550768136532,13.0,3.0,10.0,0.2307692307692307,488.94098927335506,7476.473335232503,75.0,38.0,37.0,0.5066666666666667,70.52622476934151,4116.469262355396,0.0,0.0,0.0,0.0,15055.0,15067.0,15171.0,15184.0,15195.0,15219.0,15226.0,15239.0,15458.0,15533.0,0.13415156467734737,-0.16916754298814293,0.04998114163023994,-0.16858327813068497,0.019024766887645733
15,15,15955.424660900142,281.5980962263747,0.7025784926089579,16070.972626301009,-2674.338849238033,11.320436367584673,16097.826644121002,15520.56926587688,10.139511760113097,16119.32150660334,-3278.2802804104867,6.374639527953242,16386.7895147262,3624.035139295229,28.027780905387033,0.9774846542458782,106.0,103.0,70.0,291.0,361.0,3.0,898.0,890.0,3.0,1.0,2.0,0.3333333333333333,64.65063024838238,311.8773074606946,16.0,11.0,5.0,0.6875,366.29128284467663,1331.020574387466,24.0,12.0,12.0,0.5,785.4634603854847,14567.786871052096,15.0,3.0,12.0,0.2,519.4682093622001,8173.453470882145,71.0,34.0,37.0,0.4788732394366197,100.94498384896498,3753.813331612124,0.0,0.0,0.0,0.0,15954.0,15957.0,16060.0,16075.0,16086.0,16110.0,16117.0,16130.0,16354.0,16421.0,0.22958475612850096,-0.1369651728871379,0.05060790277276648,-0.15845753411210936,0.027854306034294108
16,16,16813.150678199716,486.5697005671824,5.095930801728111,16934.686799099058,-2517.57994902226,8.682720953593327,16961.674625284188,15770.825085867466,9.551380380913,16983.876695499283,-2719.7640960675294,5.298744121285761,17250.95881659626,3717.7153646042657,31.14483662476784,0.9822883972499842,112.0,108.0,69.0,295.0,364.0,4.0,859.0,865.0,11.0,7.0,4.0,0.6363636363636364,81.05637138478141,579.096352466514,17.0,12.0,5.0,0.7058823529411765,383.79689853156793,1432.7102241490018,24.0,12.0,12.0,0.5,819.0502347166191,15098.772118751816,12.0,3.0,9.0,0.25,508.887476631988,7431.199978616103,80.0,42.0,38.0,0.525,67.96106417591794,3737.3914212008704,0.0,0.0,0.0,0.0,16812.0,16816.0,16924.0,16939.0,16950.0,16974.0,16981.0,16993.0,17212.0,17288.0,0.1665873795476701,-0.15244675692647666,0.05193452024590556,-0.18710721174964462,0.01828033012504498
17,17,17713.359747785576,398.29237592541625,1.10694526548018,17833.972626301005,-2562.017378324009,10.23940025254142,17860.56396079931,15553.856501080609,9.912764996605857,17882.876695499373,-2669.9444399760146,7.146198135609944,18149.364850709797,3438.2842642778437,31.478891967219685,0.981158694039087,111.0,108.0,70.0,294.0,364.0,3.0,899.0,898.0,3.0,1.0,2.0,0.3333333333333333,77.37692747544973,415.13557679566713,17.0,12.0,5.0,0.7058823529411765,383.1315973690637,1632.5762562125242,23.0,12.0,11.0,0.5217391304347826,797.9527268144764,14781.670467820137,13.0,3.0,10.0,0.2307692307692307,481.4168348942448,7538.190223638412,78.0,39.0,39.0,0.5,67.04234076529693,3636.612174054579,0.0,0.0,0.0,0.0,17712.0,17715.0,17823.0,17838.0,17849.0,17872.0,17880.0,17893.0,18111.0,18187.0,0.19427167616670435,-0.1495429346461718,0.05130256452854881,-0.18030968273578368,0.019498777765944286
18,18,0.0,0.0,0.0,0.0,0.0,0.0,0.0,0.0,0.0,0.0,0.0,0.0,0.0,0.0,0.0,0.0,0.0,0.0,0.0,0.0,0.0,0.0,0.0,0.0,0.0,0.0,0.0,0.0,0.0,0.0,0.0,0.0,0.0,0.0,0.0,0.0,0.0,0.0,0.0,0.0,0.0,0.0,0.0,0.0,0.0,0.0,0.0,0.0,0.0,0.0,0.0,0.0,0.0,0.0,0.0,0.0,0.0,0.0,,,,,,,,,,,,,,,
19,19,21109.424660900146,502.70031403239005,1.4097679361971671,21246.777964667595,-2367.041112221162,8.48442402236313,21273.846197220675,15523.806164487392,9.611865132140656,21295.876695499283,-2421.9901982061456,5.77552056478872,21561.355444351495,3828.619388903401,30.296137175306715,0.98452193393708,129.0,125.0,70.0,288.0,358.0,4.0,3396.0,3413.0,4.0,1.0,3.0,0.25,74.83385107241727,854.5638817658896,14.0,10.0,4.0,0.7142857142857143,360.1898926638579,1282.4211829260148,24.0,12.0,12.0,0.5,781.6355021516948,15111.11468393643,15.0,3.0,12.0,0.2,474.95102614885127,7057.043361800483,78.0,40.0,38.0,0.5128205128205128,76.66555174365286,4037.985565972612,0.0,0.0,0.0,0.0,21108.0,21112.0,21237.0,21251.0,21262.0,21286.0,21293.0,21307.0,21527.0,21595.0,0.14886374442884387,-0.15216883678284163,0.05035076410189801,-0.19609948318561538,0.020024333566782546
20,20,0.0,0.0,0.0,0.0,0.0,0.0,0.0,0.0,0.0,0.0,0.0,0.0,0.0,0.0,0.0,0.0,0.0,0.0,0.0,0.0,0.0,0.0,0.0,0.0,0.0,0.0,0.0,0.0,0.0,0.0,0.0,0.0,0.0,0.0,0.0,0.0,0.0,0.0,0.0,0.0,0.0,0.0,0.0,0.0,0.0,0.0,0.0,0.0,0.0,0.0,0.0,0.0,0.0,0.0,0.0,0.0,0.0,0.0,,21785.0,22130.0,22145.0,22156.0,22180.0,22187.0,22199.0,22422.0,22491.0,,,,,
21,21,22919.86458170499,385.77384594075033,7.643896202592155,23027.972626301005,-2598.180232459521,8.054581377781046,23055.89440987217,15203.969248741556,9.733714306599754,23077.4059324574,-2778.7572082349197,6.042506427547728,23344.21342626156,3536.5127135045645,31.996620962615463,0.983975533218608,100.0,94.0,68.0,297.0,365.0,6.0,1812.0,1782.0,7.0,3.0,4.0,0.4285714285714285,100.50820527662704,548.9392525186086,15.0,10.0,5.0,0.6666666666666666,343.4656964088205,563.4249396822225,24.0,12.0,12.0,0.5,776.2849862399902,14589.088177316466,16.0,2.0,14.0,0.125,501.5275775368994,7542.387067126215,80.0,40.0,40.0,0.5,68.847040977413,3517.807540676681,0.0,0.0,0.0,0.0,22918.0,22924.0,23018.0,23033.0,23044.0,23068.0,23075.0,23086.0,23305.0,23383.0,0.26053659763151427,-0.132194715408055,0.05105804764135812,-0.18048628935648256,0.019467494267591055
22,22,0.0,0.0,0.0,0.0,0.0,0.0,0.0,0.0,0.0,0.0,0.0,0.0,0.0,0.0,0.0,0.0,0.0,0.0,0.0,0.0,0.0,0.0,0.0,0.0,0.0,0.0,0.0,0.0,0.0,0.0,0.0,0.0,0.0,0.0,0.0,0.0,0.0,0.0,0.0,0.0,0.0,0.0,0.0,0.0,0.0,0.0,0.0,0.0,0.0,0.0,0.0,0.0,0.0,0.0,0.0,0.0,0.0,0.0,,,,,,,,,,,,,,,
23,23,24612.849321800284,335.62752210615497,2.3276847352373036,24736.972626301005,-2515.496388858305,10.5957121890859,24763.543673875734,15236.090582983054,10.199776215955817,24785.806710137094,-2943.440248553535,6.988932514055506,25051.896240476475,3676.38478355156,29.681493669083775,0.9835616564115252,116.0,112.0,72.0,291.0,363.0,4.0,1691.0,1709.0,5.0,3.0,2.0,0.6,86.06899059495792,418.2721893391536,17.0,13.0,4.0,0.7647058823529411,377.03978565741744,1932.5942061293931,24.0,12.0,12.0,0.5,768.5664946722696,14622.966785287806,15.0,3.0,12.0,0.2,489.3362963672774,7681.763219570697,72.0,35.0,37.0,0.4861111111111111,79.80900601343158,3892.0259490214994,0.0,0.0,0.0,0.0,24610.0,24614.0,24726.0,24741.0,24752.0,24776.0,24784.0,24798.0,25017.0,25089.0,0.2564419927628442,-0.1498868324070791,0.05044381237340957,-0.16624638349895057,0.021708556288912814
24,24,25324.11332795674,435.9418450027508,0.936789358074196,25658.972626301005,-2413.902172463442,9.929062900016962,25686.52296239173,15417.556991596854,9.96165271744806,25707.87669605332,-3025.4265807798265,6.07194705708172,25975.67221232071,3627.2969423100385,30.384744972026933,0.9818980677394954,326.0,322.0,70.0,295.0,365.0,4.0,712.0,921.0,4.0,2.0,2.0,0.5,66.08094861053245,548.8451833146505,17.0,12.0,5.0,0.7058823529411765,337.45703330317144,1048.8533657594508,24.0,12.0,12.0,0.5,788.0034888066489,14371.218382780711,14.0,3.0,11.0,0.2142857142857142,509.5245117309903,7587.823699400305,78.0,40.0,38.0,0.5128205128205128,72.93975603144872,3955.0372864389806,0.0,0.0,0.0,0.0,25322.0,25326.0,25648.0,25663.0,25675.0,25699.0,25705.0,25718.0,25941.0,26013.0,0.15158202720850408,-0.13979731123850345,0.05111078812526137,-0.1684141056232991,0.02010857042903059
25,25,26482.849321800284,623.0893514719422,5.095930801587581,26603.54796540086,-2041.770934849322,8.830242033675612,26632.66420890771,16005.405509675906,9.549720344881464,26654.30135639943,-2465.5773574111895,5.296696513910802,26921.26668293552,3944.100892997239,33.30128005659637,0.9875099713957792,115.0,102.0,70.0,295.0,365.0,13.0,1158.0,948.0,18.0,3.0,15.0,0.1666666666666666,66.59480445937727,790.3397180516891,15.0,9.0,6.0,0.6,300.2758246349325,744.7971237645296,24.0,12.0,12.0,0.5,806.0953646968342,15103.493614770408,14.0,2.0,12.0,0.1428571428571428,496.3350045847975,7462.240820488224,83.0,41.0,42.0,0.4939759036144578,62.18418055162474,4068.0326728535374,0.0,0.0,0.0,0.0,26480.0,26493.0,26595.0,26610.0,26621.0,26645.0,26652.0,26665.0,26881.0,26960.0,0.10687841848373499,-0.14706636259228179,0.05036394511901104,-0.20130579277623642,0.015766376732915963
26,26,27356.248960076668,345.45886641735575,3.25180925980969,27481.123304500717,-2540.4982419681855,12.73982700425288,27506.599204824543,15855.524010497147,9.940077760438356,27528.876695499283,-2986.425740922865,6.244510906876216,27794.926662921593,3730.1797455673222,28.04203220177548,0.9783511754364695,117.0,110.0,71.0,284.0,355.0,7.0,873.0,873.0,7.0,4.0,3.0,0.5714285714285714,60.69809177261471,344.77458806607757,18.0,14.0,4.0,0.7777777777777778,397.2354019431976,2279.435217050908,24.0,12.0,12.0,0.5,805.9298286055084,15096.72827694456,14.0,3.0,11.0,0.2142857142857142,510.40904689979016,7675.406692767083,65.0,33.0,32.0,0.5076923076923077,75.5121440848022,3973.6995561178474,0.0,0.0,0.0,0.0,27352.0,27359.0,27469.0,27484.0,27496.0,27519.0,27526.0,27540.0,27765.0,27824.0,0.17570280480016434,-0.1563612189849223,0.050829592769809605,-0.1709096730267479,0.020243567129582807
27,27,28273.150678199716,450.1481361612199,5.095930801728113,28386.972626301005,-2486.8125476140553,8.740279740199858,28414.084958094867,15988.376390867516,9.729666190804274,28435.876695499283,-2756.6520164557332,6.1837518331050525,28703.301046147873,3658.9398006711167,32.93533805691496,0.983289361276836,105.0,100.0,70.0,296.0,366.0,5.0,919.0,908.0,19.0,14.0,5.0,0.7368421052631579,82.84918880298805,451.1886751999514,15.0,11.0,4.0,0.7333333333333333,369.2229143147701,1310.3220663935076,23.0,11.0,12.0,0.4782608695652174,828.7929602154237,15865.753133041875,14.0,3.0,11.0,0.2142857142857142,511.6103375734985,7826.830143521802,86.0,45.0,41.0,0.5232558139534884,74.76962032714052,3501.906044427542,0.0,0.0,0.0,0.0,28272.0,28277.0,28377.0,28391.0,28403.0,28426.0,28433.0,28447.0,28664.0,28743.0,0.18404872118212157,-0.14847235456850855,0.05183721848635152,-0.18559119341848712,0.020434777394650327
28,28,29998.849321800284,700.376579644138,5.095930801728113,30109.0872376922,-2112.033679811784,7.1121527797067685,30136.868637440053,14814.43355912358,9.65432116755092,30159.72601729957,-2198.378233516232,5.722045753936482,30424.996480898502,3531.949469286288,33.31674277102103,0.988789108928926,105.0,94.0,69.0,297.0,366.0,11.0,1724.0,1724.0,12.0,3.0,9.0,0.25,76.46679282249038,756.5863141449811,12.0,8.0,4.0,0.6666666666666666,338.8187421325291,806.5266042237554,24.0,12.0,12.0,0.5,725.3560572487786,14368.85216728654,13.0,2.0,11.0,0.1538461538461538,441.1550830996932,6589.151682053923,80.0,37.0,43.0,0.4625,88.93151629075783,3902.054677114431,0.0,0.0,0.0,0.0,29996.0,30007.0,30101.0,30113.0,30125.0,30149.0,30158.0,30170.0,30390.0,30467.0,0.10917954004307685,-0.16042298253630277,0.04896279391000155,-0.2006729671782096,0.02517915872356138
29,29,30869.30135639943,489.8508209903835,4.951387290984462,30986.972626301005,-2628.4437637678,9.91373201919317,31014.169727607463,15484.21206222694,9.936873163244138,31035.876695499283,-2978.1974163915606,5.75396216797727,31307.232799296693,3655.9841118673658,30.843481307310668,0.9799052446555024,116.0,102.0,68.0,295.0,363.0,14.0,873.0,875.0,14.0,8.0,6.0,0.5714285714285714,92.4879747040678,364.4532654148024,14.0,10.0,4.0,0.7142857142857143,363.8658137904607,978.2021536190867,23.0,11.0,12.0,0.4782608695652174,783.4920839142434,15225.27327423814,13.0,3.0,10.0,0.2307692307692307,497.2299736114769,7693.31186074039,78.0,44.0,34.0,0.5641025641025641,73.91041687205363,3454.169989246786,0.0,0.0,0.0,0.0,30861.0,30875.0,30977.0,30991.0,31003.0,31026.0,31033.0,31045.0,31267.0,31340.0,0.18880845094242166,-0.13843393524572475,0.05059941576397924,-0.16695668691229004,0.020216285030380626
30,30,31796.186644521928,544.5834221327663,1.0145534543330037,31935.547965376092,-2408.8445336111727,10.116993422895469,31962.06372257613,15822.476500403687,9.88448978823434,31983.876695499763,-2696.5599135030975,5.180424171809616,32250.92144574256,3792.9377449425738,31.340790177899567,0.9853746705348896,129.0,126.0,71.0,293.0,364.0,3.0,925.0,949.0,3.0,1.0,2.0,0.3333333333333333,75.21759081546237,799.9389646821469,18.0,14.0,4.0,0.7777777777777778,383.0933000478955,2410.6343179024557,23.0,11.0,12.0,0.4782608695652174,784.409959628951,15763.739465235234,14.0,3.0,11.0,0.2142857142857142,511.1237409371109,7339.429205975729,74.0,37.0,37.0,0.5,74.95696276439645,4019.5673016773753,0.0,0.0,0.0,0.0,31795.0,31798.0,31924.0,31939.0,31951.0,31974.0,31981.0,31995.0,32214.0,32288.0,0.1381195015464954,-0.15903612487335936,0.049575675439235946,-0.18954659170658317,0.019762244414462785
31,31,32795.424660900135,360.72157580088833,1.7054704999940764,32900.972626301,-2470.1384880822648,8.355475006619582,32928.44252489169,15977.517773535876,9.513874325839598,32950.30135639943,-2493.1072055878176,5.7397566808591565,33217.78932474449,3664.0114716611142,31.37387277029691,0.9825599909033672,97.0,93.0,70.0,298.0,368.0,4.0,999.0,966.0,4.0,1.0,3.0,0.25,67.20888026722497,384.0567078600428,15.0,10.0,5.0,0.6666666666666666,355.26727302491383,882.6681878992015,23.0,11.0,12.0,0.4782608695652174,815.36040116104,16336.206069898366,15.0,3.0,12.0,0.2,523.1917378334105,7730.500164293915,82.0,41.0,41.0,0.5,50.2835639305594,3622.6226312148674,0.0,0.0,0.0,0.0,32794.0,32798.0,32891.0,32906.0,32917.0,32940.0,32948.0,32961.0,33178.0,33259.0,0.18631788275487862,-0.14382484008041663,0.05103173175695352,-0.2098552908839128,0.013723637144553718
32,32,33691.69864360057,588.1268714994455,6.900812883936492,33814.972626301,-2425.4459171671065,9.814325940687873,33840.97352236039,14915.090683193124,10.101746591090691,33863.56181349923,-2675.614115845293,7.276102434726555,34132.138929022585,3560.617717419147,32.158796986135656,0.983455776482856,118.0,107.0,70.0,297.0,367.0,11.0,895.0,912.0,11.0,6.0,5.0,0.5454545454545454,78.85572134953506,776.9254547992136,16.0,12.0,4.0,0.75,383.8043175813566,2123.2972849829,24.0,12.0,12.0,0.5,742.5859010529579,14739.677605050349,13.0,3.0,10.0,0.2307692307692307,449.92245098803704,7250.669855036987,80.0,40.0,40.0,0.5,67.23907501017042,3672.246869570537,0.0,0.0,0.0,0.0,33686.0,33697.0,33804.0,33819.0,33829.0,33853.0,33861.0,33874.0,34096.0,34171.0,0.13407943960882154,-0.1582407238457973,0.04978755522349798,-0.16815670403424202,0.018884103924222316
33,33,34593.153295725446,339.42720697638816,2.5479654005417633,34707.972626301,-2572.946115254483,9.649041285277766,34734.244496103835,14650.85869795501,10.435663227658388,34756.36196807371,-2854.533953068456,6.67470557391508,35024.18261378745,3399.5859118347257,31.79420383201234,0.9846412279145268,103.0,100.0,74.0,292.0,366.0,3.0,903.0,893.0,3.0,1.0,2.0,0.3333333333333333,70.4236883338649,543.090183870554,17.0,13.0,4.0,0.7647058823529411,374.59917111013493,1692.8110614808138,24.0,11.0,13.0,0.4583333333333333,724.4423784082937,14807.005975625303,17.0,2.0,15.0,0.1176470588235294,462.6246845315585,7426.950354439775,79.0,40.0,39.0,0.5063291139240507,73.50446105765688,3341.0660485883222,0.0,0.0,0.0,0.0,34592.0,34595.0,34695.0,34712.0,34723.0,34747.0,34754.0,34769.0,34989.0,35061.0,0.20747803030051107,-0.14559153372439917,0.04944709339865605,-0.16206662528370497,0.0216215924421181
34,34,35492.849321800284,367.9786299955038,3.271938047432374,35612.54796540086,-2636.6204155793876,10.332634009255823,35638.6404838678,15292.15544392044,9.98663319519515,35660.87669549929,-2845.455223582221,7.331846433693433,35928.77606331286,3478.45125606875,31.829958562653683,0.9795035812490084,111.0,103.0,71.0,296.0,367.0,8.0,899.0,906.0,8.0,3.0,5.0,0.375,63.772635231933,411.00250971581886,17.0,13.0,4.0,0.7647058823529411,408.56418992582695,2136.9308321473095,23.0,12.0,11.0,0.5217391304347826,789.4285175875922,14630.041544909416,15.0,4.0,11.0,0.2666666666666666,484.4165143597267,7591.43585127157,88.0,48.0,40.0,0.5454545454545454,65.92304903167133,3592.1232855225408,0.0,0.0,0.0,0.0,35490.0,35498.0,35601.0,35616.0,35627.0,35650.0,35658.0,35672.0,35882.0,35968.0,0.17330526838667837,-0.15495753105440718,0.051623103131706524,-0.17024218492177906,0.018951839246462734
35,35,36371.424660900135,521.1245388984695,1.135466654966006,36506.56041446005,-2363.1539896805175,8.518479616551515,36535.41452160583,15615.666108829771,9.467771543570672,36557.45203459914,-2676.7953839692514,5.361861932113244,36824.18234932273,3835.4943610958258,31.642556327531715,0.982206251294677,126.0,123.0,70.0,296.0,366.0,3.0,879.0,896.0,3.0,1.0,2.0,0.3333333333333333,72.55141579930446,801.1803727935849,16.0,11.0,5.0,0.6875,310.95212648884285,273.86656153808815,23.0,11.0,12.0,0.4782608695652174,786.4782886916709,15600.564155410444,13.0,3.0,10.0,0.2307692307692307,506.55877131813594,7515.432530778134,80.0,40.0,40.0,0.5,81.83869882816795,4280.320013531158,0.0,0.0,0.0,0.0,36370.0,36373.0,36496.0,36511.0,36524.0,36547.0,36554.0,36566.0,36788.0,36862.0,0.139220877897365,-0.1315835226340377,0.050364696786579094,-0.18924075196475862,0.02133719701383842
36,36,37330.84932180029,601.0784053572374,5.095930801728113,37447.12330450071,-2411.282589566699,10.46619584702452,37473.418589744455,15934.967333312616,9.874654421433403,37494.79355715633,-2863.8437762524613,5.525440198289451,37762.380740728215,3957.792839652708,30.60403375873974,0.9853863414977144,107.0,96.0,69.0,294.0,363.0,11.0,959.0,938.0,17.0,9.0,8.0,0.5294117647058824,73.80684276150431,557.7214217719016,15.0,12.0,3.0,0.8,366.6886232964828,1708.440295706942,24.0,11.0,13.0,0.4583333333333333,798.42394240969,16038.796456754537,14.0,3.0,11.0,0.2142857142857142,519.4215466462797,7553.359628459704,71.0,34.0,37.0,0.4788732394366197,83.88115593924401,4311.4011545399735,0.0,0.0,0.0,0.0,37328.0,37339.0,37435.0,37450.0,37462.0,37486.0,37493.0,37504.0,37728.0,37798.0,0.12279070767421577,-0.1520720237781735,0.05010515087411296,-0.1813721652533641,0.02119392280941225
37,37,38248.75394118933,323.8721373936055,0.8608591188673563,38369.54796540086,-2822.427819167031,11.487477449865008,38396.07874684835,15816.382605257464,10.211858955560798,38417.726017299574,-2989.702712177297,7.430451150966011,38686.628034018,3748.065281161407,28.52748206961011,0.977552267067364,110.0,107.0,71.0,295.0,366.0,3.0,919.0,923.0,3.0,2.0,1.0,0.6666666666666666,56.07781514061105,426.66669927044256,18.0,14.0,4.0,0.7777777777777778,402.5574890363379,2037.5765199462771,23.0,11.0,12.0,0.4782608695652174,806.7334647464132,15455.193238713337,16.0,2.0,14.0,0.125,512.5676816849535,7902.673102375594,74.0,36.0,38.0,0.4864864864864865,71.0266235336525,3739.9965642555458,0.0,0.0,0.0,0.0,38247.0,38250.0,38357.0,38373.0,38385.0,38408.0,38416.0,38428.0,38653.0,38723.0,0.17314800708669498,-0.14262809000909815,0.05100619306454119,-0.17144436455077108,0.01895020982976145
38,38,39107.95866906437,358.85593164853736,0.7565197511003379,39247.12263665455,-2773.598267468339,11.399469804166676,39272.33999681599,15239.3482920564,10.340646380786785,39294.87669549929,-2867.390961898609,9.450439541609214,39565.383477496405,3347.137611682209,29.89297884236673,0.975221425230998,129.0,126.0,73.0,293.0,366.0,3.0,859.0,876.0,3.0,2.0,1.0,0.6666666666666666,77.55995559044814,627.1088596628146,17.0,14.0,3.0,0.8235294117647058,415.58450497829995,2377.8445219725904,23.0,11.0,12.0,0.4782608695652174,738.0004502329618,15021.535327522512,17.0,4.0,13.0,0.2352941176470588,457.35816802730665,7469.410771473923,82.0,45.0,37.0,0.5487804878048781,78.76380896445265,3403.9042476759996,0.0,0.0,0.0,0.0,39106.0,39109.0,39235.0,39250.0,39261.0,39284.0,39292.0,39308.0,39525.0,39601.0,0.21613117897800327,-0.14983586839258936,0.04842729728919241,-0.15950324671612703,0.023531691284382966
39,39,40026.15067819971,332.970049393889,5.095930801728111,40129.735788071106,-2563.2918738203502,7.1230453032558545,40157.564066057224,14712.831174586852,9.84071384967544,40181.027373699,-2422.025445920299,6.039006341754767,40447.46205266625,3442.689732763854,34.55009045252397,0.9870379199539292,96.0,92.0,71.0,298.0,369.0,4.0,919.0,884.0,4.0,1.0,3.0,0.25,84.95762871620535,539.297023825271,13.0,9.0,4.0,0.6923076923076923,360.5069335242572,662.7952571675178,25.0,13.0,12.0,0.52,714.1327211218336,13771.37184697634,15.0,4.0,11.0,0.2666666666666666,451.8747228421416,6791.833438138667,82.0,37.0,45.0,0.4512195121951219,76.87335281087032,3772.5895145423274,0.0,0.0,0.0,0.0,40025.0,40029.0,40121.0,40134.0,40145.0,40170.0,40177.0,40192.0,40412.0,40490.0,0.2551509628894706,-0.14064217079850327,0.048538089824298344,-0.18656894113283867,0.02232944551443937
40,40,40686.165108318266,373.4332110732666,0.9009805881734794,41006.972626301,-2645.293188511917,9.641590650125794,41033.67594472497,14906.614530432837,10.120486981609403,41055.87669549929,-2929.011057977859,6.963445950827929,41322.92476291325,3572.303378434966,30.078729315487855,0.9802738262603043,312.0,309.0,72.0,292.0,364.0,3.0,659.0,877.0,3.0,1.0,2.0,0.3333333333333333,64.06520373365441,406.7043386749243,16.0,12.0,4.0,0.75,385.5488025639413,1317.680190462209,24.0,12.0,12.0,0.5,748.97700685056,14239.73749997433,17.0,4.0,13.0,0.2352941176470588,465.5005654191915,7563.679328181239,78.0,39.0,39.0,0.5,73.2322213572356,3470.1997424751044,0.0,0.0,0.0,0.0,40685.0,40688.0,40997.0,41011.0,41022.0,41046.0,41053.0,41069.0,41284.0,41361.0,0.17155732761295564,-0.14574898700768513,0.050244608212111075,-0.15892755479747675,0.020500000587665317
41,41,41790.449060635445,454.07986883922626,4.395451172393876,41910.972626301,-2598.743357351116,10.41629350041114,41937.12087991469,15662.338922017716,9.902303290411668,41958.87669549929,-2937.0450568320193,5.487298847192589,42227.368056170206,3641.557666744605,30.757132638581663,0.9800947112585552,111.0,105.0,70.0,297.0,367.0,6.0,1105.0,905.0,11.0,7.0,4.0,0.6363636363636364,74.02246632075737,593.0701702800347,17.0,13.0,4.0,0.7647058823529411,402.4763791813429,1858.6176266204675,23.0,11.0,12.0,0.4782608695652174,799.393770727745,15581.554109211054,14.0,3.0,11.0,0.2142857142857142,516.079956784132,7734.619776916176,80.0,40.0,40.0,0.5,81.68005149352042,3516.2710306777135,0.0,0.0,0.0,0.0,41788.0,41794.0,41899.0,41915.0,41926.0,41949.0,41956.0,41969.0,42188.0,42266.0,0.16301640174003426,-0.15487346145314815,0.05103923332957491,-0.17571400737746617,0.022429976116934282
42,42,42690.48021942066,582.2766923425095,1.6832777781523205,42775.28990657027,-2294.1875974491127,9.882457553565992,42801.71287548592,15590.29787436836,9.881547760557078,42823.87669549929,-2684.1082267538677,5.8069436334183715,43093.2327992967,3816.629414496894,31.212017238568112,0.9804898581581196,77.0,72.0,69.0,292.0,361.0,5.0,900.0,865.0,5.0,2.0,3.0,0.4,110.39631111669723,264.9469243412861,15.0,11.0,4.0,0.7333333333333333,367.012313595545,1639.7486371125074,24.0,12.0,12.0,0.5,783.1698663346076,15066.140896601251,15.0,4.0,11.0,0.2666666666666666,485.7515662498976,7301.190775131995,75.0,39.0,36.0,0.52,76.69846124711003,3957.8818421387577,0.0,0.0,0.0,0.0,42688.0,42693.0,42765.0,42779.0,42790.0,42814.0,42821.0,42834.0,43055.0,43126.0,0.18959424714832893,-0.1599748486146568,0.0502344389212857,-0.1809731669565949,0.02009586284583524
43,43,43597.273982700426,496.319919634459,5.799529431594774,43715.972626301,-2294.139334769771,9.341187119710382,43743.045690087616,15093.912092185688,9.994543119070553,43764.726017299574,-2720.995230682156,5.387806425213229,44033.899803879875,3595.0705447800888,32.4243078675249,0.9837510541887258,113.0,106.0,66.0,301.0,367.0,7.0,905.0,939.0,8.0,5.0,3.0,0.625,96.77581043661831,482.1510001889627,17.0,12.0,5.0,0.7058823529411765,356.0980113573613,1538.285422775667,23.0,11.0,12.0,0.4782608695652174,759.2743498250718,15035.97431928804,13.0,2.0,11.0,0.1538461538461538,478.13337487989867,7397.822575413167,88.0,45.0,43.0,0.5113636363636364,85.77546693916821,3555.4347178287953,0.0,0.0,0.0,0.0,43593.0,43600.0,43706.0,43720.0,43732.0,43755.0,43763.0,43772.0,43994.0,44073.0,0.19498675472847024,-0.1552207426813061,0.05030335046261187,-0.1757200341582481,0.023859188817229485
44,44,46207.972626301,540.2834152573348,12.456656877728612,46326.42378735368,-2290.414402704065,6.928848176583164,46353.31241035812,15763.915528535945,9.576564170658768,46375.30135639943,-2474.3636463399375,4.906530864046499,46648.65746019684,4002.8836594215504,33.85599795658284,0.9808043832218886,120.0,101.0,65.0,297.0,362.0,19.0,2609.0,2611.0,26.0,10.0,16.0,0.3846153846153846,78.4245213158177,605.9245086766558,15.0,10.0,5.0,0.6666666666666666,356.4883502228412,1200.271168458613,23.0,11.0,12.0,0.4782608695652174,781.8211354562866,15677.42729166244,11.0,2.0,9.0,0.1818181818181818,510.5907239060237,7358.028655956302,85.0,53.0,32.0,0.6235294117647059,66.82827634302208,4047.654367179961,0.0,0.0,0.0,0.0,46198.0,46217.0,46318.0,46331.0,46342.0,46365.0,46373.0,46383.0,46602.0,46680.0,0.14515441174233418,-0.15564360309731318,0.04959561817246665,-0.2063523381703761,0.016695033388174792
45,45,46997.95789952703,424.159708811599,2.5479654008640567,47190.54796540086,-2325.9753519986757,10.761523682179575,47216.54439737254,15626.938603104134,9.944739453780963,47237.87669549929,-3041.243744556463,5.5146367383375905,47507.2327992967,3710.8659683069127,30.950544031563627,0.97871162507898,182.0,179.0,69.0,292.0,361.0,3.0,793.0,865.0,3.0,1.0,2.0,0.3333333333333333,81.98390726083477,489.4029741698269,16.0,13.0,3.0,0.8125,407.5720831199497,2764.0018430648624,24.0,12.0,12.0,0.5,807.8546573955559,14916.836480203328,14.0,3.0,11.0,0.2142857142857142,505.96261251103584,7679.991029367365,78.0,39.0,39.0,0.5,76.56326753096273,3721.839420067711,0.0,0.0,0.0,0.0,46997.0,47000.0,47179.0,47194.0,47205.0,47229.0,47235.0,47248.0,47469.0,47540.0,0.19328546667135219,-0.17522631216608944,0.051696284084400496,-0.16636700475476876,0.020632183480853345
46,46,47949.726017299574,489.8076066942463,5.43241666830361,48076.12330450063,-2411.6379815072364,10.060522649626517,48102.01315479889,15560.380096001843,9.973004332729417,48123.87669549929,-2889.0704470125243,5.619402210114293,48389.98764625499,3684.914270200693,32.019433615673705,0.9835904639384794,122.0,111.0,69.0,293.0,362.0,11.0,953.0,884.0,11.0,7.0,4.0,0.6363636363636364,96.83758530019183,675.3819496973788,16.0,12.0,4.0,0.75,395.2258983773143,2187.340225231357,23.0,11.0,12.0,0.4782608695652174,785.0816621546055,15544.231177603471,14.0,3.0,11.0,0.2142857142857142,508.1306265888987,7444.691880118631,82.0,42.0,40.0,0.5121951219512195,73.8846949841167,3807.456911933785,0.0,0.0,0.0,0.0,47943.0,47954.0,48065.0,48079.0,48091.0,48114.0,48121.0,48134.0,48354.0,48427.0,0.19770535201312414,-0.16388276408314992,0.05045388720011589,-0.17588031718448988,0.020050587223048935
47,47,48595.15067819971,329.9276467846893,1.825078997787294,48936.972626301,-2431.64865543518,10.37410386509317,48963.7940574841,14749.933848335564,9.960727129415774,48985.87671962028,-2748.2348497889816,6.64745208685664,49252.063717329256,3430.161392963518,30.469014255969327,0.9775153953554848,333.0,329.0,69.0,294.0,363.0,4.0,645.0,861.0,7.0,4.0,3.0,0.5714285714285714,80.03516969695694,290.7310468772663,17.0,12.0,5.0,0.7058823529411765,360.6576766125191,1166.737886256131,23.0,11.0,12.0,0.4782608695652174,749.8300041236663,14214.136041096644,13.0,3.0,10.0,0.2307692307692307,462.888059313556,7313.120189000952,78.0,39.0,39.0,0.5,66.52075973564337,3255.1280956336404,0.0,0.0,0.0,0.0,48594.0,48598.0,48927.0,48941.0,48953.0,48976.0,48983.0,48996.0,49218.0,49290.0,0.24258400433228283,-0.14831816915917648,0.05083616047595223,-0.16843104196466255,0.019392895002579506
48,48,49675.84932180029,454.2067707924286,5.095930801728113,49792.13135145351,-2289.2023318096894,7.521474573653228,49820.115100519506,14847.04582474459,9.802511364521822,49842.30135639943,-2614.514815733519,6.144486882200095,50107.94662156342,3488.3691394529164,33.857145552596094,0.9867695243031962,110.0,98.0,70.0,297.0,367.0,12.0,1079.0,856.0,17.0,3.0,14.0,0.1764705882352941,63.96851457858425,458.90029070395497,14.0,9.0,5.0,0.6428571428571429,322.194093669015,724.686558282318,24.0,12.0,12.0,0.5,721.9816497272047,14640.554352280287,15.0,3.0,12.0,0.2,475.6199717728427,7251.628823385499,84.0,41.0,43.0,0.4880952380952381,80.32794181301797,3764.619778138588,0.0,0.0,0.0,0.0,49673.0,49685.0,49783.0,49797.0,49808.0,49832.0,49840.0,49853.0,50071.0,50150.0,0.140835669329592,-0.14074513606418967,0.048627966684384155,-0.18191519470866127,0.02302736281677342
49,49,50394.18239023574,370.1022553416031,1.2969506985389236,50739.972626301,-2381.201918581686,10.570208663221738,50766.127399696095,15461.468270651036,9.825187251435125,50788.45203459914,-2771.6492526198085,5.779775616459814,51057.53415569612,3760.4046678137993,30.278798208297175,0.9733277966969568,336.0,332.0,70.0,298.0,368.0,4.0,719.0,948.0,4.0,2.0,2.0,0.5,55.28081067751984,469.8068427648929,16.0,12.0,4.0,0.75,379.06607627745495,1880.7083060534064,23.0,11.0,12.0,0.4782608695652174,772.515265445633,15532.07152406347,14.0,3.0,11.0,0.2142857142857142,501.6087829170106,7653.672831380639,79.0,40.0,39.0,0.5063291139240507,76.7102587028458,3795.1453487896024,0.0,0.0,0.0,0.0,50392.0,50396.0,50728.0,50744.0,50755.0,50778.0,50785.0,50798.0,51019.0,51096.0,0.14936631668590034,-0.15919106788862233,0.04996390070611998,-0.18097844900211732,0.020399469067631792
50,50,51426.228825148435,265.6636467896578,1.947602370492645,51718.972626301,-2462.7033257302696,13.704486593839478,51745.65823621765,15767.008481489122,9.892080872394226,51767.87669549929,-2961.5983900204055,5.938323294959139,52038.26246089669,3639.2477324419506,29.6304665931051,0.9771002509068814,284.0,279.0,69.0,299.0,368.0,5.0,1032.0,979.0,5.0,2.0,3.0,0.4,77.58619989784812,328.24864043495285,17.0,12.0,5.0,0.7058823529411765,372.73997414490526,1244.5986018248443,23.0,11.0,12.0,0.4782608695652174,795.7017241622976,15233.96579733916,13.0,3.0,10.0,0.2307692307692307,506.2188488392716,7866.699245658669,73.0,34.0,39.0,0.4657534246575342,82.10516818112525,3779.9828903497823,0.0,0.0,0.0,0.0,51424.0,51429.0,51708.0,51723.0,51735.0,51758.0,51765.0,51777.0,52005.0,52076.0,0.2920467321570643,-0.15135398984137727,0.050466245711510344,-0.17092758104713304,0.022561027502799962
51,51,52319.70546063704,302.96540194234746,1.5790621676684595,52643.972626301,-2930.91725549464,11.442363394541944,52670.54958916675,15308.646445006678,10.090055276185408,52692.15955689078,-2982.537087286472,7.980841603820668,52960.83573635197,3468.1574411437873,28.42834378005996,0.973615252056495,316.0,311.0,71.0,293.0,364.0,5.0,894.0,925.0,5.0,3.0,2.0,0.6,80.37585555993174,190.32512317406457,17.0,12.0,5.0,0.7058823529411765,399.6708658889478,1234.6397061173443,23.0,12.0,11.0,0.5217391304347826,796.1387753436059,14505.836488903617,21.0,3.0,18.0,0.1428571428571428,493.54359795836376,7717.480001482743,76.0,38.0,38.0,0.5,60.597313983943046,3377.1853262806917,0.0,0.0,0.0,0.0,52317.0,52322.0,52633.0,52648.0,52659.0,52682.0,52689.0,52704.0,52923.0,52997.0,0.26529714298937274,-0.13636374931420464,0.052005824172867206,-0.16547777396035412,0.017472480708360875
52,52,55248.220729572786,356.73767338906487,0.729356789890251,55367.54796540086,-2372.5138205594826,12.651950354185251,55393.76260695062,15455.930573019348,10.125597551075808,55415.87669549929,-3013.370242350336,7.038041306410419,55685.296908100165,3794.347258664569,30.179163804992935,0.9787638889781316,109.0,106.0,72.0,294.0,366.0,3.0,2928.0,2722.0,3.0,1.0,2.0,0.3333333333333333,72.06062583254828,277.13664968217563,21.0,17.0,4.0,0.8095238095238095,392.83424174467865,2544.582725420603,24.0,12.0,12.0,0.5,769.4885714468247,14709.677231795546,16.0,4.0,12.0,0.25,494.21528727389426,7534.105516430762,72.0,34.0,38.0,0.4722222222222222,63.15851642939444,3764.465540387362,0.0,0.0,0.0,0.0,55247.0,55250.0,55356.0,55371.0,55382.0,55406.0,55413.0,55428.0,55652.0,55722.0,0.20199892304045386,-0.16557721954683538,0.049785974892387445,-0.1640074891323084,0.01664542334262343
53,53,56187.424660900135,390.04948077982226,1.507054379720908,56311.54796540086,-2421.7475229657257,9.404217731475857,56338.3391979325,15797.540458798125,9.88674130632504,56360.30135639943,-2903.918342628216,5.604990476719718,56629.28945854984,3877.4428785857535,31.146337938678535,0.983846950586289,115.0,112.0,66.0,302.0,368.0,3.0,939.0,945.0,3.0,1.0,2.0,0.3333333333333333,59.533823846972005,643.8393017415416,15.0,11.0,4.0,0.7333333333333333,398.2071361562715,2113.697476940236,23.0,11.0,12.0,0.4782608695652174,782.4335742000857,15873.406910213318,15.0,3.0,12.0,0.2,517.5461549450507,7687.72681644342,77.0,37.0,40.0,0.4805194805194805,76.20758563478415,3855.3977556189097,0.0,0.0,0.0,0.0,56186.0,56189.0,56301.0,56315.0,56327.0,56350.0,56358.0,56367.0,56592.0,56669.0,0.15263146544368317,-0.16442966592513253,0.04952882230248221,-0.17822338436577426,0.019654083379451324
54,54,57126.424660900135,457.8365255434685,2.5479654008640567,57238.65257066421,-2609.297380124094,9.467359487782227,57265.61823786116,15695.98926387998,9.907482664950711,57287.87669549929,-2888.3821947181855,5.9986620593809,57556.51618041034,3811.519374078884,31.813873799153455,0.9793781315181124,103.0,92.0,70.0,297.0,367.0,11.0,939.0,928.0,11.0,1.0,10.0,0.0909090909090909,65.36667235751027,491.9897138626044,16.0,12.0,4.0,0.75,389.532139395752,1596.4594912029916,24.0,12.0,12.0,0.5,812.45705846803,15045.014251236196,14.0,3.0,11.0,0.2142857142857142,510.1381315026984,7724.8144736449485,78.0,39.0,39.0,0.5,63.79655218258945,3923.7198412959497,0.0,0.0,0.0,0.0,57125.0,57136.0,57228.0,57243.0,57254.0,57278.0,57285.0,57298.0,57524.0,57595.0,0.1427729521577984,-0.14928621872039224,0.051762080414878814,-0.17661725392005184,0.016737827076638415
55,55,57765.21233344593,189.915313898008,2.5479654008640567,58140.39728720114,-2753.6842519368506,13.302311666419431,58167.479181769886,15987.393910531342,10.10469155413088,58188.87669549929,-3016.2660299045874,9.49537911509602,58459.02765969633,3609.1089490300424,26.981625128911865,0.965236340012494,364.0,360.0,76.0,289.0,365.0,4.0,639.0,899.0,4.0,1.0,3.0,0.25,49.162457255000426,275.4910634556901,17.0,12.0,5.0,0.7058823529411765,349.51688532682334,597.4777524006302,23.0,11.0,12.0,0.4782608695652174,790.9890551759321,15102.35872632481,19.0,3.0,16.0,0.1578947368421052,491.1349054286961,8054.880428423242,70.0,35.0,35.0,0.5,69.56844916279046,3615.759202915114,0.0,0.0,0.0,0.0,57764.0,57768.0,58128.0,58145.0,58156.0,58179.0,58186.0,58204.0,58428.0,58493.0,0.2588651554524065,-0.12692700155472972,0.04947579696869078,-0.1628287758968767,0.0192757963656063
56,56,59780.50707315927,906.4190526726796,25.47965400864057,59895.12330450071,-1805.0777572883453,5.399045391219534,59922.96229058338,14956.17064313201,10.016316816628674,59945.726017299574,-2128.745880383734,4.887570950709363,60212.30181372008,3597.900125397867,40.14895838508148,0.9862697604481344,119.0,95.0,66.0,305.0,371.0,24.0,2018.0,1758.0,52.0,15.0,37.0,0.2884615384615384,78.21743378317642,1068.7470641160412,11.0,7.0,4.0,0.6363636363636364,337.19168777472703,1610.125475099428,25.0,12.0,13.0,0.48,685.0449952920292,14526.840134815431,11.0,2.0,9.0,0.1818181818181818,448.3206150606296,6418.122861207531,99.0,51.0,48.0,0.5151515151515151,67.78732606544335,3681.5115196566526,0.0,0.0,0.0,0.0,59769.0,59793.0,59888.0,59899.0,59911.0,59936.0,59944.0,59954.0,60161.0,60259.0,0.08629279531640847,-0.18680175212023492,0.045803502222449374,-0.21060316273157698,0.018840802607867614
57,57,60656.8301006812,329.98296025851045,7.643896202592043,60775.39728720114,-2219.491570069976,9.65987674691232,60802.74195864303,15065.770072906931,9.976337116560384,60825.06449994383,-2744.693991129661,6.402920908242413,61095.4779459383,3650.65502664713,31.762111666109764,0.98252091627617,115.0,105.0,72.0,300.0,372.0,10.0,873.0,879.0,10.0,8.0,2.0,0.8,69.5051768936863,200.82870448772755,16.0,11.0,5.0,0.6875,327.03589939795006,1262.5679041818944,24.0,12.0,12.0,0.5,764.6138611836989,14545.040821443275,14.0,3.0,11.0,0.2142857142857142,482.3391110947399,7533.542286228418,77.0,35.0,42.0,0.4545454545454545,62.97048840618742,3793.5823512119096,0.0,0.0,0.0,0.0,60649.0,60659.0,60764.0,60780.0,60791.0,60815.0,60823.0,60836.0,61063.0,61136.0,0.2106326243004656,-0.14734721402327258,0.05075172775659964,-0.17573511387920474,0.01724909309330753
58,58,61541.263691215805,517.2158008874627,1.0097603675095923,61667.972626301,-2664.0162696025054,12.560211800419818,61694.22539453483,15591.481242351774,9.876806504213617,61715.87669549929,-3079.5802968389153,5.3125011383078355,61985.42998636325,3433.1460312099007,29.655945813250764,0.9757256246025884,117.0,114.0,68.0,299.0,367.0,3.0,885.0,893.0,3.0,1.0,2.0,0.3333333333333333,88.54015079153552,626.6027417070329,17.0,13.0,4.0,0.7647058823529411,384.4671858821435,1443.6456573182868,23.0,11.0,12.0,0.4782608695652174,792.1026450176105,15766.914413131028,12.0,3.0,9.0,0.25,526.742997876951,7945.987853516782,78.0,39.0,39.0,0.5,59.505681030013314,3539.418073261112,0.0,0.0,0.0,0.0,61540.0,61543.0,61657.0,61672.0,61683.0,61706.0,61713.0,61725.0,61947.0,62024.0,0.17118609029270618,-0.14431863283609353,0.05080355308807927,-0.1710437615208913,0.017332697324570975
59,59,62459.15067819971,336.80133544377935,2.2008254803433345,62582.51874765711,-2599.3686871071427,10.191861603454637,62610.07237992024,15679.43861566343,9.797597072026704,62631.87669550449,-2868.547915639868,5.9136691128620615,62901.97328307552,3682.430614255012,29.547045757722348,0.9763222147248156,111.0,107.0,75.0,297.0,372.0,4.0,919.0,915.0,9.0,6.0,3.0,0.6666666666666666,69.54120203712677,169.42031109583814,18.0,14.0,4.0,0.7777777777777778,349.18915576743274,980.2700736205204,23.0,11.0,12.0,0.4782608695652174,796.8432937253526,15514.17557800535,15.0,3.0,12.0,0.2,498.396557360415,7616.115525748122,76.0,36.0,40.0,0.4736842105263157,67.9234885114522,3790.562489722088,0.0,0.0,0.0,0.0,62458.0,62462.0,62569.0,62587.0,62599.0,62622.0,62629.0,62644.0,62869.0,62941.0,0.2064754343847753,-0.1343361399632955,0.05082090712924651,-0.17374524394139013,0.01844528672136127
60,60,63505.726017299574,323.5001919687903,7.64389620259217,63614.972626301,-2247.1359654081043,8.536256195012102,63642.826227067926,15660.251624539394,9.709187080280696,63664.343037321465,-2794.7956846718957,5.389808225849547,63935.62555691167,3951.119347900132,32.683784665330464,0.9841613580070352,103.0,95.0,69.0,300.0,369.0,8.0,1047.0,1033.0,8.0,4.0,4.0,0.5,105.87385511978546,370.56154661224787,15.0,11.0,4.0,0.7333333333333333,329.2780825241791,890.0167065162885,24.0,12.0,12.0,0.5,787.4122377757142,15084.911154403391,13.0,2.0,11.0,0.1538461538461538,515.7992511865428,7505.165796073642,80.0,40.0,40.0,0.5,59.530764158337675,3936.6305466336416,0.0,0.0,0.0,0.0,63502.0,63510.0,63605.0,63619.0,63631.0,63655.0,63662.0,63674.0,63897.0,63974.0,0.32727601945287144,-0.14653233609047714,0.05028094417984001,-0.1845570515281144,0.015066809912987311
61,61,64411.15067819971,265.37706835905817,5.095930801728113,64518.54796540086,-2554.5419336562845,9.265221011560811,64545.7202052081,14896.28940545248,10.313840294810335,64567.87669549929,-2600.2455323428844,10.738432340701175,64837.44961932126,3408.836288232886,30.928537340238176,0.9803267996956322,105.0,95.0,74.0,291.0,365.0,10.0,905.0,901.0,12.0,8.0,4.0,0.6666666666666666,66.99175563205065,316.7105883795846,16.0,12.0,4.0,0.75,388.5429366121949,1695.760680760082,24.0,12.0,12.0,0.5,728.5382098526013,13551.727359598131,18.0,3.0,15.0,0.1666666666666666,450.5141556799554,7199.152820980417,77.0,40.0,37.0,0.5194805194805194,67.45908157826175,3847.6461701371913,0.0,0.0,0.0,0.0,64404.0,64414.0,64509.0,64522.0,64534.0,64558.0,64565.0,64583.0,64797.0,64874.0,0.2524398812839776,-0.15209886809572867,0.048907361425586625,-0.17325831352319687,0.019789475314824227
62,62,65256.72596912653,455.0056754758257,5.095930801728113,65368.43184511885,-2470.7875747475427,10.025732616882438,65394.18843015875,15155.868751748534,9.999932194089933,65417.45203459914,-2712.7341894203782,7.24885187257218,65685.95881659626,3640.3310365636894,32.203076542190345,0.9802098535170032,103.0,92.0,71.0,294.0,365.0,11.0,845.0,849.0,11.0,2.0,9.0,0.1818181818181818,66.60915745847102,387.7544615968628,15.0,11.0,4.0,0.7333333333333333,374.8010136711089,1615.053372559035,23.0,11.0,12.0,0.4782608695652174,752.3149923333411,15103.25713860762,17.0,4.0,13.0,0.2352941176470588,469.0817759528693,7113.305782108138,90.0,51.0,39.0,0.5666666666666667,73.6019848945721,3702.0398550889217,0.0,0.0,0.0,0.0,65255.0,65266.0,65358.0,65372.0,65383.0,65406.0,65414.0,65429.0,65652.0,65723.0,0.14639192662556127,-0.15169293285336552,0.049638526478170145,-0.17291844434382145,0.02021848676818389
63,63,65956.14307575116,314.1151305822347,0.6946396607246178,66283.39728720114,-2690.463774242318,11.658966474999191,66310.99949663765,15716.613580882848,9.95018670047299,66332.30135639943,-2950.468283668295,6.190486608081008,66603.19318448319,3846.103122744228,29.687395074233468,0.976774245609148,316.0,313.0,72.0,299.0,371.0,3.0,699.0,917.0,3.0,1.0,2.0,0.3333333333333333,71.58165480915507,665.035569228856,18.0,12.0,6.0,0.6666666666666666,335.7691336540321,378.4972215657559,23.0,11.0,12.0,0.4782608695652174,797.7637070934862,15228.55115489593,17.0,2.0,15.0,0.1176470588235294,516.7302848098248,8042.34699406927,73.0,34.0,39.0,0.4657534246575342,88.74620196761148,4126.244244599473,0.0,0.0,0.0,0.0,65955.0,65958.0,66271.0,66288.0,66300.0,66323.0,66330.0,66343.0,66569.0,66642.0,0.227883498246243,-0.12479972295802072,0.0507592620374569,-0.17513500743935395,0.02307431681766512
64,64,67055.42466090013,507.903538781216,2.5479654008640567,67181.86663181602,-2967.828815405679,8.92609805649547,67208.694339077,15601.508911049175,9.690518009210788,67230.87669549929,-2682.4044113675227,5.545571864504509,67505.65746019685,3813.0463794223606,28.977875525052948,0.9720377411625748,117.0,112.0,69.0,297.0,366.0,5.0,1099.0,899.0,5.0,1.0,4.0,0.2,86.88638755678839,809.0471225866174,17.0,12.0,5.0,0.7058823529411765,410.3390462593516,979.8891493463328,24.0,12.0,12.0,0.5,810.3686422886992,15132.49369340923,13.0,3.0,10.0,0.2307692307692307,507.61036557392816,7454.396073042582,72.0,41.0,31.0,0.5694444444444444,74.65859072197806,3652.1303121118344,0.0,0.0,0.0,0.0,67054.0,67059.0,67171.0,67186.0,67197.0,67221.0,67228.0,67240.0,67466.0,67537.0,0.1710686792324467,-0.13826237016411658,0.0519416837761626,-0.1892370752981062,0.019579775143801978
65,65,67942.38288070701,367.4830366800026,2.121453980981884,68066.972626301,-2856.9906741485725,10.300571306359291,68092.94101498066,15492.603587601983,9.996836508513624,68114.87669549929,-3039.7071579468725,6.843339719445088,68383.37010497917,3643.5317824038057,29.530885521341585,0.9752567261858672,116.0,110.0,70.0,296.0,366.0,6.0,887.0,885.0,6.0,2.0,4.0,0.3333333333333333,87.30616711269525,483.0989015608352,16.0,12.0,4.0,0.75,410.087294278973,1570.7643183785606,23.0,11.0,12.0,0.4782608695652174,801.1143909816742,15296.076480078587,16.0,4.0,12.0,0.25,504.36194156555234,7686.52333762475,77.0,38.0,39.0,0.4935064935064935,79.5150322056604,3602.429530605003,0.0,0.0,0.0,0.0,67940.0,67946.0,68056.0,68071.0,68082.0,68105.0,68112.0,68126.0,68346.0,68422.0,0.23757876799281985,-0.14353819842313115,0.05170947455357143,-0.1659245168558331,0.021823614271645156
66,66,69684.30135639943,607.3571995085745,7.719593923861995,69793.12330450071,-2234.8922473286225,7.208803259975125,69821.09151980546,14786.651788500332,9.859673155314496,69843.8025149405,-2575.8560861381684,6.826401729380811,70113.06136909842,3450.129579177287,31.772806367968013,0.985728874572036,108.0,96.0,71.0,293.0,364.0,12.0,1744.0,1726.0,13.0,7.0,6.0,0.5384615384615384,92.63219217061814,577.5519812267952,12.0,7.0,5.0,0.5833333333333334,327.8316320750072,910.4746969686878,24.0,12.0,12.0,0.5,719.9320320403334,14181.607612488286,16.0,3.0,13.0,0.1875,454.23133204558064,7073.304683028705,78.0,38.0,40.0,0.4871794871794871,71.10940072308254,3546.1344538396543,0.0,0.0,0.0,0.0,69678.0,69690.0,69786.0,69798.0,69809.0,69833.0,69841.0,69857.0,70076.0,70150.0,0.15251682575849732,-0.14668789176161218,0.04868796819846863,-0.1763418905621328,0.020610646380429337
67,67,70511.2335091802,311.4713211836927,0.6022367682791967,70678.972626301,-2422.586315468421,9.44794038222137,70706.1893241888,15116.52735740426,10.010748555476104,70728.85838801115,-2712.109647186841,7.5532510105992765,71001.65746019685,3736.894114416507,29.6286862813096,0.977624547140981,158.0,155.0,73.0,292.0,365.0,3.0,825.0,885.0,3.0,1.0,2.0,0.3333333333333333,70.56300403114642,296.205826583826,17.0,12.0,5.0,0.7058823529411765,349.9895241427033,1338.1602068912955,23.0,11.0,12.0,0.4782608695652174,744.0475051244846,14852.812172156524,15.0,3.0,12.0,0.2,469.81950142357334,7456.904488886512,77.0,45.0,32.0,0.5844155844155844,81.74523248791805,3563.266748084493,0.0,0.0,0.0,0.0,70510.0,70513.0,70668.0,70683.0,70695.0,70718.0,70726.0,70741.0,70963.0,71033.0,0.22654735518822078,-0.14446937221926429,0.04922079572462395,-0.17323027552034914,0.02187518029278763
68,68,71450.42466090013,351.42918519199435,0.8014006707711074,71567.972626301,-2494.824073412148,12.227900516373827,71594.23082127092,15573.53065512711,10.032083374575356,71616.45203459915,-2960.135211242148,6.161898715538645,71884.99857661876,3727.815695236544,28.88595010747658,0.977775160347716,106.0,103.0,74.0,291.0,365.0,3.0,939.0,890.0,3.0,1.0,2.0,0.3333333333333333,61.39455910242392,342.0114894782911,18.0,14.0,4.0,0.7777777777777778,367.6946455272413,1572.7285204646978,23.0,11.0,12.0,0.4782608695652174,762.361611634407,15451.663325581569,16.0,3.0,13.0,0.1875,505.5618467354658,7656.785859355562,72.0,37.0,35.0,0.5138888888888888,84.12905360809096,3814.2710233019097,0.0,0.0,0.0,0.0,71449.0,71452.0,71555.0,71572.0,71583.0,71606.0,71613.0,71629.0,71852.0,71920.0,0.1746996598159102,-0.1473829956371828,0.048952394194788626,-0.17079011959163823,0.022567921937662386
69,69,72350.27398270041,625.5274547059614,7.64389620259217,72473.69864360057,-2499.7068172096947,9.239615416548045,72498.6975005925,15940.312273332194,9.9512915441484,72520.30135639943,-2799.429109672564,5.218675561013445,72788.76319721884,3881.921415984512,32.90391974439099,0.9860026790081156,120.0,110.0,67.0,301.0,368.0,10.0,899.0,902.0,11.0,9.0,2.0,0.8181818181818182,93.1229978820236,701.012832336492,17.0,14.0,3.0,0.8235294117647058,451.47127338067054,3315.660242653158,24.0,12.0,12.0,0.5,801.8574165376416,15375.55679367169,11.0,2.0,9.0,0.1818181818181818,515.4401794645759,7586.778189224824,78.0,37.0,41.0,0.4743589743589743,84.86528181377142,4215.236464378122,0.0,0.0,0.0,0.0,72342.0,72352.0,72462.0,72476.0,72487.0,72511.0,72518.0,72529.0,72752.0,72830.0,0.1488711601408406,-0.18060969001341795,0.05030374579794977,-0.18412331917376698,0.02186166918895455
70,70,73249.09159260335,587.6551595107578,3.775054598051972,73425.12330450071,-2488.3190476060076,8.944374563320133,73451.15538557839,15811.537517214483,9.771020752014843,73473.30135639943,-2634.965004585777,5.172565330399633,73743.03471599746,3832.73365718537,32.30308795187128,0.9840167111282832,169.0,160.0,67.0,303.0,370.0,9.0,899.0,954.0,11.0,5.0,6.0,0.4545454545454545,75.04625810657836,394.3143111578395,14.0,11.0,3.0,0.7857142857142857,380.0361501313667,1694.2073843764908,23.0,11.0,12.0,0.4782608695652174,783.9846821349417,15717.52727481809,12.0,3.0,9.0,0.25,501.9190557767317,7375.887657686715,79.0,37.0,42.0,0.4683544303797468,55.24871523756292,3851.520875893445,0.0,0.0,0.0,0.0,73245.0,73254.0,73414.0,73428.0,73440.0,73463.0,73471.0,73481.0,73707.0,73784.0,0.12770458472458038,-0.15272806374929956,0.04958307699560493,-0.19048414491396048,0.014414963360155767
71,71,74227.84932180027,555.1081485992947,5.095930801728071,74350.98549688942,-2367.296386631487,7.100493654060779,74378.64628167805,15061.37598964143,9.943977650664396,74401.87669549929,-2551.2436827358683,6.095855107692681,74677.65746019685,3646.5989280037857,33.67546323459578,0.9819967573155168,116.0,110.0,72.0,296.0,368.0,6.0,979.0,927.0,24.0,3.0,21.0,0.125,75.96174192813541,806.4595623511414,14.0,10.0,4.0,0.7142857142857143,354.45516742868824,1170.2109066636672,25.0,13.0,12.0,0.52,716.3066804929128,14110.693898150668,15.0,4.0,11.0,0.2666666666666666,462.6760773563561,7048.620747814227,78.0,46.0,32.0,0.5897435897435898,62.348430950914114,3689.905706246585,0.0,0.0,0.0,0.0,74225.0,74231.0,74341.0,74355.0,74366.0,74391.0,74399.0,74413.0,74633.0,74709.0,0.13684133825059097,-0.14972994908045945,0.047559179253313766,-0.1813531496372772,0.017097693544555714
72,72,75106.21738151714,346.5302530351346,0.7896421051797685,75214.54796540085,-2489.50201428414,9.177014870597407,75242.60520468825,15168.638130895752,9.600686769679964,75265.45203459915,-2579.5330302663456,7.009981728807785,75535.2327992967,3619.9929780155953,28.69762658520864,0.9776853339038424,101.0,98.0,72.0,290.0,362.0,3.0,879.0,863.0,3.0,1.0,2.0,0.3333333333333333,67.88697499259196,256.0338686969541,14.0,9.0,5.0,0.6428571428571429,344.3864479248459,520.1192836959134,24.0,12.0,12.0,0.5,781.1219166543545,14176.626331406917,18.0,4.0,14.0,0.2222222222222222,471.22877973183034,7171.831731733591,76.0,39.0,37.0,0.5131578947368421,76.00443403529056,3672.581662748456,0.0,0.0,0.0,0.0,75105.0,75108.0,75206.0,75220.0,75231.0,75254.0,75262.0,75278.0,75498.0,75568.0,0.19590490122577817,-0.13833547671335175,0.05149585018205105,-0.18267987818057688,0.02099574073675541
73,73,76013.84932180027,403.43575956093866,2.48626295002269,76149.9725695192,-2577.394408452376,7.607473359416417,76177.33317318145,15616.20641620631,9.570784963053612,76198.87669549929,-2689.592609297803,5.386188632239014,76468.36535243761,3704.153252227644,30.454917519170195,0.9822019609861604,129.0,120.0,69.0,293.0,362.0,9.0,907.0,937.0,9.0,3.0,6.0,0.3333333333333333,91.49173359769046,421.65363088287984,15.0,10.0,5.0,0.6666666666666666,379.33282379655446,998.52810721095,23.0,11.0,12.0,0.4782608695652174,794.1137533162224,15601.96781313442,14.0,3.0,11.0,0.2142857142857142,510.148011554647,7491.464680640225,77.0,37.0,40.0,0.4805194805194805,69.54775838711127,3596.3858310244905,0.0,0.0,0.0,0.0,76011.0,76020.0,76140.0,76155.0,76166.0,76189.0,76196.0,76209.0,76435.0,76502.0,0.22678141793196865,-0.1471768630181552,0.05085189912014103,-0.1896748265113043,0.01877561581591849
74,74,76924.84932180027,809.7825737319314,2.072035934267446,77061.6816388345,-2593.2604509948333,9.790402547611755,77088.65287605254,15644.26082146326,9.801041253881827,77110.87669549929,-2673.7036737657845,5.619730280350129,77379.59742059714,3677.0230486397177,31.103938704423612,0.9797812530405956,130.0,124.0,70.0,296.0,366.0,6.0,911.0,911.0,6.0,3.0,3.0,0.5,91.6356297781061,943.554517134722,15.0,11.0,4.0,0.7333333333333333,374.67825114651896,1441.341390771987,24.0,12.0,12.0,0.5,792.3516112254225,15159.437745302606,15.0,4.0,11.0,0.2666666666666666,488.4523298266758,7499.339093574663,77.0,39.0,38.0,0.5064935064935064,60.80837737183841,3759.39047707757,0.0,0.0,0.0,0.0,76922.0,76928.0,77052.0,77066.0,77077.0,77101.0,77108.0,77122.0,77347.0,77418.0,0.11316078259846692,-0.14448153520514453,0.05064806961913789,-0.18268753363334161,0.01653739358373996
75,75,77823.84932180027,698.4960186814071,5.095930801728113,77949.17739867946,-2456.9111688099447,9.471250723949256,77976.67532078529,15595.47499239041,9.666054459549793,77998.30135639943,-2790.3308401629765,5.528728804083202,78266.85975830423,3677.2574555233846,29.547242223714147,0.9805035576111224,118.0,106.0,69.0,296.0,365.0,12.0,899.0,888.0,15.0,3.0,12.0,0.2,79.3982366904384,761.943874268193,16.0,11.0,5.0,0.6875,344.6208276092664,717.9367031416663,23.0,12.0,11.0,0.5217391304347826,817.0573474192807,15025.826039010532,14.0,3.0,11.0,0.2142857142857142,520.8763159013943,7632.184587410684,71.0,34.0,37.0,0.4788732394366197,83.23822802900911,3930.078455153766,0.0,0.0,0.0,0.0,77821.0,77833.0,77939.0,77954.0,77965.0,77988.0,77996.0,78008.0,78234.0,78304.0,0.11367027809309953,-0.1402658883170736,0.052390667665970565,-0.18667188435295765,0.022635953298288113
76,76,78744.24122444955,578.6899444441124,20.438853267077857,78850.54796540065,-2183.0816567091724,7.725879410926235,78877.20778498454,15142.851747745235,9.84550875122834,78899.15067819973,-2409.1336635238017,4.3473693783255225,79166.61766825379,3589.6315335058557,34.197949510759905,0.988785581502498,109.0,91.0,64.0,299.0,363.0,18.0,919.0,899.0,32.0,24.0,8.0,0.75,73.70012475352739,322.3318655903743,13.0,10.0,3.0,0.7692307692307693,377.53174489691145,1935.3805721858776,24.0,11.0,13.0,0.4583333333333333,731.869118807998,15230.977666093324,9.0,2.0,7.0,0.2222222222222222,482.1683705438572,6810.3317542519335,78.0,39.0,39.0,0.5,89.59376674318803,3970.325762628496,0.0,0.0,0.0,0.0,78733.0,78751.0,78842.0,78854.0,78866.0,78890.0,78898.0,78906.0,79131.0,79205.0,0.1273568436104821,-0.17293523755131152,0.048330996763339046,-0.20014180941650084,0.024959042705891662
77,77,79620.94818989706,284.16683088081584,0.8820640685786936,79729.63850831808,-2588.9515041916698,8.628041539252848,79756.6966939831,14449.754102494811,10.159479372452289,79779.45203459915,-2911.873691162625,6.943118550765717,80049.63336564969,3248.629637400847,30.38685931560523,0.9808248330166438,101.0,98.0,71.0,295.0,366.0,3.0,879.0,879.0,3.0,2.0,1.0,0.6666666666666666,57.55789178863019,259.3850258494642,16.0,12.0,4.0,0.75,368.0470271092069,1220.9759746469056,24.0,12.0,12.0,0.5,722.9930339796612,13699.335584156992,15.0,3.0,12.0,0.2,468.8615303761255,7349.8107947764765,76.0,38.0,38.0,0.5,72.08935785691274,3517.3189068203533,0.0,0.0,0.0,0.0,79619.0,79622.0,79720.0,79734.0,79745.0,79769.0,79776.0,79791.0,80013.0,80086.0,0.2025496487757605,-0.14216064940317205,0.05003497145012546,-0.16101712508997013,0.022190697587364795
78,78,80527.63249904048,338.15571165695144,2.865222511677469,80634.972626301,-2198.4133781059063,12.19012797764573,80663.00595307264,15217.25980908554,9.90005609406413,80684.23957682375,-2863.3923909527107,8.318047574485256,80953.77998810602,3695.0382386970673,28.865477105333728,0.9751687492887444,101.0,93.0,73.0,290.0,363.0,8.0,906.0,906.0,8.0,4.0,4.0,0.5,82.64571782213146,161.77429792163514,20.0,14.0,6.0,0.7,311.64944078829865,849.2616427375617,24.0,12.0,12.0,0.5,768.5092510082319,14122.11344526219,18.0,3.0,15.0,0.1666666666666666,494.62317714481475,7749.708679866564,74.0,37.0,37.0,0.5,62.04647774653571,3549.1827295070893,0.0,0.0,0.0,0.0,80524.0,80532.0,80625.0,80640.0,80652.0,80675.0,80681.0,80698.0,80922.0,80988.0,0.244401365918589,-0.14176107364157664,0.050502472892615634,-0.17274027084364893,0.016791836440754764
79,79,81408.04820118149,603.0181164548419,5.729474874474406,81527.54796540085,-2742.274323233712,8.56759412476731,81554.53592352354,15335.1285511189,9.674822291195472,81575.87652642641,-2797.2043734893978,5.441722176509036,81844.4759248447,3663.605088289895,31.30087345764551,0.979305325678546,118.0,104.0,66.0,298.0,364.0,14.0,880.0,891.0,17.0,10.0,7.0,0.5882352941176471,100.38755760008026,484.74335661393815,13.0,9.0,4.0,0.6923076923076923,393.48816946282653,1073.8757426414743,24.0,12.0,12.0,0.5,783.255059863252,14303.407157902077,13.0,3.0,10.0,0.2307692307692307,492.0590032174017,7672.78797742252,83.0,40.0,43.0,0.4819277108433735,84.49776305698758,3706.287985583931,0.0,0.0,0.0,0.0,81401.0,81415.0,81519.0,81532.0,81543.0,81567.0,81573.0,81585.0,81808.0,81883.0,0.16647519346559791,-0.1434897180522852,0.05107587179672538,-0.1759109945204248,0.023064102440263183
80,80,82352.69864360057,411.32298168701703,8.169749130259781,82486.39728720114,-2578.78555359709,9.208245283378384,82513.16960511658,15800.136516365976,9.965361037879353,82534.72601729959,-2711.4534770770315,5.8359112669966935,82805.09849773081,3896.9675850897015,32.817233028190344,0.98485145029913,129.0,120.0,70.0,302.0,372.0,9.0,944.0,961.0,10.0,8.0,2.0,0.8,57.455613919780625,573.5622255944686,16.0,11.0,5.0,0.6875,363.31772515044054,1266.803643857269,23.0,11.0,12.0,0.4782608695652174,783.5028252871459,15701.951405443266,12.0,2.0,10.0,0.1666666666666666,499.25953358025333,7455.708391256987,79.0,36.0,43.0,0.4556962025316455,85.52132857749821,4138.140658113511,0.0,0.0,0.0,0.0,82346.0,82355.0,82475.0,82491.0,82502.0,82525.0,82533.0,82545.0,82769.0,82847.0,0.13968491058809746,-0.14088714148551704,0.04958835795346351,-0.18412985426490117,0.021945609428396018
81,81,83336.42466090013,558.2187326530714,1.5570016921821868,83460.54796540085,-2647.7428081719645,9.095802936404208,83487.0721521133,15707.983592456629,9.81289117787398,83508.87669549929,-2900.9687463587848,6.30621870147955,83778.58331939974,3680.241990959797,31.401778766303224,0.9820984466033552,115.0,111.0,71.0,293.0,364.0,4.0,985.0,972.0,4.0,1.0,3.0,0.25,75.97803761191328,634.6494210397334,14.0,11.0,3.0,0.7857142857142857,410.9916902533593,1867.3211538436392,23.0,11.0,12.0,0.4782608695652174,803.1283115610115,15385.069369739527,16.0,3.0,13.0,0.1875,499.8821934726125,7653.646330276096,77.0,38.0,39.0,0.4935064935064935,69.80468406337317,3863.140713536563,0.0,0.0,0.0,0.0,83335.0,83339.0,83450.0,83464.0,83476.0,83499.0,83506.0,83521.0,83742.0,83814.0,0.13610800420618102,-0.15522341859824113,0.05112867013349148,-0.17231560805336174,0.018967416880423207
82,82,84215.07422036491,289.62708236994274,2.5479654004578607,84327.54796540085,-2694.1620971852353,8.968402040584508,84353.7525974912,14608.755178400372,10.440420935781406,84376.87669549929,-2847.5040607447013,8.050074901382246,84644.69556658287,3558.1040166996195,32.3962736773085,0.9817817087451362,103.0,100.0,72.0,297.0,369.0,3.0,879.0,867.0,3.0,1.0,2.0,0.3333333333333333,64.23533091287975,395.605405474255,15.0,12.0,3.0,0.8,415.8904976008384,2288.6492340486043,24.0,12.0,12.0,0.5,715.1679415940964,14095.494774799412,17.0,4.0,13.0,0.2352941176470588,443.70848701757217,7177.613268318209,85.0,43.0,42.0,0.5058823529411764,88.57428098376818,3534.7899794438595,0.0,0.0,0.0,0.0,84214.0,84217.0,84317.0,84331.0,84342.0,84366.0,84374.0,84389.0,84607.0,84686.0,0.22178634120559038,-0.15436728845504358,0.04895474890642981,-0.15582365382177193,0.02489367386901937
83,83,0.0,0.0,0.0,0.0,0.0,0.0,0.0,0.0,0.0,0.0,0.0,0.0,0.0,0.0,0.0,0.0,0.0,0.0,0.0,0.0,0.0,0.0,0.0,0.0,0.0,0.0,0.0,0.0,0.0,0.0,0.0,0.0,0.0,0.0,0.0,0.0,0.0,0.0,0.0,0.0,0.0,0.0,0.0,0.0,0.0,0.0,0.0,0.0,0.0,0.0,0.0,0.0,0.0,0.0,0.0,0.0,0.0,0.0,,84856.0,85202.0,85217.0,85228.0,85251.0,85259.0,85272.0,85497.0,85570.0,,,,,
84,84,85973.42466090013,326.4449611370191,0.9003977912557736,86099.39728720114,-2686.5402926411653,11.127336236376976,86126.6393325423,15248.790554499616,9.968722093824548,86147.8766955003,-2844.40351470315,6.363685504066219,86419.17711249948,3665.4569184445386,29.643310063129643,0.9756349474443468,116.0,106.0,71.0,295.0,366.0,10.0,1758.0,1775.0,10.0,1.0,9.0,0.1,75.18788195429693,565.9657335937659,16.0,11.0,5.0,0.6875,347.3831054192154,513.6720356479852,23.0,11.0,12.0,0.4782608695652174,793.6704828158539,14711.551751422385,16.0,3.0,13.0,0.1875,499.9820027731432,7664.674609474744,73.0,36.0,37.0,0.4931506849315068,87.44266812004629,3827.73371092298,0.0,0.0,0.0,0.0,85972.0,85982.0,86088.0,86104.0,86116.0,86139.0,86145.0,86159.0,86385.0,86454.0,0.23032330378883759,-0.12930500479399082,0.05204809391139926,-0.1757774521753545,0.023855871195767098
85,85,86852.42466090013,351.22083779451617,0.7089442004348957,86972.972626301,-2224.594207122784,17.8357578060484,86999.33085104295,16386.841337417532,9.89037378359987,87020.30135639943,-2752.29050004725,10.191861602938998,87290.12950250367,3627.3510654266943,28.23748725538539,0.970275905216651,110.0,107.0,71.0,296.0,367.0,3.0,879.0,872.0,3.0,1.0,2.0,0.3333333333333333,69.19889588627608,385.3096456169613,18.0,13.0,5.0,0.7222222222222222,375.84290460817385,1815.4417803381389,23.0,11.0,12.0,0.4782608695652174,789.4912494556457,15150.466031630122,20.0,3.0,17.0,0.15,508.6210357086038,8003.429421037427,79.0,40.0,39.0,0.5063291139240507,65.92273971047038,3523.296174676071,0.0,0.0,0.0,0.0,86851.0,86854.0,86961.0,86977.0,86988.0,87011.0,87018.0,87032.0,87256.0,87328.0,0.19702389049809538,-0.16894897208883616,0.04817836660521818,-0.18479918297137313,0.018173796393406362
86,86,87718.54796540085,349.952277828822,5.540412332496681,87850.5826880889,-2791.1891444923294,9.38378226066861,87878.44482564605,15652.818124968571,9.640776791512844,87900.30135639943,-2608.160910798562,5.701740806936185,88170.08335328732,3665.85615247244,29.03647947964042,0.9784901128917632,130.0,112.0,71.0,295.0,366.0,18.0,864.0,879.0,19.0,9.0,10.0,0.4736842105263157,72.88212429452317,376.59796584589486,17.0,12.0,5.0,0.7058823529411765,369.1923043438484,921.4197801086684,23.0,11.0,12.0,0.4782608695652174,800.6269265612227,16008.14490158122,14.0,3.0,11.0,0.2142857142857142,513.0322830861518,7718.556141061772,73.0,36.0,37.0,0.4931506849315068,64.88931157628183,3805.093059656255,0.0,0.0,0.0,0.0,87710.0,87728.0,87840.0,87856.0,87867.0,87890.0,87898.0,87911.0,88135.0,88206.0,0.2082630373109708,-0.13227061486404507,0.05114905956034228,-0.1967026961266253,0.017700997768970606
87,87,88510.42466090013,364.68885491539254,1.188813355574328,88796.972626301,-2554.8482107032214,9.30032959750798,88824.30637772748,15664.55593993888,9.829116188448165,88845.87669549929,-3074.5753397714607,6.390802331720707,89115.59380701419,3652.862330082819,30.406949144398663,0.9806393355796372,278.0,275.0,69.0,297.0,366.0,3.0,794.0,946.0,3.0,1.0,2.0,0.3333333333333333,67.65358867938933,228.09162979207372,15.0,10.0,5.0,0.6666666666666666,355.24081813092914,1017.7939298638444,23.0,11.0,12.0,0.4782608695652174,810.3736551563877,15615.615087549686,15.0,3.0,12.0,0.2,523.8068414286481,8018.129956084497,73.0,36.0,37.0,0.4931506849315068,87.6823776814936,4027.776570623096,0.0,0.0,0.0,0.0,88509.0,88512.0,88787.0,88802.0,88813.0,88836.0,88843.0,88856.0,89080.0,89153.0,0.18551043654757396,-0.1390457627356066,0.05173294782587687,-0.17036721613319897,0.024003745490048523
88,88,89624.46811938805,404.6818943673156,12.534765096583504,89731.39728720114,-2247.476514570359,9.042506732159982,89757.98258356546,14964.029398518074,9.915570682384718,89780.30135639943,-2730.8748963160856,5.680492827452769,90051.10949479598,3614.499370785761,33.06733024760566,0.9881920687713596,105.0,90.0,69.0,302.0,371.0,15.0,1113.0,933.0,16.0,9.0,7.0,0.5625,51.6999237669214,346.9993302383209,17.0,12.0,5.0,0.7058823529411765,345.00539946407866,1459.801760767859,24.0,12.0,12.0,0.5,747.2368899190026,14768.245935995825,14.0,3.0,11.0,0.2142857142857142,477.30394456200906,7156.838966352412,87.0,44.0,43.0,0.5057471264367817,80.55161593119759,3612.243525277911,0.0,0.0,0.0,0.0,89615.0,89630.0,89720.0,89736.0,89746.0,89770.0,89778.0,89789.0,90013.0,90091.0,0.1277544770016204,-0.1535078997388464,0.04993554008875466,-0.17478059694564765,0.022285690954121362
89,89,91367.13176348132,356.37238701995653,0.8315713604421481,91487.54796540084,-2516.592421142132,9.681411593788953,91514.1295279926,15089.867881736354,9.99892954575819,91536.87669549928,-2802.429037692638,6.439884051159833,91806.63197184564,3661.263971251329,30.67823587463626,0.9821094139789344,111.0,108.0,70.0,298.0,368.0,3.0,1744.0,1756.0,3.0,1.0,2.0,0.3333333333333333,72.21341124584727,374.69548997429,16.0,12.0,4.0,0.75,395.4406382682008,2010.2685908678816,23.0,11.0,12.0,0.4782608695652174,744.819007931451,14921.678274782898,14.0,4.0,10.0,0.2857142857142857,475.21972947025273,7357.667310480087,74.0,36.0,38.0,0.4864864864864865,59.23520017808175,3982.4844497503914,0.0,0.0,0.0,0.0,91366.0,91369.0,91477.0,91491.0,91503.0,91526.0,91534.0,91547.0,91771.0,91845.0,0.20263469863562517,-0.1571333661128701,0.04935888198417722,-0.16957422403156439,0.016178893585167154
90,90,92272.2739827004,325.0889683187666,3.2160772682097307,92394.972626301,-2250.020222282028,13.748956824579505,92421.33549923776,15805.242730584629,9.74756221108052,92443.26363735684,-2881.992175027461,6.2209695973928385,92715.09627371337,3545.0374242371686,27.81146383407423,0.9779478403556896,114.0,107.0,71.0,297.0,368.0,7.0,904.0,907.0,8.0,4.0,4.0,0.5,75.8019305929017,405.5832241036241,17.0,13.0,4.0,0.7647058823529411,364.8285660238084,1634.955504475294,23.0,11.0,12.0,0.4782608695652174,790.2646152567515,15682.885116239013,14.0,3.0,11.0,0.2142857142857142,505.7222817977781,7818.777975508607,73.0,36.0,37.0,0.4931506849315068,81.48979643677131,3575.6608987888685,0.0,0.0,0.0,0.0,92268.0,92275.0,92382.0,92399.0,92410.0,92433.0,92440.0,92453.0,92681.0,92750.0,0.23317287875045323,-0.16214457204024146,0.05000015682944972,-0.17547663251131462,0.022987005970552348
91,91,93165.42466090011,373.066887175638,0.9796446031555204,93280.39728720114,-2576.2243814073786,9.580150125506863,93307.14190217582,15438.632544305914,9.79335098569802,93329.30135639945,-2633.447776864354,6.172995807622291,93598.62952468284,3584.715657310073,30.370685484729517,0.9787500130718596,105.0,101.0,70.0,299.0,369.0,4.0,894.0,885.0,4.0,1.0,3.0,0.25,78.4077161648812,334.62194501903844,16.0,11.0,5.0,0.6875,354.51648494175663,749.1371141871059,23.0,11.0,12.0,0.4782608695652174,785.6825246367191,15231.708825067231,15.0,3.0,12.0,0.2,487.358665976177,7582.003245327226,76.0,36.0,40.0,0.4736842105263157,66.08300868652552,3540.807047519938,0.0,0.0,0.0,0.0,93164.0,93168.0,93269.0,93285.0,93296.0,93319.0,93327.0,93339.0,93563.0,93638.0,0.21017066606602167,-0.1376108725234896,0.050890681048464684,-0.18506486829082858,0.01843465842312118
92,92,93826.30721912671,346.30973621472964,3.392204036748114,94141.54796540084,-2506.38784471667,8.370931905550533,94168.2064186568,14497.750212894429,10.101398236022876,94190.87669549928,-2849.338872338992,6.560892700502151,94460.80813839656,3395.820719244465,31.260872314561055,0.9817981886276972,309.0,299.0,71.0,292.0,363.0,10.0,661.0,862.0,10.0,3.0,7.0,0.3,52.47962858843713,188.71561397501384,15.0,11.0,4.0,0.7333333333333333,380.7057270940708,1644.2345992167554,24.0,12.0,12.0,0.5,706.2364524670247,14342.97320068082,15.0,3.0,12.0,0.2,463.17736688038946,7167.999015111803,79.0,39.0,40.0,0.4936708860759494,73.50900882141723,3344.2442824453274,0.0,0.0,0.0,0.0,93823.0,93833.0,94132.0,94145.0,94156.0,94180.0,94188.0,94203.0,94422.0,94495.0,0.1515395702184275,-0.1518941802628743,0.04871352051843821,-0.16255608322929033,0.021646905092731813
93,93,94684.04606798531,351.97638042179904,1.0819702442137893,95014.972626301,-2417.424080978544,13.485688072788037,95041.26098588396,15920.638948595712,9.95303777565835,95062.87669549928,-2342.0276048245023,12.739827004317638,95333.86874512158,3577.4024944924095,28.703812929403423,0.9765233729581908,321.0,317.0,73.0,290.0,363.0,4.0,858.0,875.0,4.0,2.0,2.0,0.5,59.27847064223676,312.8515847300272,16.0,12.0,4.0,0.75,367.69861474734495,1895.6837205012189,23.0,11.0,12.0,0.4782608695652174,754.2967605759992,14782.515328808982,23.0,3.0,20.0,0.1304347826086956,471.5763706851666,7293.727900235621,70.0,36.0,34.0,0.5142857142857142,79.24920101011197,3841.3185534007785,0.0,0.0,0.0,0.0,94682.0,94686.0,95003.0,95019.0,95030.0,95053.0,95060.0,95076.0,95301.0,95366.0,0.1684160470404265,-0.15210347974961222,0.047378548248689,-0.20135389083960167,0.022152721459807807
94,94,95816.90225993148,488.5905089405098,4.959511142571611,95928.12330450072,-2363.956835495622,10.433089957386567,95954.16864148398,15496.76064688966,9.878868308553589,95976.45203459916,-2854.650121693785,6.212257119866298,96250.80813839656,3681.262090572971,29.98752166581374,0.979400888783616,105.0,93.0,70.0,298.0,368.0,12.0,1132.0,913.0,12.0,5.0,7.0,0.4166666666666667,72.78882616198986,224.23933213546755,15.0,12.0,3.0,0.8,381.6982426825117,1844.4122624640163,23.0,11.0,12.0,0.4782608695652174,781.0679587359815,15396.637029870924,15.0,3.0,12.0,0.2,506.69221824376655,7732.288181426912,78.0,44.0,34.0,0.5641025641025641,75.19766814876971,3444.3777064766127,0.0,0.0,0.0,0.0,95812.0,95824.0,95917.0,95931.0,95943.0,95966.0,95973.0,95987.0,96211.0,96285.0,0.14897715946187678,-0.1614658258353883,0.050402014752208804,-0.17749713507556736,0.020427143272775113
95,95,96701.35479646444,516.2902572372453,2.7719140645717957,96801.54796540084,-2377.520950598615,9.241216126948922,96827.48167495352,15554.298535265536,9.7498544327415,96849.30135639945,-2772.9719913575764,5.838845927036099,97117.69775271374,3610.190667276121,32.27649990642667,0.9785816416484018,92.0,87.0,69.0,297.0,366.0,5.0,885.0,873.0,5.0,2.0,3.0,0.4,79.04280501080478,314.6018516239575,16.0,12.0,4.0,0.75,401.627126606197,2320.6154288914545,23.0,11.0,12.0,0.4782608695652174,789.7467068153211,15862.82016891148,14.0,3.0,11.0,0.2142857142857142,504.59974383850835,7606.460520892791,79.0,39.0,40.0,0.4936708860759494,62.36527659156112,4029.0601388750583,0.0,0.0,0.0,0.0,96699.0,96704.0,96791.0,96805.0,96816.0,96839.0,96847.0,96860.0,97079.0,97157.0,0.15309761108756134,-0.1689268506782558,0.05077353408286238,-0.18197073227251356,0.017274787494427696
96,96,97620.84932180028,607.2434255266288,5.095930801728112,97734.41404179092,-2374.006445751337,8.984105279598278,97761.42148018336,15254.167263400404,9.84585648976473,97783.30135639945,-2724.068285503371,5.459010443363824,98053.46008735902,3651.8911068175016,32.259745395408046,0.9843492040049902,106.0,99.0,69.0,298.0,367.0,7.0,919.0,932.0,12.0,3.0,9.0,0.25,78.24006595365104,595.8458256647806,15.0,10.0,5.0,0.6666666666666666,347.1189192216994,882.3110514030093,24.0,11.0,13.0,0.4583333333333333,763.2312982250794,15407.268121262188,12.0,2.0,10.0,0.1666666666666666,493.626132475317,7535.227100572915,76.0,36.0,40.0,0.4736842105263157,71.67524356889359,4062.327714691858,0.0,0.0,0.0,0.0,97618.0,97625.0,97724.0,97739.0,97750.0,97774.0,97781.0,97793.0,98017.0,98091.0,0.12884464889150135,-0.14621650242059114,0.050034281455423255,-0.18120916245097046,0.019626884119049243
97,97,99258.7863113937,342.68493658775515,3.4954959389362847,99551.972626301,-2493.31827839577,9.43464856580277,99579.46683594237,14792.81477653584,10.21047361626575,99601.34585041968,-3047.553786791547,7.328542643733741,99873.95881659626,3658.6419366320656,29.971441665461786,0.9808003484604504,286.0,280.0,71.0,298.0,369.0,6.0,1638.0,1818.0,7.0,3.0,4.0,0.4285714285714285,65.01523203253208,221.57580462071485,15.0,10.0,5.0,0.6666666666666666,351.664158297035,965.2305741855862,24.0,11.0,13.0,0.4583333333333333,731.555231011722,14741.91708939417,18.0,3.0,15.0,0.1666666666666666,483.5179297366341,7657.378381274115,81.0,43.0,38.0,0.5308641975308642,60.51440230685512,3418.756470404939,0.0,0.0,0.0,0.0,99256.0,99262.0,99542.0,99557.0,99568.0,99592.0,99599.0,99613.0,99839.0,99911.0,0.18972305196695716,-0.14104262634423864,0.04945341654463928,-0.15865771814504379,0.01654012700749863
98,98,100290.39951375387,236.92002175354855,0.767413067138542,100428.54796540084,-2453.8288287438436,15.287792405002593,100454.02730410708,15695.733607516431,9.876451978428117,100476.45203459916,-2951.2261273175272,6.66574264532486,100746.80011683768,3517.5941928625575,28.964730051613213,0.9699956411974912,128.0,125.0,70.0,298.0,368.0,3.0,1032.0,875.0,3.0,1.0,2.0,0.3333333333333333,100.32945241821344,504.1231231814859,16.0,13.0,3.0,0.8125,420.1705643878264,2311.371115184874,23.0,11.0,12.0,0.4782608695652174,772.9052308695099,15049.154466572189,18.0,4.0,14.0,0.2222222222222222,496.8307810418682,7647.911138625263,77.0,38.0,39.0,0.4935064935064935,71.987837471253,3683.0760129498785,0.0,0.0,0.0,0.0,100289.0,100292.0,100417.0,100432.0,100443.0,100466.0,100473.0,100487.0,100713.0,100785.0,0.42347392877829126,-0.171230592560492,0.04924301406972008,-0.16834724267416779,0.02046507741493357
99,99,101235.84932180028,399.4458313191811,5.095930801445256,101356.54796540084,-2292.099314239106,7.889877253708586,101385.1861818724,15714.066279890076,9.535931840862364,101406.87669549928,-2605.4388822313263,5.692888377460619,101677.49424934166,3846.315403621305,32.48645032868188,0.9817005780715636,115.0,109.0,70.0,298.0,368.0,6.0,945.0,930.0,8.0,3.0,5.0,0.375,81.10558799491675,535.8765685551195,14.0,9.0,5.0,0.6428571428571429,322.38095099343525,618.5535714748889,23.0,11.0,12.0,0.4782608695652174,796.1047987513368,15412.897563894858,15.0,3.0,12.0,0.2,484.68320647867023,7438.290375307536,79.0,39.0,40.0,0.4936708860759494,65.4783838481642,3840.933352991439,0.0,0.0,0.0,0.0,101233.0,101239.0,101348.0,101362.0,101374.0,101397.0,101404.0,101418.0,101640.0,101716.0,0.2030452733154412,-0.14064877075383359,0.050661921909426096,-0.18602747114282037,0.01702366472248124
100,100,102153.15067819972,447.5676243525105,5.095930801728113,102274.54796540084,-2336.033548734723,8.123822341977478,102303.10926061512,15416.338289750338,9.732587990025864,102324.54390442008,-2566.1108416950187,5.511580456091516,102595.0956840352,3872.815861065341,32.399224127377394,0.9853148863859484,114.0,109.0,68.0,301.0,369.0,5.0,919.0,919.0,11.0,7.0,4.0,0.6363636363636364,80.05731581170394,582.1058879384373,15.0,10.0,5.0,0.6666666666666666,332.22192537657685,841.9706054941109,24.0,12.0,12.0,0.5,768.9562579437281,14949.476784081004,15.0,3.0,12.0,0.2,470.833495567071,7244.007459073915,78.0,38.0,40.0,0.4871794871794871,61.61738546088318,4063.893602564203,0.0,0.0,0.0,0.0,102152.0,102157.0,102266.0,102280.0,102291.0,102315.0,102322.0,102334.0,102559.0,102635.0,0.17887199934875023,-0.14221624751772927,0.049879306193934145,-0.18348135548816225,0.015910228544646934
101,101,103012.15067819972,322.84793147318953,5.095930801728113,103128.65932404324,-2236.678693417268,7.807915601375228,103156.1774695369,14718.325454562637,9.78690123215843,103179.45203459916,-2358.8988269853976,5.969749402161512,103448.10949479598,3359.4805509800467,33.985756234426496,0.9838184219256496,109.0,105.0,70.0,298.0,368.0,4.0,859.0,852.0,4.0,1.0,3.0,0.25,70.65376933200677,451.2170755721084,13.0,9.0,4.0,0.6923076923076923,345.7612554952346,1299.0418744065505,24.0,12.0,12.0,0.5,709.7083710325637,14544.278250779458,15.0,3.0,12.0,0.2,447.0833094024866,6805.464854180848,79.0,38.0,41.0,0.4810126582278481,69.00118577595255,3360.036890969296,0.0,0.0,0.0,0.0,103011.0,103015.0,103120.0,103132.0,103144.0,103168.0,103176.0,103190.0,103414.0,103488.0,0.21884535239115857,-0.1545869134055056,0.04821936933134987,-0.18953051495381246,0.020539242519449365
102,102,103850.96167588928,264.943282340482,1.1392411085771863,103971.54796540084,-2544.6133602548016,11.726095209574188,103996.93186653628,14957.857708708663,10.188380488774488,104019.87669549928,-2852.1443422510047,7.524892666091131,104290.06507581173,3453.504225242324,30.478556767593044,0.9771834108546203,110.0,107.0,71.0,297.0,368.0,3.0,838.0,842.0,3.0,1.0,2.0,0.3333333333333333,61.10287687941911,504.3217367874398,18.0,15.0,3.0,0.8333333333333334,411.5851685715224,2654.5377014197293,23.0,11.0,12.0,0.4782608695652174,738.56824371613,14714.421819886693,18.0,4.0,14.0,0.2222222222222222,466.9828105123655,7297.083145816032,73.0,35.0,38.0,0.4794520547945205,66.82669217826903,3655.445021157698,0.0,0.0,0.0,0.0,103850.0,103853.0,103960.0,103975.0,103986.0,104009.0,104017.0,104031.0,104256.0,104328.0,0.23062625456906286,-0.1617476253957532,0.04937660580138597,-0.1637304268211782,0.019350401163496466
103,103,104789.15067819972,293.0887091747983,3.3404625339306135,104890.972626301,-2403.93451302169,10.424986970058043,104918.58363869836,15408.127274668605,10.037944611280093,104940.09013107428,-2889.7350588655468,6.366200601284971,105211.92392634542,3860.063207103806,31.118006284427203,0.9816792204837392,93.0,89.0,69.0,298.0,367.0,4.0,939.0,922.0,16.0,13.0,3.0,0.8125,69.58372733972325,208.87892082853892,17.0,12.0,5.0,0.7058823529411765,352.75600102375705,1283.1388728853235,24.0,12.0,12.0,0.5,773.5704617815443,14369.869065368988,15.0,3.0,12.0,0.2,496.5713542657793,7775.844871361632,78.0,38.0,40.0,0.4871794871794871,66.89766172561102,3974.1197705308327,0.0,0.0,0.0,0.0,104788.0,104792.0,104881.0,104895.0,104907.0,104931.0,104938.0,104950.0,105176.0,105248.0,0.23741524378621995,-0.14674110260198017,0.05020535253841756,-0.17183975144791422,0.017330716658343046
104,104,105669.42466090011,342.5548327089467,2.5479654008618184,105796.76504986134,-2664.058034530518,8.354326893067766,105823.61406206408,15661.039321045364,9.659701057904114,105845.30135639945,-2792.8194825290157,5.811365201037369,106114.54012058704,3734.698039342661,31.62260488722977,0.9819124459199166,118.0,108.0,69.0,297.0,366.0,10.0,879.0,905.0,10.0,1.0,9.0,0.1,73.70316126220037,695.1870865447466,15.0,11.0,4.0,0.7333333333333333,398.2946007818694,1236.604609339288,23.0,12.0,11.0,0.5217391304347826,810.5071463835609,14742.786912599888,14.0,3.0,11.0,0.2142857142857142,519.4495393038372,7772.138233636899,84.0,40.0,44.0,0.4761904761904761,69.5702368676609,3850.578390671396,0.0,0.0,0.0,0.0,105668.0,105678.0,105786.0,105801.0,105812.0,105835.0,105843.0,105855.0,106079.0,106152.0,0.21515726600425047,-0.14950672831422013,0.05175308801468868,-0.18599467045877732,0.01862807545209354
105,105,106548.18776153067,388.91092772441806,1.073811624458712,106668.972626301,-2725.51460649039,10.169638943379509,106695.67773136486,15186.06925839311,10.031898037119124,106717.87669549928,-3062.351449745639,6.570745497215087,106986.77666009392,3447.59642378546,30.921156618085373,0.9752085143314309,112.0,109.0,69.0,297.0,366.0,3.0,879.0,872.0,3.0,1.0,2.0,0.3333333333333333,69.66761972771779,361.6473195930055,15.0,11.0,4.0,0.7333333333333333,392.4670905500854,1244.6570459626914,24.0,12.0,12.0,0.5,785.2841228139711,14436.024767065006,13.0,3.0,10.0,0.2307692307692307,494.74017205265056,7761.859349830342,84.0,46.0,38.0,0.5476190476190477,72.82455272884063,3773.806332523761,0.0,0.0,0.0,0.0,106547.0,106550.0,106659.0,106673.0,106684.0,106708.0,106715.0,106728.0,106942.0,107025.0,0.17913515605065283,-0.14399742698699391,0.051710821902116406,-0.16155564773394773,0.021123282361709638
106,106,107437.71759679564,529.2988580499291,2.986225528388081,107562.54796540084,-2556.6635817773545,7.757296607905825,107589.5856991689,14441.710089564023,9.85619876567778,107611.73515290883,-2573.1510022604084,5.876440976164288,107881.95118844682,3274.0956435463,33.3014442351216,0.9801440808575752,121.0,112.0,69.0,299.0,368.0,9.0,889.0,892.0,9.0,5.0,4.0,0.5555555555555556,78.32071010094181,557.016655117313,14.0,10.0,4.0,0.7142857142857143,375.2233009781603,1266.2972617782896,24.0,12.0,12.0,0.5,733.181835172555,13637.408917844938,14.0,3.0,11.0,0.2142857142857142,450.3419569159027,6819.378743047414,84.0,43.0,41.0,0.5119047619047619,71.45962480980347,3420.364548355106,0.0,0.0,0.0,0.0,107433.0,107442.0,107554.0,107567.0,107578.0,107602.0,107609.0,107623.0,107841.0,107922.0,0.1479706765087216,-0.1467628762941547,0.050768352959970606,-0.17501575170687442,0.021825759718003466
107,107,108394.30135639945,358.72539711318416,9.640351961323576,108513.39728720114,-2388.0793700849667,8.282437234860339,108540.20467997802,15250.721000188783,9.72128556884292,108561.7260172996,-2628.387369364387,4.845091405730689,108833.48274874323,3903.340029446549,31.478536332455796,0.9834452463790356,110.0,102.0,68.0,298.0,366.0,8.0,959.0,952.0,9.0,2.0,7.0,0.2222222222222222,76.11237417260172,411.8167796618195,16.0,11.0,5.0,0.6875,346.0017219883849,1222.0365511908926,23.0,11.0,12.0,0.4782608695652174,753.5556223346871,15191.950387236737,13.0,3.0,10.0,0.2307692307692307,499.5692440923455,6989.680962254499,75.0,37.0,38.0,0.4933333333333333,84.16365448145633,4147.574429141323,0.0,0.0,0.0,0.0,108392.0,108400.0,108502.0,108518.0,108529.0,108552.0,108560.0,108570.0,108797.0,108868.0,0.21217447882171256,-0.14488702776075416,0.0494111473369265,-0.19006682573320785,0.02156195818107853
108,108,109277.19650643368,520.5027873142819,2.7375985637622393,109409.97262625243,-2850.6746531989806,9.396332799159008,109436.87311183014,15547.933909316478,9.96000679621494,109458.87669549928,-3093.1895091423744,5.732065000177536,109728.01467776412,3706.649562398059,30.51203329231136,0.978883975475561,125.0,119.0,70.0,296.0,366.0,6.0,882.0,898.0,6.0,3.0,3.0,0.5,94.5816963527096,737.1177069281304,17.0,12.0,5.0,0.7058823529411765,396.9242549745875,1231.488810433371,24.0,12.0,12.0,0.5,787.3148079375795,15188.187591404952,13.0,3.0,10.0,0.2307692307692307,530.8983085639186,7893.308653070691,79.0,41.0,38.0,0.5189873417721519,74.51147155580483,3973.1258197480247,0.0,0.0,0.0,0.0,109274.0,109280.0,109399.0,109414.0,109425.0,109449.0,109456.0,109469.0,109690.0,109765.0,0.1817121803338216,-0.13923870776665642,0.05063790549468522,-0.17163458850315214,0.020102108467895948
109,109,110163.08034164934,488.6596432776175,2.5479654008640567,110283.972626301,-2557.6590068565965,10.77484390337245,110312.28316852216,15697.8065041947,9.871145829416609,110334.01332439484,-2769.466390309191,6.57758480953866,110604.03922213102,3691.161293286305,28.942939655796,0.978012008031506,112.0,108.0,72.0,294.0,366.0,4.0,885.0,874.0,4.0,1.0,3.0,0.25,94.2313497251137,588.3140523801294,18.0,12.0,6.0,0.6666666666666666,326.0779665341617,635.3467948993781,23.0,11.0,12.0,0.4782608695652174,798.049447372119,15588.475236610877,16.0,3.0,13.0,0.1875,497.379962744443,7693.854095391329,71.0,35.0,36.0,0.4929577464788732,69.32321802004563,3983.917523441996,0.0,0.0,0.0,0.0,110162.0,110166.0,110274.0,110289.0,110301.0,110324.0,110332.0,110346.0,110569.0,110640.0,0.1928363658047754,-0.1274907896869789,0.05083827776567813,-0.17959415015284375,0.018780869355705117
110,110,111075.15067820024,340.4544475194501,5.09593080142419,111187.972626301,-2519.380158250825,9.862807016379112,111214.6071121953,15691.835346020129,9.931357278073426,111236.87669549928,-2890.907855948297,5.804320780238628,111506.02764924288,3662.408310426141,32.13641457290383,0.983097549957044,103.0,97.0,70.0,298.0,368.0,6.0,913.0,904.0,14.0,9.0,5.0,0.6428571428571429,76.74405319579611,395.3501921645136,16.0,12.0,4.0,0.75,381.0766210212486,1596.3857497251363,24.0,12.0,12.0,0.5,790.7754993813646,15187.92126629272,14.0,3.0,11.0,0.2142857142857142,508.14337963663473,7740.721385350977,81.0,41.0,40.0,0.5061728395061729,64.92947491315223,3699.9390756679854,0.0,0.0,0.0,0.0,111074.0,111080.0,111177.0,111192.0,111203.0,111227.0,111234.0,111247.0,111470.0,111545.0,0.22541650947712097,-0.15125808614997804,0.05039407321986249,-0.17577294225794332,0.017728628107442596
111,111,112540.42466090011,368.2924093459384,2.2807099644444424,112878.38075350008,-2445.2045513596127,8.30149617159664,112906.57666947044,14754.818988778934,9.972947331419666,112929.45203459916,-2841.0981970731195,6.9930535276441965,113198.2225271524,3542.4210911666664,31.8252334396116,0.9814474792040464,330.0,325.0,71.0,297.0,368.0,5.0,1464.0,1690.0,5.0,1.0,4.0,0.2,77.63045597439722,593.7879589116412,14.0,9.0,5.0,0.6428571428571429,318.88284540734446,428.29212201836856,23.0,12.0,11.0,0.5217391304347826,730.129868668745,13589.936758907766,14.0,3.0,11.0,0.2142857142857142,481.27151640631007,7508.526438084378,84.0,40.0,44.0,0.4761904761904761,66.5640462533314,3620.053542647201,0.0,0.0,0.0,0.0,112539.0,112544.0,112869.0,112883.0,112895.0,112918.0,112926.0,112940.0,113164.0,113237.0,0.2107848383632546,-0.13041152128971595,0.04948416305371215,-0.16939629784782265,0.018790551586121314
112,112,113600.2739827004,539.1901535750294,7.64389620259217,113721.3185229208,-2345.3314261224587,7.116336081042745,113749.29871035788,15481.652450163478,9.63742327121886,113771.87669549932,-2437.433993301579,5.951761824008066,114039.94826958555,3679.3408741097983,32.886007411377214,0.9844594851856836,120.0,111.0,70.0,299.0,369.0,9.0,1059.0,842.0,24.0,8.0,16.0,0.3333333333333333,66.32951780351304,520.8353221762854,13.0,8.0,5.0,0.6153846153846154,329.3572270113475,435.92722595979853,23.0,11.0,12.0,0.4782608695652174,756.768246327551,15239.367790381615,15.0,4.0,11.0,0.2666666666666666,463.4604875146518,7060.904029930165,89.0,47.0,42.0,0.5280898876404494,69.10087018822882,3881.5441027386023,0.0,0.0,0.0,0.0,113593.0,113602.0,113713.0,113726.0,113738.0,113761.0,113769.0,113783.0,114003.0,114082.0,0.12301693078726289,-0.14043099552709037,0.04888161963095612,-0.19014278490753317,0.01878077420726817
113,113,114517.15067819972,593.0030908290247,5.095930801728113,114626.54796540084,-2301.7792969111088,8.78435649951515,114654.9381658538,15584.068299197654,9.68625512083085,114676.87669549928,-2597.370861047684,5.366328255196451,114946.46084802382,3842.507737047272,31.248514192398385,0.9841515418057964,102.0,97.0,68.0,298.0,366.0,5.0,919.0,906.0,21.0,14.0,7.0,0.6666666666666666,74.77739366059761,478.0766502194468,14.0,9.0,5.0,0.6428571428571429,338.7690341827122,861.7073215155848,24.0,12.0,12.0,0.5,779.6582109813813,15024.414124069615,14.0,3.0,11.0,0.2142857142857142,487.5594907502983,7190.1968034110405,76.0,37.0,39.0,0.4868421052631579,75.0053193823813,4057.390987320896,0.0,0.0,0.0,0.0,114516.0,114521.0,114618.0,114632.0,114643.0,114667.0,114674.0,114686.0,114915.0,114984.0,0.12609950068904027,-0.1471770271968846,0.05002918339503954,-0.18771269750582895,0.019519887665865373
114,114,115397.58985151064,526.3210913539255,5.095930801728113,115517.972626301,-2599.637881500887,9.322871764518352,115544.853046117,15618.805318474902,9.854436626240869,115566.87669549928,-2694.141721387795,5.589744588059917,115835.9409110864,3725.6889970168017,32.52159828954325,0.9826443788979548,113.0,106.0,68.0,298.0,366.0,7.0,879.0,891.0,25.0,11.0,14.0,0.44,54.99411434743891,462.85150910467434,16.0,12.0,4.0,0.75,380.5063243025234,1328.9814568992729,24.0,12.0,12.0,0.5,790.6727115435034,15160.790529896218,12.0,3.0,9.0,0.25,493.60996209182326,7512.977441397699,74.0,36.0,38.0,0.4864864864864865,78.42540563357394,4295.301685764878,0.0,0.0,0.0,0.0,115395.0,115402.0,115508.0,115522.0,115533.0,115557.0,115564.0,115576.0,115801.0,115874.0,0.10448776469506527,-0.14636897200576263,0.05062312356299403,-0.1832160343211481,0.02104990666058546
115,115,116260.46642064767,496.925407192661,13.014334447796108,116372.972626301,-2079.4028058291005,8.804733697616172,116399.74267266634,15510.078875185984,9.631289311026446,116423.45203459916,-2150.716725625537,6.354532752815716,116690.24126138688,3652.477344569955,33.68889112960624,0.9863139932550926,120.0,90.0,71.0,296.0,367.0,30.0,866.0,855.0,36.0,18.0,18.0,0.5,66.13801843455248,410.1463126030368,14.0,10.0,4.0,0.7142857142857143,340.9297934035345,1704.9491944649135,24.0,12.0,12.0,0.5,771.0860491741872,15146.156648299238,15.0,3.0,12.0,0.2,452.6561362456269,6700.323432293443,77.0,36.0,41.0,0.4675324675324675,72.6234900511928,3732.6774423072297,0.0,0.0,0.0,0.0,116243.0,116273.0,116363.0,116377.0,116388.0,116412.0,116420.0,116434.0,116657.0,116730.0,0.133094459404267,-0.16395562824471557,0.04971515976026531,-0.21046757615834863,0.019883351270928565
116,116,117086.30135639945,479.84129929471413,5.976007948155472,117201.12330450072,-2287.8596124972337,7.783583589013336,117229.48210769784,14754.472745598196,9.67569388556836,117252.54832954404,-2306.5631360938896,7.603496866729876,117519.91418327187,3405.4000365565885,32.85126005421909,0.9829016474042503,114.0,102.0,72.0,295.0,367.0,12.0,825.0,829.0,18.0,8.0,10.0,0.4444444444444444,89.46484506083986,404.4036910652545,15.0,9.0,6.0,0.6,306.8064611483827,575.1122542491636,23.0,11.0,12.0,0.4782608695652174,731.1023398981432,14780.195662368453,16.0,3.0,13.0,0.1875,424.6895434198645,6724.434084333104,85.0,42.0,43.0,0.4941176470588235,74.0379332738411,3426.0689615472143,0.0,0.0,0.0,0.0,117080.0,117092.0,117194.0,117207.0,117218.0,117241.0,117250.0,117266.0,117484.0,117561.0,0.18644673810348986,-0.1341019612709098,0.04955123456487173,-0.18412222790444238,0.021741332142788564
117,117,117821.41533264812,430.4484931641786,2.7372759676519016,118088.12330450072,-2354.7980678483536,7.6182321342278785,118116.88125461756,15548.492383426736,9.42070510466074,118138.92528044277,-2667.9533566535806,5.48218620056865,118409.95881659626,3852.111819567387,32.14312393678208,0.9792683974885356,263.0,256.0,68.0,298.0,366.0,7.0,734.0,887.0,7.0,3.0,4.0,0.4285714285714285,83.60370465415527,270.78829649572424,14.0,8.0,6.0,0.5714285714285714,299.9690687281601,38.904575948231695,24.0,12.0,12.0,0.5,785.3563873490956,14819.710519045935,14.0,4.0,10.0,0.2857142857142857,488.40181061213264,7344.814230787257,83.0,45.0,38.0,0.5421686746987951,76.02917925081134,4024.708834335924,0.0,0.0,0.0,0.0,117818.0,117825.0,118081.0,118094.0,118105.0,118129.0,118135.0,118149.0,118371.0,118447.0,0.1942246423947121,-0.12738632361892943,0.05051013101348741,-0.18306234979487648,0.019737012530272244
118,118,118861.84932180028,322.1761880961687,5.0959307627972175,118984.54796540076,-2453.2707897378787,9.18470783644958,119011.54047394378,15405.511415674937,9.814880606258653,119032.87669549928,-3013.3722316890567,5.244711646168055,119302.7784225552,3725.532500009528,31.114966064467477,0.9782242407429064,115.0,104.0,67.0,301.0,368.0,11.0,1039.0,897.0,24.0,3.0,21.0,0.125,68.83440207406944,332.5046682246033,15.0,11.0,4.0,0.7333333333333333,389.7123084627089,1677.823938604618,24.0,12.0,12.0,0.5,799.8076301694921,14664.387011782264,13.0,3.0,10.0,0.2307692307692307,506.7110780090927,7511.545597013072,79.0,38.0,41.0,0.4810126582278481,78.11195080416307,3863.250970541008,0.0,0.0,0.0,0.0,118859.0,118870.0,118974.0,118988.0,119000.0,119024.0,119030.0,119041.0,119270.0,119342.0,0.21365453009060548,-0.1588541754513565,0.05191698013710189,-0.1681541605382986,0.0209666539760325
119,119,119731.38639812598,309.31809772416386,5.095930801728113,119840.54796540084,-2395.7889460116226,8.583759050845371,119868.69049785234,15825.666616677076,9.528861795346089,119890.45203459916,-2863.77939566463,5.512846750507005,120159.95881659626,3826.582747583373,30.864933932805208,0.9825224248013342,102.0,98.0,68.0,297.0,365.0,4.0,871.0,856.0,10.0,1.0,9.0,0.1,66.61218182734174,297.0552170633756,14.0,9.0,5.0,0.6428571428571429,344.22311447854895,819.1837320758916,24.0,12.0,12.0,0.5,822.3021699750594,14807.118055582983,13.0,3.0,10.0,0.2307692307692307,517.8301702154353,7786.779216977225,77.0,37.0,40.0,0.4805194805194805,71.20061741681121,3755.5309214200047,0.0,0.0,0.0,0.0,119730.0,119734.0,119832.0,119846.0,119857.0,119881.0,119887.0,119900.0,120124.0,120197.0,0.21535171177324233,-0.14367839665158846,0.051960033652454045,-0.1808205516805377,0.018606841172264472
120,120,120590.15067819972,383.1783880982254,5.095930801728113,120703.972626301,-2446.028105336248,8.719987665215143,120730.91290190222,15120.001675295476,9.97367677718416,120753.30135639945,-2334.1879601446108,8.795087353934724,121022.33653312371,3493.2894501924457,31.97474026643086,0.9807525383927328,105.0,101.0,73.0,293.0,366.0,4.0,859.0,862.0,11.0,1.0,10.0,0.0909090909090909,78.89829690616722,333.6423523804052,14.0,10.0,4.0,0.7142857142857143,368.84275677409255,1545.9890480321192,24.0,12.0,12.0,0.5,765.283283073382,14844.261229564285,19.0,2.0,17.0,0.1052631578947368,453.3710264109149,7258.649799823615,78.0,39.0,39.0,0.5,79.9807718921756,3649.671597073473,0.0,0.0,0.0,0.0,120589.0,120593.0,120694.0,120708.0,120719.0,120743.0,120751.0,120767.0,120984.0,121060.0,0.20590487187378148,-0.1507925260422913,0.050613968140213635,-0.19423072783857007,0.022895546742560783
121,121,121229.15067819972,490.2791056448213,3.7826888244197865,121547.7028672404,-2221.290409294136,8.882484873855246,121575.67952459704,15099.314970536734,9.593430136287408,121597.87669549928,-2474.4492296840317,5.7062558011433415,121865.90847096183,3467.2735063927626,32.742060389927424,0.980167972413806,315.0,305.0,72.0,295.0,367.0,10.0,639.0,845.0,11.0,8.0,3.0,0.7272727272727273,82.13036761008003,389.8335118936394,16.0,11.0,5.0,0.6875,319.3337154417488,980.1124281881634,23.0,12.0,11.0,0.5217391304347826,769.2980096953706,14459.45324682733,14.0,3.0,11.0,0.2142857142857142,475.85235264118626,6902.823774588128,87.0,47.0,40.0,0.5402298850574713,84.72203193414235,3681.880385026742,0.0,0.0,0.0,0.0,121222.0,121232.0,121537.0,121553.0,121564.0,121587.0,121595.0,121609.0,121832.0,121904.0,0.16751757654869082,-0.14376045298067266,0.050949199430338425,-0.19230637142712723,0.024434770368687866
122,122,122309.84932180028,261.96830397932683,5.095930801482675,122429.54796540084,-2476.8266804141144,8.440963746439264,122458.00410343906,15576.012384606289,9.516686625740766,122479.50551767251,-2592.3845338014776,5.798430103881716,122748.78761283155,3765.087398482647,30.50630635824833,0.9822485548033584,114.0,110.0,67.0,298.0,365.0,4.0,1079.0,882.0,5.0,3.0,2.0,0.6,71.6578554700992,325.47151221564417,14.0,9.0,5.0,0.6428571428571429,337.9817864004663,492.89376362433234,23.0,11.0,12.0,0.4782608695652174,799.2815963585192,14974.704366346474,12.0,3.0,9.0,0.25,480.30215814856535,7437.355212421957,74.0,37.0,37.0,0.5,65.23687712258543,3964.1142211237952,0.0,0.0,0.0,0.0,122307.0,122311.0,122421.0,122435.0,122447.0,122470.0,122477.0,122488.0,122712.0,122786.0,0.2735363568096164,-0.13645758464777086,0.05131490503618539,-0.18527427234888236,0.017326789584984476
123,123,123180.38047824084,492.5213486738526,7.036821510312439,123296.54796540084,-2300.134040949682,8.843170054117596,123324.53183663829,16030.549833316296,9.56407479021018,123347.87669549928,-2296.7415484328344,5.989847358291637,123615.80619230744,3839.0013438255346,32.58120849211096,0.9835593778828572,116.0,103.0,67.0,301.0,368.0,13.0,872.0,867.0,14.0,8.0,6.0,0.5714285714285714,81.71135813058852,555.0557446847829,14.0,9.0,5.0,0.6428571428571429,343.74010387260097,1052.868483887611,24.0,12.0,12.0,0.5,809.621874034951,15054.495531859584,16.0,4.0,12.0,0.25,462.1551705681864,6903.529738561492,80.0,38.0,42.0,0.475,70.8729701504563,3995.205366827729,0.0,0.0,0.0,0.0,123172.0,123185.0,123288.0,123302.0,123313.0,123337.0,123344.0,123355.0,123580.0,123656.0,0.1659041955249289,-0.14944350970549403,0.05050493479346003,-0.2012221056755536,0.01846130381393197
124,124,124093.49384259195,435.8523503270909,2.2405244019790715,124227.972626301,-2573.0417333766964,8.603860206664006,124255.6345133895,15505.941391808958,9.931033086998893,124277.4781752577,-2863.221133778839,6.931262380076237,124546.1150880004,3613.478642765973,32.09621735794999,0.9801605014581248,127.0,122.0,72.0,294.0,366.0,5.0,913.0,931.0,5.0,2.0,3.0,0.4,76.09957026194971,621.9110851021619,16.0,11.0,5.0,0.6875,359.3759425312913,981.6474357910798,24.0,12.0,12.0,0.5,787.1091859594301,14516.6991505844,17.0,3.0,14.0,0.1764705882352941,514.2353826497128,7767.962729614113,73.0,35.0,38.0,0.4794520547945205,63.625529014621925,3840.736442567183,0.0,0.0,0.0,0.0,124091.0,124096.0,124218.0,124233.0,124244.0,124268.0,124275.0,124290.0,124511.0,124584.0,0.17459942616998583,-0.13966969049494163,0.0507617800216388,-0.17960030281385644,0.017607833144938457
125,125,125905.84932180028,362.2739024177852,1.7726379332049484,126030.54796540084,-2516.7876780961587,11.447697175470116,126055.68121192904,14874.672676331758,10.028666403221296,126079.027373699,-2821.2778518778414,7.155455539375169,126347.28573314498,3539.2967947662933,30.40876210307517,0.9743730249595896,115.0,97.0,73.0,295.0,368.0,18.0,1811.0,1800.0,18.0,3.0,15.0,0.1666666666666666,61.12852891079742,488.2173842198193,18.0,15.0,3.0,0.8333333333333334,411.3443295331309,2724.9257531544154,24.0,12.0,12.0,0.5,739.8553643649112,14261.00358296978,16.0,4.0,12.0,0.25,465.8130520847607,7258.605828108297,77.0,37.0,40.0,0.4805194805194805,66.788959143477,3367.7756996270864,0.0,0.0,0.0,0.0,125903.0,125921.0,126018.0,126034.0,126044.0,126068.0,126075.0,126091.0,126311.0,126386.0,0.16873566796512476,-0.16344021909877401,0.04973927026590322,-0.16510711689552865,0.01887068618891771
126,126,126783.15067819972,387.5110990285289,5.095930801728105,126892.54796540084,-2432.498775589574,8.575268993223887,126920.1675326842,15645.34267535324,9.568801065642209,126944.027373699,-2331.7705472262055,7.133417270718537,127211.95881659626,3763.998753792389,30.855315374886327,0.9813228461023008,102.0,97.0,71.0,294.0,365.0,5.0,879.0,864.0,20.0,16.0,4.0,0.8,63.82840021216373,269.39501232902046,14.0,10.0,4.0,0.7142857142857143,359.4743863595424,1009.0993935793545,23.0,11.0,12.0,0.4782608695652174,785.1991631012568,15307.7217504836,17.0,5.0,12.0,0.2941176470588235,444.3036335985701,6752.771625587586,77.0,39.0,38.0,0.5064935064935064,82.971195458685,3904.3571725556794,0.0,0.0,0.0,0.0,126782.0,126787.0,126884.0,126897.0,126909.0,126932.0,126940.0,126955.0,127176.0,127249.0,0.16471373432187714,-0.14777988378325707,0.05018740588777347,-0.19054346240332204,0.022043364221385035
127,127,127682.15067821516,428.25754859348274,5.095930801728113,127791.12330450072,-2146.277059753082,7.978638805047258,127820.04041634496,15717.576793556327,9.468780722645604,127841.87669549928,-2627.378021602645,5.266893298928713,128111.14938251738,3850.933112917522,31.836889401475933,0.9826621245279784,103.0,97.0,67.0,301.0,368.0,6.0,899.0,900.0,9.0,2.0,7.0,0.2222222222222222,53.35136268397632,410.6476481087389,14.0,8.0,6.0,0.5714285714285714,295.5643356689186,343.9271751717271,24.0,12.0,12.0,0.5,794.3549541793175,15058.097155036434,12.0,3.0,9.0,0.25,497.60334126128726,7299.958822591874,84.0,42.0,42.0,0.5,75.36271708917704,4006.670483590404,0.0,0.0,0.0,0.0,127681.0,127687.0,127784.0,127797.0,127808.0,127832.0,127839.0,127851.0,128070.0,128152.0,0.12457775200740087,-0.1377102431048309,0.050539276162784585,-0.1893916053076214,0.019569988592214517
128,128,128581.15067819972,422.4243389766869,5.095930801728113,128690.54796540084,-2488.357447270154,9.313777094233291,128717.62287734303,15779.12114295381,9.969322613528108,128739.0804481188,-2862.4323717031325,5.91915950530784,129010.80813839656,3763.923157752715,32.12532091821415,0.9811317398011752,102.0,97.0,67.0,296.0,363.0,5.0,899.0,898.0,21.0,17.0,4.0,0.8095238095238095,62.88416823639009,281.89614264228896,16.0,12.0,4.0,0.75,389.3369518680287,1690.3481169522795,24.0,12.0,12.0,0.5,798.967335254522,14895.29706238467,15.0,2.0,13.0,0.1333333333333333,506.76751909212874,7720.251301149952,82.0,46.0,36.0,0.5609756097560976,67.6723570179898,3756.319374143039,0.0,0.0,0.0,0.0,128580.0,128585.0,128682.0,128695.0,128706.0,128730.0,128737.0,128749.0,128971.0,129045.0,0.14886492664870002,-0.15646343426068057,0.05063446360644123,-0.17704087059028217,0.017979207911989946
129,129,130261.2739827004,449.7872211083691,6.396420147070188,130380.97262629136,-2559.414640746927,8.891131601539197,130408.38419010155,15100.590692303496,9.847513653624892,130430.30135639945,-2776.5095345060445,6.518417408826652,130698.84650042676,3624.723133295785,31.826070353731797,0.9814283919437232,116.0,108.0,69.0,298.0,367.0,8.0,1678.0,1691.0,8.0,6.0,2.0,0.75,72.37769581293061,622.6773787547309,16.0,11.0,5.0,0.6875,356.37554122910086,1099.000143809791,23.0,11.0,12.0,0.4782608695652174,768.7294222302512,15155.067202308395,17.0,3.0,14.0,0.1764705882352941,487.8905274189609,7562.015448180333,80.0,41.0,39.0,0.5125,69.50634333121384,4006.420281218411,0.0,0.0,0.0,0.0,130255.0,130263.0,130371.0,130386.0,130397.0,130420.0,130428.0,130440.0,130658.0,130738.0,0.1609154115907894,-0.13924103408469132,0.05090724183538456,-0.17572081829921005,0.019175628254954495
130,130,131172.9012241036,201.73188131334408,1.276189812274809,131286.39728720114,-2750.1780158285947,11.32027076381548,131313.09566312042,15777.209383980871,9.89006247239586,131335.30135639946,-2909.793964951907,5.559655983580152,131604.2509616771,3684.506024629859,29.7569302751321,0.9772158770842626,104.0,99.0,69.0,298.0,367.0,5.0,913.0,905.0,5.0,2.0,3.0,0.4,73.86364032783102,300.8263692223726,17.0,12.0,5.0,0.7058823529411765,359.53456249490824,958.4649187314172,23.0,11.0,12.0,0.4782608695652174,796.9525614451268,15887.987725136702,13.0,3.0,10.0,0.2307692307692307,517.8605286559347,7843.153542716894,75.0,36.0,39.0,0.48,65.4490999412359,3818.872653713125,0.0,0.0,0.0,0.0,131171.0,131176.0,131275.0,131291.0,131302.0,131325.0,131333.0,131344.0,131570.0,131642.0,0.36614758087295507,-0.13073137826919357,0.05051289756313302,-0.17797154537176788,0.01776333096044017
131,131,132058.4246609001,438.61757112706937,2.5479654006784727,132178.97262630097,-2639.521519762692,9.237401137241587,132206.27523763123,15661.272576584352,9.731044544349436,132228.30135639946,-2770.457401660334,5.9025212017989865,132496.53539216047,3684.344521619316,30.715733543630513,0.9798079614679174,112.0,108.0,69.0,296.0,365.0,4.0,885.0,893.0,4.0,1.0,3.0,0.25,73.2749731116665,595.7986255456894,17.0,12.0,5.0,0.7058823529411765,374.2707594401075,1134.7103426394324,23.0,11.0,12.0,0.4782608695652174,802.0671661479859,15681.28793436306,13.0,3.0,10.0,0.2307692307692307,502.8495166836057,7725.8363681550945,73.0,36.0,37.0,0.4931506849315068,63.1830550017584,4182.6240772389465,0.0,0.0,0.0,0.0,132057.0,132061.0,132169.0,132183.0,132195.0,132218.0,132226.0,132238.0,132462.0,132534.0,0.1670589094809392,-0.14179492632958587,0.051213409525045946,-0.18150415031909467,0.01714906264357402
132,132,132913.17805189872,666.7391029265549,11.775301854180451,133026.66281762838,-2211.5655274239707,7.299064955116103,133055.22714762366,14975.773251002072,9.735550267995842,133077.87669549932,-2496.772133411702,6.458519605048392,133345.16740198544,3599.8877590572697,34.04113083140112,0.9867447053831196,122.0,92.0,71.0,295.0,366.0,30.0,859.0,847.0,33.0,17.0,16.0,0.5151515151515151,54.27303769245267,479.1614035180718,14.0,9.0,5.0,0.6428571428571429,313.4154735849667,737.5668850710969,24.0,12.0,12.0,0.5,732.9493717821741,14628.483834323142,16.0,4.0,12.0,0.25,458.46141977484245,7005.2321391616315,81.0,41.0,40.0,0.5061728395061729,74.38170421080117,3802.8648824113006,0.0,0.0,0.0,0.0,132896.0,132926.0,133018.0,133032.0,133043.0,133067.0,133075.0,133089.0,133307.0,133384.0,0.08140071199398538,-0.1417165667028789,0.04894233903635863,-0.18362165038600464,0.02066222871078627
133,133,133730.84932180023,344.6647423019813,5.095930801503884,133855.7545848099,-2298.1122913606187,7.914954622244598,133882.85806878988,14556.61421910526,10.147740863014436,133905.87669549932,-2554.764359236809,6.820943130476027,134173.2330252576,3350.3180740069606,32.75958867977213,0.985679349507667,117.0,112.0,71.0,297.0,368.0,5.0,813.0,829.0,5.0,3.0,2.0,0.6,79.86458168014697,572.8013601320706,15.0,11.0,4.0,0.7333333333333333,361.8536801312032,1784.3708440307742,24.0,12.0,12.0,0.5,706.5023683132729,14015.764761608018,13.0,3.0,10.0,0.2307692307692307,447.5908687582574,7029.631016372148,89.0,44.0,45.0,0.4943820224719101,68.91938164675759,3359.8293944949437,0.0,0.0,0.0,0.0,133728.0,133733.0,133845.0,133860.0,133871.0,133895.0,133903.0,133916.0,134135.0,134213.0,0.23171671447082004,-0.15745691865951614,0.04853480058474057,-0.17519849419379221,0.0205709965813277
134,134,134622.15067819977,237.68193354718497,5.095930801642295,134729.39728720114,-2625.7541826822508,9.805183032827744,134756.3110955666,15138.655411374304,10.052497128791712,134777.87669549932,-2820.8640715680153,8.632894702389105,135046.93752422926,3416.3105688861133,30.10136614023992,0.9755482892083392,98.0,93.0,72.0,294.0,366.0,5.0,893.0,873.0,7.0,3.0,4.0,0.4285714285714285,72.32229542309045,102.4469773740716,17.0,12.0,5.0,0.7058823529411765,357.37982534593556,1126.9003610585808,23.0,11.0,12.0,0.4782608695652174,762.0871859256396,14869.892522872116,19.0,3.0,16.0,0.1578947368421052,481.07573485306017,7819.698595213916,72.0,34.0,38.0,0.4722222222222222,77.72434133531118,3678.6971243726935,0.0,0.0,0.0,0.0,134620.0,134625.0,134718.0,134734.0,134745.0,134768.0,134775.0,134790.0,135013.0,135084.0,0.3042818372593427,-0.13610559118708754,0.05034048039385662,-0.1705419767304306,0.02275095889793567
135,135,135475.84932180023,533.0754103666513,5.095930801728113,135595.12330450068,-2420.068153086843,8.548884129492576,135624.4131004436,15747.422988094027,9.38513045849798,135646.87669549932,-2372.883339358274,5.566068434597316,135917.80813839656,3835.7514948046833,31.634053168110658,0.9813176328152172,115.0,110.0,70.0,294.0,364.0,5.0,852.0,868.0,25.0,9.0,16.0,0.36,74.1129560119471,464.83272671524577,16.0,9.0,7.0,0.5625,283.0092682201566,76.89304227228752,23.0,11.0,12.0,0.4782608695652174,785.0516874964135,15710.185453420936,14.0,3.0,11.0,0.2142857142857142,471.3436601542387,7035.825184341153,82.0,45.0,37.0,0.5487804878048781,70.42454647481371,3783.9738942940903,0.0,0.0,0.0,0.0,135473.0,135478.0,135588.0,135602.0,135613.0,135636.0,135644.0,135658.0,135873.0,135952.0,0.13902902773356574,-0.11694268521288251,0.049852708477441575,-0.1986375193150918,0.018360038852934014
136,136,136336.8152550424,519.3230651622476,16.245648170399573,136447.54796539494,-2039.1152741086328,7.419107319981689,136475.6083836705,15834.924326997356,9.581406178934255,136497.30135639946,-2417.5934135922944,4.622502008784043,136763.61755020157,3923.286018267778,33.73553039624448,0.988383424732986,119.0,96.0,66.0,298.0,364.0,23.0,859.0,851.0,26.0,19.0,7.0,0.7307692307692307,47.51694039814768,267.4441756262938,15.0,10.0,5.0,0.6666666666666666,340.70846841316234,1462.9545121180722,24.0,12.0,12.0,0.5,796.7348425548028,14670.727038106135,10.0,2.0,8.0,0.2,504.46091812064935,7366.704026098588,78.0,39.0,39.0,0.5,63.57504449606131,4325.990948345891,0.0,0.0,0.0,0.0,136320.0,136343.0,136439.0,136452.0,136464.0,136488.0,136495.0,136505.0,136726.0,136803.0,0.09149784322270063,-0.16708641867346008,0.05031503947236614,-0.2086624306984161,0.016204539816888283
137,137,137193.84932176667,297.3441044396383,5.095930797682332,137317.5479654008,-2701.9726534827096,10.350606651964736,137343.06956682503,15613.775324991571,9.821226481278291,137365.45203459918,-2756.270430280971,6.316601495195515,137632.8443491993,3567.9253868739575,29.10527240752842,0.9766582021032436,120.0,111.0,71.0,292.0,363.0,9.0,859.0,869.0,19.0,8.0,11.0,0.4210526315789473,66.42106638185707,243.88850626892375,17.0,14.0,3.0,0.8235294117647058,437.4122998149675,2504.1002242819427,23.0,11.0,12.0,0.4782608695652174,800.3214041818006,15592.660097946396,16.0,3.0,13.0,0.1875,489.11964032102713,7579.040320157672,71.0,35.0,36.0,0.4929577464788732,65.02352666162768,3875.550024495289,0.0,0.0,0.0,0.0,137186.0,137195.0,137306.0,137321.0,137332.0,137355.0,137362.0,137377.0,137598.0,137669.0,0.2233811445733263,-0.1618862793637695,0.0512573921120024,-0.17745705753232888,0.01822446368997591
138,138,138091.15067819977,285.54207669721956,5.095930801517423,138204.54796540082,-2742.572535162206,9.09123976758053,138230.34396450693,15087.961272175333,9.94308958299612,138252.77603061794,-2739.426744710432,6.136733255346921,138521.75976133716,3479.9568878553255,30.476550778311516,0.9783403633833124,104.0,100.0,70.0,297.0,367.0,4.0,899.0,888.0,23.0,20.0,3.0,0.8695652173913043,51.372836091372115,158.36003618033826,16.0,12.0,4.0,0.75,421.0765335550183,2323.4537705542484,24.0,11.0,13.0,0.4583333333333333,750.5971540740277,15386.219743844693,14.0,3.0,11.0,0.2142857142857142,478.5273254226929,7151.698902367723,78.0,39.0,39.0,0.5,68.37246287472077,3461.7324797250953,0.0,0.0,0.0,0.0,138090.0,138094.0,138194.0,138208.0,138219.0,138242.0,138250.0,138264.0,138484.0,138561.0,0.17991336578337758,-0.15353341731401618,0.04974808329195884,-0.17468155567462532,0.019647502850777633
139,139,138975.89910049457,471.1065628431387,3.9652173565526914,139100.85179456213,-2939.367715880543,7.708026331316501,139128.47756588916,15644.705067810188,9.538728720046535,139150.45203459918,-2710.6971831709056,6.02988879372545,139418.24329302198,3627.178201674367,30.042608600961337,0.9805612640097272,122.0,112.0,70.0,294.0,364.0,10.0,884.0,896.0,10.0,6.0,4.0,0.6,78.70575890644257,743.4668466389779,15.0,10.0,5.0,0.6666666666666666,385.124605083224,300.5147543360258,23.0,11.0,12.0,0.4782608695652174,801.6790813826899,15683.54729518737,15.0,3.0,12.0,0.2,501.1679104034723,7848.987339969798,73.0,35.0,38.0,0.4794520547945205,74.8210726930739,3615.423925645852,0.0,0.0,0.0,0.0,138970.0,138980.0,139092.0,139106.0,139117.0,139140.0,139147.0,139162.0,139384.0,139456.0,0.16706572379601664,-0.13102294177162951,0.05124283761872809,-0.18488524410432988,0.020627900955771963
