Unnamed: 0,cycle,p_center,p_height,p_width,q_center,q_height,q_width,r_center,r_height,r_width,s_center,s_height,s_width,t_center,t_height,t_width,r_squared,pr_interval,pr_segment,qrs_duration,st_segment,qt_interval,p_duration,pp_interval,rr_interval,fwhm_p,rise_time_p,decay_time_p,rise_decay_symmetry_p,sharpness_deriv_p,sharpness_diff_p,fwhm_q,rise_time_q,decay_time_q,rise_decay_symmetry_q,sharpness_deriv_q,sharpness_diff_q,fwhm_r,rise_time_r,decay_time_r,rise_decay_symmetry_r,sharpness_deriv_r,sharpness_diff_r,fwhm_s,rise_time_s,decay_time_s,rise_decay_symmetry_s,sharpness_deriv_s,sharpness_diff_s,fwhm_t,rise_time_t,decay_time_t,rise_decay_symmetry_t,sharpness_deriv_t,sharpness_diff_t,Average_Heart_Rate,SDNN,RMSSD,NN50,p_on,p_off,q_on,q_off,r_on,r_off,s_on,s_off,t_on,t_off,sharpness_deriv_p_norm,sharpness_deriv_q_norm,sharpness_deriv_r_norm,sharpness_deriv_s_norm,sharpness_deriv_t_norm
0,0,0.0,0.0,0.0,0.0,0.0,0.0,0.0,0.0,0.0,0.0,0.0,0.0,0.0,0.0,0.0,0.0,0.0,0.0,0.0,0.0,0.0,0.0,0.0,0.0,0.0,0.0,0.0,0.0,0.0,0.0,0.0,0.0,0.0,0.0,0.0,0.0,0.0,0.0,0.0,0.0,0.0,0.0,0.0,0.0,0.0,0.0,0.0,0.0,0.0,0.0,0.0,0.0,0.0,0.0,69.33164155565764,343.21979312904347,515.1400946468185,535.0,,,,,,,,,,,,,,,
1,1,1708.376428963282,1294.7777762412304,9.133675619495488,1829.2000309166117,-7608.639720137318,7.413904627044998,1861.251096756028,47861.246574035256,9.686833272288771,1887.602712798848,-4560.660404259568,13.431303749329642,2130.786761314185,10745.248182621684,31.583861067979036,0.9794476094275276,120.0,103.0,81.0,268.0,349.0,17.0,,,17.0,7.0,10.0,0.4117647058823529,85.26780514706384,1243.7162912598276,16.0,8.0,8.0,0.5,773.9814317168631,1587.5474477575576,23.0,12.0,11.0,0.5217391304347826,2323.3556046489034,46343.2232075847,20.0,5.0,15.0,0.25,872.3135131349936,14126.739677472688,79.0,40.0,39.0,0.5063291139240507,87.64444082558438,11288.0332215715,0.0,0.0,0.0,0.0,1701.0,1718.0,1821.0,1837.0,1849.0,1872.0,1883.0,1902.0,2092.0,2170.0,0.06585516581432084,-0.1017240216629543,0.048543566475122375,-0.19126912241048902,0.008156576687296246
2,2,2483.12330450072,1261.025748333208,9.158249989989866,2603.4877076614757,-7339.167776040122,7.195993985074276,2635.2216892306456,47375.471909936765,9.80405114608634,2661.602712798848,-4850.524572304911,12.269096180294383,2903.4148077013565,10411.184464521495,31.35860765213745,0.9815243309493212,119.0,102.0,81.0,266.0,347.0,17.0,774.0,774.0,17.0,7.0,10.0,0.4117647058823529,80.78418941323213,1331.3304222106822,16.0,8.0,8.0,0.5,762.0046910195126,1279.8644078120064,23.0,12.0,11.0,0.5217391304347826,2271.123660540191,45924.12424001464,20.0,5.0,15.0,0.25,877.7918597567589,14546.95769960186,79.0,39.0,40.0,0.4936708860759494,113.31169491642146,11142.18846529393,0.0,0.0,0.0,0.0,2476.0,2493.0,2595.0,2611.0,2623.0,2646.0,2657.0,2676.0,2865.0,2942.0,0.06406228383521163,-0.10382712512816479,0.04793880818449081,-0.18096843891250358,0.010883650683796557
3,3,4721.383144280356,1166.3669966140228,7.581264704800236,4843.961850598129,-7848.405999065877,7.369466464977019,4876.210456287199,49604.45728970043,9.467799659033908,4901.602712798849,-4484.4574995090115,20.383723206909806,5145.268214999976,10332.722273262836,30.47336856996705,0.9793687303208471,121.0,105.0,80.0,267.0,347.0,16.0,2242.0,2240.0,17.0,7.0,10.0,0.4117647058823529,92.95664535318738,1035.2275959165245,16.0,8.0,8.0,0.5,777.2901836628565,2008.386495961084,23.0,12.0,11.0,0.5217391304347826,2400.1574245052343,46487.83244117814,19.0,5.0,14.0,0.2631578947368421,968.1657740763816,16190.44754970283,77.0,38.0,39.0,0.4935064935064935,101.58328119714436,10628.378931564206,0.0,0.0,0.0,0.0,4715.0,4731.0,4836.0,4852.0,4864.0,4887.0,4897.0,4916.0,5108.0,5183.0,0.07969759571647828,-0.09903796818810981,0.0483859224683744,-0.2158936224019032,0.009831221483616504
4,4,5707.025700365561,1765.1796014460335,13.60881701988441,5826.904707223533,-7185.853650739541,6.652100871782171,5858.433079932839,48154.598131983046,9.686374449588111,5882.876695499281,-4785.988093105637,9.823252428013346,6130.043730881229,11264.099512769844,33.61309550933413,0.9850610352322186,118.0,102.0,78.0,274.0,352.0,16.0,984.0,983.0,16.0,6.0,10.0,0.375,130.84711016857872,2184.2197697720544,15.0,8.0,7.0,0.5333333333333333,819.833311460132,127.42566800870418,23.0,12.0,11.0,0.5217391304347826,2373.772338458636,47706.97099854599,18.0,3.0,15.0,0.1666666666666666,1076.9491416693252,16966.157257508785,83.0,42.0,41.0,0.5060240963855421,98.82792237016868,11823.321935647837,0.0,0.0,0.0,0.0,5701.0,5717.0,5819.0,5834.0,5846.0,5869.0,5880.0,5897.0,6090.0,6171.0,0.07412679710403909,-0.11408989819542982,0.0492948218974345,-0.22502127475425682,0.008773708209709066
5,5,6658.170724535255,1524.3658028978052,7.63888260002764,6775.268338795603,-7690.741715387542,7.342615333106569,6807.44265449866,49006.200113661966,9.600693447633727,6833.027373698993,-4465.386592013013,17.835757806025434,7079.115322953978,11254.51467559688,31.56932041949238,0.9784481578244474,116.0,101.0,81.0,270.0,351.0,15.0,950.0,949.0,15.0,7.0,8.0,0.4666666666666667,109.90328447104606,1630.64029462511,16.0,8.0,8.0,0.5,761.0795758496309,1938.676178337958,23.0,12.0,11.0,0.5217391304347826,2355.566050780067,46754.08394888433,19.0,4.0,15.0,0.2105263157894736,980.197741985298,16129.653630873345,81.0,41.0,40.0,0.5061728395061729,93.37070427781332,12040.9874380026,0.0,0.0,0.0,0.0,6651.0,6666.0,6767.0,6783.0,6795.0,6818.0,6829.0,6848.0,7041.0,7118.0,0.07209771057715998,-0.09896049094027852,0.04806669452674788,-0.21951016374226653,0.008296288820011818
6,6,7585.484901789751,1699.1538635744307,11.350100982825625,7703.587528406148,-7329.462528022246,7.124580244125807,7735.662257166619,47764.02036893527,9.559164067223554,7764.602712798849,-4219.866724374864,11.623040853491652,8008.48930397034,11265.15078058414,32.316496563903094,0.9804566856921008,115.0,100.0,81.0,272.0,353.0,15.0,929.0,928.0,15.0,5.0,10.0,0.3333333333333333,122.0289293971088,1951.4107107557163,16.0,9.0,7.0,0.5625,786.6845921334219,431.8177168251623,24.0,13.0,11.0,0.5416666666666666,2339.069643748189,45709.90781132718,18.0,7.0,11.0,0.3888888888888889,650.9361917804105,10697.709269691128,81.0,40.0,41.0,0.4938271604938271,105.30698465374748,12046.353986350625,0.0,0.0,0.0,0.0,7580.0,7595.0,7695.0,7711.0,7723.0,7747.0,7758.0,7776.0,7970.0,8048.0,0.07181746869021163,-0.10733182537269863,0.04897137271278511,-0.15425515408353113,0.009348031527038907
7,7,8465.796151711835,1489.7209292917432,8.988526049644086,8581.553734414985,-6905.507350627709,7.335809123573123,8613.90153428561,47816.79451678922,9.762758861678256,8643.178051898705,-3831.722288922679,22.93168860772019,8886.814195204224,10855.71024245516,31.58012070680112,0.979301820207489,114.0,100.0,83.0,270.0,353.0,14.0,879.0,879.0,15.0,8.0,7.0,0.5333333333333333,115.04594497466752,1636.1425668184718,16.0,9.0,7.0,0.5625,764.2856239141618,457.3494889013496,24.0,13.0,11.0,0.5416666666666666,2215.331279444664,44687.47294353806,21.0,7.0,14.0,0.3333333333333333,692.3000504164286,11609.44530802915,80.0,40.0,40.0,0.5,94.44794891089398,11424.230934676056,0.0,0.0,0.0,0.0,8459.0,8473.0,8573.0,8589.0,8601.0,8625.0,8637.0,8656.0,8848.0,8926.0,0.07722650780597123,-0.11067769319580674,0.046329564786423034,-0.18067594627560404,0.008700301205675269
8,8,9302.475504028114,1460.615952055456,8.710635300561142,9420.099694473309,-7065.48605467752,7.51992704024028,9452.509911510251,48551.92707588946,9.668271645132071,9479.75339099856,-3916.271384017173,25.4796540086153,9723.900450554196,10808.321708433825,32.094565907719975,0.9766126164676124,119.0,101.0,83.0,268.0,351.0,18.0,836.0,838.0,18.0,9.0,9.0,0.5,93.5215739198376,1618.798880834267,16.0,8.0,8.0,0.5,709.5149092322519,1675.3438374127113,23.0,13.0,10.0,0.5652173913043478,2269.8311332748813,43865.92179544789,21.0,6.0,15.0,0.2857142857142857,804.3724361572436,13673.73049865832,81.0,41.0,40.0,0.5061728395061729,91.77510379028918,11323.915924997931,0.0,0.0,0.0,0.0,9293.0,9311.0,9412.0,9428.0,9440.0,9463.0,9474.0,9495.0,9686.0,9763.0,0.06402885973429846,-0.10041983010673924,0.046750587875266085,-0.20539241469321942,0.008491152120192379
9,9,10168.590111604,1520.0312147663246,12.226933724803589,10289.239005080051,-7290.952706921296,6.8886456424273845,10320.955124891629,47652.61731427573,9.669231269013954,10347.60271279885,-4777.145308275638,10.957251153771328,10592.546959277037,10952.843165087092,32.337625346143156,0.9810496297355334,118.0,100.0,80.0,271.0,351.0,18.0,868.0,868.0,18.0,6.0,12.0,0.3333333333333333,96.1669404736068,1627.6976363768945,15.0,8.0,7.0,0.5333333333333333,786.2623878851754,905.7638449700804,23.0,12.0,11.0,0.5217391304347826,2340.8409769975847,46040.62652593843,19.0,5.0,14.0,0.2631578947368421,862.1797763404461,13965.697765428402,80.0,40.0,40.0,0.5,90.59943084680953,11871.546868410682,0.0,0.0,0.0,0.0,10163.0,10181.0,10281.0,10296.0,10309.0,10332.0,10343.0,10361.0,10553.0,10632.0,0.06326642475456704,-0.10784082951721481,0.0491230305684871,-0.18048012373558284,0.00827177286127872
10,10,11112.347278642468,2077.5174947036744,13.389160149939777,11227.993358480851,-6858.733147308667,6.267136142855688,11259.431252500794,48035.65777499525,9.720468012168393,11286.027373698991,-4253.308326064553,9.378843227234489,11534.10949479597,11907.740130116968,34.54239099385929,0.981767307706435,115.0,98.0,78.0,276.0,354.0,17.0,943.0,939.0,17.0,7.0,10.0,0.4117647058823529,129.45568706886272,2778.2983355710094,14.0,8.0,6.0,0.5714285714285714,825.1436433227922,301.01053318240474,24.0,12.0,12.0,0.5,2328.767716911481,47823.44453339139,17.0,4.0,13.0,0.2352941176470588,916.1261207403852,14092.774788411503,85.0,44.0,41.0,0.5176470588235295,91.94062366257032,12534.98237766978,0.0,0.0,0.0,0.0,11105.0,11122.0,11220.0,11234.0,11247.0,11271.0,11282.0,11298.0,11491.0,11574.0,0.06231268203463555,-0.12030554704502164,0.04847997976460959,-0.2153914201625836,0.007721080797693491
11,11,12042.123304500716,1547.952959594346,10.368331895258718,12157.822185271889,-7099.176935716107,6.651110253135386,12189.450045459374,47180.42112682273,9.756071728221851,12217.178051898703,-4538.758380251507,11.209043843631536,12463.534155696114,11382.434049247004,32.84236766279906,0.981303069662294,115.0,98.0,80.0,272.0,352.0,17.0,928.0,930.0,17.0,7.0,10.0,0.4117647058823529,104.11225508367453,2002.4778158586264,15.0,8.0,7.0,0.5333333333333333,812.7117032699415,82.21870191508697,23.0,12.0,11.0,0.5217391304347826,2277.834694270924,47079.313241111304,18.0,5.0,13.0,0.2777777777777778,819.2266960727195,13293.5017698931,80.0,42.0,38.0,0.525,91.06241524533873,12187.78230154597,0.0,0.0,0.0,0.0,12035.0,12052.0,12150.0,12165.0,12177.0,12200.0,12212.0,12230.0,12422.0,12502.0,0.06725802256352674,-0.11447970808857741,0.0482792361718862,-0.18049577162715666,0.00800025854323864
12,12,12906.66828329258,1417.4030038896003,8.975247554280266,13023.686818557337,-7208.687243311478,7.431990335765248,13055.569603076376,46678.018158363666,9.952086805508488,13082.60271279885,-4879.112604589998,14.418103639504167,13327.438144512473,10906.957072377034,32.252179071122086,0.9799130495441314,119.0,102.0,82.0,270.0,352.0,17.0,864.0,866.0,20.0,10.0,10.0,0.5,99.95437260776303,1512.447145204438,15.0,8.0,7.0,0.5333333333333333,820.0401326612363,106.01447025711514,23.0,13.0,10.0,0.5652173913043478,2187.579047005493,43534.16613662036,20.0,5.0,15.0,0.25,817.4878601219025,13936.206052824851,82.0,40.0,42.0,0.4878048780487805,77.98499949563157,11333.843995483368,0.0,0.0,0.0,0.0,12897.0,12914.0,13016.0,13031.0,13043.0,13066.0,13078.0,13098.0,13288.0,13368.0,0.07051937404779787,-0.11375720779426295,0.046865294057338365,-0.1675484716939829,0.007150023510511142
13,13,13759.027373698991,1417.28607642362,9.539711587009354,13876.667192597612,-7545.608756249357,7.544197437223109,13908.69993578926,46894.52675408226,9.710202603408382,13935.60271279885,-4895.26699957668,11.669960257008247,14180.08816919997,10896.875994546806,31.97797580124212,0.9794040900737504,119.0,100.0,81.0,269.0,350.0,19.0,858.0,853.0,19.0,9.0,10.0,0.4736842105263157,89.37216638663395,1530.0867688393269,15.0,8.0,7.0,0.5333333333333333,811.5896813873437,972.6020094054484,23.0,13.0,10.0,0.5652173913043478,2293.6811702857967,44723.09030345593,20.0,6.0,14.0,0.3,826.7274905039401,13822.814588302264,81.0,41.0,40.0,0.5061728395061729,104.90449434964066,11597.469449527887,0.0,0.0,0.0,0.0,13750.0,13769.0,13869.0,13884.0,13896.0,13919.0,13931.0,13950.0,14140.0,14219.0,0.06305866393054231,-0.10755788003389073,0.04891148986989462,-0.16888302324989252,0.00962702469975236
14,14,14707.99835759497,1607.1688348564328,8.69217904374375,14822.09249991946,-7432.898489862561,6.894611529787757,14853.764987829629,47880.357177321675,9.624060700105758,14879.60271279885,-4976.369937417572,10.57987326282598,15127.305717618256,11418.133370468173,32.286022478907235,0.9822812716500208,114.0,99.0,79.0,274.0,353.0,15.0,944.0,945.0,15.0,8.0,7.0,0.5333333333333333,122.89338882428014,2000.2775928515744,15.0,8.0,7.0,0.5333333333333333,794.54124358694,753.2046297884358,23.0,12.0,11.0,0.5217391304347826,2379.635414710536,45671.452786799506,18.0,5.0,13.0,0.2777777777777778,929.0300670229929,15016.751993114904,80.0,39.0,41.0,0.4875,95.16954478528557,12111.742940563316,0.0,0.0,0.0,0.0,14700.0,14715.0,14814.0,14829.0,14842.0,14865.0,14875.0,14893.0,15089.0,15167.0,0.07646576150492497,-0.10689520981223996,0.049699617024528804,-0.18668830466914643,0.008334947727220616
15,15,15650.240650953574,1773.0607509836043,10.639303471222766,15766.689367820129,-7050.1409260259425,6.701981196182384,15798.34963177295,48232.16507947708,9.7065030441892,15824.45203459914,-4426.694919810549,10.006896763779697,16071.55415904297,11726.253156017678,33.92993795181948,0.9823756937548436,116.0,99.0,79.0,274.0,353.0,17.0,944.0,945.0,17.0,7.0,10.0,0.4117647058823529,118.88646294411112,2289.5080705100163,15.0,8.0,7.0,0.5333333333333333,831.1788651583586,238.5501019400449,23.0,12.0,11.0,0.5217391304347826,2361.0209249302447,47964.010027235185,19.0,4.0,15.0,0.2105263157894736,990.6760968440392,15379.7542785539,84.0,43.0,41.0,0.5119047619047619,100.03882154225388,12568.14077241636,0.0,0.0,0.0,0.0,15643.0,15660.0,15759.0,15774.0,15786.0,15809.0,15821.0,15838.0,16030.0,16112.0,0.06705154511945455,-0.11789535469993527,0.04895117026241199,-0.223795882659661,0.008531183849712128
16,16,16597.48532550926,1827.0271184335315,8.885603750100172,16712.011198181914,-6995.373334129225,6.851547100218022,16743.792543035437,48606.14242241304,9.776307349880662,16770.602712798853,-3854.0354141095386,20.38372320555518,17018.46631563345,11310.465703435342,32.503886817516836,0.982043146043962,114.0,99.0,82.0,272.0,354.0,15.0,947.0,945.0,15.0,7.0,8.0,0.4666666666666667,134.91558441219954,2350.9363537375,15.0,8.0,7.0,0.5333333333333333,794.452109637782,432.86390084996447,24.0,13.0,11.0,0.5416666666666666,2267.2973300396966,45172.25616252088,21.0,5.0,16.0,0.238095238095238,826.2191780105696,13718.576027364728,79.0,39.0,40.0,0.4936708860759494,88.5231250693693,12102.443981210046,0.0,0.0,0.0,0.0,16590.0,16605.0,16704.0,16719.0,16731.0,16755.0,16766.0,16786.0,16980.0,17058.0,0.07384432505187681,-0.11356822169329928,0.04664631293583609,-0.21437768189306186,0.007826656071507477
17,17,17471.69864360057,1478.8479564982158,5.503326318286838,17587.36827955296,-7015.986450435189,7.998051299180585,17619.994935544302,48693.29241744925,9.748124472061445,17647.753390998565,-4130.316663008931,25.47965400864057,17894.95881659626,10977.39513920282,30.068114640710824,0.9743079900317878,113.0,101.0,83.0,270.0,353.0,12.0,873.0,877.0,14.0,7.0,7.0,0.5,111.18855470233792,1486.1451763088671,17.0,8.0,9.0,0.4705882352941176,682.5543549249485,2003.4134777091876,24.0,13.0,11.0,0.5416666666666666,2264.845908539092,45214.74440157521,21.0,6.0,15.0,0.2857142857142857,764.428272679631,13175.559579548411,76.0,39.0,37.0,0.5131578947368421,94.13765298985211,11577.627128415668,0.0,0.0,0.0,0.0,17466.0,17478.0,17579.0,17596.0,17607.0,17631.0,17642.0,17662.0,17856.0,17932.0,0.0751859271358922,-0.09728558624605252,0.0465124824405483,-0.18507740085060354,0.00857559118498566
18,18,18387.991621024976,1677.2425691372869,9.163381254808478,18502.72367411946,-7389.058311719494,6.988322013069315,18534.639060569512,48003.8717507541,9.754727915807504,18559.45203459914,-5155.520668030139,11.004555104486828,18809.165211812695,11498.116319153503,31.805338627146,0.9799975014869786,115.0,99.0,79.0,274.0,353.0,16.0,917.0,914.0,16.0,8.0,8.0,0.5,114.9381512071878,2041.0728261630893,15.0,8.0,7.0,0.5333333333333333,826.4088681354216,411.00422362238896,23.0,13.0,10.0,0.5652173913043478,2356.986680961108,45145.70275549795,20.0,3.0,17.0,0.15,1099.361287091225,17505.790755984104,79.0,39.0,40.0,0.4936708860759494,97.50406447125788,12213.619353868758,0.0,0.0,0.0,0.0,18380.0,18396.0,18495.0,18510.0,18522.0,18545.0,18556.0,18574.0,18772.0,18848.0,0.06852804318358545,-0.11184224474513715,0.04909992871406423,-0.21323962367340824,0.008480003312267429
19,19,19324.43246067095,1651.597705670731,5.044552568680391,19439.48253283294,-7541.526674951622,7.82793887256323,19472.02168267758,48887.51089266648,9.67423216362921,19498.027373698995,-4794.982777402584,17.83575780604839,19746.82875263069,11377.299478805688,31.161032202157767,0.9762272485205244,114.0,102.0,80.0,273.0,353.0,12.0,937.0,937.0,12.0,6.0,6.0,0.5,120.03213487793283,1836.8383666959885,17.0,8.0,9.0,0.4705882352941176,714.1378539017503,2221.87565755314,23.0,12.0,11.0,0.5217391304347826,2343.5656279044956,45621.99292375892,21.0,5.0,16.0,0.238095238095238,958.0556709905508,15861.415327383716,78.0,39.0,39.0,0.5,96.49916898817962,11986.6735527097,0.0,0.0,0.0,0.0,19318.0,19330.0,19432.0,19447.0,19460.0,19483.0,19494.0,19512.0,19709.0,19785.0,0.07267637540655612,-0.0946940698723089,0.047937920853647904,-0.19980377729521778,0.008481728829230876
20,20,20255.22918450659,1829.7866569529565,11.893128644338477,20372.35939851878,-7001.376672080957,6.545519750399071,20403.919480341658,47903.06913247417,9.692629960048484,20431.602712798853,-4145.795860066607,9.724663573187405,20678.109494795972,11578.295275385954,33.58970836154681,0.980210980148922,116.0,99.0,78.0,275.0,353.0,17.0,933.0,932.0,17.0,6.0,11.0,0.3529411764705882,131.32693809621534,2166.9513250275177,14.0,7.0,7.0,0.5,780.5110525587068,502.1215554090345,24.0,13.0,11.0,0.5416666666666666,2322.570219027018,46860.06876362388,17.0,6.0,11.0,0.3529411764705882,780.4268321138036,12188.123345646183,84.0,43.0,41.0,0.5119047619047619,100.95660101066854,12272.40670806099,0.0,0.0,0.0,0.0,20249.0,20266.0,20365.0,20379.0,20391.0,20415.0,20426.0,20443.0,20638.0,20718.0,0.07177172136281008,-0.11147965451867659,0.048484789410967295,-0.18824535950529536,0.0087194702336958
21,21,21137.480383111742,1569.389279565382,5.201995260177278,21251.89463330172,-6796.029935502155,8.098618905956778,21284.38760541919,47491.9518565855,9.916380421712187,21311.027373698995,-4736.145552222203,17.835757805996273,21558.343779510476,10756.554515051594,31.487606569933774,0.9772857918005474,112.0,99.0,85.0,269.0,354.0,13.0,879.0,881.0,15.0,7.0,8.0,0.4666666666666667,133.16343469247911,1631.719305006336,17.0,9.0,8.0,0.5294117647058824,712.555324433045,709.2572992976757,23.0,12.0,11.0,0.5217391304347826,2203.56528763156,45560.78162110452,21.0,4.0,17.0,0.1904761904761904,857.7548517619473,14928.225622028403,79.0,39.0,40.0,0.4936708860759494,92.19024870030626,11530.430995523104,0.0,0.0,0.0,0.0,21131.0,21144.0,21243.0,21260.0,21272.0,21295.0,21307.0,21328.0,21520.0,21597.0,0.08485048064643125,-0.10484876187944495,0.04639870970740068,-0.18110821179460754,0.008570611395247884
22,22,21961.179527532964,1495.3025905097677,8.762831280218784,22079.60216360385,-7074.329244397567,7.068896760390523,22111.598136449596,48407.24622356965,9.792868665159236,22139.178051898707,-4196.187843700804,22.93168860777651,22384.745220874112,10759.316109806368,31.534575612248403,0.9791114577401552,119.0,101.0,83.0,270.0,353.0,18.0,825.0,827.0,18.0,9.0,9.0,0.5,95.40184951296156,1678.2552226952507,16.0,9.0,7.0,0.5625,801.5259908590201,159.17792233822365,23.0,13.0,10.0,0.5652173913043478,2233.2752877986673,44136.0834273072,21.0,5.0,16.0,0.238095238095238,822.3757302250671,14167.548013907734,79.0,40.0,39.0,0.5063291139240507,82.09418800813583,11271.09272506697,0.0,0.0,0.0,0.0,21952.0,21970.0,22071.0,22087.0,22099.0,22122.0,22134.0,22154.0,22345.0,22424.0,0.06380103272638474,-0.11330063433134376,0.0461351442609284,-0.19598162924464735,0.0076300563316763865
23,23,22820.04630044323,1274.065005134909,9.133268341838695,22938.97631862071,-7474.294521190477,7.563733492448367,22971.40586641125,49626.123520994974,9.591753939998858,22998.178051898707,-4335.197002895401,22.93168860777651,23245.084685483303,11006.092730495438,30.83343131490378,0.9782813247256285,119.0,101.0,81.0,271.0,352.0,18.0,860.0,860.0,18.0,8.0,10.0,0.4444444444444444,86.44615427185272,1207.928623235748,16.0,8.0,8.0,0.5,744.2689149754211,1763.0113653652477,23.0,12.0,11.0,0.5217391304347826,2361.4796084434433,47007.7511366782,20.0,5.0,15.0,0.25,894.3840434895053,15137.12742102352,78.0,39.0,39.0,0.5,94.6718378066033,11873.760002629126,0.0,0.0,0.0,0.0,22812.0,22830.0,22931.0,22947.0,22959.0,22982.0,22993.0,23012.0,23207.0,23283.0,0.06785066219026953,-0.09957714575808244,0.04758541350594085,-0.20630758945721778,0.008601766323873383
24,24,23749.491223992904,1888.35773901064,14.16411067211632,23867.87201940032,-7097.73407095353,6.5043908522602445,23899.323736502018,48497.53222966999,9.643694979069846,23925.602712798853,-4466.793212246866,9.144040784378545,24173.035740213916,11752.562252534872,33.721509513635944,0.9837232086169416,116.0,100.0,78.0,275.0,353.0,16.0,930.0,928.0,18.0,6.0,12.0,0.3333333333333333,126.49999396938054,2313.433693101431,15.0,8.0,7.0,0.5333333333333333,829.2271960135721,334.0097711624453,23.0,12.0,11.0,0.5217391304347826,2366.176128833065,47990.35369276321,17.0,5.0,12.0,0.2941176470588235,910.1136545642224,14231.697215154438,83.0,41.0,42.0,0.4939759036144578,97.5129959249678,12505.16430422294,0.0,0.0,0.0,0.0,23744.0,23760.0,23860.0,23875.0,23887.0,23910.0,23921.0,23938.0,24133.0,24213.0,0.06698942226680904,-0.1168298484733412,0.048789619183663896,-0.2037510158448596,0.008297169062340898
25,25,24705.51668822537,1948.9696048575352,12.909641578551538,24821.401978258975,-7138.056839611267,6.4648352229517085,24852.899540712133,48324.54583763662,9.54754755152785,24881.602712798853,-4145.204929029658,10.117218340885907,25127.29905664311,11535.88815840398,33.24301798701782,0.9810269842070508,117.0,96.0,79.0,275.0,354.0,21.0,953.0,953.0,21.0,9.0,12.0,0.4285714285714285,101.94726010522083,2382.4945733469294,14.0,7.0,7.0,0.5,778.3924422940903,728.5542293484018,23.0,12.0,11.0,0.5217391304347826,2360.187691372358,47090.08117906098,18.0,7.0,11.0,0.3888888888888889,681.6788122927156,10794.967413111804,83.0,41.0,42.0,0.4939759036144578,96.24791355635358,12473.885341588091,0.0,0.0,0.0,0.0,24697.0,24718.0,24814.0,24828.0,24841.0,24864.0,24875.0,24893.0,25089.0,25168.0,0.052308286312486095,-0.10904822695926879,0.04884034915304206,-0.16444996663947525,0.008343346627042
26,26,25645.682617699407,1694.1959003822246,10.541033559474563,25761.72930396692,-7100.817841472809,6.76397207328552,25793.50166748055,47759.35113582979,9.88379256878307,25820.602712798853,-4370.439504929057,15.624449240971067,26069.16541061606,11252.75157835195,32.5181122788286,0.9827526527368298,114.0,99.0,83.0,273.0,356.0,15.0,941.0,941.0,15.0,7.0,8.0,0.4666666666666667,108.02715889764391,2167.389533479877,16.0,9.0,7.0,0.5625,826.9275234082189,407.3188591275889,23.0,13.0,10.0,0.5652173913043478,2250.4986397286684,44160.56842873647,21.0,5.0,16.0,0.238095238095238,808.359228501519,13429.782458010606,80.0,39.0,41.0,0.4875,112.505693315841,12023.218498602871,0.0,0.0,0.0,0.0,25639.0,25654.0,25753.0,25769.0,25781.0,25804.0,25816.0,25836.0,26031.0,26109.0,0.06376308600042775,-0.1164552509118728,0.04712163348551673,-0.18496062640607142,0.009998060699418578
27,27,26505.1143381334,1164.2858382986858,4.621731223623502,26623.14523862229,-7139.299805616118,8.517984997625861,26656.068008506572,47914.42809349944,9.803454426962013,26686.800350590183,-4837.105231518455,25.47965400864057,26931.2101044624,10503.143137161556,30.07769128578014,0.9730324888810176,117.0,103.0,86.0,267.0,353.0,14.0,861.0,863.0,15.0,7.0,8.0,0.4666666666666667,113.17203425903811,1095.350882043714,17.0,8.0,9.0,0.4705882352941176,687.2391012907527,2510.9021040711837,24.0,13.0,11.0,0.5416666666666666,2218.454722016258,44456.88169098245,23.0,9.0,14.0,0.391304347826087,546.0681980512549,10376.312168061726,77.0,39.0,38.0,0.5064935064935064,101.0798722021587,11314.778884553609,0.0,0.0,0.0,0.0,26498.0,26512.0,26615.0,26632.0,26643.0,26667.0,26678.0,26701.0,26895.0,26968.0,0.09720296385672,-0.09626141498500138,0.04630034856488742,-0.11289152745594376,0.009623773653481337
28,28,27357.316678517185,1221.7947164114942,5.5222829540363625,27475.92013355289,-7424.626651646999,7.656616959615104,27508.413951139068,49570.93861793929,9.60751866929436,27535.753390998565,-3981.689309697512,25.4796540086331,27781.814463248913,10821.12635789912,31.13834134900174,0.9715909906659188,118.0,103.0,83.0,270.0,353.0,15.0,852.0,852.0,15.0,7.0,8.0,0.4666666666666667,99.99871601109008,1098.4209165876878,16.0,8.0,8.0,0.5,746.113847025979,1970.6450386455613,23.0,12.0,11.0,0.5217391304347826,2341.793837798114,46936.55614722775,21.0,6.0,15.0,0.2857142857142857,808.3670854351241,13897.648738948272,80.0,40.0,40.0,0.5,86.18068762809811,11522.607812817578,0.0,0.0,0.0,0.0,27350.0,27365.0,27468.0,27484.0,27496.0,27519.0,27530.0,27551.0,27744.0,27821.0,0.08184575908528567,-0.10049176639211471,0.047241264803298266,-0.2030211356436888,0.007964114342421353
29,29,28267.10057965963,1776.0352438583775,12.515993479609747,28385.96864950808,-7432.803374581284,7.071803710790904,28417.763697212,48171.274825354165,9.759427279944038,28442.45203459914,-5024.441765978763,10.9390235246852,28691.94331104378,11284.025010388788,32.89558229190116,0.9811790529145834,118.0,99.0,79.0,275.0,354.0,19.0,911.0,909.0,20.0,8.0,12.0,0.4,94.7384537458935,1927.7604233481384,15.0,8.0,7.0,0.5333333333333333,815.9457781096479,648.6868823107179,24.0,13.0,11.0,0.5416666666666666,2364.480126944885,45720.10180077875,21.0,3.0,18.0,0.1428571428571428,1109.454689949558,17596.039594174475,83.0,42.0,41.0,0.5060240963855421,92.5706381905582,11895.633564347452,0.0,0.0,0.0,0.0,28260.0,28279.0,28378.0,28393.0,28405.0,28429.0,28439.0,28457.0,28653.0,28732.0,0.05334266539670539,-0.10977631682011406,0.049084856805582805,-0.2208115332258082,0.008203689561599855
30,30,29215.895915858026,1982.4544848386352,13.74672606017882,29331.59926021125,-6717.0247341137565,6.154328906627886,29362.811275937525,48150.96603384637,9.742466856183452,29390.027373698995,-4005.250374751473,9.502137625587675,29637.944891999905,11296.86362714385,33.497355558403925,0.9853539307433872,116.0,92.0,79.0,275.0,354.0,24.0,946.0,945.0,25.0,9.0,16.0,0.36,126.7590805225756,2554.1022405591075,14.0,8.0,6.0,0.5714285714285714,873.6096469688412,1261.4898340662317,24.0,13.0,11.0,0.5416666666666666,2305.673211019716,46638.02846528506,17.0,4.0,13.0,0.2352941176470588,864.10232219829,13320.620315156351,82.0,41.0,41.0,0.5,94.49921753455746,12200.583814828962,0.0,0.0,0.0,0.0,29208.0,29232.0,29324.0,29338.0,29350.0,29374.0,29386.0,29403.0,29599.0,29678.0,0.0639404745440566,-0.1300590189183076,0.047884256556742964,-0.2157423984391757,0.00836508438567824
31,31,30102.123304500717,1648.0922494287634,10.941508162669152,30218.381302850285,-7050.160887535145,6.544581764338359,30250.00456784812,46782.88805232644,9.849158092707295,30278.178051898707,-4285.599447931726,11.684531829656642,30526.53415569611,11362.083875414177,32.428428497387976,0.9831644472431932,115.0,99.0,82.0,273.0,355.0,16.0,885.0,888.0,21.0,8.0,13.0,0.3809523809523809,112.24946539702384,1749.989372199058,15.0,8.0,7.0,0.5333333333333333,786.2365191223071,396.9566467834361,24.0,13.0,11.0,0.5416666666666666,2208.4048899963254,45669.224114058736,20.0,5.0,15.0,0.25,768.4268324129769,12532.179430046315,82.0,43.0,39.0,0.524390243902439,88.56897096388232,11856.390367324491,0.0,0.0,0.0,0.0,30095.0,30111.0,30210.0,30225.0,30237.0,30261.0,30273.0,30292.0,30486.0,30565.0,0.06810872718801392,-0.11152036551568521,0.047205398852807785,-0.17930439877759166,0.007795134408005218
32,32,30948.17780538499,1358.4017607285414,7.304758060632072,31067.41769533283,-7649.987653321463,8.029704385905518,31099.885364316633,48177.051636368014,9.775908398472888,31126.602712798853,-4731.912881624843,20.383723206912453,31374.165285263687,10796.209506277704,30.889585408040396,0.9763132220983558,119.0,100.0,84.0,270.0,354.0,19.0,846.0,850.0,19.0,8.0,11.0,0.4210526315789473,91.19304919480555,1308.551318785896,17.0,8.0,9.0,0.4705882352941176,727.2012832612548,2481.2752165787824,24.0,13.0,11.0,0.5416666666666666,2256.0015291604327,44302.368460034006,21.0,5.0,16.0,0.238095238095238,842.5691086716023,14526.288512530811,79.0,39.0,40.0,0.4936708860759494,89.87362815210624,11367.110146584047,0.0,0.0,0.0,0.0,30940.0,30959.0,31059.0,31075.0,31087.0,31111.0,31122.0,31143.0,31336.0,31413.0,0.06713260526539415,-0.09505914469620345,0.0468273057925657,-0.17806099346069978,0.008324553918655168
33,33,31919.752639634014,1560.136400768403,11.207911887937072,32036.56220392293,-7355.374005028292,6.809089025415747,32068.32652296213,47804.41776655395,9.643570451787708,32094.602712798853,-4882.974407206056,10.376182221272872,32344.66148814117,11578.549719739423,33.083440159911085,0.982563416666338,115.0,99.0,80.0,277.0,357.0,16.0,975.0,968.0,16.0,7.0,9.0,0.4375,124.09992560023444,1876.7634134932243,16.0,9.0,7.0,0.5625,841.0881850494027,126.18413341978705,23.0,12.0,11.0,0.5217391304347826,2353.129112395565,47081.9101258165,18.0,5.0,13.0,0.2777777777777778,900.6599439036511,14475.60827444987,84.0,43.0,41.0,0.5119047619047619,88.1551177728053,12220.441785606028,0.0,0.0,0.0,0.0,31913.0,31929.0,32028.0,32044.0,32056.0,32079.0,32090.0,32108.0,32306.0,32385.0,0.07954427929449782,-0.11435015873760011,0.04922409313479635,-0.18444904044029004,0.007613658006107283
34,34,32907.903986351106,1872.7452196593372,12.304186180230603,33024.30549447602,-6802.254710163005,6.586142943163274,33056.1159218656,48082.87468047325,9.731712340553186,33083.027373699,-4339.962299212637,9.37029920573848,33332.37584725008,12068.815082955514,34.255256639825426,0.9804833678690784,115.0,98.0,79.0,279.0,358.0,17.0,988.0,988.0,17.0,7.0,10.0,0.4117647058823529,130.62867653984028,2420.97531847854,15.0,8.0,7.0,0.5333333333333333,760.2083818544304,360.02238056664737,23.0,12.0,11.0,0.5217391304347826,2309.7795494350407,47111.31253355673,16.0,4.0,12.0,0.25,891.6274340026808,13995.087398000172,84.0,41.0,43.0,0.4880952380952381,94.44689088213592,12838.562745050154,0.0,0.0,0.0,0.0,32901.0,32918.0,33016.0,33031.0,33044.0,33067.0,33079.0,33095.0,33292.0,33374.0,0.06975250833298209,-0.11175829401369376,0.04803746790898624,-0.20544589388816611,0.007825697074066608
35,35,33835.563297467554,2092.685840768461,13.209492109828837,33952.55505217182,-7031.876310020405,6.702321152734603,33984.3141380327,47216.774525509776,9.889192962113151,34011.60271279886,-4390.729216340314,12.422318495462434,34260.2966815227,11673.695707596178,33.76109971345348,0.9829294715037872,116.0,95.0,82.0,275.0,357.0,21.0,927.0,928.0,21.0,8.0,13.0,0.3809523809523809,112.16949735974896,2431.0366707423327,15.0,9.0,6.0,0.6,838.9904207622017,709.0013160490535,23.0,12.0,11.0,0.5217391304347826,2239.107378974178,46535.45908896168,20.0,5.0,15.0,0.25,798.6355589293181,12911.805420132809,85.0,43.0,42.0,0.5058823529411764,106.11196867293438,12462.080574998829,0.0,0.0,0.0,0.0,33828.0,33849.0,33944.0,33959.0,33972.0,33995.0,34007.0,34026.0,34220.0,34301.0,0.05360073412574861,-0.11931245428288358,0.04742186228253387,-0.1818913259230737,0.009089835072871257
36,36,34694.18941358721,1497.1440610740894,9.51211592275801,34812.15389463683,-7063.227049395993,7.4445875181738606,34844.45428127978,47889.24974668582,9.834298713060049,34871.60271279886,-4705.0415966159135,20.383723206887,35119.91504710705,10724.765225053334,31.494948200075083,0.978040455969105,119.0,101.0,84.0,271.0,355.0,18.0,856.0,860.0,21.0,9.0,12.0,0.4285714285714285,96.2241495847022,1377.4220310414114,16.0,8.0,8.0,0.5,734.9045141387576,1192.013300490929,23.0,12.0,11.0,0.5217391304347826,2221.8348859364787,45531.86680822659,22.0,6.0,16.0,0.2727272727272727,803.2977998846399,13997.090833277663,80.0,40.0,40.0,0.5,82.48168192356655,11293.44031195048,0.0,0.0,0.0,0.0,34685.0,34703.0,34804.0,34820.0,34832.0,34855.0,34867.0,34888.0,35082.0,35159.0,0.06427180395430253,-0.1040465652596574,0.046395274465335326,-0.1707312854497204,0.007690768067433977
37,37,35563.99866712265,1180.588730659921,7.4051692420766,35684.53998964196,-7537.268178911442,7.222125821243684,35716.75266246043,49235.86503444696,9.657261595111594,35743.178051898714,-4319.972159597238,22.931688607767057,35992.13204780497,11145.3668154466,31.564296336056007,0.9758727761096688,120.0,105.0,81.0,273.0,354.0,15.0,872.0,872.0,15.0,7.0,8.0,0.4666666666666667,91.79600948375018,1014.9789515880088,15.0,8.0,7.0,0.5333333333333333,813.7003023245306,1300.04814109299,24.0,13.0,11.0,0.5416666666666666,2328.34537346207,44837.92399077538,21.0,5.0,16.0,0.238095238095238,924.2280025650888,15615.48432443623,79.0,39.0,40.0,0.4936708860759494,92.18159659121338,11756.003715960424,0.0,0.0,0.0,0.0,35557.0,35572.0,35677.0,35692.0,35704.0,35728.0,35738.0,35758.0,35954.0,36031.0,0.07775443480003269,-0.10795692590601812,0.047289620520185566,-0.21394304602445793,0.008270844568655825
38,38,36496.69864360057,1463.6915095262314,10.087240743641802,36614.068497387736,-7409.052827425498,7.362673028733917,36646.21490050229,48025.4106762384,9.69072140030359,36672.60271279886,-4696.020900059795,13.681199311187449,36922.470713087554,11379.397547111965,31.85786051346558,0.978956635231262,115.0,101.0,81.0,275.0,356.0,14.0,931.0,930.0,15.0,6.0,9.0,0.4,110.83867606565026,1651.1207600231542,16.0,8.0,8.0,0.5,756.1512562764348,1087.6382355286055,23.0,12.0,11.0,0.5217391304347826,2331.89331648545,46333.882279589874,19.0,5.0,14.0,0.2631578947368421,874.740658305702,14469.943630710355,80.0,39.0,41.0,0.4875,99.460856278575,12161.57738558358,0.0,0.0,0.0,0.0,36491.0,36505.0,36606.0,36622.0,36634.0,36657.0,36668.0,36687.0,36884.0,36962.0,0.07572543486402172,-0.10205774933571132,0.04855540605796848,-0.18627273534803984,0.008740432511193677
39,39,37450.43530576379,1614.7686616201838,5.938832106591277,37565.34897052908,-7385.446970082016,7.461066860239058,37597.84563847356,49137.53568541575,9.634145245347987,37625.178051898714,-3841.812888912532,22.93168860777636,37874.41018870666,11229.92530132725,32.12840673435987,0.976633961618996,113.0,100.0,81.0,276.0,357.0,13.0,955.0,951.0,13.0,6.0,7.0,0.4615384615384615,112.2552471052762,1698.318054912225,16.0,8.0,8.0,0.5,716.1476463826543,2079.6067087013953,24.0,13.0,11.0,0.5416666666666666,2314.980434156077,45335.20785756302,19.0,5.0,14.0,0.2631578947368421,860.7205696977264,14049.697178314267,81.0,40.0,41.0,0.4938271604938271,93.88320653325168,11756.650560801438,0.0,0.0,0.0,0.0,37444.0,37457.0,37557.0,37573.0,37585.0,37609.0,37620.0,37638.0,37837.0,37914.0,0.06951785093020353,-0.09696740756297129,0.04711226157080511,-0.22404021085507966,0.00836009180952929
40,40,38400.883925950104,1592.7034901668633,9.108766086121127,38515.325575330055,-7229.018264851445,6.912904598740228,38547.07814969574,48590.703524907454,9.733206621579562,38576.178051898714,-3767.2779178917303,22.931688607776497,38823.668804803194,11503.124513708824,33.19170318998015,0.9785833780606664,114.0,100.0,82.0,274.0,356.0,14.0,949.0,950.0,15.0,8.0,7.0,0.5333333333333333,119.52446610722409,1824.0706266753032,16.0,8.0,8.0,0.5,776.0905843975058,1164.2003621491158,24.0,13.0,11.0,0.5416666666666666,2257.1156251445695,45704.51082615422,19.0,6.0,13.0,0.3157894736842105,707.8192466952084,11792.473113042932,81.0,41.0,40.0,0.5061728395061729,111.89892612282256,12403.172680714655,0.0,0.0,0.0,0.0,38393.0,38407.0,38507.0,38523.0,38534.0,38558.0,38570.0,38589.0,38786.0,38863.0,0.07504502052337553,-0.10735767374817311,0.0464515938524656,-0.18788612417830938,0.009727698417022892
41,41,40095.67080491458,1304.8522558326122,8.425148629675695,40215.865332517365,-7285.287520819182,7.246490296811995,40248.132070742475,48686.07915177879,9.748085724204282,40274.60271279886,-4233.716007682591,20.383723206911625,40523.53415569612,10921.782492761808,31.787796116231696,0.979130203033081,119.0,104.0,82.0,272.0,354.0,15.0,1698.0,1700.0,15.0,7.0,8.0,0.4666666666666667,94.65768119582974,1325.3647644136204,15.0,8.0,7.0,0.5333333333333333,774.5114501522228,968.62438873193,24.0,13.0,11.0,0.5416666666666666,2284.884562628938,45766.41979969332,21.0,5.0,16.0,0.238095238095238,865.3605546237983,14435.758527841572,82.0,43.0,39.0,0.524390243902439,96.16174250976498,11431.241245357029,0.0,0.0,0.0,0.0,40089.0,40104.0,40208.0,40223.0,40235.0,40259.0,40270.0,40290.0,40484.0,40562.0,0.07254283446475684,-0.10631172042817799,0.04693096265784339,-0.20439740243641677,0.00880458318717611
42,42,41014.42764140135,1512.200955181336,4.09745983139151,41130.33465018371,-7736.11041356914,7.743076906886277,41162.60832001805,48288.56030395711,9.703299190972697,41187.45203459914,-5122.546868111485,15.287792405183213,41437.96098111037,10908.102749645775,30.574624533659904,0.9776380126423756,113.0,103.0,82.0,272.0,354.0,10.0,917.0,915.0,10.0,5.0,5.0,0.5,131.10210412707048,1591.8689306561414,16.0,8.0,8.0,0.5,750.3385274151802,2134.7505143635444,23.0,13.0,10.0,0.5652173913043478,2331.0793283194507,44005.73696957593,21.0,3.0,18.0,0.1428571428571428,1075.1771237536796,17887.559515848596,76.0,37.0,39.0,0.4868421052631579,86.73998340467,11547.8743253532,0.0,0.0,0.0,0.0,41009.0,41019.0,41122.0,41138.0,41150.0,41173.0,41184.0,41204.0,41402.0,41476.0,0.08669621830211668,-0.09699170349211746,0.04827394549860758,-0.2098911247541327,0.007951885437409063
43,43,41939.49462046048,1646.3205250079548,7.4578960276563135,42055.543288311674,-7438.8841592420895,7.249468259657395,42087.32595653459,47862.54166539324,9.686420454053158,42113.60271279886,-4813.853912194523,11.12772908246442,42362.98360633604,11367.909226949248,31.492772255310165,0.9795395084526406,115.0,100.0,80.0,274.0,354.0,15.0,924.0,925.0,15.0,7.0,8.0,0.4666666666666667,115.7858061757525,1831.617249841098,16.0,9.0,7.0,0.5625,829.7837233188511,100.19212898014392,23.0,12.0,11.0,0.5217391304347826,2340.56475398576,46971.04995435236,19.0,5.0,14.0,0.2631578947368421,901.1797224082868,14585.948317944623,80.0,40.0,40.0,0.5,100.23812459794831,12146.366532018506,0.0,0.0,0.0,0.0,41932.0,41947.0,42047.0,42063.0,42075.0,42098.0,42109.0,42127.0,42325.0,42401.0,0.07033005081145607,-0.11154679997105824,0.04890180655989051,-0.18720545717546716,0.008817639426634369
44,44,42857.17024248184,1621.7634517745294,8.026166088942116,42972.299454244334,-7140.565786344904,6.850781633981014,43004.10215609356,48853.336798052915,9.728107804377895,43031.178051898714,-3706.45265772671,22.931688607775435,43280.52327720458,11083.495927102314,31.098694801643894,0.9812370953703604,115.0,99.0,82.0,272.0,354.0,16.0,919.0,917.0,16.0,8.0,8.0,0.5,119.76224932007632,2042.5228362790383,16.0,8.0,8.0,0.5,769.6302520167138,1086.703664409069,23.0,12.0,11.0,0.5217391304347826,2284.9486784236296,45989.78198404586,21.0,5.0,16.0,0.238095238095238,859.3743287344241,14152.852029278434,77.0,39.0,38.0,0.5064935064935064,106.56316465585648,11830.47694234617,0.0,0.0,0.0,0.0,42849.0,42865.0,42964.0,42980.0,42992.0,43015.0,43026.0,43046.0,43246.0,43318.0,0.07384692828601655,-0.10778281092073942,0.04677159899781294,-0.23185897894659924,0.009614580576086927
45,45,43701.871215264895,1172.1348736299713,7.146408419095388,43820.22800697988,-7131.389083873213,7.892317999412717,43852.781462248495,48023.85807703228,9.808035942332614,43881.32873009842,-4093.6864785053726,28.027619409504418,44128.05332538224,10668.380211538975,30.622075521903685,0.9751911844137664,119.0,101.0,85.0,269.0,354.0,18.0,844.0,849.0,18.0,9.0,9.0,0.5,95.59237319006844,1395.9493641197173,16.0,8.0,8.0,0.5,705.5050233006895,2192.1939764144972,24.0,13.0,11.0,0.5416666666666666,2205.4257091398563,44020.468434623835,22.0,6.0,16.0,0.2727272727272727,742.553899249258,13103.336700364893,78.0,39.0,39.0,0.5,87.30867795203098,11366.85525822602,0.0,0.0,0.0,0.0,43693.0,43711.0,43812.0,43828.0,43840.0,43864.0,43875.0,43897.0,44090.0,44166.0,0.08155407311961421,-0.09892953742996649,0.04592354295238548,-0.18139002660515627,0.00818387386096321
46,46,44570.1367591936,1528.400234382018,10.499041709771854,44691.71730706561,-7608.212199499749,7.223963753583254,44723.58395861724,47538.35014444613,9.728299379224788,44748.45203459914,-5210.089587812755,11.10405958786118,44998.6888030209,11176.454422137806,31.929638710776164,0.978582717909388,121.0,101.0,81.0,274.0,355.0,20.0,870.0,870.0,21.0,9.0,12.0,0.4285714285714285,83.2884139359557,1496.5406986850212,16.0,9.0,7.0,0.5625,827.2384441292884,588.778631203425,23.0,13.0,10.0,0.5652173913043478,2332.6795183811905,44602.81146740461,20.0,3.0,17.0,0.15,1078.2256399110067,17543.441459039495,81.0,41.0,40.0,0.5061728395061729,105.50450554682212,11995.788892605568,0.0,0.0,0.0,0.0,44562.0,44582.0,44683.0,44699.0,44711.0,44734.0,44745.0,44764.0,44959.0,45038.0,0.054493850538849156,-0.10872967557130972,0.04906942523864,-0.20694953930027452,0.009439890466322097
47,47,45512.394859889864,1553.9091521373437,6.274517071237513,45630.01177071554,-7620.923356950274,7.2216990806184045,45662.006344958165,48256.389363506714,9.680225061368136,45686.45203459914,-4774.534115552576,15.287792405179614,45938.77354917911,11223.663236824808,31.076331622876523,0.977262520102963,117.0,102.0,81.0,275.0,356.0,15.0,941.0,938.0,15.0,7.0,8.0,0.4666666666666667,123.42866415027596,1516.505809989383,15.0,8.0,7.0,0.5333333333333333,790.7702347941056,1089.484683167428,23.0,12.0,11.0,0.5217391304347826,2328.433376403685,45223.60805414081,22.0,3.0,19.0,0.1363636363636363,1114.1448239020942,18012.786721063043,78.0,39.0,39.0,0.5,93.82295341992722,11950.687477553414,0.0,0.0,0.0,0.0,45505.0,45520.0,45622.0,45637.0,45650.0,45673.0,45683.0,45703.0,45902.0,45978.0,0.07943106839965804,-0.10376304782975201,0.04825129702232827,-0.23335152643959062,0.008359387789905737
48,48,46430.01124156192,1408.8041482733056,10.092762902421269,46546.63312814944,-7088.142426651882,6.908043747461124,46578.443654185794,47609.14832399184,9.654432842399828,46610.027373699,-3427.535105341853,17.835757806045642,46854.8195702037,11510.935337732297,32.35070526572266,0.9793050914362892,116.0,101.0,81.0,274.0,355.0,15.0,917.0,917.0,15.0,7.0,8.0,0.4666666666666667,126.93187085273196,1863.3343341456984,15.0,8.0,7.0,0.5333333333333333,803.0173699136855,27.94754585580677,24.0,12.0,12.0,0.5,2266.4225693364306,46798.87435405135,19.0,9.0,10.0,0.4736842105263157,475.4176665629483,7782.787903353677,80.0,40.0,40.0,0.5,94.16076180304935,12306.63736844649,0.0,0.0,0.0,0.0,46423.0,46438.0,46539.0,46554.0,46566.0,46589.0,46601.0,46620.0,46816.0,46894.0,0.09009901838258032,-0.11329024186848832,0.047604770283074034,-0.1387054113091371,0.008180113869147963
49,49,47294.271843063325,1103.1129749604206,5.916310919653066,47411.58951033442,-7321.976577168112,8.10135293259602,47444.2760940489,46970.580276656794,9.789364529751708,47475.178051898714,-4146.484760133983,22.93168860777651,47721.38192538166,10387.95679261451,30.65651039855365,0.9762195069952244,118.0,101.0,84.0,271.0,355.0,17.0,866.0,866.0,17.0,8.0,9.0,0.4705882352941176,89.2660478616927,1212.0584447555837,16.0,8.0,8.0,0.5,751.0751829399285,1802.4737247969815,23.0,12.0,11.0,0.5217391304347826,2183.2599344777514,44725.03268089491,21.0,8.0,13.0,0.3809523809523809,554.093449816973,9716.04486118777,78.0,39.0,39.0,0.5,85.67283584134445,11054.32434846717,0.0,0.0,0.0,0.0,47286.0,47303.0,47404.0,47420.0,47432.0,47455.0,47467.0,47488.0,47683.0,47759.0,0.08092194533827829,-0.10257820071181085,0.04648143415768651,-0.1336296843881488,0.008247323083039292
50,50,48109.17796854959,1141.3073248707265,6.607942465819269,48229.159575084974,-7317.597647551601,7.354568120892608,48261.38657330539,47818.06560285835,9.808029988508329,48287.027373699,-4762.035430698501,17.835757806041958,48536.16541175286,10724.2832226227,31.530152256577157,0.9771690469444888,120.0,104.0,83.0,271.0,354.0,16.0,812.0,817.0,17.0,8.0,9.0,0.4705882352941176,89.52778841903167,925.6197592593536,15.0,8.0,7.0,0.5333333333333333,758.1068238588482,1508.536978518846,23.0,12.0,11.0,0.5217391304347826,2253.6464571021997,45601.47102909417,23.0,4.0,19.0,0.1739130434782608,938.6507070138982,15929.158645910902,79.0,39.0,40.0,0.4936708860759494,86.91507622132916,11391.164432012009,0.0,0.0,0.0,0.0,48101.0,48117.0,48221.0,48236.0,48249.0,48272.0,48283.0,48304.0,48498.0,48575.0,0.07844319095136999,-0.10360050666525832,0.04712960318845451,-0.1971112396524559,0.008104511454712724
51,51,48967.34473352526,1592.9839935012894,10.03312836494185,49087.60858641096,-7276.138106799645,7.281347778805338,49119.54253369294,47453.619346743486,9.701144661885694,49145.60271279886,-4888.223203188032,11.54062053246131,49394.13645428398,10914.111683104997,31.61515502574943,0.9786368111680882,122.0,103.0,79.0,274.0,353.0,19.0,859.0,858.0,19.0,9.0,10.0,0.4736842105263157,88.24355805481564,1524.1166290216067,15.0,8.0,7.0,0.5333333333333333,808.2199982430128,348.1674139433776,23.0,13.0,10.0,0.5652173913043478,2329.4344404208337,44548.95558760235,19.0,5.0,14.0,0.2631578947368421,906.8238496610984,14769.251612434244,79.0,39.0,40.0,0.4936708860759494,89.39343345841274,11561.713940597603,0.0,0.0,0.0,0.0,48958.0,48977.0,49080.0,49095.0,49107.0,49130.0,49141.0,49159.0,49357.0,49433.0,0.05539513166159394,-0.11107815524937889,0.049088656934672605,-0.1855119563831865,0.008190628431702183
52,52,49877.65264706819,1470.1163810045716,10.61818853258702,49995.95102603585,-7331.214999760827,7.396835992215789,50027.88279912244,47436.56168357839,9.768248097277082,50053.45203459914,-4914.528352830839,12.561022739836035,50303.67701285592,10945.68052935306,32.71274982130845,0.9801072379895684,115.0,101.0,81.0,276.0,357.0,14.0,913.0,908.0,14.0,6.0,8.0,0.4285714285714285,117.77454308027798,1745.7213316840805,16.0,9.0,7.0,0.5625,782.9334905645354,716.8865008758521,24.0,13.0,11.0,0.5416666666666666,2298.142658549084,44984.25417391763,21.0,4.0,17.0,0.1904761904761904,1009.5337401084872,16528.032890743325,82.0,41.0,41.0,0.5,84.42171685369534,11617.33543124398,0.0,0.0,0.0,0.0,49872.0,49886.0,49987.0,50003.0,50015.0,50039.0,50050.0,50068.0,50266.0,50344.0,0.0801123942308563,-0.10679450685733236,0.048446653319409026,-0.20541823500254736,0.007712788312001379
53,53,50761.99223703225,1213.1948306805175,6.342104781568206,50874.34838837052,-7021.112695880787,7.832869740989775,50906.670025672494,47564.38409969101,9.835015903647276,50934.178051898714,-4164.273153579484,22.931688607280943,51182.20446894491,10694.623704284784,31.83529831872062,0.977971284893636,110.0,98.0,84.0,272.0,356.0,12.0,882.0,880.0,12.0,6.0,6.0,0.5,95.83955645462255,1541.3899809853729,16.0,8.0,8.0,0.5,709.9735483761095,1759.8961008715469,24.0,13.0,11.0,0.5416666666666666,2190.1369387130626,43493.27794562915,21.0,5.0,16.0,0.238095238095238,812.3298423285883,14100.67899196646,77.0,37.0,40.0,0.4805194805194805,101.40115206142582,11449.361442034333,0.0,0.0,0.0,0.0,50756.0,50768.0,50866.0,50882.0,50894.0,50918.0,50929.0,50950.0,51145.0,51222.0,0.07899766305537526,-0.10111980524007876,0.04604573317133082,-0.19507121948288478,0.009481507238146173
54,54,51581.6754596525,1134.7091988109455,4.898430724977714,51701.262194276605,-7236.90907336996,8.878099211466107,51733.864227562735,46976.01914509098,9.93621960910481,51760.027373699,-5149.379527397344,17.8357578060484,52009.5660687258,10461.079788707337,30.382640388162407,0.973217058271954,119.0,104.0,85.0,270.0,355.0,15.0,821.0,827.0,15.0,8.0,7.0,0.5333333333333333,92.66627332447824,1122.4047401980215,16.0,8.0,8.0,0.5,706.7853277503957,2064.0575987573284,23.0,13.0,10.0,0.5652173913043478,2194.8858044078806,43566.835871809824,23.0,4.0,19.0,0.1739130434782608,887.8762565176983,15485.560538840182,78.0,39.0,39.0,0.5,77.54784326172921,10870.900304579423,0.0,0.0,0.0,0.0,51574.0,51589.0,51693.0,51709.0,51721.0,51744.0,51756.0,51778.0,51973.0,52048.0,0.08166521732756078,-0.09766397789232854,0.046723537761442,-0.17242393026067326,0.007412986501206269
55,55,52415.10955843362,1295.9795430110064,9.95437111904595,52538.505544579566,-7357.809298698291,7.091354965401417,52570.22569864169,47201.61910034177,9.762020427926034,52596.027373699,-4853.642720470972,11.981050939670634,52844.823015096306,10964.174495610958,32.149403778365524,0.9785593130400682,122.0,103.0,81.0,273.0,354.0,19.0,836.0,836.0,19.0,7.0,12.0,0.3684210526315789,88.63033208138476,1164.7785907891548,16.0,9.0,7.0,0.5625,848.5586351285832,159.73291817190284,23.0,12.0,11.0,0.5217391304347826,2280.405279362051,45920.44459652411,20.0,4.0,16.0,0.2,938.400348801442,15653.2169305987,80.0,41.0,39.0,0.5125,96.6338406278904,11960.73627116859,0.0,0.0,0.0,0.0,52408.0,52427.0,52530.0,52546.0,52558.0,52581.0,52592.0,52611.0,52805.0,52884.0,0.06838868141040715,-0.11532762004020765,0.04831201392719894,-0.19333939534601438,0.008813599297108383
56,56,53303.71239034841,1254.9676278269192,5.907968179947228,53423.30333225224,-7831.995418438945,8.446322941105883,53456.064773304504,47855.25516146165,9.725543662864654,53480.45203459914,-5456.839256351864,15.28779240518434,53732.216738326,10796.105854196983,30.601704522451907,0.9741824793053212,118.0,104.0,83.0,273.0,356.0,14.0,887.0,885.0,14.0,7.0,7.0,0.5,92.70922865244748,1277.7744410344435,17.0,8.0,9.0,0.4705882352941176,713.8300967385071,2791.989562212396,23.0,12.0,11.0,0.5217391304347826,2320.78599746089,44825.690119273815,22.0,3.0,19.0,0.1363636363636363,1107.5792023390427,18651.102871798405,78.0,39.0,39.0,0.5,95.05352164503395,11426.179007143855,0.0,0.0,0.0,0.0,53297.0,53311.0,53415.0,53432.0,53444.0,53467.0,53477.0,53498.0,53695.0,53771.0,0.07387380088280143,-0.09114281337013168,0.04849594866082427,-0.20297083170441563,0.00880442660795901
57,57,54186.85158424047,1569.330577600406,6.239795935394829,54304.66732556755,-7120.134931542087,7.448435322892891,54336.7995986685,48292.220302767455,9.742691207950829,54363.60271279886,-4272.040373502423,20.383723206756276,54612.975009729744,10785.993180345824,31.03391275292695,0.9763310445520456,117.0,103.0,82.0,273.0,355.0,14.0,881.0,881.0,14.0,7.0,7.0,0.5,119.18496782835044,1449.3333262628646,15.0,8.0,7.0,0.5333333333333333,775.3844625871575,597.3860308923686,24.0,13.0,11.0,0.5416666666666666,2267.900102610664,44581.115712433006,21.0,5.0,16.0,0.238095238095238,837.8236723406927,14213.02641053018,79.0,39.0,40.0,0.4936708860759494,115.73996645409436,11378.713442049984,0.0,0.0,0.0,0.0,54180.0,54194.0,54297.0,54312.0,54324.0,54348.0,54359.0,54379.0,54576.0,54652.0,0.07594637454308123,-0.10890024838605465,0.04696201765816716,-0.1961179200312203,0.010730580347945618
58,58,55824.361153678285,1203.2872370044067,6.563742356053614,55945.30061888992,-7325.542610578685,7.395354041968197,55977.36939809403,47504.5118999965,9.883730434710944,56002.45203459914,-5374.703757851018,15.28779240502321,56251.4676339021,10426.213984418404,32.26412384557445,0.9792779786885428,121.0,104.0,83.0,270.0,353.0,17.0,1637.0,1641.0,17.0,8.0,9.0,0.4705882352941176,89.0618903645105,1043.0939632152008,16.0,8.0,8.0,0.5,762.3603923155721,1251.579725391863,23.0,12.0,11.0,0.5217391304347826,2245.9654475706807,45217.70157110578,22.0,3.0,19.0,0.1363636363636363,1029.0824354381343,17555.0700334965,80.0,40.0,40.0,0.5,97.52472659289582,11229.71474999598,0.0,0.0,0.0,0.0,55816.0,55833.0,55937.0,55953.0,55965.0,55988.0,55999.0,56020.0,56212.0,56290.0,0.0740154865983876,-0.10406879501521991,0.04727899219970401,-0.19146775000108937,0.00935380059709526
59,59,56717.20992901325,1021.4045545011012,4.332089630761756,56834.624399781074,-5668.351649061471,20.383723206912453,56869.04220046176,49826.64162424507,9.881035925785437,56895.60271279886,-4867.685370749381,20.383723206912453,57146.33147977625,10425.061038595111,29.75474355524141,0.9697876575848432,117.0,105.0,84.0,272.0,356.0,12.0,895.0,892.0,13.0,6.0,7.0,0.4615384615384615,96.35072529358575,861.8972012683363,17.0,7.0,10.0,0.4117647058823529,601.2925098408539,4002.596620082392,23.0,12.0,11.0,0.5217391304347826,2328.5216862972925,45804.07278698307,21.0,5.0,16.0,0.238095238095238,886.7811363855388,15461.354160952593,74.0,36.0,38.0,0.4864864864864865,92.82631054083484,11049.941133322682,0.0,0.0,0.0,0.0,56711.0,56723.0,56828.0,56845.0,56857.0,56880.0,56891.0,56912.0,57111.0,57184.0,0.09433159943235976,-0.10607890036963603,0.04673246300357238,-0.18217716816997537,0.008904150315972076
60,60,57645.23220873775,1870.1670466571368,13.153847818899017,57764.14598257205,-6889.229767108363,6.575067545817253,57795.551068658475,47633.24810198604,9.795743118650098,57820.87669549929,-4452.51836110736,9.16723015108317,58072.10949479597,11677.108369619353,33.982362823031195,0.9793676962798892,117.0,101.0,79.0,277.0,356.0,16.0,928.0,926.0,16.0,6.0,10.0,0.375,123.10556246097634,2227.3836424275487,15.0,8.0,7.0,0.5333333333333333,800.9825167051565,296.9164671064091,24.0,13.0,11.0,0.5416666666666666,2314.330182355341,45532.342205448585,17.0,3.0,14.0,0.1764705882352941,994.5074662924752,15479.502907499118,85.0,44.0,41.0,0.5176470588235295,87.03733248561711,12391.04593840986,0.0,0.0,0.0,0.0,57639.0,57655.0,57756.0,57771.0,57783.0,57807.0,57818.0,57835.0,58029.0,58112.0,0.06582597136497703,-0.1162659025439001,0.04858644485885577,-0.2233584200302179,0.007453671725104863
61,61,58545.273982700426,1507.552077895891,4.475494581865897,58662.16691232507,-6994.096703391713,8.281626251768028,58694.965873660134,47849.7689558417,9.838022101502316,58722.178051898714,-4371.184968542285,22.93168860777651,58971.724940969194,10580.217353049702,31.12574592337548,0.9726627861000192,113.0,102.0,83.0,273.0,356.0,11.0,898.0,900.0,11.0,4.0,7.0,0.3636363636363636,123.03778998152583,1289.9933089294266,16.0,8.0,8.0,0.5,687.4243042643451,1837.8976374326476,24.0,13.0,11.0,0.5416666666666666,2217.169529783726,44396.90058868319,21.0,5.0,16.0,0.238095238095238,852.0811463429486,14411.752867109448,79.0,40.0,39.0,0.5063291139240507,96.89943615450451,11450.045396190284,0.0,0.0,0.0,0.0,58541.0,58552.0,58654.0,58670.0,58682.0,58706.0,58717.0,58737.0,58933.0,59010.0,0.08161428834568103,-0.09828635968544529,0.04633605507750408,-0.19493138644899372,0.009158548725520622
62,62,59386.50958964668,1561.8402760073625,7.803709090616742,59505.32790065328,-6928.751364146054,7.460269974753097,59537.79231196705,47936.16156677571,9.935110296455376,59565.753390998565,-4360.707347215835,25.47965400864057,59813.91430651015,10666.107821595711,31.51598002872047,0.9760775172118756,119.0,101.0,84.0,272.0,356.0,18.0,841.0,843.0,19.0,9.0,10.0,0.4736842105263157,107.38009672092224,1636.641422043372,16.0,8.0,8.0,0.5,702.9882442589202,1601.3674424838157,24.0,13.0,11.0,0.5416666666666666,2154.0748495069806,43735.8215787694,22.0,6.0,16.0,0.2727272727272727,757.4458249913504,13391.044523471162,80.0,40.0,40.0,0.5,86.03818885859606,11253.52221382649,0.0,0.0,0.0,0.0,59378.0,59396.0,59497.0,59513.0,59525.0,59549.0,59560.0,59581.0,59775.0,59853.0,0.06875229072426357,-0.10145958590701447,0.04493632320782143,-0.17369792666204809,0.008066502823494264
63,63,60213.59964792004,1472.965190183348,8.049934398250905,60334.519357408106,-7557.405573806634,7.689802540091633,60366.972974846256,48578.54630426241,9.736245597538902,60393.178051898714,-4648.917663394824,22.931688607732625,60641.51062921624,10848.654401929947,32.296041454979665,0.9761435455379912,121.0,103.0,84.0,272.0,356.0,18.0,829.0,828.0,18.0,9.0,9.0,0.5,91.57112060145512,1485.5527574016842,17.0,9.0,8.0,0.5294117647058824,789.564344589154,1495.4975543060273,24.0,13.0,11.0,0.5416666666666666,2264.9746363378863,44602.766509396235,23.0,5.0,18.0,0.217391304347826,924.4708768952618,15879.087032291674,83.0,43.0,40.0,0.5180722891566265,91.9505376886278,11495.586174997872,0.0,0.0,0.0,0.0,60205.0,60223.0,60326.0,60343.0,60354.0,60378.0,60388.0,60410.0,60602.0,60682.0,0.06216787824433024,-0.10447558184858056,0.04662499824823188,-0.1988572273874553,0.008475755082793497
64,64,61111.87875251638,1544.861169471924,10.543987877785428,61232.51145078671,-7353.806995521682,6.895461970777246,61264.34522924907,47654.46667829347,9.648160637795538,61290.60271279886,-4765.351850830439,10.765105426419334,61540.462784162555,11170.811796773329,32.84351753525584,0.9800531321913796,119.0,102.0,80.0,276.0,356.0,17.0,900.0,898.0,17.0,7.0,10.0,0.4117647058823529,111.556195607394,1578.894268024638,16.0,9.0,7.0,0.5625,824.3907554760796,127.32821138782174,23.0,12.0,11.0,0.5217391304347826,2346.4944370920775,47231.89917903515,18.0,5.0,13.0,0.2777777777777778,885.5830547691016,14439.025181528696,81.0,40.0,41.0,0.4938271604938271,99.93767166679888,12005.253848591852,0.0,0.0,0.0,0.0,61105.0,61122.0,61224.0,61240.0,61252.0,61275.0,61286.0,61304.0,61502.0,61580.0,0.07221114609640099,-0.11210394234960432,0.04923975863443881,-0.1858379155391799,0.008946321313520448
65,65,61998.29049383659,1499.7269032647805,4.90395105806094,62115.32180506671,-7631.583999204344,7.916957612670717,62147.79694107408,48963.69968450024,9.632198519816445,62175.178051898714,-4265.555068825038,22.93168860777651,62423.55119813446,10869.016512472474,30.609379791876044,0.9732529515962872,115.0,102.0,83.0,272.0,355.0,13.0,884.0,883.0,13.0,6.0,7.0,0.4615384615384615,114.43813077155338,1529.8116942292168,16.0,8.0,8.0,0.5,727.4392132382216,2511.919396410191,23.0,12.0,11.0,0.5217391304347826,2320.55996573793,44935.910779656275,20.0,5.0,15.0,0.25,839.7024034367454,14362.586513919898,78.0,39.0,39.0,0.5,85.99506590737789,11433.013472798924,0.0,0.0,0.0,0.0,61992.0,62005.0,62107.0,62123.0,62136.0,62159.0,62170.0,62190.0,62387.0,62462.0,0.07630597979034123,-0.09531955794682508,0.04739347681426363,-0.19685653798581584,0.007911945465231041
66,66,62907.62712438545,1699.2781783366686,7.829866272124555,63023.50676571619,-7331.592458713502,7.064104676287336,63055.47518584677,48605.30436925896,9.72842874405974,63082.60271279886,-4110.190107114264,20.383723206905582,63331.7535525679,11182.782229994526,32.1299982473507,0.9769759599447166,116.0,102.0,81.0,274.0,355.0,14.0,909.0,908.0,16.0,8.0,8.0,0.5,114.2203984199475,1953.4492635390015,15.0,8.0,7.0,0.5333333333333333,833.0536572567983,414.37146887057224,23.0,12.0,11.0,0.5217391304347826,2284.874982003769,46667.91290312538,19.0,5.0,14.0,0.2631578947368421,819.5062009514678,13772.68628345241,80.0,40.0,40.0,0.5,96.2323470143928,11765.10180096846,0.0,0.0,0.0,0.0,62900.0,62914.0,63016.0,63031.0,63043.0,63066.0,63078.0,63097.0,63293.0,63371.0,0.06721701006703426,-0.11362519970224542,0.04700875782291916,-0.19938401377907006,0.008605402934189117
67,67,63796.29147652159,1671.848346440578,7.787754056109689,63911.76899989151,-7038.26946651076,7.376377789665137,63943.89968270046,46815.5604626132,9.85496548580766,63971.60271279886,-4461.80261177648,15.634803624812868,64220.59668995,10727.299459637048,31.54447482362226,0.981182059101086,114.0,101.0,83.0,274.0,357.0,13.0,888.0,889.0,14.0,7.0,7.0,0.5,127.88668003657509,2031.6631046490645,16.0,9.0,7.0,0.5625,772.6676499792474,357.57603328421374,24.0,13.0,11.0,0.5416666666666666,2193.871324118125,44463.592292139496,19.0,5.0,14.0,0.2631578947368421,765.2373336186266,12976.603600692337,77.0,38.0,39.0,0.4935064935064935,82.42967971448688,11321.980691958564,0.0,0.0,0.0,0.0,63789.0,63802.0,63903.0,63919.0,63931.0,63955.0,63967.0,63986.0,64183.0,64260.0,0.07649418699300697,-0.10978091328496681,0.04686201131502304,-0.17150855835685322,0.007684103536462274
68,68,64637.14309669044,1360.2716806993562,9.67311359062498,64756.28479077146,-7124.824850428816,7.141183053308647,64788.480190728784,48541.473465688614,9.718649807612074,64816.753390998565,-3936.2515940007215,25.479654008185086,65063.61188154612,10708.177903717136,31.487564214917224,0.9780002819914092,120.0,102.0,83.0,271.0,354.0,18.0,842.0,844.0,18.0,9.0,9.0,0.5,99.944566690201,1720.0877226849748,16.0,8.0,8.0,0.5,731.1474564462001,1583.1139636864225,23.0,12.0,11.0,0.5217391304347826,2243.625200943395,46086.8605111999,20.0,6.0,14.0,0.3,731.8631480427612,12555.56828431841,79.0,40.0,39.0,0.5063291139240507,93.86692997032551,11588.26922058164,0.0,0.0,0.0,0.0,64628.0,64646.0,64748.0,64764.0,64776.0,64799.0,64811.0,64831.0,65025.0,65102.0,0.07347397443341357,-0.1026197095079741,0.04622078896161433,-0.18592895564861778,0.008765910579216416
69,69,65540.82883467262,1603.0702945507642,8.664270725690551,65658.12508759557,-7474.129548124863,6.933785164372198,65690.15357414183,49215.383204484206,9.622567616828068,65716.60271279886,-4046.027943315132,20.383723206912094,65966.87461197867,11207.261650293483,31.540599596242092,0.9795605142716592,116.0,102.0,80.0,276.0,356.0,14.0,905.0,902.0,16.0,8.0,8.0,0.5,120.12973310658188,1779.3516326698875,16.0,8.0,8.0,0.5,785.689065905305,1266.9008513834228,23.0,12.0,11.0,0.5217391304347826,2335.906047448839,46312.57488261182,19.0,5.0,14.0,0.2631578947368421,878.3732127093573,14410.17034106478,78.0,39.0,39.0,0.5,97.84851817800796,11983.914826074282,0.0,0.0,0.0,0.0,65534.0,65548.0,65650.0,65665.0,65678.0,65701.0,65712.0,65730.0,65929.0,66006.0,0.07493728348340856,-0.10512114632832684,0.04746292511313832,-0.21709519188086926,0.008730814112423761
70,70,66454.1494362994,1588.4229996764182,9.764829527377108,66570.82709761981,-7100.758450557497,6.94212157218592,66602.66607644719,47966.71029506635,9.705201940327395,66629.60271279886,-4516.0363964067365,10.7405150062967,66878.6181125692,11371.221071506689,33.213778608367186,0.9798070832891802,116.0,100.0,80.0,276.0,356.0,16.0,914.0,912.0,16.0,7.0,9.0,0.4375,108.01139288968204,1935.0758083938883,15.0,8.0,7.0,0.5333333333333333,799.0481854734263,266.7008955346382,24.0,13.0,11.0,0.5416666666666666,2337.0125986981575,45631.6557563152,18.0,5.0,13.0,0.2777777777777778,844.0170621856541,13574.114342939994,82.0,41.0,41.0,0.5,95.10197369342046,12313.648835011492,0.0,0.0,0.0,0.0,66447.0,66463.0,66563.0,66578.0,66590.0,66614.0,66625.0,66643.0,66839.0,66919.0,0.06799913682418683,-0.11252997704923919,0.048721552600169304,-0.1868933259389165,0.008363391503461416
71,71,67388.94504578605,1599.2380498063958,7.968138785653948,67504.2396136481,-7253.591958611351,7.056423569819582,67536.27927684033,48077.69512202824,9.721910268629594,67563.027373699,-4476.965013944961,13.443037115960076,67813.0297922334,11204.511623374066,32.61464055047873,0.9797889827471312,114.0,101.0,81.0,276.0,357.0,13.0,932.0,934.0,13.0,7.0,6.0,0.5384615384615384,114.70601797065864,1996.2363355372345,15.0,8.0,7.0,0.5333333333333333,761.1432978821553,1031.8324019735282,23.0,12.0,11.0,0.5217391304347826,2313.237602905771,46668.14531762901,20.0,5.0,15.0,0.25,891.414001862784,14505.317454462536,82.0,41.0,41.0,0.5,87.63622170699018,12029.061200979711,0.0,0.0,0.0,0.0,67382.0,67395.0,67496.0,67511.0,67524.0,67547.0,67559.0,67577.0,67774.0,67853.0,0.07172541822935302,-0.10493329404592959,0.048114569490788496,-0.19911122804984752,0.007821511963463864
72,72,68371.10244979673,1738.113973551409,10.105389973680532,68485.70080736674,-7072.677203313567,7.1295479563275315,68517.69361971514,47091.31885842208,9.747691639419724,68546.17805189872,-4258.249257762736,12.076176145230464,68795.95771874643,11788.94565541892,33.085226983562364,0.978062329521168,114.0,99.0,81.0,276.0,357.0,15.0,984.0,981.0,15.0,7.0,8.0,0.4666666666666667,115.31186531452832,2341.327038890565,15.0,8.0,7.0,0.5333333333333333,790.3310230658205,202.45556293721663,24.0,13.0,11.0,0.5416666666666666,2267.370100345338,45074.481074962,19.0,6.0,13.0,0.3157894736842105,745.8273301191961,12000.28566808167,80.0,40.0,40.0,0.5,111.02338872892888,12845.406465033717,0.0,0.0,0.0,0.0,68364.0,68379.0,68478.0,68493.0,68505.0,68529.0,68540.0,68559.0,68758.0,68835.0,0.066343097788298,-0.111744251907262,0.04814836694555283,-0.1751488193791291,0.009417584233064621
73,73,69272.66641996756,1575.5828126954575,10.03368274698347,69387.42402949468,-6722.008820812528,6.956741706857356,69419.23004903033,46778.33545714916,9.821640210672497,69449.17805189872,-4090.7045473959406,11.10965537735796,69695.58739609638,11470.302768293895,34.38359202543807,0.9796025039600752,115.0,100.0,83.0,275.0,358.0,15.0,899.0,902.0,19.0,10.0,9.0,0.5263157894736842,106.02704887150198,1806.866034486627,15.0,8.0,7.0,0.5333333333333333,725.2661833228011,536.0876047952288,24.0,13.0,11.0,0.5416666666666666,2204.2997684931925,46405.70987136834,20.0,7.0,13.0,0.35,670.9198997150254,10552.18755538992,84.0,42.0,42.0,0.5,94.04366984459072,12381.561306149622,0.0,0.0,0.0,0.0,69264.0,69279.0,69379.0,69394.0,69406.0,69430.0,69443.0,69462.0,69656.0,69737.0,0.06729385978139368,-0.10789426236354357,0.047122236115314964,-0.16401084261685908,0.008198882954035473
74,74,70162.4235014845,1521.4906278382832,5.049453539350518,70278.02522939055,-7545.970163858152,8.333556702313233,70310.53246196487,47477.88001967098,9.78109009177212,70336.60271279886,-5173.3251790680115,12.85055778880724,70588.12606736766,11229.22824709294,31.806755221455425,0.976613543559148,114.0,100.0,82.0,276.0,358.0,14.0,891.0,891.0,14.0,6.0,8.0,0.4285714285714285,118.00102377573566,1607.1394913109066,16.0,8.0,8.0,0.5,753.4696803083335,1886.4259811607767,23.0,13.0,10.0,0.5652173913043478,2304.8201371862865,44019.83869579426,20.0,5.0,15.0,0.25,909.308389765754,15174.778635904377,79.0,38.0,41.0,0.4810126582278481,94.5954917892815,11913.500884053004,0.0,0.0,0.0,0.0,70156.0,70170.0,70270.0,70286.0,70298.0,70321.0,70332.0,70352.0,70551.0,70628.0,0.07755619496873943,-0.09985060422278356,0.0485451358870985,-0.17576865135888642,0.00842404212540347
75,75,71091.66191409071,1739.7068241501834,10.498777843105287,71206.96331806059,-7038.576662131882,6.827974878869928,71238.73629910263,47549.30343215412,9.744820085753704,71265.60271279886,-4574.786653536516,11.3854702964879,71516.17247385657,11817.09558546702,32.86511436952812,0.9798055372172256,115.0,101.0,80.0,277.0,357.0,14.0,930.0,928.0,14.0,8.0,6.0,0.5714285714285714,109.1409710130717,2389.054051096365,15.0,8.0,7.0,0.5333333333333333,791.9901866383794,159.77587396623994,24.0,13.0,11.0,0.5416666666666666,2298.727240834529,45359.73102497118,19.0,5.0,14.0,0.2631578947368421,847.484808969984,13610.105051973973,81.0,40.0,41.0,0.4938271604938271,104.93309308469944,12695.855954051378,0.0,0.0,0.0,0.0,71084.0,71098.0,71199.0,71214.0,71226.0,71250.0,71261.0,71279.0,71478.0,71556.0,0.06273526636672543,-0.1125213554750851,0.048344078144372304,-0.18525122003554859,0.008879770187671915
76,76,72070.81954372278,1902.6396058793516,10.798072886658392,72183.3762836535,-7125.632414061376,6.862132581417361,72215.16845809075,47393.14564058364,9.69553503244484,72243.60271279886,-4331.750544558487,10.848223184417026,72493.76775255149,11944.415011150984,33.87262323041477,0.9828889426471954,112.0,90.0,80.0,279.0,359.0,22.0,979.0,977.0,22.0,8.0,14.0,0.3636363636363636,103.3449000470626,2451.586025747684,16.0,8.0,8.0,0.5,754.1394819737252,887.6724840834922,23.0,12.0,11.0,0.5217391304347826,2276.962082170405,46427.288549348435,18.0,6.0,12.0,0.3333333333333333,714.3304841629763,11336.647450423045,83.0,42.0,41.0,0.5060240963855421,92.26606199739594,12567.294632922336,0.0,0.0,0.0,0.0,72063.0,72085.0,72175.0,72191.0,72203.0,72226.0,72238.0,72255.0,72455.0,72534.0,0.05431659244752198,-0.10583474394294365,0.04804412223316529,-0.16490572963863606,0.007724619574190852
77,77,73016.57015797318,1570.0684877833833,9.276098045008103,73128.5645144743,-6682.546035819766,6.6226309099698515,73160.13913695967,46903.70123439652,9.754026301317053,73190.60271279886,-4084.9396016709848,12.365651290807165,73438.51508796777,11765.222010227568,33.92962757900283,0.9783858396973668,113.0,97.0,81.0,277.0,358.0,16.0,946.0,945.0,16.0,9.0,7.0,0.5625,105.6759492323936,2093.5195173105776,14.0,8.0,6.0,0.5714285714285714,822.386394278845,986.5172705698646,24.0,13.0,11.0,0.5416666666666666,2224.0981751384647,46119.93546079803,20.0,8.0,12.0,0.4,561.9416059752505,9139.048141377409,81.0,40.0,41.0,0.4938271604938271,89.58442700855782,12373.58433916769,0.0,0.0,0.0,0.0,73008.0,73024.0,73121.0,73135.0,73147.0,73171.0,73183.0,73202.0,73401.0,73479.0,0.06730658570288645,-0.12306483036116649,0.04741839378567927,-0.1375642385863876,0.007614342247913522
78,78,73891.07979299873,1576.6553188093717,10.275129698399818,74006.82087780723,-7023.545311584232,7.028568901232255,74038.6767535008,46745.438428470436,9.89026850162657,74066.17805189872,-4559.059609970002,13.488537353570916,74316.41346752962,11434.532007751875,32.96220840531592,0.9802691206698146,116.0,100.0,82.0,276.0,358.0,16.0,874.0,878.0,16.0,8.0,8.0,0.5,111.55060195969352,1932.903690495982,15.0,8.0,7.0,0.5333333333333333,802.0623667852318,119.3455787623684,24.0,13.0,11.0,0.5416666666666666,2201.3323937571336,43998.592774727746,21.0,5.0,16.0,0.238095238095238,811.0435634716206,13720.526441675796,83.0,42.0,41.0,0.5060240963855421,99.0815726660979,12289.19624770278,0.0,0.0,0.0,0.0,73883.0,73899.0,73999.0,74014.0,74026.0,74050.0,74061.0,74081.0,74278.0,74357.0,0.07075141955816454,-0.11419622586649456,0.047091918864459854,-0.17789711757617424,0.008665118309951555
79,79,74759.37697917511,1190.6931673830825,5.1617686688247595,74877.52491051385,-7362.6697238576835,7.94991055484698,74910.21393687197,49031.35176414152,9.653816577103292,74938.75339099858,-4279.12875670555,25.47965400864057,75188.95881659626,11218.05709250841,30.898677769669707,0.972298848275288,117.0,104.0,83.0,273.0,356.0,13.0,869.0,872.0,15.0,7.0,8.0,0.4666666666666667,96.73321608036484,1150.9030679035884,16.0,8.0,8.0,0.5,752.8315956066623,1741.7993704716905,23.0,12.0,11.0,0.5217391304347826,2298.669044956389,45679.08253912152,21.0,7.0,14.0,0.3333333333333333,707.6572810375078,12163.57051784017,78.0,40.0,38.0,0.5128205128205128,91.1273248638814,11619.826399478055,0.0,0.0,0.0,0.0,74753.0,74766.0,74870.0,74886.0,74898.0,74921.0,74932.0,74953.0,75151.0,75226.0,0.08124109445674076,-0.10224981207118644,0.04688161680742183,-0.16537415003663614,0.008123271624703854
80,80,75632.315138393,994.319812378332,4.491800285437105,75749.60168833584,-5748.92748382819,20.383723206912453,75783.43740735257,49555.580125312765,10.07712988919708,75808.45203459915,-5425.810772774522,15.28779240518434,76060.8785739173,11137.19178576619,30.00907984043782,0.9707420346917768,118.0,103.0,82.0,274.0,356.0,15.0,873.0,873.0,15.0,7.0,8.0,0.4666666666666667,94.65943291597104,882.9811432132706,17.0,8.0,9.0,0.4705882352941176,656.22260763061,3121.9397236252858,24.0,12.0,12.0,0.5,2312.7989013809265,46770.851939086555,22.0,3.0,19.0,0.1363636363636363,1087.560590647293,18380.589754748285,77.0,38.0,39.0,0.4935064935064935,92.88740804700709,11602.806460568438,0.0,0.0,0.0,0.0,75625.0,75640.0,75743.0,75759.0,75771.0,75795.0,75805.0,75825.0,76024.0,76099.0,0.09520018784454609,-0.11414696210320499,0.046670806709001866,-0.20044204197175905,0.00834028988938856
81,81,76502.25797456816,1211.8959816209324,5.818539048882831,76621.14664340785,-7074.752667241273,8.144088691606452,76653.71864105047,47912.88304568989,9.74729695247424,76683.75339099858,-4072.149740954854,25.47965400864057,76930.15391127199,10960.78414123996,30.738615475464716,0.9721611837974644,118.0,104.0,85.0,270.0,355.0,14.0,870.0,871.0,14.0,7.0,7.0,0.5,89.94710266132788,1236.4942860208544,16.0,8.0,8.0,0.5,696.156948497834,2091.33348448975,24.0,13.0,11.0,0.5416666666666666,2221.940327962229,43851.69150267988,22.0,8.0,14.0,0.3636363636363636,579.4925180324278,10164.069429897045,78.0,39.0,39.0,0.5,109.22534528490216,11613.418324564122,0.0,0.0,0.0,0.0,76495.0,76509.0,76613.0,76629.0,76641.0,76665.0,76676.0,76698.0,76893.0,76968.0,0.07422015092501753,-0.09840018177897564,0.04637459043830402,-0.14230628903556627,0.009965103215010112
82,82,77322.73777565076,1003.4085043497828,5.756678206770163,77441.34677794675,-6813.7719085505,7.853329788276409,77473.77497229262,47691.15331640427,9.886803719998555,77503.75339099858,-4082.4972545298633,25.47965400864057,77747.83487471325,10446.222712256178,31.66802847337552,0.9741804102268464,118.0,102.0,85.0,270.0,355.0,16.0,819.0,820.0,17.0,8.0,9.0,0.4705882352941176,79.51810603389502,885.2964506360246,16.0,8.0,8.0,0.5,690.1494410530254,1532.5290478142397,24.0,13.0,11.0,0.5416666666666666,2183.710033442056,44038.14517739412,23.0,8.0,15.0,0.3478260869565217,598.6443463766016,10635.59942974158,80.0,40.0,40.0,0.5,81.85754664341943,11094.16564443402,0.0,0.0,0.0,0.0,77315.0,77331.0,77433.0,77449.0,77461.0,77485.0,77497.0,77518.0,77709.0,77788.0,0.07924798891895324,-0.10128742938796752,0.04578857673989041,-0.14663680317539882,0.00783609050833072
83,83,78214.51875285253,1423.4668945749918,4.966230282527718,78332.07780497255,-7793.162425915701,7.514721431806651,78364.14983514689,48034.13912752868,9.721487182758269,78388.45203459915,-5150.541599842152,13.04315622284786,78640.27591274092,11153.897853671497,31.99469370364237,0.9778479228829352,116.0,103.0,81.0,274.0,355.0,13.0,893.0,889.0,13.0,7.0,6.0,0.5384615384615384,127.0442488598794,1437.1225438492563,16.0,8.0,8.0,0.5,787.4394788165101,1467.1430094535665,23.0,12.0,11.0,0.5217391304347826,2342.7546694386797,45769.47392397128,21.0,3.0,18.0,0.1428571428571428,1130.3290713449198,18276.243262333028,80.0,40.0,40.0,0.5,96.55861880337628,12093.03159994959,0.0,0.0,0.0,0.0,78208.0,78221.0,78324.0,78340.0,78352.0,78375.0,78385.0,78405.0,78602.0,78679.0,0.08924987953289307,-0.10104235428199555,0.048772700250102566,-0.21945829374129525,0.008656939490582868
84,84,79133.86948416918,1557.3040134027224,4.937663201592224,79250.09877634305,-7476.789210547568,7.532427880027476,79282.38369309543,49353.41815833263,9.606129378748484,79308.60271279886,-4123.059605814005,20.383723206911952,79558.44016914,11666.49403953787,31.768297813384574,0.975973918947448,115.0,102.0,81.0,274.0,355.0,13.0,918.0,918.0,14.0,7.0,7.0,0.5,121.04263209671404,1575.1977839068186,16.0,8.0,8.0,0.5,748.5495244225433,1731.8007206604598,23.0,12.0,11.0,0.5217391304347826,2346.8509033297614,46920.42503808382,19.0,5.0,14.0,0.2631578947368421,892.9067854917715,14853.968137244212,81.0,40.0,41.0,0.4938271604938271,100.3677660438622,12417.46891709106,0.0,0.0,0.0,0.0,79127.0,79140.0,79242.0,79258.0,79270.0,79293.0,79304.0,79323.0,79521.0,79597.0,0.07772575621392953,-0.10011644080677817,0.04755194251795767,-0.21656412248628823,0.008603078671597037
85,85,80063.56112558644,1845.9182559219687,11.886230957629804,80179.83311389474,-6960.1512608086805,6.88797529083855,80211.3789809629,47271.38800339011,9.760651028095744,80238.60271279886,-4319.44483434804,10.141578666501598,80488.30729285387,11826.827419147628,33.52807357766903,0.9812429183285922,116.0,98.0,80.0,277.0,357.0,18.0,929.0,930.0,18.0,8.0,10.0,0.4444444444444444,111.92113599329916,2128.0474383738947,15.0,8.0,7.0,0.5333333333333333,806.2624735864507,309.75556398463095,24.0,12.0,12.0,0.5,2279.267186465869,47325.205032412974,18.0,5.0,13.0,0.2777777777777778,807.0155044552849,12876.2267845405,83.0,41.0,42.0,0.4939759036144578,98.89095312694552,12562.684626174369,0.0,0.0,0.0,0.0,80056.0,80074.0,80172.0,80187.0,80199.0,80222.0,80234.0,80252.0,80449.0,80529.0,0.06063168595588684,-0.11583979189164538,0.04821663341686539,-0.18683315458457353,0.008361579113502672
86,86,80957.70788708198,1493.433333016589,5.763276807639185,81073.56334698512,-7345.509543766981,8.746413817555727,81106.27412912983,47044.18182188809,9.97101841746336,81131.45203459915,-5246.2075043913665,15.28779240518434,81384.99220926965,10935.348584875748,30.691505089486224,0.9765326466920058,114.0,100.0,84.0,274.0,358.0,14.0,895.0,895.0,14.0,7.0,7.0,0.5,113.51561008760596,1558.606671262218,17.0,9.0,8.0,0.5294117647058824,774.9734931912064,1456.9902538162169,24.0,13.0,11.0,0.5416666666666666,2225.2594878229324,45034.522534387,23.0,3.0,20.0,0.1304347826086956,1011.3652952819552,16999.9408351335,77.0,38.0,39.0,0.4935064935064935,113.74526911533388,11648.636704678982,0.0,0.0,0.0,0.0,80951.0,80965.0,81065.0,81082.0,81093.0,81117.0,81128.0,81149.0,81348.0,81423.0,0.07600982754169251,-0.10550302719963231,0.04730148132340551,-0.19278026925839026,0.01040161346778195
87,87,81817.62329305467,1198.8025001040862,5.704628916747102,81935.02737378997,-5899.578714315388,17.835757806043215,81968.89060809778,49144.67069349418,10.032626799856882,81996.17805189872,-5172.739402780513,22.93168860777651,82246.5417832781,10906.14256296413,30.760005673874858,0.9717917635079067,117.0,103.0,86.0,271.0,357.0,14.0,859.0,863.0,16.0,8.0,8.0,0.5,109.94538054187193,991.1747286956912,18.0,8.0,10.0,0.4444444444444444,617.2042887201477,3503.835346075567,23.0,12.0,11.0,0.5217391304347826,2262.6061969155658,44989.35588951792,23.0,5.0,18.0,0.217391304347826,852.5638636621842,15341.475532585957,78.0,39.0,39.0,0.5,100.76572938599116,11684.558510651788,0.0,0.0,0.0,0.0,81811.0,81825.0,81928.0,81945.0,81957.0,81980.0,81991.0,82014.0,82208.0,82285.0,0.09171267204758574,-0.10461836660005826,0.04603970613674479,-0.16481863810960665,0.009239355602060323
88,88,82728.3727544307,1445.404167864523,8.243218715489908,82845.83783335138,-7476.582280953853,7.185627431697621,82877.75701550358,47591.431890024505,9.747966683510535,82903.027373699,-5037.205305514543,11.248120273055298,83154.65722386196,11431.73247723218,32.84409761904999,0.97707972398273,116.0,101.0,81.0,277.0,358.0,15.0,912.0,908.0,15.0,7.0,8.0,0.4666666666666667,119.12195839359804,1573.7021327228658,16.0,9.0,7.0,0.5625,807.1064223145459,588.3804560242706,24.0,13.0,11.0,0.5416666666666666,2328.591028637888,45143.48652198318,20.0,4.0,16.0,0.2,1006.6292574542816,16401.1309099838,82.0,42.0,40.0,0.5121951219512195,97.56231242551894,12134.170714761158,0.0,0.0,0.0,0.0,82721.0,82736.0,82837.0,82853.0,82865.0,82889.0,82899.0,82918.0,83116.0,83195.0,0.0824142900940931,-0.10795125258911431,0.0489287868879183,-0.19983883848297024,0.008534341808630257
89,89,83665.90417517014,1551.220579069381,4.789710176524444,83781.87252575908,-7621.90264422649,7.528513867753404,83814.45595896532,48577.07993527075,9.693875713168037,83840.027373699,-4740.354846206839,17.83575780601463,84094.95881659626,11327.480629325772,31.26726339717958,0.973196443930119,115.0,101.0,82.0,276.0,358.0,14.0,938.0,937.0,14.0,7.0,7.0,0.5,128.5657939825276,1447.756032878215,16.0,8.0,8.0,0.5,764.5426714595312,1791.8294707995506,23.0,12.0,11.0,0.5217391304347826,2312.1390433136694,46182.77683636955,21.0,4.0,17.0,0.1904761904761904,974.606316305682,16319.22865840787,81.0,43.0,38.0,0.5308641975308642,108.52649152737108,11747.53941672689,0.0,0.0,0.0,0.0,83659.0,83673.0,83774.0,83790.0,83802.0,83825.0,83836.0,83856.0,84056.0,84132.0,0.08288040767203957,-0.10030863777021137,0.04759732463117603,-0.20559775542658948,0.009580814576403363
90,90,84584.65171309996,1903.9280240760445,11.926748121535,84702.87449743401,-6878.6502263688535,6.770693553021004,84734.47646631241,47090.27534290157,9.82007408512589,84763.17805189872,-4350.559211989664,13.473608542087977,85012.82046298734,11596.86771527122,32.97822859689023,0.9807129669052336,118.0,101.0,82.0,276.0,358.0,17.0,919.0,920.0,17.0,8.0,9.0,0.4705882352941176,120.0852013625676,2235.7436617341264,15.0,8.0,7.0,0.5333333333333333,810.6158340273178,365.97293794547886,24.0,12.0,12.0,0.5,2226.388534689382,46505.1505998285,20.0,6.0,14.0,0.3,737.5256161327867,12272.869246369211,81.0,41.0,40.0,0.5061728395061729,108.21706829810428,12252.702761318857,0.0,0.0,0.0,0.0,84577.0,84594.0,84695.0,84710.0,84722.0,84746.0,84758.0,84777.0,84974.0,85053.0,0.06307234298987938,-0.11784518871447704,0.047279157288363356,-0.1695243255396334,0.00933157736684361
91,91,85437.90981990694,1423.302292020519,7.673202465816052,85557.6173512786,-6945.859589692445,7.634292756011104,85589.72754184151,46339.38032819055,9.938146821708688,85617.75339099858,-4462.078349357837,12.393627461457235,85866.89838247062,11050.803999109909,32.383048242900514,0.9777489710822204,121.0,103.0,82.0,274.0,356.0,18.0,853.0,856.0,18.0,9.0,9.0,0.5,93.19910505367837,1359.7903076000423,15.0,8.0,7.0,0.5333333333333333,780.271192576559,64.3512101992983,24.0,13.0,11.0,0.5416666666666666,2182.9183200088964,44282.899456944135,21.0,6.0,15.0,0.2857142857142857,744.8263667369799,12441.544183378355,81.0,41.0,40.0,0.5061728395061729,96.21920600429942,11781.033927292172,0.0,0.0,0.0,0.0,85429.0,85447.0,85550.0,85565.0,85577.0,85601.0,85612.0,85632.0,85828.0,85906.0,0.06548089297416432,-0.11233615976551989,0.04710719704382665,-0.1669236415008652,0.008706986931634063
92,92,86313.48793813707,1252.5383375029116,8.315127780747627,86433.36663291683,-7325.568490196761,7.357438404329115,86465.67369439686,47460.20208373119,9.66085217589546,86494.17805189872,-4371.05683322103,13.081321100483862,86743.53415569612,11318.880359691808,31.6490269262701,0.9743258772808328,119.0,101.0,82.0,275.0,357.0,18.0,877.0,875.0,18.0,7.0,11.0,0.3888888888888889,85.96360420696922,1111.005646736891,16.0,8.0,8.0,0.5,727.4299495645599,1689.2677894821545,24.0,13.0,11.0,0.5416666666666666,2290.689108419327,44917.40462878187,19.0,6.0,13.0,0.3157894736842105,750.9414898790673,12204.806624952933,79.0,40.0,39.0,0.5063291139240507,96.05800402980732,11853.737688902536,0.0,0.0,0.0,0.0,86306.0,86324.0,86425.0,86441.0,86453.0,86477.0,86488.0,86507.0,86706.0,86782.0,0.06863151540602595,-0.09930013630177957,0.04826547313005541,-0.1717986103890804,0.008486528788826496
93,93,87234.31147654407,1473.4477967965556,9.68629562103786,87353.19281446598,-7232.529124968448,8.365965099361839,87386.30662684578,49041.6772420029,9.719924391687847,87413.17805189872,-4337.274694469215,22.93168860777651,87665.26035200714,11308.107405950585,30.833286871515305,0.9760533621210984,119.0,102.0,83.0,274.0,357.0,17.0,920.0,921.0,17.0,7.0,10.0,0.4117647058823529,93.2227894853158,1588.3279984327824,17.0,8.0,9.0,0.4705882352941176,681.295007455692,2573.999425675846,23.0,12.0,11.0,0.5217391304347826,2308.831693253362,46280.9935206042,22.0,5.0,17.0,0.2272727272727272,884.1840834700453,15019.41441932694,77.0,38.0,39.0,0.4935064935064935,94.1614981188679,11992.163672403603,0.0,0.0,0.0,0.0,87227.0,87244.0,87346.0,87362.0,87374.0,87397.0,87408.0,87429.0,87629.0,87703.0,0.06326847119252738,-0.09419872297557658,0.04707897084881731,-0.2038570636527898,0.008326901641323107
94,94,88169.4936996753,1825.6844655400057,12.359158276835604,88288.72618201854,-7156.286454621497,6.777096096110755,88320.29941955855,47753.255700326794,9.805260106362011,88347.027373699,-4484.6145979493585,10.617873397610982,88600.53415569612,12028.98237865732,32.97102294608397,0.9778138111254976,117.0,99.0,81.0,278.0,359.0,18.0,937.0,934.0,18.0,6.0,12.0,0.3333333333333333,118.0034311031212,2083.2334112738336,16.0,9.0,7.0,0.5625,849.7318309241392,379.8477692429324,23.0,12.0,11.0,0.5217391304347826,2284.5294036131427,47065.74058132914,19.0,4.0,15.0,0.2105263157894736,911.4683441010816,14271.334315063472,84.0,45.0,39.0,0.5357142857142857,106.2627716077286,12112.835191327738,0.0,0.0,0.0,0.0,88163.0,88181.0,88280.0,88296.0,88308.0,88331.0,88343.0,88361.0,88559.0,88639.0,0.06463517290662701,-0.1187392142995319,0.04784028586343085,-0.20324340569150823,0.008833895358951361
95,95,89053.97536950474,1407.2021800753184,7.71157619616825,89173.4308460669,-7184.351003065759,7.23202894836881,89205.54122470313,47341.349699887855,9.80595582747705,89236.60271279886,-4015.382434137035,20.383723206912453,89482.89570839518,11006.535975553274,31.93083073493013,0.97592755322737,120.0,102.0,83.0,273.0,356.0,18.0,883.0,885.0,18.0,9.0,9.0,0.5,93.46550024082276,1395.5911476443066,16.0,8.0,8.0,0.5,735.0089196712096,1418.5788388546662,24.0,13.0,11.0,0.5416666666666666,2180.010042817451,43334.53246962725,21.0,9.0,12.0,0.4285714285714285,501.928164544693,8518.271327276529,80.0,40.0,40.0,0.5,91.50807086972604,11704.867983206765,0.0,0.0,0.0,0.0,89045.0,89063.0,89165.0,89181.0,89193.0,89217.0,89228.0,89248.0,89446.0,89521.0,0.06641938277541622,-0.10230693341090395,0.04604875139042804,-0.12500133493575058,0.00831397553898661
96,96,89887.12330450071,953.7056432569312,5.014160636279957,90005.02737410854,-5411.70347254206,17.8357578060484,90039.70248297382,49049.28892351141,10.110246675900136,90067.75339099858,-4629.809181052991,25.47965400864057,90317.53415569612,10658.686658571269,30.923019707544455,0.970014509460628,119.0,104.0,84.0,273.0,357.0,15.0,830.0,835.0,15.0,7.0,8.0,0.4666666666666667,73.56642505603199,869.3933407182965,18.0,7.0,11.0,0.3888888888888889,556.0798209191788,3739.107182625007,24.0,13.0,11.0,0.5416666666666666,2209.2225672605623,44638.962496995344,22.0,6.0,16.0,0.2727272727272727,781.3347091100845,13702.15079881435,79.0,40.0,39.0,0.5063291139240507,93.65197555991126,11156.43278722393,0.0,0.0,0.0,0.0,89880.0,89895.0,89999.0,90015.0,90027.0,90051.0,90062.0,90083.0,90279.0,90356.0,0.077137453863438,-0.10275504261100421,0.045040868394762554,-0.1687617520626152,0.008786446075380242
97,97,90756.7610914207,1410.4689578016005,10.460672256962525,90877.518666691,-7282.59394192252,7.056191706856852,90909.38689730756,47678.823741568995,9.818966076782491,90934.45203459916,-5082.812399268116,10.831738702723356,91187.53415569612,11409.617083027164,32.424107187623775,0.9785050447168896,122.0,100.0,80.0,277.0,357.0,22.0,870.0,869.0,23.0,11.0,12.0,0.4782608695652174,81.96273328109662,1257.0740768951068,16.0,9.0,7.0,0.5625,841.9251616808386,75.92984707591813,23.0,12.0,11.0,0.5217391304347826,2311.903398065291,47002.35064023986,20.0,3.0,17.0,0.15,1068.4950152769209,17149.636810714488,81.0,42.0,39.0,0.5185185185185185,98.13244557292388,12002.432398221064,0.0,0.0,0.0,0.0,90747.0,90769.0,90869.0,90885.0,90897.0,90920.0,90931.0,90949.0,91147.0,91226.0,0.05811027093346755,-0.1156078683495266,0.04848910305749946,-0.210217283532002,0.008600853548267168
98,98,91702.82133081798,1674.952449513035,13.568997993372776,91822.36840085784,-7189.385720961059,6.784431383781015,91854.1203998821,47583.01187991314,9.700418542343192,91880.60271279886,-4484.330214579862,9.722727378542004,92133.10949479598,11657.409335589788,33.33898252624894,0.9782093962748458,118.0,99.0,79.0,280.0,359.0,19.0,951.0,944.0,19.0,7.0,12.0,0.3684210526315789,106.7723772276055,1904.591135482307,15.0,8.0,7.0,0.5333333333333333,768.427686886353,926.6371483458992,23.0,12.0,11.0,0.5217391304347826,2311.87364171942,46731.55547149104,17.0,5.0,12.0,0.2941176470588235,881.9234224117491,13917.443455602755,84.0,43.0,41.0,0.5119047619047619,106.0561452126219,12516.718740142604,0.0,0.0,0.0,0.0,91696.0,91715.0,91814.0,91829.0,91842.0,91865.0,91876.0,91893.0,92091.0,92173.0,0.06374651248078585,-0.10688363605891374,0.04858611404326346,-0.19666781441392509,0.009097745661965825
99,99,92675.97774363462,1682.2377085180133,11.23962831313763,92790.93444372842,-7031.75967127973,7.071158384197093,92822.97875455437,46884.97014715245,9.801336682125164,92850.60271279886,-4598.9972567776595,10.67881826352653,93101.62006746432,11664.30924692892,33.42535215696593,0.979896547345221,115.0,100.0,80.0,279.0,359.0,15.0,970.0,970.0,15.0,8.0,7.0,0.5333333333333333,124.2149555755911,2326.6264365534435,15.0,8.0,7.0,0.5333333333333333,771.9938135695328,334.3891981866327,24.0,13.0,11.0,0.5416666666666666,2249.1434787957705,45524.20026111075,19.0,6.0,13.0,0.3157894736842105,791.9602496372521,12597.707907115871,85.0,43.0,42.0,0.5058823529411764,96.78598360353548,12281.987786756496,0.0,0.0,0.0,0.0,92668.0,92683.0,92783.0,92798.0,92810.0,92834.0,92846.0,92863.0,93063.0,93142.0,0.07383912210897929,-0.10978671764375522,0.047971524173666805,-0.1722028097473031,0.008297618106191597
100,100,94368.47183821816,1069.254907414295,6.598469124909862,94487.02842007628,-5792.774349906656,17.8357578060484,94521.08234582236,49137.403700719704,10.038919007700214,94547.60271279886,-4853.07126204698,20.383723206912453,94799.38927329009,11136.073232314802,30.83912468565122,0.9726148161370712,119.0,103.0,85.0,272.0,357.0,16.0,1692.0,1698.0,16.0,7.0,9.0,0.4375,81.41657565623474,1099.614017715095,18.0,8.0,10.0,0.4444444444444444,618.653538305227,3468.3663413838367,23.0,12.0,11.0,0.5217391304347826,2268.9315912976645,45703.37091383308,23.0,5.0,18.0,0.217391304347826,875.2377315414345,15213.766968351803,78.0,39.0,39.0,0.5,88.35180720980091,11784.794668714949,0.0,0.0,0.0,0.0,94361.0,94377.0,94480.0,94497.0,94509.0,94532.0,94543.0,94565.0,94761.0,94837.0,0.07614327985935439,-0.1067974516071381,0.04617524371285477,-0.18034718310982875,0.007933838559306568
101,101,95299.90483311634,1637.6288281456343,9.27934315625018,95415.6277280818,-7171.006560911545,6.8683305709586655,95447.34552744104,47380.41822009647,9.724094325793738,95473.60271279886,-4768.193738768836,11.588347839657668,95727.95881659626,11529.164182548457,31.37595121633013,0.9778382041646534,116.0,99.0,80.0,278.0,358.0,17.0,932.0,925.0,17.0,9.0,8.0,0.5294117647058824,116.21036843999694,2109.388559489215,16.0,9.0,7.0,0.5625,832.6017100167478,96.27914251638094,23.0,12.0,11.0,0.5217391304347826,2306.9376740352573,46575.46996465222,20.0,5.0,15.0,0.25,886.4354934418948,14498.727916516818,81.0,43.0,38.0,0.5308641975308642,94.7254124243397,11898.214708616691,0.0,0.0,0.0,0.0,95291.0,95308.0,95407.0,95423.0,95435.0,95458.0,95469.0,95487.0,95689.0,95765.0,0.07096258104566193,-0.11610667246564495,0.04868968575411954,-0.18590593042278009,0.00821615608247858
102,102,96241.09791138,1700.529680619847,10.357840380663276,96358.29767278075,-7080.816043647072,6.945748650066053,96389.99144852336,47525.07412260943,9.747156645395991,96416.60271279886,-4668.114467167497,10.096806605874148,96668.78875710454,11969.795735971164,33.28717029165205,0.9791379493439808,116.0,100.0,80.0,279.0,359.0,16.0,939.0,943.0,16.0,7.0,9.0,0.4375,112.14750207327914,1952.2434855799115,15.0,8.0,7.0,0.5333333333333333,766.5828131353759,548.7846486608605,23.0,12.0,11.0,0.5217391304347826,2307.910501153384,46451.07947542549,18.0,5.0,13.0,0.2777777777777778,876.9676076813151,14070.33383728808,82.0,41.0,41.0,0.5,97.54186959503323,12794.005612629817,0.0,0.0,0.0,0.0,96234.0,96250.0,96350.0,96365.0,96378.0,96401.0,96412.0,96430.0,96630.0,96709.0,0.06594857081965257,-0.10826193032131602,0.04856195479462547,-0.18786334693575724,0.00814900034608813
103,103,97158.66191082408,1495.6524020074637,4.1674711642633575,97274.8302628051,-7245.131176851773,8.592076650982415,97307.49915673492,47691.76249414967,9.856387907822755,97335.17805189872,-4475.315628464194,22.93168860777651,97586.56085640662,11109.581405918843,30.83349145342054,0.9721379214890916,114.0,102.0,84.0,273.0,357.0,12.0,919.0,918.0,12.0,6.0,6.0,0.5,112.601174600212,1428.826706411418,16.0,8.0,8.0,0.5,735.0211384684109,1970.145116710582,23.0,12.0,11.0,0.5217391304347826,2216.296544803249,45582.82886142152,21.0,5.0,16.0,0.238095238095238,807.7258843641987,14028.293228884148,78.0,40.0,38.0,0.5128205128205128,104.31804937958186,11752.56785510906,0.0,0.0,0.0,0.0,97153.0,97165.0,97267.0,97283.0,97295.0,97318.0,97330.0,97351.0,97550.0,97624.0,0.07528565758265676,-0.10145035618082482,0.04647126524365967,-0.1804846744723094,0.009389917186619148
104,104,97989.06628126092,1310.7543961957508,7.625305777557997,98109.51016297728,-6926.134946821584,7.593153550837716,98141.6886802663,47139.25668634113,9.958568669695977,98169.17805189872,-3980.980521400535,22.93168858675431,98419.61203162372,10939.51134767189,31.70442655230271,0.9770681072784207,122.0,104.0,84.0,272.0,356.0,18.0,830.0,834.0,18.0,9.0,9.0,0.5,95.94032471372172,1289.3101511596644,15.0,8.0,7.0,0.5333333333333333,782.6729603189605,249.37806358580156,23.0,13.0,10.0,0.5652173913043478,2141.500240808229,43437.11398498734,22.0,5.0,17.0,0.2272727272727272,803.6798560873159,13759.302382001226,79.0,40.0,39.0,0.5063291139240507,97.21340737210848,11674.723616357576,0.0,0.0,0.0,0.0,97980.0,97998.0,98102.0,98117.0,98129.0,98152.0,98164.0,98186.0,98383.0,98458.0,0.07319473807768469,-0.113002845934749,0.04542923226510573,-0.2018798765196108,0.00888644878939653
105,105,98835.8414516154,1082.5625341429593,6.060122048324743,98956.4877454339,-7332.71880693253,7.620618607278759,98988.84976146717,48625.75507389891,9.664801201617186,99015.17805189872,-4295.905829419246,22.93168860777639,99265.94541146269,11176.74233619237,31.42088656312471,0.9725924959138712,119.0,105.0,82.0,275.0,357.0,14.0,847.0,847.0,15.0,8.0,7.0,0.5333333333333333,85.60326194221442,805.8723440897122,17.0,8.0,9.0,0.4705882352941176,700.2630390919687,2271.795633764312,24.0,13.0,11.0,0.5416666666666666,2287.005025410815,44382.18747667645,22.0,5.0,17.0,0.2272727272727272,929.2222159519166,15556.922967955274,79.0,39.0,40.0,0.4936708860759494,91.80109620318702,11930.445695085808,0.0,0.0,0.0,0.0,98829.0,98843.0,98948.0,98964.0,98976.0,99000.0,99010.0,99030.0,99229.0,99305.0,0.07907465780716734,-0.09549841709870602,0.04703279202420904,-0.2163041399996275,0.008213582584427843
106,106,99732.4343900588,1626.6264271435823,12.678330305269174,99855.28363432936,-7134.175393453854,7.329636759058674,99887.31320780065,47279.52165508256,9.693878672852104,99913.60271279886,-4743.930375354585,10.942729550194665,100165.35222758575,11436.26787414199,32.68693031942827,0.97940937220647,126.0,102.0,80.0,278.0,358.0,24.0,898.0,899.0,35.0,20.0,15.0,0.5714285714285714,78.82957215184855,1682.8784033514344,16.0,8.0,8.0,0.5,734.6201698785891,1280.9901330036355,23.0,12.0,11.0,0.5217391304347826,2309.189542700646,46482.94992109875,19.0,5.0,14.0,0.2631578947368421,884.1059181156164,14409.02165085452,81.0,40.0,41.0,0.4938271604938271,109.82088228260218,12367.55205651863,0.0,0.0,0.0,0.0,99721.0,99745.0,99847.0,99863.0,99875.0,99898.0,99909.0,99927.0,100126.0,100205.0,0.048462001376847336,-0.10297198055330385,0.04884122050867678,-0.18636570273220632,0.009602860259238335
107,107,100644.85589242273,1366.795710005135,4.945338452932697,100760.71559564686,-7289.739068734758,8.112891827717489,100793.32597423988,47759.30604992902,9.710861217150716,100823.17805189872,-4085.3738757297624,22.93168860777651,101071.87456183833,10743.998961536476,30.70169423440774,0.9707496427546968,115.0,101.0,83.0,274.0,357.0,14.0,912.0,906.0,14.0,7.0,7.0,0.5,107.5046582002698,1371.3868521777265,16.0,8.0,8.0,0.5,745.8087164092937,1697.2831990413815,23.0,12.0,11.0,0.5217391304347826,2244.2020427642196,45501.694068381265,20.0,7.0,13.0,0.35,637.0337918373259,10985.277268616832,77.0,38.0,39.0,0.4935064935064935,87.07693059493722,11321.15308723708,0.0,0.0,0.0,0.0,100638.0,100652.0,100753.0,100769.0,100781.0,100804.0,100816.0,100836.0,101035.0,101110.0,0.07865451831120095,-0.10230938437947955,0.04698983775890845,-0.15593035330788024,0.008104703928832523
108,108,101472.16794510114,1276.0018612299832,8.787927351702438,101593.22002610602,-6849.605917812512,7.095352109431059,101625.09812447365,47439.167025584626,9.94539976060983,101653.7533909986,-3966.87354199375,25.4796540080034,101902.56150808845,10778.417455803552,32.22614601613862,0.9773907369707892,122.0,101.0,84.0,272.0,356.0,21.0,825.0,832.0,24.0,11.0,13.0,0.4583333333333333,76.74675740477248,1053.2058801557896,15.0,8.0,7.0,0.5333333333333333,745.3700395905973,743.0055508925734,24.0,13.0,11.0,0.5416666666666666,2141.5206630781745,44388.994920313555,21.0,6.0,15.0,0.2857142857142857,696.5476228739935,12016.938870339627,79.0,40.0,39.0,0.5063291139240507,98.09520523395584,11401.911975011972,0.0,0.0,0.0,0.0,101463.0,101484.0,101585.0,101600.0,101612.0,101636.0,101648.0,101669.0,101866.0,101941.0,0.06014627387047349,-0.10881940487295048,0.04514245922410951,-0.1755910833809713,0.009101076817277778
109,109,102287.99975830509,743.2391019995974,5.291702475872239,102407.541685172,-6050.117779448031,17.8357578060484,102441.31187929954,48435.80299014668,10.132175208390038,102467.027373699,-5852.77926407221,17.8357578060484,102718.30398244536,10402.227114798918,30.553581934519325,0.9682986487667063,120.0,104.0,86.0,270.0,356.0,16.0,819.0,816.0,16.0,8.0,8.0,0.5,69.24838071002259,672.953047681269,17.0,8.0,9.0,0.4705882352941176,667.2312088512022,2984.9210350943367,23.0,12.0,11.0,0.5217391304347826,2248.7669704901323,45266.12060310879,24.0,4.0,20.0,0.1666666666666666,962.4896277325925,17153.581806742848,79.0,40.0,39.0,0.5063291139240507,88.51922585614496,11028.82573327837,0.0,0.0,0.0,0.0,102280.0,102296.0,102400.0,102417.0,102429.0,102452.0,102463.0,102486.0,102680.0,102756.0,0.09317106772735444,-0.1102840032499459,0.04642778340946675,-0.16445001328529815,0.008509641721839689
110,110,103198.50048546056,1287.5844820014313,8.402575253870117,103318.39225047696,-7569.234644576904,7.970528024867757,103351.0315493041,48445.10476671813,9.639153413170146,103377.027373699,-4487.911851477189,17.835757805960625,103628.87916069756,11180.64117043193,32.132255663067305,0.9737588276385596,118.0,101.0,81.0,277.0,358.0,17.0,910.0,909.0,17.0,7.0,10.0,0.4117647058823529,90.04768902364054,1254.2336423812883,17.0,8.0,9.0,0.4705882352941176,701.86923363377,2387.0602044485076,23.0,12.0,11.0,0.5217391304347826,2328.662820048448,45468.42870418315,19.0,4.0,15.0,0.2105263157894736,942.6535117811784,15624.252642413585,80.0,40.0,40.0,0.5,92.79613920987411,11850.241977834248,0.0,0.0,0.0,0.0,103192.0,103209.0,103310.0,103326.0,103339.0,103362.0,103373.0,103391.0,103591.0,103668.0,0.06993536368477331,-0.09272657891992225,0.04806807274464279,-0.21004278670734264,0.008299715355795576
111,111,104113.8884969296,1535.7835633189798,8.196372159574967,104231.70080172837,-7429.184948065894,7.206543024035873,104263.86059799355,49071.836231057016,9.69287995213327,104290.60271279886,-4229.754580121539,20.38372320603782,104541.94758838338,11164.847808261447,31.295815006105684,0.9771727535047,116.0,101.0,82.0,275.0,357.0,15.0,913.0,913.0,16.0,8.0,8.0,0.5,108.31871022721076,1618.4559831688075,16.0,9.0,7.0,0.5625,797.5318289725154,884.3053710494678,24.0,13.0,11.0,0.5416666666666666,2318.7796039222326,45338.72953356858,20.0,5.0,15.0,0.25,846.05059598238,14013.180485212031,78.0,39.0,39.0,0.5,99.53171051444308,11583.243651787596,0.0,0.0,0.0,0.0,104107.0,104122.0,104223.0,104239.0,104251.0,104275.0,104286.0,104305.0,104505.0,104580.0,0.07052993196067507,-0.1073511878554247,0.04725275803832062,-0.20002356636920274,0.008914739566874743
112,112,104984.23763957892,1118.1570337493415,6.6141697850229555,105103.61593613254,-7305.085975935243,8.44188390032314,105136.30551499432,47449.90764215859,9.911795563095945,105163.60271279886,-4658.213774483519,20.383723206912453,105413.90484965532,10883.741674070823,31.357632676187304,0.972602879943996,119.0,102.0,85.0,273.0,358.0,17.0,873.0,873.0,17.0,8.0,9.0,0.4705882352941176,97.53965997665829,1061.323468531256,17.0,9.0,8.0,0.5294117647058824,751.0702997998834,1403.1282638614962,24.0,13.0,11.0,0.5416666666666666,2195.045564392858,45048.32856749869,23.0,6.0,17.0,0.2608695652173913,777.4638936774071,13695.398755923983,80.0,41.0,39.0,0.5125,99.55280705711252,11583.83764490564,0.0,0.0,0.0,0.0,104976.0,104993.0,105095.0,105112.0,105123.0,105147.0,105159.0,105180.0,105374.0,105453.0,0.08723252372664846,-0.10281471050088861,0.04626027053512303,-0.166901720555667,0.009146928513958104
113,113,105807.41765675046,1148.7354999322715,6.819841645948436,105929.03547148692,-7615.176825767205,8.097026434331957,105961.53613269956,48041.98715062274,9.821628012788198,105987.60271279886,-5225.938600200266,20.383723206912453,106238.7597619056,10299.61487183711,30.46019065687127,0.9750621278240748,121.0,105.0,84.0,272.0,356.0,16.0,823.0,825.0,17.0,7.0,10.0,0.4117647058823529,88.20559311210042,1170.4228276837937,16.0,8.0,8.0,0.5,748.5854872928043,2052.783351785262,23.0,13.0,10.0,0.5652173913043478,2241.135779803543,42816.91885661407,23.0,5.0,18.0,0.217391304347826,890.5415752074856,15728.803584243433,79.0,40.0,39.0,0.5063291139240507,96.6965496156628,10792.313172004611,0.0,0.0,0.0,0.0,105800.0,105816.0,105921.0,105937.0,105949.0,105972.0,105983.0,106005.0,106200.0,106277.0,0.07678494580980648,-0.09830178660590545,0.046649522901229375,-0.17040796751292844,0.009388365566955936
114,114,106712.70422579012,1016.9308963788236,4.6639574189849755,106828.6027128084,-5937.014726334647,20.38372320691194,106863.93520618755,49883.80102376391,9.897759433949352,106891.17805189872,-4867.9375748342945,22.93168860777651,107143.75058399598,10853.177040397077,30.151378753660367,0.9666285571520072,117.0,104.0,83.0,276.0,359.0,13.0,906.0,903.0,13.0,7.0,6.0,0.5384615384615384,93.70087826112982,937.5827753286694,18.0,7.0,11.0,0.3888888888888889,544.197565685711,4859.0899705508145,23.0,12.0,11.0,0.5217391304347826,2316.252934267714,45460.5025993566,21.0,6.0,15.0,0.2857142857142857,878.8560595195538,15238.78315391592,78.0,39.0,39.0,0.5,93.09342078305568,11412.540589680557,0.0,0.0,0.0,0.0,106706.0,106719.0,106823.0,106840.0,106852.0,106875.0,106886.0,106906.0,107106.0,107182.0,0.09214085105958339,-0.0916618184003872,0.04643296795214713,-0.1805397144086159,0.008577527155094647
115,115,107617.7756344464,1609.0402810341936,7.987197138500251,107736.33461546508,-7336.753930418181,7.4056101629927795,107768.56999874806,48035.44939701391,9.714936583442368,107795.027373699,-4384.117487575671,17.835757806048203,108047.10949479598,11096.988970185865,32.23445353468506,0.9764760978548616,118.0,101.0,82.0,277.0,359.0,17.0,905.0,904.0,17.0,8.0,9.0,0.4705882352941176,124.08899209968943,1683.12484532055,16.0,8.0,8.0,0.5,730.821579150576,1672.560616501769,23.0,13.0,10.0,0.5652173913043478,2271.5243489094964,43937.489905917784,21.0,5.0,16.0,0.238095238095238,900.1430243666716,15058.23784677597,79.0,39.0,40.0,0.4936708860759494,93.55909598309282,11851.22001482089,0.0,0.0,0.0,0.0,107610.0,107627.0,107728.0,107744.0,107756.0,107779.0,107791.0,107810.0,108009.0,108087.0,0.0771198791990046,-0.09961102499575321,0.0472885000020569,-0.20531909259220896,0.008431034421540548
116,116,109287.99891309084,1407.993331846511,9.52425662847761,109408.6757365888,-7213.074691851384,7.430967767473415,109440.827462445,46921.310240366285,9.732536382675232,109470.17805189872,-4220.471503235026,13.211102870862335,109717.38029999452,11015.90029685126,32.10711595733888,0.976198503051018,121.0,101.0,83.0,275.0,358.0,20.0,1670.0,1672.0,20.0,9.0,11.0,0.45,76.22178750045562,1440.9474684853108,16.0,9.0,7.0,0.5625,775.9865428340131,486.6487007681503,24.0,13.0,11.0,0.5416666666666666,2241.0727494489142,45133.20953733427,20.0,7.0,13.0,0.35,662.6942703559249,11207.11214796418,82.0,41.0,41.0,0.5,92.50803448211433,11605.737714907264,0.0,0.0,0.0,0.0,109279.0,109299.0,109400.0,109416.0,109428.0,109452.0,109463.0,109483.0,109678.0,109758.0,0.05413504863726496,-0.10758055004069841,0.04776236507396004,-0.15701901312399913,0.00839768262141556
117,117,110176.00972772176,1328.856969181162,8.915908764494851,110294.8154459374,-7556.013283898764,7.472339751096358,110327.01200756949,47627.66575238517,9.789374939093891,110351.45203459916,-5364.257235957605,13.657701451986652,110606.01084134894,10853.070322620591,31.18188036838763,0.9775511305292052,118.0,102.0,82.0,276.0,358.0,16.0,887.0,886.0,16.0,8.0,8.0,0.5,95.6638948873586,1557.6508725366327,16.0,9.0,7.0,0.5625,791.3994342130543,960.4088544901116,24.0,13.0,11.0,0.5416666666666666,2306.523714575362,44997.5141207887,21.0,3.0,18.0,0.1428571428571428,1115.0862356790424,18458.136127734226,79.0,40.0,39.0,0.5063291139240507,92.6685817061145,11521.357714025038,0.0,0.0,0.0,0.0,110168.0,110184.0,110286.0,110302.0,110314.0,110338.0,110348.0,110368.0,110568.0,110644.0,0.07198960994749226,-0.10473769757650647,0.048428233425650356,-0.20787337121054034,0.008538466899359283
118,118,111063.395148739,1332.0163004358292,7.903309670392042,111183.0072678938,-7358.194205700045,7.4322959673772,111215.12645460897,47565.790907262526,9.76930124282213,111241.027373699,-4736.142645007655,12.59091240719801,111492.15487328652,11035.158994552754,33.13368151902925,0.9759603610648788,120.0,103.0,81.0,276.0,357.0,17.0,885.0,888.0,18.0,9.0,9.0,0.5,85.22858713665208,1199.4306392254985,15.0,8.0,7.0,0.5333333333333333,773.9359234128852,1149.7429455891397,23.0,12.0,11.0,0.5217391304347826,2296.618957121503,45910.07428674265,20.0,4.0,16.0,0.2,948.4226482002836,15478.75173237141,83.0,41.0,42.0,0.4939759036144578,94.61400206304006,11785.33695884864,0.0,0.0,0.0,0.0,111055.0,111072.0,111175.0,111190.0,111203.0,111226.0,111237.0,111256.0,111453.0,111532.0,0.06398464276207859,-0.10518014362998923,0.04828299736672405,-0.20025212906119103,0.008573868497023381
119,119,111936.65547982624,1174.6567800781932,5.980662694593065,112056.17113542632,-7061.382680866154,7.344102405638912,112088.53148463307,48297.694067223616,9.795009253537255,112116.75339099858,-4059.0784863821514,25.47965400841975,112367.95881659626,10640.693960370383,30.931253686390935,0.9727888338923976,119.0,104.0,84.0,273.0,357.0,15.0,876.0,874.0,15.0,8.0,7.0,0.5333333333333333,86.7225277811604,1189.523343774643,16.0,8.0,8.0,0.5,721.9722965402544,1596.3508211345938,24.0,13.0,11.0,0.5416666666666666,2214.725768977614,43417.26888601833,21.0,6.0,15.0,0.2857142857142857,736.6264899182178,12786.162217635414,80.0,42.0,38.0,0.525,100.01248778721964,10768.960645102632,0.0,0.0,0.0,0.0,111929.0,111944.0,112048.0,112064.0,112076.0,112100.0,112111.0,112132.0,112331.0,112405.0,0.0738279719250312,-0.1022423410781211,0.04585572482808447,-0.18147628640085042,0.009399056881036205
120,120,113544.79807892136,1361.4014871478275,10.600939252675994,113666.70565641877,-6990.137662040258,6.9642607793948885,113698.30598727218,46556.11966762689,9.93621307357314,113725.027373699,-4614.45573285384,11.920933420345689,113972.31717442656,10680.714975830915,32.43999088500182,0.9799303547352278,122.0,101.0,83.0,271.0,354.0,21.0,1607.0,1610.0,21.0,9.0,12.0,0.4285714285714285,83.56759808175403,1414.679458765757,15.0,9.0,6.0,0.6,832.1955337500809,488.04688277470495,24.0,13.0,11.0,0.5416666666666666,2193.1825301917497,45748.43253589089,21.0,5.0,16.0,0.238095238095238,860.2655545587239,14300.763737948151,83.0,42.0,41.0,0.5060240963855421,82.98140834893202,11231.742092786091,0.0,0.0,0.0,0.0,113536.0,113557.0,113658.0,113673.0,113685.0,113709.0,113721.0,113741.0,113934.0,114012.0,0.06138350726855042,-0.11905281040018638,0.04710836181901117,-0.18642839033731223,0.007769274672782513
121,121,114407.41505826412,1281.9562565042331,10.818053991380973,114529.74865911854,-7573.205768477666,7.358550061027133,114561.93472697034,48745.05193283093,9.600421030267931,114588.60271279886,-4104.3701613734875,20.38372320691241,114839.2945765703,10916.968471256152,31.48785825829215,0.977212412700759,122.0,104.0,81.0,275.0,356.0,18.0,866.0,863.0,26.0,14.0,12.0,0.5384615384615384,93.52164519336048,1108.358311551318,16.0,8.0,8.0,0.5,780.7208993263226,1217.4008705660758,23.0,12.0,11.0,0.5217391304347826,2330.5099703648634,45380.51186498425,19.0,5.0,14.0,0.2631578947368421,837.0030408931559,13975.75976874235,79.0,39.0,40.0,0.4936708860759494,95.09868230556884,11546.013004776554,0.0,0.0,0.0,0.0,114400.0,114418.0,114522.0,114538.0,114550.0,114573.0,114584.0,114603.0,114802.0,114878.0,0.07295229046924322,-0.10308988335903355,0.0478101854025354,-0.20392971588436384,0.008711088848150387
122,122,115308.62643878932,1197.605913317514,6.168815053825523,115428.26427421134,-7628.782960115284,8.208504690686139,115461.05228704352,49078.79013013755,9.673203716696966,115487.17805189872,-4651.552781848408,22.93168860777651,115739.02043347724,10670.121620513604,30.76649854932252,0.9692407391787612,119.0,104.0,83.0,274.0,357.0,15.0,899.0,899.0,15.0,8.0,7.0,0.5333333333333333,91.17015487309708,1175.7179743483878,17.0,8.0,9.0,0.4705882352941176,717.1246395202753,2740.5144789966007,23.0,12.0,11.0,0.5217391304347826,2319.004064896151,45229.28500018631,22.0,5.0,17.0,0.2272727272727272,943.8874769262914,16218.24111602225,79.0,40.0,39.0,0.5063291139240507,96.56458342970468,11389.29877884998,0.0,0.0,0.0,0.0,115301.0,115316.0,115420.0,115437.0,115449.0,115472.0,115482.0,115503.0,115702.0,115777.0,0.07612700794082142,-0.09400249597734503,0.04725063634916567,-0.20291879318441586,0.009049998384653517
123,123,116196.69250920476,1248.1659785332715,7.765335481381136,116316.45821222795,-7384.555636112186,6.893970751261909,116348.42065025472,47414.78560575008,9.69950608182785,116379.60271279886,-3893.907636809243,20.3837232062709,116626.45274948876,10428.045745617552,31.180083590558517,0.9760751002811604,121.0,103.0,83.0,274.0,357.0,18.0,885.0,888.0,18.0,10.0,8.0,0.5555555555555556,82.70158473029323,1203.9429457956107,16.0,8.0,8.0,0.5,750.4193846345719,1617.4336609732443,23.0,12.0,11.0,0.5217391304347826,2225.6984664359,45899.39999297095,21.0,9.0,12.0,0.4285714285714285,472.02994326333067,8222.68208704452,79.0,39.0,40.0,0.4936708860759494,101.63059727334884,11198.479701988688,0.0,0.0,0.0,0.0,116187.0,116205.0,116308.0,116324.0,116336.0,116359.0,116371.0,116391.0,116590.0,116665.0,0.06625848336891575,-0.1016201138718283,0.04694102141349734,-0.12122268612671122,0.00974589100897066
124,124,117865.33991766234,1720.036458863386,12.46214472248911,117986.88361976328,-6914.195425728067,6.33242954815041,118018.26929828926,47338.877362932355,9.850375163388906,118044.027373699,-4723.329719279422,11.299556417481805,118293.55517364207,10846.802570475016,34.21351253670404,0.980410856350832,125.0,101.0,80.0,275.0,355.0,24.0,1672.0,1670.0,25.0,11.0,14.0,0.44,84.26954805189683,1777.7518992038754,14.0,8.0,6.0,0.5714285714285714,846.0150856774349,421.6642558225685,24.0,13.0,11.0,0.5416666666666666,2280.4269694427658,46349.83959970238,20.0,4.0,16.0,0.2,944.2489213068656,15377.01590077048,86.0,44.0,42.0,0.5116279069767442,91.78307012918594,11569.353502917456,0.0,0.0,0.0,0.0,117854.0,117878.0,117979.0,117993.0,118006.0,118029.0,118040.0,118059.0,118254.0,118334.0,0.04899288478314165,-0.1223591515115946,0.0481723922593146,-0.19991171004909597,0.008461762766754819
125,125,118763.39932869816,1263.58002939769,8.390555327470645,118883.80213689758,-7478.188354816198,7.478822549381851,118916.1723861241,48854.91147220959,9.672208462781049,118942.60271279886,-4197.307150163154,20.383723206904342,119194.66510823756,11043.25778464128,31.153730737053007,0.9754157103395884,120.0,104.0,81.0,275.0,356.0,16.0,898.0,897.0,18.0,8.0,10.0,0.4444444444444444,92.27129003289164,1256.8385342556644,16.0,8.0,8.0,0.5,773.9047580872596,1411.032472600576,23.0,12.0,11.0,0.5217391304347826,2315.428152340256,45998.72829086518,19.0,5.0,14.0,0.2631578947368421,872.2107026996783,14519.357284464688,76.0,38.0,38.0,0.5,96.8171894251723,11880.968458899952,0.0,0.0,0.0,0.0,118756.0,118772.0,118876.0,118892.0,118904.0,118927.0,118938.0,118957.0,119159.0,119232.0,0.07302370082318771,-0.10348826766162417,0.04739396884706983,-0.20780244844978157,0.008767085882919759
126,126,119708.95027922856,2143.639437163718,14.786769163962411,119826.52832810556,-6408.64935221533,6.3844374862263065,119858.167034114,47891.95307651984,9.70513761144442,119886.60271279886,-3461.2823897981516,8.902636954454064,120135.64150645316,11865.619156217574,36.278768623404325,0.9803754976833372,117.0,99.0,79.0,280.0,359.0,18.0,945.0,943.0,18.0,7.0,11.0,0.3888888888888889,123.31377592285556,2642.9989638694105,14.0,8.0,6.0,0.5714285714285714,809.0637829217525,1257.6636977711971,24.0,12.0,12.0,0.5,2279.5741134768564,47515.957310332466,17.0,6.0,11.0,0.3529411764705882,703.6527119773406,10391.0047129536,86.0,43.0,43.0,0.5,103.48170000371834,12941.510331960872,0.0,0.0,0.0,0.0,119702.0,119720.0,119819.0,119833.0,119846.0,119869.0,119882.0,119898.0,120094.0,120178.0,0.05752542791711926,-0.12624560004083807,0.04759827000236646,-0.20329248894898022,0.008721137821914167
127,127,121367.84932180028,376.8137392795507,2.681596127114277,121486.60271279886,-6281.007453129748,20.383723206912453,121522.03717476773,48241.47576104315,9.875774480973776,121558.24660900142,-5222.300377922574,25.47965400864057,121800.0539175498,10108.927399768743,29.006918475719672,0.9632825281448708,116.0,106.0,91.0,265.0,356.0,10.0,1658.0,1664.0,11.0,4.0,7.0,0.3636363636363636,76.7936756460417,137.69280435885236,21.0,9.0,12.0,0.4285714285714285,520.2483377013915,4927.453432290602,23.0,12.0,11.0,0.5217391304347826,2233.556730923573,44589.57232209829,28.0,14.0,14.0,0.5,234.64293314905555,5862.950692793433,74.0,37.0,37.0,0.5,92.92989799878396,10677.741159859836,0.0,0.0,0.0,0.0,121365.0,121375.0,121481.0,121498.0,121510.0,121533.0,121544.0,121572.0,121764.0,121837.0,0.20379744059456917,-0.08282880438904085,0.04629951086047115,-0.044930953060650314,0.009192854426960259
128,128,122254.37376202727,1545.9362747505586,11.468482578427285,122375.66790780085,-7317.847728785608,7.234020683223301,122407.78543669792,47755.35274374581,9.722202291014446,122434.027373699,-4803.547104790862,12.621698630713189,122687.53415569612,11378.759400635,32.11424477810254,0.9788759385982928,119.0,100.0,82.0,277.0,359.0,19.0,890.0,885.0,23.0,10.0,13.0,0.4347826086956521,83.63409418534857,1481.5260722546404,16.0,9.0,7.0,0.5625,805.6035661889146,576.4444680490119,24.0,13.0,11.0,0.5416666666666666,2313.105808065782,45078.78902774037,21.0,5.0,16.0,0.238095238095238,916.2175143340636,15297.886469479658,82.0,44.0,38.0,0.5365853658536586,91.0969814684057,11871.289405769294,0.0,0.0,0.0,0.0,122248.0,122267.0,122367.0,122383.0,122395.0,122419.0,122430.0,122449.0,122648.0,122726.0,0.05409931544483823,-0.11008750059392175,0.0484365767430901,-0.19073769744451252,0.00800587992600687
129,129,123159.29381218342,1278.506714353697,6.4892791612782394,123278.40340046716,-7497.852851707982,7.207074699712778,123310.7178475252,49113.36333199638,9.665465766996336,123337.60271279886,-4157.852340923914,20.383723206912343,123588.68321860484,10819.826936106783,31.1373723943282,0.9727591988016692,119.0,104.0,83.0,274.0,357.0,15.0,902.0,903.0,15.0,8.0,7.0,0.5333333333333333,97.00480180382417,1260.5235906165867,16.0,8.0,8.0,0.5,733.9897610003742,1861.431282627511,24.0,13.0,11.0,0.5416666666666666,2335.664398130987,45075.729846846305,21.0,5.0,16.0,0.238095238095238,831.6715775569587,13860.433007658796,79.0,40.0,39.0,0.5063291139240507,90.20615272576816,11559.209130652838,0.0,0.0,0.0,0.0,123151.0,123166.0,123270.0,123286.0,123298.0,123322.0,123333.0,123353.0,123550.0,123627.0,0.07587351768649996,-0.09789332699869858,0.04755659640620353,-0.20002431769189605,0.008337116042470302
130,130,124086.05945940128,1747.8011349886983,10.90749229014376,124205.17062910914,-7128.093224690156,6.889096002119034,124236.95615889825,47068.103550804175,9.854287507614591,124263.45203459916,-4672.565497360724,12.051774400011332,124515.8548270678,11179.983739436526,32.76681618557085,0.981850680644862,118.0,101.0,82.0,276.0,358.0,17.0,929.0,926.0,18.0,7.0,11.0,0.3888888888888889,108.14654927255472,1748.499712297406,15.0,8.0,7.0,0.5333333333333333,787.5749901924205,600.4110779956623,24.0,13.0,11.0,0.5416666666666666,2260.2278173788163,45476.444748585614,21.0,4.0,17.0,0.1904761904761904,924.1000097493156,15114.184715110609,81.0,41.0,40.0,0.5061728395061729,99.44196717026644,12073.322475848285,0.0,0.0,0.0,0.0,124079.0,124096.0,124197.0,124212.0,124224.0,124248.0,124260.0,124279.0,124476.0,124555.0,0.06187577471349681,-0.1104888734429613,0.04802037148021443,-0.19777144060822455,0.008894643273897851
131,131,125753.23739457576,1655.1953535988123,11.276994634851082,125874.2179842445,-6997.694839899639,6.584153478421724,125905.85898439508,47689.723452878134,9.712240184968085,125933.60271279886,-4058.605746024333,9.380746862581052,126182.10949479598,11649.784586501091,33.74993977596519,0.9788379620901912,122.0,100.0,79.0,277.0,356.0,22.0,1667.0,1669.0,24.0,10.0,14.0,0.4166666666666667,80.28523043925523,1695.4381817577332,15.0,8.0,7.0,0.5333333333333333,776.7462227371826,172.3145239066971,24.0,13.0,11.0,0.5416666666666666,2289.2412834359006,46563.75467991747,18.0,6.0,12.0,0.3333333333333333,771.542160592788,11878.778464906576,84.0,43.0,41.0,0.5119047619047619,91.16755570911032,12355.667417157414,0.0,0.0,0.0,0.0,125744.0,125766.0,125866.0,125881.0,125893.0,125917.0,125929.0,125945.0,126143.0,126222.0,0.04850498780382321,-0.11100029945694555,0.048002821523968016,-0.1901002977065618,0.00782568596287596
132,132,126636.8361676864,1053.8877629748729,5.008847353254849,126755.50199224603,-7597.424976372507,8.259543254520613,126788.28090808495,49217.880371589315,9.648758814014071,126814.60271279886,-4837.6896625260315,20.383723206912453,127066.9859897732,10727.477622099555,29.965319384755496,0.9704397056913152,117.0,103.0,84.0,273.0,357.0,14.0,882.0,882.0,14.0,7.0,7.0,0.5,89.68587564142273,953.9341076601,17.0,9.0,8.0,0.5294117647058824,765.0792425054404,1983.641910637988,23.0,12.0,11.0,0.5217391304347826,2337.9448930314957,46069.771300456196,23.0,6.0,17.0,0.2608695652173913,871.9603743322531,15155.5451604195,75.0,37.0,38.0,0.4933333333333333,103.52112007613954,11229.272502111558,0.0,0.0,0.0,0.0,126630.0,126644.0,126747.0,126764.0,126776.0,126799.0,126810.0,126831.0,127031.0,127104.0,0.08510002563106053,-0.10070244127250834,0.0475019418833213,-0.18024313983732335,0.009650089585167426
133,133,127566.7041861293,1058.2268583935138,3.851072327599691,127682.84159953948,-7219.539633522336,8.997911110412032,127715.8532612922,47939.67114128191,9.865465733121878,127742.027373699,-5128.839525542675,17.8357578060484,127994.32381618,11080.389205867035,30.23973536631874,0.9688813190852604,113.0,101.0,85.0,274.0,359.0,12.0,929.0,928.0,12.0,6.0,6.0,0.5,113.48492253572932,1010.6009468639209,17.0,9.0,8.0,0.5294117647058824,709.4375700349447,1884.2535098062729,24.0,13.0,11.0,0.5416666666666666,2258.5844597675464,44278.33221730955,22.0,4.0,18.0,0.1818181818181818,922.569417956472,16007.900537508804,76.0,37.0,39.0,0.4868421052631579,112.38469019025712,11753.625439394124,0.0,0.0,0.0,0.0,127561.0,127573.0,127674.0,127691.0,127703.0,127727.0,127738.0,127759.0,127959.0,128033.0,0.10724063714278612,-0.0982663169741223,0.04711305701516649,-0.17987878415027156,0.010142666300092576
134,134,128435.76249334143,1408.28647605812,9.470427306389183,128554.88686727596,-7184.187977384753,7.198826118772901,128587.17416755548,48710.935713838226,9.722161052772366,128615.75339099858,-3859.242712291841,25.479654008618105,128864.98281230433,11182.814428889897,31.527199826518093,0.9778105272328352,120.0,101.0,83.0,274.0,357.0,19.0,870.0,872.0,19.0,9.0,10.0,0.4736842105263157,80.2465331730595,1569.6805848386484,16.0,8.0,8.0,0.5,761.4345005551781,1266.08373528456,23.0,12.0,11.0,0.5217391304347826,2251.658683295544,45721.772766728376,22.0,7.0,15.0,0.3181818181818182,705.1373870801066,11847.03441442464,77.0,38.0,39.0,0.4935064935064935,101.52846962238618,11897.280930695766,0.0,0.0,0.0,0.0,128427.0,128446.0,128547.0,128563.0,128575.0,128598.0,128609.0,128630.0,128828.0,128904.0,0.05698168273096996,-0.10598755251840748,0.04622491131197616,-0.18271392593013547,0.009078972942633797
135,135,129367.33155999194,1354.1873008800858,5.364490996671324,129484.86522727933,-7496.800768814993,7.33086813550733,129517.19376729794,49433.55333537387,9.60429237183492,129543.60271279886,-4166.46158449664,20.383723206858793,129798.38347749642,11444.897792038895,30.163122477986892,0.974009300556247,117.0,102.0,82.0,275.0,357.0,15.0,933.0,929.0,15.0,7.0,8.0,0.4666666666666667,105.51691364830306,1109.7859086816202,16.0,8.0,8.0,0.5,771.5299827196153,1459.5468464474234,23.0,12.0,11.0,0.5217391304347826,2347.438525274581,46502.85803669087,20.0,5.0,15.0,0.25,880.304825882066,14780.922288564208,77.0,40.0,37.0,0.5194805194805194,95.00078609457486,11619.794663735163,0.0,0.0,0.0,0.0,129360.0,129375.0,129477.0,129493.0,129505.0,129528.0,129539.0,129559.0,129759.0,129834.0,0.07791899509006447,-0.10291456402696557,0.047486744668115755,-0.21128355752940842,0.008300710746465354
