Unnamed: 0,cycle,p_center,p_height,p_width,q_center,q_height,q_width,r_center,r_height,r_width,s_center,s_height,s_width,t_center,t_height,t_width,r_squared,pr_interval,pr_segment,qrs_duration,st_segment,qt_interval,p_duration,pp_interval,rr_interval,fwhm_p,rise_time_p,decay_time_p,rise_decay_symmetry_p,sharpness_deriv_p,sharpness_diff_p,fwhm_q,rise_time_q,decay_time_q,rise_decay_symmetry_q,sharpness_deriv_q,sharpness_diff_q,fwhm_r,rise_time_r,decay_time_r,rise_decay_symmetry_r,sharpness_deriv_r,sharpness_diff_r,fwhm_s,rise_time_s,decay_time_s,rise_decay_symmetry_s,sharpness_deriv_s,sharpness_diff_s,fwhm_t,rise_time_t,decay_time_t,rise_decay_symmetry_t,sharpness_deriv_t,sharpness_diff_t,Average_Heart_Rate,SDNN,RMSSD,NN50,p_on,p_off,q_on,q_off,r_on,r_off,s_on,s_off,t_on,t_off,sharpness_deriv_p_norm,sharpness_deriv_q_norm,sharpness_deriv_r_norm,sharpness_deriv_s_norm,sharpness_deriv_t_norm
0,0,,,,,,,,,,,,,,,,,,,,,,,,,,,,,,,,,,,,,,,,,,,,,,,,,,,,,,,67.92609485284648,150.56785541489225,175.3812143853538,564.0,,,,,,,,,,,,,,,
1,1,1746.3795988036925,2210.352324595085,17.10100250596041,1880.027373698992,-3640.1711442365768,9.492544218885378,1915.969633236261,25038.51924144691,8.922290730314444,1941.027373698992,-7591.711106550722,9.205811499628789,2153.26017299568,8732.518330512496,35.194486472752715,0.9497639917491209,148.0,101.0,78.0,245.0,323.0,47.0,,,49.0,22.0,27.0,0.4489795918367347,48.76504755836076,1984.588453886002,18.0,8.0,10.0,0.4444444444444444,263.84736956114693,2279.8148024051293,21.0,11.0,10.0,0.5238095238095238,1428.280180589862,20422.25403035903,19.0,9.0,10.0,0.4736842105263157,783.0044153190108,13049.31828657818,89.0,45.0,44.0,0.5056179775280899,50.02981438368988,9146.324125789715,,,,,1725.0,1772.0,1873.0,1890.0,1905.0,1926.0,1932.0,1951.0,2110.0,2196.0,0.02206211517310664,-0.07248213314884717,0.05704331661217381,-0.1031393850911125,0.005729139349055764
2,2,2578.910173827066,1985.7442612463872,15.631579996537871,2711.602712798848,-3044.814081915172,20.383723206550048,2747.853780233729,25352.348955335274,9.170955267592811,2773.4520345991364,-7493.187184332287,8.945004407143585,2986.482953084057,8382.186489868034,34.40602435524968,0.9463276758362308,146.0,102.0,78.0,247.0,325.0,44.0,836.0,833.0,45.0,21.0,24.0,0.4666666666666667,50.2198858430512,1947.614530463152,20.0,9.0,11.0,0.45,250.33493714229647,2486.0595676270023,22.0,11.0,11.0,0.5,1423.357445088396,20927.90798516238,18.0,9.0,9.0,0.5,812.5841093348647,13314.49098389276,87.0,43.0,44.0,0.4942528735632184,58.80459579992742,8802.523100910097,,,,,2558.0,2602.0,2704.0,2723.0,2737.0,2759.0,2765.0,2782.0,2945.0,3029.0,0.025290208222246004,-0.08221682191670537,0.05614302041976499,-0.10844305491712784,0.00701542442070544
3,3,3453.6004835133613,2177.967176880948,16.607872668895954,3590.6027127988486,-3299.691229374929,20.383723206696043,3626.763444876889,25675.29770706075,9.4077937026254,3651.027373698993,-7577.300572984446,9.37166461925641,3865.784423093756,8465.730227637634,34.79524176187076,0.9432717113275828,149.0,104.0,78.0,248.0,326.0,45.0,872.0,878.0,47.0,21.0,26.0,0.4468085106382978,51.81542152882241,1877.230810051842,20.0,9.0,11.0,0.45,269.61044069493823,2762.4715796518926,21.0,11.0,10.0,0.5238095238095238,1443.667979642678,21035.29592078079,19.0,8.0,11.0,0.4210526315789473,850.735166270644,14080.336180594502,89.0,45.0,44.0,0.5056179775280899,58.49736646559404,8836.054753674316,,,,,3434.0,3479.0,3583.0,3602.0,3616.0,3637.0,3644.0,3661.0,3825.0,3909.0,0.02379072654484487,-0.08170777868388958,0.05622789640509862,-0.11227417443407128,0.00690990202766215
4,4,4295.580556349926,2097.2292643451615,16.41245123202271,4427.602712798849,-2932.599606914583,20.38372320682932,4464.023421729969,25885.984324719153,9.162486665361005,4490.027373698993,-6792.16172745903,9.543300174786523,4700.898909025309,8328.260409717419,35.982206004706924,0.9431730692531264,145.0,102.0,79.0,246.0,325.0,43.0,841.0,838.0,46.0,21.0,25.0,0.4565217391304347,48.87719510876023,1725.3620582154576,19.0,8.0,11.0,0.4210526315789473,255.5911153437499,2565.8215251315623,22.0,11.0,11.0,0.5,1434.3404484819876,21477.412215824577,19.0,9.0,10.0,0.4736842105263157,699.1748193682857,11825.065225339946,90.0,45.0,45.0,0.5,55.629724996436565,8843.47229581801,,,,,4276.0,4319.0,4421.0,4439.0,4453.0,4475.0,4481.0,4500.0,4658.0,4746.0,0.023305604179627754,-0.08715513523943345,0.0554099249419811,-0.10293848224221383,0.006679633231872501
5,5,5085.364469749505,1988.9706102007224,15.170410474428698,5219.027373698993,-3296.032313198941,17.8357578060484,5254.288796454437,24992.275877497148,9.25737332179639,5279.027373698993,-7919.639141056495,9.461123790957904,5491.568508395671,8505.732102321374,34.47834795724896,0.94225684887944,143.0,102.0,79.0,246.0,325.0,41.0,792.0,790.0,43.0,19.0,24.0,0.4418604651162791,52.2347558012998,1886.8643203718464,19.0,9.0,10.0,0.4736842105263157,263.40500767640907,2498.567634779315,22.0,11.0,11.0,0.5,1420.1502825519417,20751.406955950755,19.0,8.0,11.0,0.4210526315789473,815.1524652534993,13755.61341815263,87.0,44.0,43.0,0.5057471264367817,58.82951160039341,8875.44078601133,,,,,5067.0,5108.0,5210.0,5229.0,5244.0,5265.0,5271.0,5289.0,5450.0,5535.0,0.02626220595387701,-0.07991578438767281,0.05682356779002404,-0.1029279807747347,0.006916454796917214
6,6,5921.0389036624365,1830.8252579996547,14.739229106693712,6052.027373698993,-3335.7455836543195,17.8357578060484,6087.881989108743,25238.4077349602,9.368830209200334,6113.027373698993,-7432.3565762045055,10.000181389978266,6326.2601729956805,8365.409085484438,34.143734939157746,0.9427933310957298,140.0,100.0,79.0,246.0,325.0,40.0,836.0,833.0,42.0,19.0,23.0,0.4523809523809524,52.37582867369105,1828.837401693003,20.0,9.0,11.0,0.45,268.0500269003272,2587.1032357261147,22.0,11.0,11.0,0.5,1412.483404188814,20600.128766230475,21.0,9.0,12.0,0.4285714285714285,771.091392083563,13124.197745798596,88.0,44.0,44.0,0.5,56.63486923555156,8834.49488947771,,,,,5904.0,5944.0,6044.0,6062.0,6077.0,6098.0,6105.0,6123.0,6285.0,6369.0,0.02860777042748278,-0.08035685581472841,0.05596563059848836,-0.10374790070652633,0.0067701254842185464
7,7,6731.385373127209,1953.9522568589923,15.222453459458002,6862.602712798849,-3154.9120826423937,20.383723206776985,6898.979959727059,25463.71707163579,9.311988064816248,6924.027373698993,-7656.694224302224,9.486265513604916,7138.684833895824,8420.840797915507,34.04292331944116,0.9429826179702504,142.0,101.0,79.0,246.0,325.0,41.0,810.0,812.0,43.0,19.0,24.0,0.4418604651162791,55.29832945392635,1940.683060561732,19.0,8.0,11.0,0.4210526315789473,255.265587061999,2576.583536699182,22.0,11.0,11.0,0.5,1425.2774752040552,20868.19954643377,20.0,9.0,11.0,0.45,794.3252411091579,13381.81335643971,88.0,46.0,42.0,0.5227272727272727,50.03535668910657,8744.968058949184,,,,,6713.0,6754.0,6855.0,6874.0,6888.0,6910.0,6916.0,6934.0,7094.0,7180.0,0.028300757738481924,-0.08091052313831883,0.05597287588431783,-0.10374258365809913,0.005941848075490551
8,8,7577.504632676903,2008.8669806739288,15.36521855401935,7711.602712798849,-3112.0533377830266,20.383723206912453,7747.978785302355,25521.199271548467,9.168802605200762,7773.452034599137,-7321.795866028013,9.223082113536574,7986.26017299568,8208.161936502538,34.313452595094056,0.9393404966151754,145.0,103.0,78.0,247.0,325.0,42.0,846.0,849.0,44.0,20.0,24.0,0.4545454545454545,47.383323836853606,1669.8400188696328,20.0,9.0,11.0,0.45,247.80941812152847,2689.986296307775,22.0,11.0,11.0,0.5,1435.6260711586126,21127.522648584694,18.0,8.0,10.0,0.4444444444444444,804.5130760773849,13272.637912047889,87.0,43.0,44.0,0.4942528735632184,56.8883965951651,8613.291044183057,,,,,7559.0,7601.0,7704.0,7723.0,7738.0,7759.0,7765.0,7782.0,7945.0,8029.0,0.023587088788207165,-0.07962891095499786,0.05625229660578986,-0.10987920051284135,0.006930710801668832
9,9,8410.576718241648,1923.4972328101576,14.70080133523321,8543.60271279885,-3281.277989720926,20.383723206912453,8580.327283213477,25262.511424533903,9.23014254012268,8605.027373698993,-7602.305715047872,9.406911036344184,8818.303878847877,8211.353458376932,33.92163412367151,0.9374657070357286,144.0,102.0,79.0,246.0,325.0,42.0,833.0,832.0,44.0,20.0,24.0,0.4545454545454545,47.17399474929676,1687.1998469044588,23.0,11.0,12.0,0.4782608695652174,240.87548504625408,2779.9927132068683,22.0,11.0,11.0,0.5,1423.5871868673532,21048.832797045034,19.0,8.0,11.0,0.4210526315789473,811.873534507045,13490.768334738634,87.0,43.0,44.0,0.4942528735632184,57.532388990864426,8629.557070569648,,,,,8392.0,8434.0,8536.0,8555.0,8570.0,8591.0,8597.0,8615.0,8778.0,8861.0,0.024525117034027294,-0.07340904543925601,0.056351768157334683,-0.10679306580634301,0.007006444099927511
10,10,9247.746197454804,2027.0050140284643,15.625274488548518,9380.027373698991,-3216.9781418448933,17.8357578060484,9415.630731496092,25003.40698190895,9.052411677578016,9441.45203459914,-7119.209127462469,9.5225128345519,9653.561989671332,8380.94934852109,34.604045407211444,0.9394971440360534,144.0,101.0,78.0,247.0,325.0,43.0,837.0,835.0,45.0,21.0,24.0,0.4666666666666667,46.416551890821616,1786.6253312489944,20.0,9.0,11.0,0.45,254.40187553849057,2667.921261692638,21.0,11.0,10.0,0.5238095238095238,1434.4383748774956,20512.26819033527,19.0,9.0,10.0,0.4736842105263157,754.4474737992457,12625.051461184516,88.0,44.0,44.0,0.5,56.7749805768112,8807.418299989627,,,,,9228.0,9271.0,9372.0,9390.0,9405.0,9426.0,9432.0,9450.0,9611.0,9697.0,0.022899080944340382,-0.07908100842506643,0.057369716691624224,-0.10597349513009133,0.006774289906289646
11,11,10078.689822160011,2115.1681870498155,16.14079309080223,10209.027373698991,-2960.0209931172844,17.835757804047134,10244.745887076804,25550.611404170973,9.35603281289266,10270.027373698991,-7083.395849414876,9.569787840877186,10481.835512095537,8577.700000559791,35.917563376646655,0.9449549055264878,141.0,101.0,78.0,246.0,324.0,40.0,830.0,829.0,44.0,20.0,24.0,0.4545454545454545,61.57028916315713,1829.2186094925191,18.0,8.0,10.0,0.4444444444444444,267.59695289898247,2331.8635118960956,22.0,11.0,11.0,0.5,1428.6146172615554,21060.12774267842,19.0,8.0,11.0,0.4210526315789473,761.8383538141956,12716.246384501896,90.0,45.0,45.0,0.5,57.285331633950285,9042.054991095409,,,,,10061.0,10101.0,10202.0,10219.0,10234.0,10255.0,10262.0,10280.0,10439.0,10526.0,0.029108933057958787,-0.09040373481174818,0.05591312844389873,-0.10755270071164062,0.00667840232582298
12,12,10882.061418461704,2075.969865215134,15.834840243382558,11014.45203459914,-3794.209715280389,7.73794476941007,11049.302103983458,25300.586467536545,8.901455938083643,11074.027373698991,-7342.685946085776,9.348613276248704,11285.19055869537,8739.389087405045,35.868895411097185,0.9503361134905888,143.0,101.0,78.0,246.0,324.0,42.0,806.0,805.0,44.0,20.0,24.0,0.4545454545454545,54.918023894869,2063.321787368216,17.0,8.0,9.0,0.4705882352941176,278.0999185618099,2047.5063029376345,22.0,11.0,11.0,0.5,1424.7602776792316,20938.026396879373,18.0,8.0,10.0,0.4444444444444444,800.9650374531211,13221.789709247332,90.0,45.0,45.0,0.5,56.72761358612973,9263.28820946414,,,,,10863.0,10905.0,11006.0,11023.0,11038.0,11060.0,11066.0,11084.0,11243.0,11330.0,0.026454152738473305,-0.07329587435344452,0.056313330108270686,-0.10908338492675121,0.006491027349713028
13,13,11742.85646250925,2275.0119158931766,16.81177503650624,11877.60271279885,-3035.758110278456,20.38372320169357,11913.849253036964,25665.939591670096,9.15606741721135,11939.45203459914,-7303.074794780109,9.138145740920583,12152.07564013099,8549.802040353923,35.16749215035899,0.9438679168209884,147.0,102.0,78.0,248.0,326.0,45.0,859.0,864.0,47.0,21.0,26.0,0.4468085106382978,48.67560076624906,1944.5887095225632,20.0,9.0,11.0,0.45,248.7275397715394,2596.7877734296635,22.0,11.0,11.0,0.5,1436.5167256159011,21186.152606302698,18.0,8.0,10.0,0.4444444444444444,802.6095926268247,13202.231424763637,90.0,45.0,45.0,0.5,59.21384826260974,9042.91893573302,,,,,11723.0,11768.0,11870.0,11889.0,11903.0,11925.0,11931.0,11948.0,12110.0,12196.0,0.02139575640294564,-0.08193259500136023,0.05596976960399782,-0.10990022903784197,0.006925756641279914
14,14,12584.553942521092,2083.9371739889643,15.795250745380956,12720.60271279885,-3321.974323630446,20.383723206912453,12757.130398939084,25393.447429203283,9.234504868683391,12782.027373698991,-7599.702237991553,9.420729317500848,12995.260172995682,8378.686589479781,34.132444475239694,0.9392904936540474,148.0,103.0,79.0,246.0,325.0,45.0,843.0,844.0,47.0,21.0,26.0,0.4468085106382978,46.95129227536873,1679.0928981766465,22.0,11.0,11.0,0.5,245.1079807859236,2730.983039078768,22.0,11.0,11.0,0.5,1436.5426901124335,20994.665142307826,19.0,9.0,10.0,0.4736842105263157,803.6335704245478,13423.501216153463,88.0,44.0,44.0,0.5,56.144700882775304,8789.259039884086,,,,,12565.0,12610.0,12713.0,12732.0,12747.0,12768.0,12774.0,12792.0,12954.0,13038.0,0.022530090091678244,-0.07378382759986397,0.056571392841302956,-0.10574540228788382,0.006700895215876697
15,15,13443.284287669989,2167.4927612628953,16.7658358165622,13578.60271279885,-3134.1798607586625,20.383723206839292,13614.781128730394,25678.963589558276,9.333735673515202,13640.027373698991,-7250.866858606571,9.564842467559746,13853.260172995682,8568.886544206729,34.968323629229815,0.9407873020774128,147.0,103.0,79.0,246.0,325.0,44.0,857.0,857.0,47.0,20.0,27.0,0.425531914893617,51.795972808981816,1905.6206314764008,19.0,8.0,11.0,0.4210526315789473,265.23647615502125,2577.090244030154,21.0,11.0,10.0,0.5238095238095238,1430.9430472116226,21117.021877598057,19.0,8.0,11.0,0.4210526315789473,774.7899185836301,12923.843709961156,89.0,45.0,44.0,0.5056179775280899,57.43726132681822,8946.267271417953,,,,,13424.0,13468.0,13571.0,13590.0,13604.0,13625.0,13632.0,13650.0,13809.0,13896.0,0.02389672239495866,-0.08462707564294598,0.05572433023712377,-0.10685479870092728,0.006703001729629683
16,16,14260.52059170187,1987.6651034503689,15.400082781152095,14393.60271279885,-3093.292187619666,20.383723206703017,14429.892415398926,25801.095150291618,9.315739629713224,14455.027373698991,-7391.554641906931,9.418554261241718,14665.283177649835,8503.437112601729,36.15193337444041,0.938696818696836,145.0,104.0,78.0,245.0,323.0,41.0,816.0,816.0,44.0,20.0,24.0,0.4545454545454545,48.62282614891236,1632.0059039693965,19.0,8.0,11.0,0.4210526315789473,263.5925594366283,2532.940086704669,22.0,11.0,11.0,0.5,1439.178919534807,21046.424757957117,20.0,9.0,11.0,0.45,785.8742752124775,13058.468421825586,91.0,45.0,46.0,0.4945054945054945,58.07324601128433,9007.77929379293,,,,,14242.0,14283.0,14387.0,14405.0,14419.0,14441.0,14447.0,14465.0,14622.0,14710.0,0.0244622829391674,-0.08521424535697245,0.055779760942377694,-0.10632056627937361,0.006829385017174088
17,17,15068.08391641439,2220.670803805802,16.65866248071344,15201.027373698991,-3554.396470695806,9.058210978075657,15236.744741308414,25182.376102784827,8.736853043326303,15262.45203459914,-7110.955486405104,8.93779746730637,15473.138817542842,8598.252563888715,35.31660108298088,0.9457490291819696,147.0,101.0,78.0,246.0,324.0,46.0,811.0,806.0,47.0,22.0,25.0,0.4680851063829787,49.598393173896646,2117.281195073355,18.0,8.0,10.0,0.4444444444444444,254.83508066414365,2099.116223428421,21.0,11.0,10.0,0.5238095238095238,1440.7217185494655,20604.14067082732,18.0,9.0,9.0,0.5,768.6917570315278,12608.94905461362,89.0,44.0,45.0,0.4943820224719101,57.67412791828447,9097.549408100813,,,,,15046.0,15092.0,15193.0,15211.0,15226.0,15247.0,15253.0,15271.0,15431.0,15517.0,0.02233486975597399,-0.07169573871826891,0.057211508265502455,-0.10809964406346394,0.0067076568744336
18,18,15913.488697247702,2299.2107033511934,17.40137036613406,16050.027373698991,-2959.2065349708464,17.835757799039946,16085.776464848448,25554.265267264334,9.126423137832331,16111.45203459914,-7209.690523113644,9.048135210974504,16323.6071582127,8463.453618068897,34.805637106993224,0.947332631695874,149.0,104.0,77.0,247.0,324.0,45.0,845.0,849.0,47.0,20.0,27.0,0.425531914893617,52.64801576356594,2159.069778472533,19.0,8.0,11.0,0.4210526315789473,254.36214529039373,2355.7580411545987,22.0,11.0,11.0,0.5,1442.7913190692868,21183.33325895066,19.0,9.0,10.0,0.4736842105263157,795.8646217151365,12989.786195097971,88.0,44.0,44.0,0.5,54.6972452508104,8896.683181310429,,,,,15894.0,15939.0,16043.0,16060.0,16075.0,16096.0,16103.0,16120.0,16282.0,16367.0,0.022898299702080068,-0.08595619882709526,0.056459902250351114,-0.11038818090230966,0.006462757134278553
19,19,16775.095930801723,2299.186759020341,17.30710296725635,16916.027373698995,-3111.9228032287147,17.835757805625224,16951.4766014342,25509.56974418827,9.31785938437798,16976.027373698995,-7384.983319002575,9.254778624865606,17190.260172995684,8621.212822351685,35.25263814951442,0.9467945700587068,150.0,104.0,78.0,247.0,325.0,46.0,859.0,866.0,46.0,17.0,29.0,0.3695652173913043,58.74102859897862,2532.3106831417713,19.0,9.0,10.0,0.4736842105263157,265.179420189266,2351.4770568602426,22.0,11.0,11.0,0.5,1419.5996620423878,21777.27747860752,19.0,8.0,11.0,0.4210526315789473,828.5951281959407,13535.335117721,89.0,45.0,44.0,0.5056179775280899,57.85774741820778,8972.5389690837,,,,,16758.0,16804.0,16908.0,16926.0,16941.0,16962.0,16968.0,16986.0,17147.0,17233.0,0.025548611207211174,-0.08521400978010582,0.0556496905388147,-0.11219999997343959,0.006711091421870897
20,20,17615.945252602014,2267.5897238981865,17.85879672942753,17751.161822310805,-3635.2338700277983,8.537674780000303,17787.244400957927,26022.40970297208,8.983882941595496,17812.027373698995,-6792.015199766706,9.3827837628338,18026.684833895823,8778.295255641802,35.60944379298621,0.9435186883380876,148.0,102.0,78.0,246.0,324.0,46.0,840.0,836.0,48.0,21.0,27.0,0.4375,50.16275453417294,1861.2276633581623,18.0,8.0,10.0,0.4444444444444444,270.12230557146984,2196.4148189500447,22.0,11.0,11.0,0.5,1454.073786579543,21621.921247057344,19.0,8.0,11.0,0.4210526315789473,777.3380248049139,12816.309180428274,91.0,50.0,41.0,0.5494505494505495,47.7349000069012,9032.257778383351,,,,,17596.0,17642.0,17744.0,17761.0,17776.0,17798.0,17804.0,17822.0,17979.0,18068.0,0.02212161838868221,-0.07430672007064135,0.05587775318184579,-0.11444880524289965,0.00543783258785036
21,21,18426.395110145702,1872.2919096398973,14.767132078743971,18562.027373698995,-3369.442615359286,17.83575780552761,18597.525351348857,25388.459437870555,9.34782337425483,18622.027373698995,-8150.9175210401345,9.412726479524837,18834.741428971513,8454.009209097334,33.53723423026192,0.9426425616135292,145.0,104.0,79.0,245.0,324.0,41.0,812.0,810.0,43.0,19.0,24.0,0.4418604651162791,51.984696583694266,1659.5822886442008,19.0,9.0,10.0,0.4736842105263157,269.87755553198065,2547.444823100185,21.0,11.0,10.0,0.5238095238095238,1460.7276916439337,20321.2110175832,19.0,8.0,11.0,0.4210526315789473,851.3062855747644,14260.516580499265,86.0,43.0,43.0,0.5,57.03322001296704,8911.77326382109,,,,,18408.0,18449.0,18553.0,18572.0,18587.0,18608.0,18614.0,18632.0,18794.0,18877.0,0.027765273308098956,-0.0800956081880633,0.057535105476508246,-0.10444300084956934,0.006746292629016037
22,22,19282.52765282497,2216.1992797697835,16.85477042197083,19420.027373698995,-3158.2210031450054,17.835757802307697,19455.749983388007,25539.539917928476,9.27571634737984,19480.027373698995,-7866.877618265414,9.001039504304853,19696.109494795972,8406.482851207707,33.40942236577054,0.9478992538328592,148.0,104.0,78.0,246.0,324.0,44.0,857.0,858.0,47.0,21.0,26.0,0.4468085106382978,45.96767755612769,1899.7480574025528,20.0,9.0,11.0,0.45,262.0061671513134,2520.833042771491,21.0,11.0,10.0,0.5238095238095238,1465.4066842751809,20918.975395942776,19.0,8.0,11.0,0.4210526315789473,870.742522947301,14170.554714163763,86.0,45.0,41.0,0.5232558139534884,57.10605693252895,8696.311475098653,,,,,19264.0,19308.0,19412.0,19430.0,19445.0,19466.0,19472.0,19490.0,19652.0,19736.0,0.020741671552615415,-0.08296004835963144,0.05737795939097875,-0.11068464074305673,0.006793097415802719
23,23,20149.208929771343,2535.6823866193354,19.13915735970111,20287.45203459914,-3604.548870853077,7.095825674861431,20322.046758292407,25672.2818691985,8.810107338060133,20347.45203459914,-6481.568834140213,8.513418897433565,20558.410851195396,8898.621022491725,37.46490423506865,0.9455050051588346,152.0,103.0,76.0,248.0,324.0,49.0,865.0,866.0,54.0,25.0,29.0,0.4629629629629629,55.17432594222026,2276.790672430772,17.0,8.0,9.0,0.4705882352941176,272.89269963266327,1757.5375216534296,22.0,11.0,11.0,0.5,1431.897065581217,21705.1063703456,17.0,8.0,9.0,0.4705882352941176,786.4127563025636,12399.89701072028,94.0,47.0,47.0,0.5,62.476064355280386,9442.054818370068,,,,,20128.0,20177.0,20280.0,20296.0,20311.0,20333.0,20339.0,20356.0,20514.0,20604.0,0.02175916283260566,-0.07570786509216579,0.055775995015822935,-0.12133061862435379,0.007020870334557332
24,24,20982.08158601411,2131.0523471854463,16.750171019609585,21117.027373698995,-3644.3676594061126,9.868906167825468,21153.305591045973,25729.091233022395,8.865171223361946,21179.027373698995,-6849.693322884017,9.903437047293632,21391.260172995684,8689.769228167253,35.38563849215646,0.9446673285692612,147.0,103.0,79.0,245.0,324.0,44.0,833.0,832.0,47.0,20.0,27.0,0.425531914893617,52.86772331584943,1659.2529555511082,19.0,8.0,11.0,0.4210526315789473,260.3049518709152,2429.9881705163443,22.0,11.0,11.0,0.5,1450.4529745104378,21410.859275422234,20.0,9.0,11.0,0.45,699.1271112403831,11958.827776911188,91.0,47.0,44.0,0.5164835164835165,53.65637517324591,9036.697338164133,,,,,20963.0,21007.0,21110.0,21127.0,21142.0,21164.0,21170.0,21189.0,21346.0,21434.0,0.024808270611312595,-0.07142664412550917,0.0563740460700311,-0.1020669215809534,0.006174660542114592
25,25,21760.5658980925,2211.947787087145,16.86026399663463,21895.027373698995,-3782.421968501471,9.750893168562476,21930.653000576225,24972.494442609663,8.856412324795645,21956.027373698995,-7594.237423607826,9.39489228120079,22168.684833895823,8991.102014019625,34.79400280694856,0.946248609126644,147.0,102.0,79.0,244.0,323.0,45.0,780.0,777.0,48.0,22.0,26.0,0.4583333333333333,46.34597135757384,1857.388460829605,18.0,8.0,10.0,0.4444444444444444,273.4679687257789,2369.186314593342,21.0,11.0,10.0,0.5238095238095238,1441.2248600149503,20099.133003963816,19.0,9.0,10.0,0.4736842105263157,754.8564395964062,12796.582202960495,89.0,47.0,42.0,0.5280898876404494,51.434371765968265,9381.949986127318,,,,,21740.0,21785.0,21887.0,21905.0,21920.0,21941.0,21947.0,21966.0,22123.0,22210.0,0.020952561189794452,-0.07229969871238934,0.057712490969898486,-0.09939858309536409,0.005720585939940154
26,26,22594.30450517645,2148.9308200899927,16.23817893672405,22730.602712798853,-3452.518482358658,20.38372320690423,22766.67148941947,25408.591815666157,9.322916674256977,22791.027373698995,-8264.767312207689,9.425418370358516,23004.73714229738,8570.562027012023,33.50053994521017,0.9479343190717784,147.0,103.0,79.0,246.0,325.0,44.0,835.0,836.0,44.0,19.0,25.0,0.4318181818181818,51.12214349794881,2025.8434131046993,21.0,10.0,11.0,0.4761904761904761,262.7300653400433,2779.7380519451226,21.0,11.0,10.0,0.5238095238095238,1456.830961820251,20289.05136954986,19.0,8.0,11.0,0.4210526315789473,865.9555898488591,14500.600520221797,86.0,43.0,43.0,0.5,53.17466024214075,8978.698048125452,,,,,22575.0,22619.0,22722.0,22742.0,22756.0,22777.0,22783.0,22801.0,22964.0,23047.0,0.023789571548798356,-0.07609809091030671,0.05733615512379611,-0.10477676589512411,0.006204337600562138
27,27,23431.095930801723,2265.525415941127,16.847666225363614,23571.027373698995,-2974.062564882064,17.83575780113467,23606.397683322062,25370.37659271061,9.269275256565049,23631.027373698995,-7585.157236173484,8.785692625160806,23845.684833895823,8831.386809782303,34.7288917731285,0.9387074028171064,149.0,106.0,78.0,246.0,324.0,43.0,834.0,840.0,45.0,18.0,27.0,0.4,53.83873404891162,2279.208378323114,19.0,9.0,10.0,0.4736842105263157,261.9332953558252,2182.9695041433897,22.0,11.0,11.0,0.5,1423.0757702548149,21672.01465369797,18.0,8.0,10.0,0.4444444444444444,842.1241244721431,13547.222611650466,90.0,48.0,42.0,0.5333333333333333,53.143131761073434,9222.89610656762,,,,,23414.0,23457.0,23563.0,23581.0,23596.0,23617.0,23623.0,23641.0,23800.0,23887.0,0.023764347850649185,-0.08807255719793913,0.05609202390254197,-0.11102263252448712,0.006017529625382067
28,28,24276.00439200512,2228.3284076541217,17.12171597628807,24412.027373698995,-3811.7391679481966,9.001356711393967,24447.812383979763,25858.672844956323,8.926531675338152,24473.027373698995,-6825.626546244493,9.51802490109696,24685.260172995684,8771.51080255833,35.913867194036854,0.9420935457171336,148.0,106.0,78.0,245.0,323.0,42.0,846.0,841.0,48.0,21.0,27.0,0.4375,60.722662171326405,1870.6483494243807,18.0,8.0,10.0,0.4444444444444444,275.134203289827,2276.9437934237753,21.0,11.0,10.0,0.5238095238095238,1468.3058333168342,21183.933790821204,20.0,9.0,11.0,0.45,756.0764220097027,12531.65128919868,91.0,47.0,44.0,0.5164835164835165,50.594244133459114,9205.867718950774,,,,,24257.0,24299.0,24405.0,24422.0,24437.0,24458.0,24465.0,24483.0,24639.0,24728.0,0.027250319998950397,-0.0721807529757939,0.05678194863752352,-0.1107702592409925,0.005768019360895345
29,29,25079.40863539417,1754.506178471796,14.231829942761513,25216.027373698995,-3509.656908309588,17.8357578060484,25251.503668110803,25178.81637595796,9.221168161919008,25277.027373698995,-7867.04514816556,9.510927647035976,25488.276349219628,8509.51496376202,33.61544470632798,0.9351307057005384,146.0,106.0,80.0,244.0,324.0,40.0,804.0,804.0,42.0,18.0,24.0,0.4285714285714285,46.95107297879189,1586.3231648007943,22.0,11.0,11.0,0.5,268.2337460889778,2651.7044955199262,21.0,11.0,10.0,0.5238095238095238,1443.1003852856743,20221.96933791862,19.0,9.0,10.0,0.4736842105263157,771.3537661232941,13086.671652500105,86.0,43.0,43.0,0.5,55.07169043332721,8955.634173751561,,,,,25061.0,25101.0,25207.0,25226.0,25241.0,25262.0,25268.0,25287.0,25447.0,25531.0,0.02676027793740063,-0.07642734121785469,0.057314067656636214,-0.0980487275204158,0.00647177784725115
30,30,25936.095930801723,2191.0399549259937,16.839197300975094,26077.027373698995,-3089.511821264214,17.835757805840338,26112.65562368493,25528.954475756364,9.25831139131649,26137.027373698995,-7725.143460506439,8.747337480233567,26349.527940387034,8553.334643561378,35.21228737326091,0.943129543268176,150.0,105.0,78.0,246.0,324.0,45.0,855.0,861.0,46.0,17.0,29.0,0.3695652173913043,51.72539505712496,2376.2521221615866,18.0,8.0,10.0,0.4444444444444444,260.8573148434827,2457.037666961407,21.0,11.0,10.0,0.5238095238095238,1460.691512943202,20925.248573136327,18.0,8.0,10.0,0.4444444444444444,867.5872796812553,13964.783469571012,89.0,45.0,44.0,0.5056179775280899,55.48339797949329,9044.629602341469,,,,,25919.0,25964.0,26069.0,26087.0,26102.0,26123.0,26129.0,26147.0,26308.0,26393.0,0.02360769137999224,-0.08443318230669242,0.057217051890250795,-0.11230694732294055,0.006486756369489069
31,31,26872.280305490713,2252.3252024599306,17.19864223933734,27008.602712798853,-2992.5768179604993,20.383723206268364,27044.87739238113,25718.859097335386,9.291069133025818,27070.45203459914,-7170.024661092845,9.13177352901117,27285.684833895823,8736.33257453345,34.690575327044,0.9444337222151582,149.0,105.0,77.0,248.0,325.0,44.0,939.0,933.0,46.0,20.0,26.0,0.4347826086956521,58.825863478004585,2050.1331064741166,19.0,8.0,11.0,0.4210526315789473,261.0518490802458,2585.063291899082,22.0,11.0,11.0,0.5,1419.6484831591545,21440.655691866203,18.0,8.0,10.0,0.4444444444444444,806.2919873557042,13174.78175227441,89.0,47.0,42.0,0.5280898876404494,51.57621186847085,9024.059970945023,,,,,26853.0,26897.0,27002.0,27020.0,27034.0,27056.0,27062.0,27079.0,27241.0,27327.0,0.026117837430294933,-0.08723313216673176,0.05519873481892662,-0.11245316794110026,0.0059036456577690665
32,32,27799.769389127243,2341.0791220073784,18.82977040581897,27927.657660736455,-3628.5336636861466,6.388959413450259,27962.256167022297,26496.84197880133,8.842538001675125,27988.45203459914,-6066.930985916705,8.82045728317331,28202.260172995684,9030.287579536174,37.662293876788254,0.9487040645102977,140.0,97.0,77.0,248.0,325.0,43.0,924.0,917.0,51.0,25.0,26.0,0.4901960784313725,66.52142132128363,2154.5548395725536,16.0,8.0,8.0,0.5,317.98188163099985,1358.6870194982043,22.0,11.0,11.0,0.5,1451.9935137067018,22382.664788745133,18.0,9.0,9.0,0.5,720.050644318045,11409.367538446715,93.0,50.0,43.0,0.5376344086021505,46.820262485672416,9478.548622108085,,,,,27780.0,27823.0,27920.0,27936.0,27951.0,27973.0,27979.0,27997.0,28153.0,28245.0,0.02841485394318679,-0.08763371408492573,0.0547987384635634,-0.11868449566832287,0.0051848030390276075
33,33,28620.03835762053,1723.9459731309755,14.070765127230494,28752.027373698995,-3131.258863744992,17.835757799404984,28787.514235172184,25523.04895846218,9.175796223906753,28813.45203459914,-7386.55926445887,9.08267520882671,29024.585372941976,8879.243487603944,34.76680816388979,0.936659048016365,140.0,104.0,78.0,246.0,324.0,36.0,824.0,825.0,40.0,17.0,23.0,0.425,56.97973621005124,1779.6333565978534,19.0,9.0,10.0,0.4736842105263157,266.93608271098344,2366.228316869244,21.0,11.0,10.0,0.5238095238095238,1440.8919669858813,20913.305475419413,19.0,9.0,10.0,0.4736842105263157,786.9748376520218,12892.771811755783,88.0,44.0,44.0,0.5,63.16034528228583,9376.791410984792,,,,,28604.0,28640.0,28744.0,28762.0,28777.0,28798.0,28804.0,28822.0,28983.0,29068.0,0.03305192685740985,-0.08524880705382733,0.056454539163047476,-0.10654146395854777,0.007113257494341964
34,34,29451.69071832048,1691.9748568097075,13.339584806655775,29582.027373698995,-3230.4240295737022,17.835757800463494,29618.282283933113,26125.7218861729,9.392961760337885,29644.027373698995,-7213.471125680066,9.87351003685851,29859.109494795972,9077.892909390554,33.39187532673152,0.939168385307038,139.0,102.0,80.0,245.0,325.0,37.0,831.0,831.0,39.0,18.0,21.0,0.4615384615384615,54.512447637119266,1636.483961516802,21.0,10.0,11.0,0.4761904761904761,263.6637231172597,2384.0177589567106,22.0,11.0,11.0,0.5,1443.5254113790902,21778.470500525043,20.0,9.0,11.0,0.45,746.9957760102202,12586.07538117877,89.0,48.0,41.0,0.5393258426966292,69.30648098054652,9228.837110937426,,,,,29435.0,29472.0,29574.0,29592.0,29607.0,29629.0,29635.0,29654.0,29814.0,29899.0,0.03221823741512617,-0.08161892083004771,0.05525303444889993,-0.10355566176052247,0.007634644038249558
35,35,30207.52244147634,1849.5936224407271,14.916839937764824,30337.45203459914,-3968.340049470159,7.488623331409737,30372.849589432943,26569.21426633979,9.092871693066934,30397.602712798853,-7101.641655784531,9.62179120848728,30606.118857008416,8921.134671243917,36.62997798520686,0.9501475554356676,140.0,101.0,80.0,243.0,323.0,39.0,755.0,754.0,43.0,21.0,22.0,0.4883720930232558,54.96577379672135,1625.1359991825625,18.0,8.0,10.0,0.4444444444444444,301.49614109729,1895.191191829171,22.0,12.0,10.0,0.5454545454545454,1483.0410476595257,21455.699002787747,21.0,9.0,12.0,0.4285714285714285,756.366736315918,12594.081456961523,90.0,44.0,46.0,0.4888888888888889,61.47568054284566,9470.226833422768,,,,,30189.0,30228.0,30329.0,30346.0,30361.0,30383.0,30389.0,30409.0,30563.0,30652.0,0.02971775698717452,-0.07597537946314475,0.05581802430410492,-0.10650590004070838,0.006891015863823274
36,36,30938.91208064233,1810.6942176166417,15.426358574127644,31068.027373698995,-3797.9804868759193,7.95926521030881,31103.50989505423,25631.65890745571,8.801002469232293,31129.45203459914,-7607.085624614157,8.909395660001625,31337.83551209554,8990.783931607133,35.465234575293195,0.9488668736656916,141.0,101.0,77.0,244.0,321.0,40.0,731.0,731.0,44.0,21.0,23.0,0.4772727272727273,45.02527097052431,1626.5525503519818,18.0,8.0,10.0,0.4444444444444444,282.84053222694274,1967.926210749412,22.0,12.0,10.0,0.5454545454545454,1461.72709861208,20479.839626064044,18.0,9.0,9.0,0.5,782.1850488017975,12914.12716793868,88.0,44.0,44.0,0.5,57.30319203889806,9599.845188165978,,,,,30920.0,30960.0,31061.0,31078.0,31092.0,31114.0,31120.0,31138.0,31295.0,31382.0,0.024866302953013026,-0.07447129683902012,0.057028189392255624,-0.10282322132287963,0.00637354789913797
37,37,31738.07557538736,2031.748810034072,16.194065688233575,31872.027373698995,-3525.105385644246,9.043003700024096,31907.925787437907,25253.94602784376,8.852043589685085,31932.45203459914,-7731.246623057079,8.333525311044918,32145.684833895823,8762.290733044008,34.79538160241529,0.9490092438085348,147.0,103.0,76.0,246.0,322.0,44.0,801.0,804.0,45.0,21.0,24.0,0.4666666666666667,50.54011486275155,1988.5123044350896,18.0,8.0,10.0,0.4444444444444444,257.93689457669944,2120.1620335905977,21.0,11.0,10.0,0.5238095238095238,1451.244912704508,20803.13272254932,18.0,8.0,10.0,0.4444444444444444,894.7117292709925,14168.180526115728,88.0,46.0,42.0,0.5227272727272727,53.01851582730414,9197.746356689118,,,,,31718.0,31762.0,31865.0,31882.0,31897.0,31918.0,31924.0,31941.0,32101.0,32187.0,0.024875178768729782,-0.07317139953521108,0.05746606534695357,-0.1157267091445088,0.0060507597205560395
38,38,32973.47021306897,1782.394668301774,17.405270984294088,33107.56351885357,-3315.1616350690856,6.234415993995131,33142.05308424859,26200.91306998576,9.217616929168486,33166.45203459914,-6635.918929037199,8.062743685606423,33381.93423380253,8955.25678881288,38.63258342188301,0.9549992530161536,151.0,107.0,75.0,254.0,329.0,44.0,1240.0,1235.0,48.0,25.0,23.0,0.5208333333333334,68.40397402301006,1764.1728661650454,15.0,8.0,7.0,0.5333333333333333,313.6669340500068,892.8630270812027,23.0,12.0,11.0,0.5217391304347826,1419.6067335168382,22070.651620974044,16.0,6.0,10.0,0.375,892.4839921451542,13705.245876345323,98.0,49.0,49.0,0.5,62.000381290516394,9363.80118792119,,,,,32949.0,32993.0,33100.0,33115.0,33131.0,33153.0,33160.0,33175.0,33339.0,33429.0,0.03837756880645511,-0.09461587957941911,0.05418157488347446,-0.13449290168990116,0.0069233504691868526
39,39,33850.027373699,1312.4928242057233,12.3291741663368,33985.169184987615,-3760.485258616451,7.381480067194112,34020.318256562074,26665.63778254393,8.946527534070299,34045.027373699,-6909.707186695157,8.648283812168334,34256.3901793115,8990.95421029805,35.97950184416065,0.9435727015194824,134.0,118.0,77.0,246.0,323.0,16.0,877.0,878.0,17.0,6.0,11.0,0.3529411764705882,71.62892857604757,1386.2893255422257,17.0,8.0,9.0,0.4705882352941176,295.4211642894137,1819.239912344601,22.0,11.0,11.0,0.5,1479.0640376522797,22523.00330347244,18.0,8.0,10.0,0.4444444444444444,822.8459139868312,13133.61892361601,90.0,44.0,46.0,0.4888888888888889,59.67694141717996,9506.700023487048,,,,,33844.0,33860.0,33978.0,33994.0,34009.0,34031.0,34037.0,34055.0,34214.0,34301.0,0.054574720147056804,-0.07855931986769824,0.05546704150539824,-0.1190854969326696,0.006637442480668764
40,40,34721.45203459914,1356.1367590371487,13.308821239636348,34856.027373699,-2938.414177489938,17.8357578055151,34891.801178190726,25907.274284065257,9.293502958200383,34916.027373699,-7836.00707362342,8.63708679935828,35129.986135804866,8958.997264362442,34.247277890937795,0.9429939681156302,136.0,119.0,77.0,247.0,324.0,17.0,871.0,871.0,37.0,24.0,13.0,0.6486486486486487,71.00919014194666,1275.3406966851255,18.0,8.0,10.0,0.4444444444444444,264.08073727461976,2330.6881685633216,21.0,11.0,10.0,0.5238095238095238,1472.6160414563374,21447.37607732123,18.0,8.0,10.0,0.4444444444444444,891.3931624516002,14225.72091443459,87.0,43.0,44.0,0.4942528735632184,60.03636325413951,9495.635885692322,,,,,34713.0,34730.0,34849.0,34866.0,34881.0,34902.0,34909.0,34926.0,35089.0,35173.0,0.05236137850312595,-0.08987185649240356,0.05684179760902507,-0.11375604361717534,0.006701236922234057
41,41,35749.033626924014,1820.6595066119544,17.029078531288956,35885.032272510936,-3479.922368366541,6.7054056251412,35919.58747916339,25603.98414135904,8.852842748481148,35944.45203459914,-6742.415510026823,8.017929214775554,36159.24572646069,8963.379491333853,36.4591290801301,0.9513577320661528,153.0,111.0,75.0,251.0,326.0,42.0,1029.0,1028.0,48.0,25.0,23.0,0.5208333333333334,77.87495577860615,1712.6937377189074,17.0,8.0,9.0,0.4705882352941176,285.58213396082897,1448.0587681934132,22.0,12.0,10.0,0.5454545454545454,1442.511686982492,21112.56250945551,17.0,8.0,9.0,0.4705882352941176,855.6423285496716,13117.2888574663,90.0,44.0,46.0,0.4888888888888889,62.715990204381406,9474.075515703276,,,,,35725.0,35767.0,35878.0,35893.0,35908.0,35930.0,35937.0,35953.0,36117.0,36204.0,0.04277293777106232,-0.08206566231386359,0.056339344651145554,-0.12690441982954379,0.006996913414746936
42,42,36821.576305167335,1406.7930942384037,13.00914445586048,36955.20380068229,-3589.1973217123,7.458170879107469,36990.66161150439,26116.28143812131,9.0285062589304,37016.45203459914,-6457.597521180411,8.955613348289504,37230.58099611177,8982.344423499166,35.826165692526295,0.9476142325360022,136.0,115.0,77.0,250.0,327.0,21.0,1070.0,1071.0,21.0,10.0,11.0,0.4761904761904761,71.95363128047195,1663.101699911875,17.0,8.0,9.0,0.4705882352941176,273.51987732919844,1780.1698775799896,22.0,12.0,10.0,0.5454545454545454,1439.7136068984842,21479.30353196212,18.0,8.0,10.0,0.4444444444444444,764.3259464441476,12346.662892926552,90.0,45.0,45.0,0.5,58.76901888447686,9492.138771841774,,,,,36812.0,36833.0,36948.0,36964.0,36979.0,37001.0,37008.0,37025.0,37188.0,37275.0,0.05114727359350987,-0.0762064196567243,0.05512705207706058,-0.11836072841907826,0.006542726053871665
43,43,37766.00432333621,1621.697011405906,11.194639308400571,37904.15877921875,-3717.5652768067857,7.384313790318196,37939.186678774146,26068.01333702765,8.847768582525738,37964.45203459914,-6907.061506159434,8.343491612119823,38178.38793652865,9218.302645299473,35.419188592614056,0.9430309164377286,144.0,119.0,76.0,249.0,325.0,25.0,946.0,949.0,26.0,13.0,13.0,0.5,74.65449661718472,1592.2004643638215,16.0,7.0,9.0,0.4375,283.39334644820644,1941.206504081458,22.0,11.0,11.0,0.5,1446.3091179585006,22097.63564818445,17.0,8.0,9.0,0.4705882352941176,830.0767311814647,13081.98149737699,89.0,44.0,45.0,0.4943820224719101,62.624331917078294,9731.64333398588,,,,,37753.0,37778.0,37897.0,37913.0,37928.0,37950.0,37956.0,37973.0,38137.0,38222.0,0.04603479940587923,-0.07623089988930283,0.05548213817675655,-0.12017798458016281,0.006793477533416764
44,44,38744.178051898714,1650.662066908308,11.981642946520433,38882.19117765756,-3707.31902511351,7.706604540744663,38917.33344921587,25834.96843556471,8.776016658180952,38942.45203459914,-6877.43406403376,8.441165167520882,39157.468271173726,9032.90048993288,34.76869766812345,0.9434592424291104,145.0,118.0,76.0,250.0,326.0,27.0,979.0,978.0,27.0,14.0,13.0,0.5185185185185185,72.11256359707595,1605.896131899508,18.0,8.0,10.0,0.4444444444444444,271.6361598189288,2057.687512092295,22.0,11.0,11.0,0.5,1445.194768641683,21968.925516754236,17.0,8.0,9.0,0.4705882352941176,831.7018560976103,13118.6066238883,88.0,43.0,45.0,0.4886363636363636,62.64095443726371,9493.54118934875,,,,,38730.0,38757.0,38875.0,38892.0,38906.0,38928.0,38934.0,38951.0,39117.0,39201.0,0.04368705445091064,-0.07327024137357908,0.05593948265298483,-0.1209319999804985,0.0069347552878587255
45,45,39759.610443677666,1886.7841887321715,13.16486984002721,39898.529170632995,-3596.542695025533,6.6158159200441,39932.855285067446,25855.29579135142,8.963191593298374,39957.45203459914,-6679.737804361742,8.307728703616148,40173.21635910738,9177.95745156874,35.81300061635565,0.947791029266909,145.0,117.0,75.0,251.0,326.0,28.0,1015.0,1015.0,31.0,16.0,15.0,0.5161290322580645,76.88481807726573,1782.0376614037827,16.0,8.0,8.0,0.5,319.0155036681841,1358.757187302337,22.0,12.0,10.0,0.5454545454545454,1438.7903347449949,21629.279485061055,17.0,7.0,10.0,0.4117647058823529,865.2805685422034,13303.155448645346,91.0,45.0,46.0,0.4945054945054945,65.94948943279296,9636.911263310369,,,,,39746.0,39774.0,39891.0,39906.0,39922.0,39943.0,39950.0,39966.0,40132.0,40217.0,0.040749132061006214,-0.08870060241726654,0.055647800216861935,-0.12953810372275265,0.007185639046683591
46,46,40675.649996553,1391.6425108520368,8.156152135634809,40810.60271279886,-2953.8566006289766,20.383723206732913,40847.95944139181,26718.089748468625,9.413230933396305,40872.60271279886,-7220.868251651021,9.568008203297447,41087.66542682385,8792.717633680088,33.973318219525254,0.9420697856857564,140.0,119.0,79.0,247.0,326.0,21.0,915.0,916.0,23.0,13.0,10.0,0.5652173913043478,82.1052352334839,1214.7703636442511,19.0,7.0,12.0,0.3684210526315789,256.1979006023882,2708.331853488323,22.0,11.0,11.0,0.5,1476.148379091542,22007.618368434767,19.0,8.0,11.0,0.4210526315789473,784.2392092528128,13118.123215199756,87.0,43.0,44.0,0.4942528735632184,56.517005281263785,9131.37374058024,,,,,40665.0,40686.0,40805.0,40822.0,40837.0,40859.0,40865.0,40884.0,41048.0,41131.0,0.05899879789042572,-0.08673335751905997,0.055249023900600866,-0.10860732836020098,0.006427706158193694
47,47,41530.60271279886,1316.8540756119612,9.602711339814986,41670.027373699,-3705.6670233356945,9.132113571200437,41705.67853881012,25881.240344739577,8.960451354800767,41730.027373699,-7496.0315153218,8.882983774397122,41944.98466769926,9056.37755247875,33.53217115025286,0.94025565186312,144.0,120.0,78.0,247.0,325.0,24.0,856.0,857.0,26.0,14.0,12.0,0.5384615384615384,66.9984242971928,1126.9779779412238,18.0,8.0,10.0,0.4444444444444444,272.9350194017219,2199.520563661363,22.0,12.0,10.0,0.5454545454545454,1482.7497988327991,21182.44478486616,18.0,8.0,10.0,0.4444444444444444,855.1032673722392,13731.12573067029,85.0,42.0,43.0,0.4941176470588235,60.318346339536824,9499.161961672711,,,,,41518.0,41542.0,41662.0,41680.0,41695.0,41716.0,41722.0,41740.0,41906.0,41987.0,0.050877637498336827,-0.07365341183732062,0.05729052313886384,-0.11407412917413944,0.00666031710692401
48,48,42388.18446909859,1508.3956510992884,12.46769613290289,42530.45203459914,-3756.822639506328,7.970490974886882,42565.43015396026,25912.660807185508,8.860358600559831,42590.45203459914,-7038.124901997735,8.78841617690328,42804.65834984391,9049.067331583345,34.09654740217042,0.9420250437488192,146.0,120.0,77.0,248.0,325.0,26.0,857.0,860.0,28.0,13.0,15.0,0.4642857142857143,63.15485129071826,1499.0541250135238,18.0,8.0,10.0,0.4444444444444444,273.10747444550196,2027.7938474259931,22.0,11.0,11.0,0.5,1446.429551644018,22114.814598267934,18.0,8.0,10.0,0.4444444444444444,826.6129012431572,13400.185036427576,87.0,44.0,43.0,0.5057471264367817,73.16759380388842,9388.735005473878,,,,,42376.0,42402.0,42522.0,42539.0,42554.0,42576.0,42582.0,42599.0,42764.0,42847.0,0.041868889800028446,-0.07269639816730612,0.055819414393867534,-0.11744788743497966,0.008085650280058868
49,49,43223.710557126185,1154.5434695880374,6.650065990693965,43361.027373699,-3269.4112492164545,17.835757805938943,43396.79114311244,26094.327001843245,9.291747928223169,43422.027373699,-7455.362662455358,9.648760301162133,43638.10949479597,8785.929349617223,32.94538606603937,0.9323653041581214,138.0,122.0,79.0,246.0,325.0,16.0,834.0,832.0,16.0,9.0,7.0,0.5625,74.31700441678673,1084.196630677181,20.0,9.0,11.0,0.45,273.85610315339403,2534.6276442493795,22.0,11.0,11.0,0.5,1472.325415872611,21358.2437178245,20.0,9.0,11.0,0.45,776.4986621021984,13205.926777136658,85.0,45.0,40.0,0.5294117647058824,53.08460106512839,9045.605362380791,,,,,43215.0,43231.0,43353.0,43371.0,43386.0,43407.0,43413.0,43432.0,43594.0,43678.0,0.06436916961065521,-0.08376312500271303,0.05642319940915162,-0.10415303684857437,0.006042001813665976
50,50,44223.32873009842,1657.268429240676,15.558626946977355,44361.78502959986,-3549.8456768621563,6.609235076307128,44396.42472507566,25889.048775635605,8.868107762150593,44421.45203459914,-6944.697670960521,7.952777120304467,44638.26017299569,9258.491613591868,35.78342624431436,0.9460405726124428,156.0,115.0,76.0,251.0,327.0,41.0,1003.0,999.0,43.0,26.0,17.0,0.6046511627906976,62.619122493548424,1608.5503824412306,16.0,8.0,8.0,0.5,296.26341003868816,1447.248450828658,22.0,11.0,11.0,0.5,1425.6863548470567,22231.092647493613,17.0,8.0,9.0,0.4705882352941176,857.0854145269891,13235.044433356845,90.0,46.0,44.0,0.5111111111111111,61.004219528005734,9683.085674303831,,,,,44198.0,44239.0,44354.0,44370.0,44385.0,44407.0,44413.0,44430.0,44594.0,44681.0,0.03778453833350288,-0.08345810973410164,0.0550690899152997,-0.12341579938186793,0.006589001975057026
51,51,45340.32873009842,1699.9146864143631,14.073998792632594,45480.8444367423,-3604.8394717649503,7.147912032244245,45515.84937542853,25932.442657944448,8.892453892351611,45540.45203459914,-6857.124986758119,8.081878169046842,45757.835512095546,9028.274535696744,35.49726696355677,0.9459998517678894,146.0,117.0,76.0,253.0,329.0,29.0,1117.0,1119.0,31.0,14.0,17.0,0.4516129032258064,62.09599427096756,1716.2235423139728,17.0,8.0,9.0,0.4705882352941176,284.3840241549047,1770.2228808384805,21.0,11.0,10.0,0.5238095238095238,1453.1843366213434,21570.185136929176,16.0,7.0,9.0,0.4375,884.6623012537143,13584.188152247243,89.0,44.0,45.0,0.4943820224719101,58.913219198911825,9431.667116283115,,,,,45327.0,45356.0,45473.0,45490.0,45505.0,45526.0,45533.0,45549.0,45716.0,45802.0,0.03652888863613908,-0.07888951127570422,0.056037310321639056,-0.12901358848819247,0.006525412908743064
52,52,46412.786044829765,1760.0847553268911,12.764693352725685,46552.03363128112,-3528.942689253437,7.281878875974234,46587.21857818646,25735.04631578871,8.964038733365868,46612.45203459914,-6602.013601782143,8.468601055236029,46828.43666111864,9276.902004610132,36.22506730342184,0.9428579853168704,145.0,119.0,76.0,252.0,328.0,26.0,1071.0,1072.0,28.0,14.0,14.0,0.5,77.0055703008001,1776.1328165756497,17.0,8.0,9.0,0.4705882352941176,276.52846300028625,1703.541192219323,22.0,11.0,11.0,0.5,1411.0248703346197,21929.446201043487,18.0,8.0,10.0,0.4444444444444444,813.767583165229,12800.555448243014,90.0,44.0,46.0,0.4888888888888889,67.62577257424782,9789.833838611032,,,,,46400.0,46426.0,46545.0,46561.0,46576.0,46598.0,46605.0,46621.0,46786.0,46873.0,0.04375105804862123,-0.07836014561596268,0.05482892290226584,-0.12326051296615946,0.007289693535691265
53,53,47352.027373699,1363.3199850727526,9.164255096053887,47489.0273737649,-3884.251264173197,8.375910962375569,47524.91288370117,26340.871590778315,8.95021590975808,47550.027373699,-6782.917238967975,9.176634272989444,47766.68483389583,9180.207343245118,34.37498154868136,0.9385930261679636,142.0,120.0,78.0,248.0,326.0,22.0,939.0,937.0,22.0,12.0,10.0,0.5454545454545454,78.56014858402243,1374.903979660708,18.0,8.0,10.0,0.4444444444444444,286.8929383616966,2280.463516888437,21.0,11.0,10.0,0.5238095238095238,1472.996733660572,21745.44525580456,19.0,9.0,10.0,0.4736842105263157,770.1073313713385,12628.346175048307,88.0,46.0,42.0,0.5227272727272727,58.08648013438618,9451.81415347024,,,,,47340.0,47362.0,47482.0,47499.0,47514.0,47535.0,47542.0,47560.0,47723.0,47808.0,0.05762414506072844,-0.07386055094012173,0.055920576833769386,-0.11353630071542946,0.006327360370256425
54,54,48253.60271279886,1526.6413738644922,10.17513985832037,48391.50194121589,-3650.3635877437446,8.385777309936861,48427.22276993219,26041.775678353355,8.790014032355804,48452.45203459914,-7045.443208757158,8.609083373306083,48668.08808297644,9227.649310630104,33.94831939319607,0.9397887000039172,145.0,119.0,77.0,250.0,327.0,26.0,902.0,903.0,26.0,15.0,11.0,0.5769230769230769,69.21137625569442,1305.8051650229431,17.0,8.0,9.0,0.4705882352941176,278.35327871321425,2048.260161049293,22.0,11.0,11.0,0.5,1459.8075311153973,22082.384308418437,17.0,8.0,9.0,0.4705882352941176,825.9449944130853,13245.292154939352,86.0,42.0,44.0,0.4883720930232558,66.4130897925099,9664.513103583942,,,,,48239.0,48265.0,48384.0,48401.0,48416.0,48438.0,48444.0,48461.0,48628.0,48711.0,0.04533571370497769,-0.07625357639655336,0.056056374540113627,-0.11723109106698555,0.0071971839801067295
55,55,49198.94648991494,1735.1607400406456,12.116989536697382,49339.457473535,-3728.7872565727166,7.3367187613557565,49374.20622794681,26103.105153904093,8.76172478573045,49399.45203459914,-6805.039884482435,8.400354395590552,49615.34097329869,9183.266742081443,34.93376270525542,0.9432052672030168,146.0,119.0,76.0,251.0,327.0,27.0,946.0,947.0,29.0,14.0,15.0,0.4827586206896552,78.11946729539987,1607.7832333421086,17.0,7.0,10.0,0.4117647058823529,275.55396927317094,2066.226064833788,22.0,11.0,11.0,0.5,1457.0091359504345,22199.332067376745,17.0,8.0,9.0,0.4705882352941176,824.9406394728799,12933.799996376973,88.0,43.0,45.0,0.4886363636363636,64.46366485608918,9652.72550555675,,,,,49186.0,49213.0,49332.0,49348.0,49363.0,49385.0,49391.0,49408.0,49575.0,49659.0,0.04502145852698923,-0.07389908576507098,0.05581746414305495,-0.12122495289909997,0.007019687728408301
56,56,50207.178051898714,1788.0904354994698,13.763126610443871,50344.940731757306,-3595.991351008088,7.080927947681063,50379.68975815104,25837.83891653618,8.858008689745184,50404.45203459914,-6799.1976169342515,8.2947254590728,50621.04399240036,9170.702292050524,35.77845835260455,0.9454831478818788,145.0,117.0,76.0,252.0,328.0,28.0,1008.0,1005.0,31.0,16.0,15.0,0.5161290322580645,71.38896912918062,1742.4117205823031,17.0,8.0,9.0,0.4705882352941176,286.6344067765404,1713.047509981518,22.0,12.0,10.0,0.5454545454545454,1455.5286967132238,21338.868791440385,18.0,8.0,10.0,0.4444444444444444,855.8693031591915,13256.685693311536,90.0,45.0,45.0,0.5,64.00294452233278,9631.295584543304,,,,,50192.0,50220.0,50337.0,50354.0,50369.0,50390.0,50397.0,50413.0,50580.0,50665.0,0.0399246971584183,-0.07970942607973357,0.05633322126571845,-0.12587798610641085,0.006979066867955435
57,57,51135.38756805756,1399.8638413846256,12.595715677209672,51271.734825781285,-3623.73325357241,8.767341848478742,51307.63748132102,25854.69655214072,9.060026513155876,51332.027373699,-6814.888789727763,9.197752463825728,51548.36683520389,9175.868611968635,35.13239376248156,0.942004379379766,139.0,118.0,77.0,250.0,327.0,21.0,926.0,928.0,23.0,10.0,13.0,0.4347826086956521,74.5947995098944,1456.2005813553417,18.0,8.0,10.0,0.4444444444444444,279.5480981716726,2151.9702595085632,22.0,12.0,10.0,0.5454545454545454,1454.6758012264424,21279.290223928656,19.0,8.0,11.0,0.4210526315789473,815.4850578765228,13122.606263521957,90.0,44.0,46.0,0.4888888888888889,62.974279306788596,9662.906251993518,,,,,51126.0,51147.0,51265.0,51282.0,51296.0,51318.0,51324.0,51342.0,51508.0,51592.0,0.05328718215631,-0.07714367438499613,0.056263503162484345,-0.1196622693397025,0.0068630319340718835
58,58,51991.027373699,1248.353669230681,11.008974422176673,52127.027373699,-3590.8079345788437,9.44889501182482,52163.29100783573,25964.315577310055,8.9791505251736,52188.027373699,-7155.654772501934,9.111392300323496,52403.095522941985,9063.025680319048,34.21041695789789,0.9387579177527232,138.0,119.0,78.0,248.0,326.0,19.0,857.0,856.0,20.0,10.0,10.0,0.5,69.95279809666376,1307.9023634142775,17.0,7.0,10.0,0.4117647058823529,265.9948487977536,2269.755088041382,22.0,11.0,11.0,0.5,1452.842115331148,21844.533036843502,18.0,8.0,10.0,0.4444444444444444,807.2569284772502,13162.50190872426,87.0,43.0,44.0,0.4942528735632184,62.205745704950246,9555.268674325,,,,,51982.0,52001.0,52120.0,52137.0,52152.0,52174.0,52180.0,52198.0,52362.0,52446.0,0.056036041564866274,-0.07407660160162574,0.055955340359549924,-0.11281384501379424,0.0068636841491064166
59,59,52922.999579554875,2309.081431157053,18.473665427118902,53058.027373699,-3567.761915515625,9.617802570111682,53094.07519475331,25749.555040788266,8.987586308122106,53118.027373699,-7440.517284377064,8.801789799186256,53334.72628790507,9187.607714723525,35.263320493335314,0.9483480251158308,151.0,102.0,77.0,250.0,327.0,49.0,926.0,930.0,54.0,26.0,28.0,0.4814814814814814,41.88747557590435,2037.0717617546024,18.0,8.0,10.0,0.4444444444444444,263.35451548416285,2327.1172927613056,21.0,11.0,10.0,0.5238095238095238,1464.0344409911952,21422.96272247834,18.0,8.0,10.0,0.4444444444444444,878.707886694939,14037.722621166513,87.0,43.0,44.0,0.4942528735632184,59.20265375329506,9697.17564197175,,,,,52900.0,52949.0,53051.0,53068.0,53083.0,53104.0,53111.0,53128.0,53294.0,53378.0,0.018140319787212977,-0.07381504756213587,0.05685668892810417,-0.11809768771587584,0.006443750711996588
60,60,53979.15103671605,2478.2886282236345,19.06940503015363,54112.45203459914,-3811.7322683924535,7.878857875198254,54147.30661217371,25335.056660899132,8.874610625887822,54172.45203459914,-6927.54784273434,8.749017550255841,54389.60739354199,9212.44627609868,36.07192621594361,0.9501234421313544,145.0,99.0,77.0,253.0,330.0,46.0,1056.0,1054.0,49.0,22.0,27.0,0.4489795918367347,57.26612497577126,2442.70566528221,17.0,8.0,9.0,0.4705882352941176,273.7406887605799,2133.331086357521,22.0,11.0,11.0,0.5,1415.693168402953,21533.664184882065,18.0,8.0,10.0,0.4444444444444444,816.4824530520344,13132.926913676802,90.0,45.0,45.0,0.5,63.38215381375915,9648.58161675035,,,,,53959.0,54005.0,54104.0,54121.0,54136.0,54158.0,54164.0,54181.0,54349.0,54434.0,0.02310712494243173,-0.0718152980025605,0.0558788238507421,-0.11786024024480277,0.006880056818154977
61,61,55065.178051898714,1411.6404311655024,13.530512487208387,55198.45203460201,-3651.3112625714234,7.450754351979096,55233.71199274168,25988.19585236802,8.954327930808255,55259.45203459914,-6566.267921565078,8.811417297193186,55475.509679409966,9101.664416681208,35.952895546911435,0.9443293277726952,137.0,113.0,77.0,252.0,329.0,24.0,1093.0,1086.0,24.0,11.0,13.0,0.4583333333333333,69.36514989900374,1564.8871972363995,18.0,8.0,10.0,0.4444444444444444,272.9348071883484,1866.441398062172,22.0,12.0,10.0,0.5454545454545454,1441.203081492795,21383.88958362348,18.0,8.0,10.0,0.4444444444444444,774.9145222567687,12468.495795903676,90.0,45.0,45.0,0.5,58.40775656804556,9528.261575667397,,,,,55054.0,55078.0,55191.0,55207.0,55222.0,55244.0,55251.0,55268.0,55434.0,55520.0,0.04913797335893342,-0.07474980563452018,0.055456065118174566,-0.11801445379829505,0.006417261051835519
62,62,56095.02452861319,1706.5831881118345,12.948613502024154,56234.9754772392,-3562.621792202576,7.128303934292629,56269.919858068955,25835.19202237384,8.91912166301077,56294.45203459914,-7146.335528570862,8.239731891194731,56512.35460770299,9373.96681676936,35.0483658888818,0.9436144757654042,146.0,119.0,75.0,253.0,328.0,27.0,1030.0,1036.0,31.0,15.0,16.0,0.4838709677419355,72.42012998979126,1610.999735037252,17.0,8.0,9.0,0.4705882352941176,283.26147780124114,1668.1716681115024,21.0,11.0,10.0,0.5238095238095238,1451.1671647449732,21463.152389958388,18.0,8.0,10.0,0.4444444444444444,888.4300522964811,13811.257981909868,88.0,43.0,45.0,0.4886363636363636,63.832803272529176,9842.395718719928,,,,,56082.0,56109.0,56228.0,56244.0,56259.0,56280.0,56287.0,56303.0,56472.0,56556.0,0.042435745584671426,-0.07950927556251092,0.05617017142695246,-0.12431966687605991,0.0068095828073912994
63,63,57261.81428599964,1715.7874973533878,12.822407721886355,57400.54877200766,-3552.2133390321437,7.131597641651111,57435.50461758142,26063.526143127085,8.862880653945282,57460.45203459914,-6672.501658147831,8.181501049421291,57679.354552529425,9350.475638478556,35.25229469692213,0.9459061659267712,145.0,117.0,76.0,254.0,330.0,28.0,1167.0,1166.0,30.0,15.0,15.0,0.5,74.12434007047453,1613.4136233088395,16.0,8.0,8.0,0.5,291.25877193732146,1603.539500300929,22.0,12.0,10.0,0.5454545454545454,1466.8516798432386,21370.113439426772,16.0,7.0,9.0,0.4375,850.2147180113154,13203.007083130942,87.0,42.0,45.0,0.4827586206896552,63.86603767072229,9779.828334928116,,,,,57248.0,57276.0,57393.0,57409.0,57424.0,57446.0,57453.0,57469.0,57639.0,57723.0,0.04320135225650715,-0.08199360346320851,0.05627986296973272,-0.12742068291180014,0.006830244806788687
64,64,58402.60271279886,1551.7131310540408,13.41233745675522,58537.52140857513,-3535.4571987714203,7.1497915250693405,58572.83038630558,26084.659968599513,9.1889163437901,58597.027373699,-6819.874144626894,8.606081455326528,58816.29783105641,9545.039111072734,35.81228275717972,0.9449899099080836,140.0,116.0,77.0,254.0,331.0,24.0,1140.0,1137.0,25.0,14.0,11.0,0.56,78.43367070166552,1654.262460310613,16.0,8.0,8.0,0.5,299.8525932222702,1408.3397664855445,22.0,12.0,10.0,0.5454545454545454,1437.8078691238347,21647.920838497448,17.0,7.0,10.0,0.4117647058823529,850.9730225262366,13482.090353287356,89.0,43.0,46.0,0.4831460674157303,60.79007996016871,9978.029032340482,,,,,58390.0,58414.0,58530.0,58546.0,58561.0,58583.0,58590.0,58607.0,58775.0,58861.0,0.05054650188362294,-0.08481296091675772,0.05512082085235749,-0.12477840565381755,0.006368761746575674
65,65,59391.3068418307,1480.3773336457373,14.671427127813304,59529.31866448519,-3675.6477117141976,7.018978794600899,59564.295105636906,26074.237741760026,8.934677015716042,59589.45203459914,-6932.611115018068,8.364901905502922,59807.34232371515,9664.539403467916,35.357610716744304,0.9431742020646192,139.0,115.0,76.0,253.0,329.0,24.0,989.0,992.0,41.0,24.0,17.0,0.5853658536585366,72.12225203399484,1407.8225731988894,16.0,7.0,9.0,0.4375,285.55179816524236,1776.179162439733,22.0,11.0,11.0,0.5,1434.47388899287,22193.12302971584,17.0,8.0,9.0,0.4705882352941176,840.667026849048,13181.048983661727,89.0,43.0,46.0,0.4831460674157303,66.55879030249201,10162.228248582063,,,,,59383.0,59407.0,59522.0,59538.0,59553.0,59575.0,59581.0,59598.0,59767.0,59851.0,0.048718830256863487,-0.07768747729963237,0.05501498848019793,-0.12126268341057193,0.0068869076449322355
66,66,60505.56113127703,1636.8005402541642,15.014582160894864,60642.7822860675,-3424.222083808283,7.342238621302442,60678.00220117131,25727.962472806477,8.989524147464527,60702.45203459914,-6990.008274368614,8.170637267544791,60922.21741718941,9546.634118760736,35.59725755040982,0.9454633820131998,154.0,114.0,75.0,256.0,331.0,40.0,1114.0,1114.0,42.0,25.0,17.0,0.5952380952380952,64.37082124771308,1574.0158696792516,17.0,8.0,9.0,0.4705882352941176,275.8043246240735,1601.2098457260474,22.0,11.0,11.0,0.5,1429.7263509622703,21460.97943776344,17.0,7.0,10.0,0.4117647058823529,891.953906781334,13796.54043693314,89.0,43.0,46.0,0.4831460674157303,61.4899449043595,10005.431327010558,,,,,60482.0,60522.0,60636.0,60652.0,60667.0,60689.0,60695.0,60711.0,60881.0,60967.0,0.03932722385203851,-0.08054510422330287,0.055570912483778656,-0.12760412745890512,0.006441007808555421
67,67,61624.178051898714,1457.6527973415489,15.314571815799344,61759.95654241358,-3486.1056813917894,6.945303616115208,61795.20241757667,26199.503546035943,9.149171719054095,61820.45203459914,-6582.100552942451,8.631055607651634,62039.3134764293,9644.52019506059,35.96119637808127,0.945843835051922,136.0,115.0,77.0,255.0,332.0,21.0,1119.0,1117.0,40.0,25.0,15.0,0.625,76.03841137906048,1411.9524423121252,17.0,8.0,9.0,0.4705882352941176,286.7804709044024,1471.2496417874036,22.0,11.0,11.0,0.5,1412.8854200852634,22110.59264846804,18.0,8.0,10.0,0.4444444444444444,821.8533291622692,12951.599365040996,89.0,43.0,46.0,0.4831460674157303,62.7366090287003,10155.678802140672,,,,,61616.0,61637.0,61752.0,61768.0,61784.0,61806.0,61813.0,61829.0,61999.0,62084.0,0.052164967897525734,-0.08226384886585207,0.05392794629114401,-0.12486186173422545,0.006504896849179771
68,68,62629.178051898714,1432.847860053765,14.373166513432215,62765.14500131743,-3573.3587367348573,7.964905010412632,62800.858926567686,25686.808725787545,8.985121408664723,62825.45203459914,-7224.574229721756,8.304475704947231,63044.59393062691,9654.697369022242,34.971442406308825,0.9419698331752594,134.0,116.0,76.0,254.0,330.0,18.0,1005.0,1005.0,41.0,23.0,18.0,0.5609756097560976,79.45777293682185,1245.1072874690883,18.0,8.0,10.0,0.4444444444444444,264.7146238941249,1918.1378283188956,22.0,12.0,10.0,0.5454545454545454,1441.1706637152472,21238.538222527328,18.0,8.0,10.0,0.4444444444444444,884.0862633832163,13818.695150023575,87.0,43.0,44.0,0.4942528735632184,68.12377542112472,10128.019294665522,,,,,62624.0,62642.0,62758.0,62775.0,62790.0,62811.0,62818.0,62834.0,63004.0,63088.0,0.05545443808237976,-0.07408005839794492,0.056105477293815195,-0.12237209214988794,0.007056023903939705
69,69,63815.178051898714,1479.0154500354258,14.876947220954094,63949.649694520245,-3567.4902996560345,7.404817244531049,63985.145573207476,26190.907967108345,9.134259732472804,64010.45203459914,-6737.446109590424,8.734368836222268,64230.85153591657,9552.260698995971,35.39314737847623,0.9474914403881464,133.0,114.0,77.0,256.0,333.0,19.0,1186.0,1185.0,25.0,7.0,18.0,0.28,79.45366417042413,1462.0259486790908,17.0,8.0,9.0,0.4705882352941176,294.55316642480983,1586.491020698389,22.0,11.0,11.0,0.5,1418.7865212124464,22016.73649836493,18.0,8.0,10.0,0.4444444444444444,825.2727786740589,13215.64178377347,89.0,44.0,45.0,0.4943820224719101,65.22843110585261,9977.301769361757,,,,,63809.0,63828.0,63942.0,63959.0,63974.0,63996.0,64003.0,64019.0,64190.0,64275.0,0.05372064515520851,-0.08256593338269473,0.05417095592845497,-0.12249044597170486,0.006828585730779804
70,70,64826.32873009842,1375.8685237885977,14.2249350939325,64964.452034599235,-3622.255696166719,7.257965072240264,64999.38539821682,25869.23158543409,8.942184261767878,65024.45203459914,-7091.51638051358,8.23619017205074,65244.22073906723,9717.819154489422,34.84661339701809,0.9424063830813209,138.0,115.0,76.0,254.0,330.0,23.0,1012.0,1014.0,40.0,23.0,17.0,0.575,73.08145858486192,1158.8044951957147,17.0,8.0,9.0,0.4705882352941176,272.4576057824605,1748.5938296375498,22.0,11.0,11.0,0.5,1424.6018492200467,22069.86210138518,17.0,8.0,9.0,0.4705882352941176,857.2919214528725,13418.159623469805,86.0,42.0,44.0,0.4883720930232558,63.68743014299856,10203.873327128382,,,,,64819.0,64842.0,64957.0,64973.0,64988.0,65010.0,65016.0,65033.0,65204.0,65287.0,0.05311660040279466,-0.07521766231765221,0.05506935312381609,-0.12088978935571267,0.006553675174493893
71,71,65871.75339099858,1612.362609998442,15.844061686025851,66009.0744309028,-3552.557990255485,7.223246550057887,66044.1801355996,25810.12541830661,8.87404397464123,66069.45203459915,-6908.359250414977,8.242823439522384,66289.37713248478,9566.573403035907,35.23319903081574,0.9461543740977,154.0,116.0,76.0,255.0,331.0,38.0,1045.0,1045.0,43.0,25.0,18.0,0.5813953488372093,76.56832861955188,1415.7201046298453,17.0,8.0,9.0,0.4705882352941176,273.24424996426825,1727.9412378497864,22.0,11.0,11.0,0.5,1429.5191061717026,21809.554330630184,17.0,8.0,9.0,0.4705882352941176,833.1219494226273,13056.370680982429,87.0,42.0,45.0,0.4827586206896552,66.77508365537123,9997.355036312656,,,,,65848.0,65886.0,66002.0,66018.0,66033.0,66055.0,66061.0,66078.0,66249.0,66333.0,0.04748828095165632,-0.07691478948795925,0.055385980618202386,-0.1205962109414884,0.0069800419483720755
72,72,66973.027373699,1358.5783458337871,14.28780574211193,67106.17996188437,-3480.2221623395494,8.027317244668351,67142.1252982046,25792.154735046664,9.216023116178782,67167.027373699,-6901.156687256488,8.901653727753482,67387.87113707217,9562.87190271695,35.33416085991639,0.9442785954400816,133.0,116.0,78.0,255.0,333.0,17.0,1100.0,1098.0,23.0,8.0,15.0,0.3478260869565217,76.91435752176922,1377.9724644241533,17.0,7.0,10.0,0.4117647058823529,265.501135119046,1816.645685470524,23.0,12.0,11.0,0.5217391304347826,1406.9529420984968,21509.15631371032,18.0,8.0,10.0,0.4444444444444444,805.62108629997,13119.456982546351,90.0,44.0,46.0,0.4888888888888889,65.01030014525477,9927.520698019292,,,,,66966.0,66983.0,67099.0,67116.0,67131.0,67153.0,67160.0,67177.0,67347.0,67432.0,0.056613855032825004,-0.07628855938914117,0.05454964723000493,-0.1167371098511081,0.006798198366202564
73,73,67922.17805189872,1471.7993445540976,15.272497994812833,68056.72444224739,-3625.2801847574774,7.588914836849941,68092.07823568444,26171.445606401747,8.96748105026907,68117.45203459915,-7087.375717634238,8.616538251772246,68336.52537905898,9611.873328637645,35.00358374240438,0.9460046057413954,150.0,114.0,77.0,254.0,331.0,36.0,950.0,950.0,42.0,25.0,17.0,0.5952380952380952,69.55859026853686,1343.4612461458514,17.0,8.0,9.0,0.4705882352941176,288.5292323343291,1717.17638910301,22.0,11.0,11.0,0.5,1441.6786520476862,21934.518318008348,18.0,8.0,10.0,0.4444444444444444,831.650905648372,13255.146105267648,87.0,43.0,44.0,0.4942528735632184,64.70630148192683,10054.050248775127,,,,,67899.0,67935.0,68049.0,68066.0,68081.0,68103.0,68109.0,68126.0,68296.0,68380.0,0.0472609194493225,-0.07958811943624462,0.055085938840728,-0.11734257344070602,0.006731913672763526
74,74,68881.96553234688,2337.6117812733114,18.02701067054966,69015.60271279886,-3095.8359927097736,20.38372320071841,69051.92161424924,25942.94233054968,9.444451662346546,69076.027373699,-7968.323042400525,8.83393218792712,69297.19322679183,9461.353931141048,34.25239446256682,0.9448482442019464,147.0,101.0,77.0,254.0,331.0,46.0,953.0,960.0,48.0,21.0,27.0,0.4375,53.487476162891035,2295.894399600055,19.0,8.0,11.0,0.4210526315789473,259.89886113096475,2630.2158752369705,22.0,11.0,11.0,0.5,1448.227910115084,21339.29632996912,17.0,7.0,10.0,0.4117647058823529,904.5889677378258,14587.232902003794,85.0,41.0,44.0,0.4823529411764706,64.58790537985433,9884.03477559036,,,,,68862.0,68908.0,69009.0,69027.0,69041.0,69062.0,69069.0,69086.0,69257.0,69340.0,0.02288124854237177,-0.08395110779220454,0.05582357974907463,-0.11352312938674618,0.006826497121862238
75,75,69851.73182526832,2328.6301788213764,18.11549406378373,69991.027373699,-3796.296466594973,9.138935278395708,70026.5572789558,25662.69978600103,8.854178633072875,70051.45203459915,-7169.004683312628,8.697114790760114,70271.34206034848,9286.366318884562,34.70130275565559,0.9428704654782106,152.0,106.0,77.0,255.0,332.0,46.0,969.0,974.0,49.0,23.0,26.0,0.4693877551020408,47.740086631180176,2124.1127235130966,18.0,8.0,10.0,0.4444444444444444,271.31285987812805,2373.1503735638075,22.0,12.0,10.0,0.5454545454545454,1469.3405140611846,20956.13882942356,18.0,8.0,10.0,0.4444444444444444,850.6195984984705,13563.120024236148,87.0,42.0,45.0,0.4827586206896552,66.15946536589423,9753.927885206427,,,,,69831.0,69877.0,69983.0,70001.0,70016.0,70037.0,70043.0,70060.0,70231.0,70315.0,0.020501360441589556,-0.07146777451801012,0.057255882129077784,-0.11865239821623597,0.007124365235447768
76,76,71040.192881917,1420.4996937697945,14.576889902772152,71174.57552142369,-3643.919270218942,6.981547531969639,71209.8026337352,26535.64897809314,9.11447271095585,71235.45203459915,-6468.544011603315,8.807364129038708,71455.34190817215,9116.388962268127,36.04585843547084,0.948457114961492,134.0,113.0,77.0,256.0,333.0,21.0,1196.0,1183.0,24.0,8.0,16.0,0.3333333333333333,82.37228566583008,1490.1430891294603,16.0,8.0,8.0,0.5,307.8942932655358,1460.0754844090302,23.0,12.0,11.0,0.5217391304347826,1443.3275743341926,21929.70474489159,18.0,8.0,10.0,0.4444444444444444,791.2418868578117,12732.826780073989,91.0,45.0,46.0,0.4945054945054945,65.65421894184092,9513.98715473002,,,,,71033.0,71054.0,71167.0,71183.0,71198.0,71221.0,71228.0,71244.0,71414.0,71500.0,0.05798824598633056,-0.08449536623434475,0.05439202091969753,-0.12232148153254843,0.007201779039220192
77,77,72023.71934020333,2182.720437994581,17.311033463810215,72158.45203459915,-3943.563291799853,8.039270374109233,72193.38879258337,25571.750912578627,8.951098607588953,72218.45203459915,-7445.266586344294,8.771773291598347,72438.52863788539,9513.740295094538,34.8298068585499,0.9447991859407452,147.0,101.0,77.0,255.0,332.0,46.0,978.0,984.0,48.0,22.0,26.0,0.4583333333333333,50.59488493159276,1972.95367697055,17.0,8.0,9.0,0.4705882352941176,282.478983282077,2162.192054844816,22.0,11.0,11.0,0.5,1423.6096736508223,21568.584035448617,18.0,8.0,10.0,0.4444444444444444,849.9212934646456,13819.814293810896,87.0,43.0,44.0,0.4942528735632184,58.11037587610845,9861.254852264106,,,,,72003.0,72049.0,72150.0,72167.0,72182.0,72204.0,72210.0,72227.0,72398.0,72482.0,0.023179736649223775,-0.07163039169916628,0.05567118491485678,-0.11415592492329628,0.006108047316161367
78,78,72939.70469961115,2166.5018766572916,16.994238046945743,73077.027373699,-3158.364968045433,17.83575780387635,73112.92601803993,25886.174684570804,9.398962658989172,73137.027373699,-7827.16276640041,8.922977950370898,73357.71218506193,9308.196867787696,34.09861093144375,0.9405971149894756,149.0,104.0,78.0,254.0,332.0,45.0,914.0,919.0,47.0,21.0,26.0,0.4468085106382978,47.95882451958972,1902.3448460826976,20.0,9.0,11.0,0.45,262.0906808388067,2484.398886322465,21.0,11.0,10.0,0.5238095238095238,1458.1420770907937,21445.78021330294,19.0,8.0,11.0,0.4210526315789473,895.6141079699904,14447.461691300174,86.0,42.0,44.0,0.4883720930232558,66.38334644326679,9641.572707730276,,,,,72920.0,72965.0,73069.0,73087.0,73102.0,73123.0,73130.0,73147.0,73318.0,73401.0,0.022136525722094305,-0.0829830255497681,0.056328990082876354,-0.11442385123439427,0.007131708470090007
79,79,73854.09593080172,2184.347176419038,17.273547762367965,73994.60271279886,-3180.434454503868,20.383723197883956,74031.0577302174,25978.48650187872,9.313072597051288,74056.027373699,-7423.865975161421,9.30813529367856,74276.21300016264,9190.08161707296,33.7617637154431,0.9404931049243326,150.0,105.0,79.0,253.0,332.0,45.0,913.0,918.0,45.0,17.0,28.0,0.3777777777777777,53.36729043418369,2396.9393609902877,20.0,9.0,11.0,0.45,245.0059189891599,2722.8750781979124,22.0,11.0,11.0,0.5,1440.8730125348127,21686.678709727843,18.0,8.0,10.0,0.4444444444444444,816.5362839025776,13413.768324260733,85.0,41.0,44.0,0.4823529411764706,63.80718080404243,9491.831316457858,,,,,73837.0,73882.0,73987.0,74006.0,74020.0,74042.0,74048.0,74066.0,74236.0,74319.0,0.02443168879485203,-0.07703536183309888,0.055464086117203604,-0.10998801522475264,0.006943048327830305
80,80,74745.24678781418,2214.392293607714,17.33811231645015,74880.64220122684,-3714.322434731896,8.861123637111652,74917.0928026664,26403.005716090225,9.009055162566932,74942.027373699,-6902.597290751119,9.512552244840943,75159.41361643159,8950.520759777139,35.32377138916696,0.943233321303842,148.0,105.0,78.0,252.0,330.0,43.0,891.0,886.0,47.0,20.0,27.0,0.425531914893617,55.25958645255228,1987.4757707202768,18.0,8.0,10.0,0.4444444444444444,275.79499317258336,2283.408419899779,22.0,11.0,11.0,0.5,1469.861063677365,21763.3187134678,20.0,9.0,11.0,0.45,781.1620548086136,12993.20236116243,90.0,44.0,46.0,0.4888888888888889,62.46985263291617,9378.978518286973,,,,,74726.0,74769.0,74874.0,74891.0,74906.0,74928.0,74934.0,74952.0,75118.0,75204.0,0.02495474113239561,-0.07425176408856668,0.05567021722764006,-0.11316929293489321,0.00697946569920828
81,81,75569.03178051252,1770.10471972723,14.326892038413218,75709.027373699,-3633.401661766736,17.8357578060484,75744.50115331546,25615.42615612721,9.425944727110346,75769.027373699,-8406.490810566906,9.622209492399396,75988.31451679335,8853.029181093802,32.3920987570688,0.934096697764856,148.0,109.0,80.0,251.0,331.0,39.0,826.0,828.0,41.0,18.0,23.0,0.4390243902439024,49.750540935050545,1573.46396146321,22.0,12.0,10.0,0.5454545454545454,266.7390155865279,2676.0477953281415,21.0,11.0,10.0,0.5238095238095238,1467.2331940917388,20387.452392759653,19.0,8.0,11.0,0.4210526315789473,865.9203309110396,14572.069360693538,82.0,40.0,42.0,0.4878048780487805,59.935431174596914,9108.27625781442,,,,,75551.0,75590.0,75699.0,75719.0,75734.0,75755.0,75761.0,75779.0,75949.0,76030.0,0.028105987391930695,-0.07341302735487451,0.05727928105309998,-0.10300615921956202,0.006770047850129398
82,82,76453.49429503852,1952.039929191019,15.812518800413772,76594.027373699,-3504.575145304131,17.8357578060484,76629.26012460036,25695.616185273884,9.406009032632143,76654.027373699,-7986.776872852869,9.496799428005152,76873.90746534223,8853.04786147955,32.946473884152375,0.937786958942748,150.0,109.0,79.0,252.0,331.0,41.0,882.0,885.0,43.0,18.0,25.0,0.4186046511627907,53.84409702318764,1839.9076045523864,20.0,10.0,10.0,0.5,282.92133597787483,2564.468080968938,22.0,11.0,11.0,0.5,1439.7485424578872,21497.91794699432,19.0,8.0,11.0,0.4210526315789473,843.5849280932912,14149.790523207525,83.0,41.0,42.0,0.4939759036144578,56.87449039591811,9088.284147336442,,,,,76435.0,76476.0,76585.0,76604.0,76619.0,76640.0,76646.0,76664.0,76834.0,76916.0,0.027583501862844667,-0.08072913955261261,0.05603090161671253,-0.10562269880865764,0.006424283623652867
83,83,77354.52059170186,2247.8596819562413,17.78735482790291,77492.45203459915,-3924.4991944941903,7.660617241910855,77527.6294867055,26875.392704867365,9.144305331014538,77551.60271279886,-7180.947748413464,9.3109397693574,77768.91466778015,8737.853716845417,35.9969823691409,0.9478143850004918,148.0,105.0,79.0,251.0,330.0,43.0,901.0,898.0,50.0,21.0,29.0,0.42,63.73960821745251,1790.6786844405808,18.0,8.0,10.0,0.4444444444444444,290.0295479317436,2012.810016076003,22.0,12.0,10.0,0.5454545454545454,1506.6820498641182,21556.60391740856,19.0,8.0,11.0,0.4210526315789473,824.2560321624309,13728.53593368255,91.0,45.0,46.0,0.4945054945054945,61.53557317397596,9169.048369550248,,,,,77336.0,77379.0,77484.0,77501.0,77516.0,77538.0,77544.0,77563.0,77727.0,77814.0,0.028355688181560312,-0.0739023079272473,0.05606176871198779,-0.11478373900499964,0.007042412835928299
84,84,78162.82194810128,1677.5906529742988,13.616837089506395,78306.60271279886,-3591.3106595797417,20.383723206871817,78342.88115862179,25923.393146861883,9.33064043412456,78368.027373699,-8288.050879118711,9.469922797856428,78586.24025398378,8755.305423778087,32.476949676221444,0.9331600845808242,148.0,111.0,80.0,250.0,330.0,37.0,810.0,816.0,37.0,13.0,24.0,0.3513513513513513,61.59457676665933,2068.3968336561275,21.0,10.0,11.0,0.4761904761904761,266.6412801197533,2918.9498246016283,22.0,11.0,11.0,0.5,1460.235590058866,20986.830495959315,19.0,9.0,10.0,0.4736842105263157,830.2922411603729,14085.082934761813,84.0,41.0,43.0,0.4880952380952381,61.288144762289264,9022.140086890768,,,,,78150.0,78187.0,78298.0,78318.0,78332.0,78353.0,78359.0,78378.0,78547.0,78628.0,0.03671609439254725,-0.0742462308039249,0.05632887569101395,-0.10017943341205211,0.0070001149926580426
85,85,79026.82363204448,1874.9193823996188,15.096528360278985,79163.60271279886,-3224.1965911093384,20.383723206912453,79200.47243076726,25888.19164804783,9.357510392809996,79225.027373699,-7862.350347579274,9.116274019258045,79444.18797106962,8730.986917371474,33.29343270589478,0.9392292049656102,147.0,106.0,79.0,251.0,330.0,41.0,865.0,857.0,44.0,19.0,25.0,0.4318181818181818,50.7751006311573,1606.347372671787,21.0,10.0,11.0,0.4761904761904761,240.33118656585287,2709.594746103615,22.0,11.0,11.0,0.5,1432.6102046890785,21934.19152120849,19.0,8.0,11.0,0.4210526315789473,860.6655208061419,14101.651874235537,84.0,41.0,43.0,0.4880952380952381,61.68361220105853,8966.14779948511,,,,,79009.0,79050.0,79156.0,79175.0,79190.0,79211.0,79217.0,79235.0,79406.0,79486.0,0.02708121805545191,-0.07453986745986942,0.0553383652348351,-0.10946669669472701,0.007064907184585362
86,86,79881.24660900142,1879.4029503534696,15.423113706217364,80020.60271279891,-3130.323189947166,20.38372320131825,80058.2570588613,26892.000897544644,9.544625218581649,80082.60271279886,-7704.86704275426,9.7974463553194,80299.75960408068,8882.356227956316,34.80786559045767,0.938230602312808,147.0,107.0,80.0,249.0,329.0,40.0,853.0,858.0,42.0,15.0,27.0,0.3571428571428571,67.87241839069331,2160.0428315753898,20.0,8.0,12.0,0.4,244.5646577625644,2624.9412229821996,22.0,11.0,11.0,0.5,1476.710755190219,22127.403914650065,20.0,8.0,12.0,0.4,823.8855223589336,13900.422015730355,88.0,44.0,44.0,0.5,63.45574148182998,9351.334837971332,,,,,79867.0,79907.0,80014.0,80032.0,80047.0,80069.0,80075.0,80094.0,80260.0,80343.0,0.03611381922004974,-0.07812760629572316,0.054912639666208296,-0.10693053076544967,0.0071440212319012234
87,87,80676.158783015,1968.4830632580904,15.760392227841736,80814.027373699,-3159.2367741276134,17.835757803364324,80849.50637870393,26075.71108868315,9.363447063080503,80875.027373699,-7988.95101581164,9.508364478897263,81090.83875477378,8793.072296126498,34.20716469557539,0.9433324948798536,148.0,106.0,80.0,249.0,329.0,42.0,795.0,791.0,44.0,20.0,24.0,0.4545454545454545,51.94415421992029,1640.4455838410229,20.0,10.0,10.0,0.5,274.25181006486224,2193.1426207332916,21.0,11.0,10.0,0.5238095238095238,1476.455234892322,20890.209206220476,20.0,9.0,11.0,0.45,796.9322912246373,13461.136527213052,86.0,42.0,44.0,0.4883720930232558,62.08216065939817,9231.73893368535,,,,,80657.0,80699.0,80805.0,80824.0,80839.0,80860.0,80866.0,80885.0,81050.0,81134.0,0.02638791015755355,-0.08680951434562663,0.05662185893496508,-0.09975430937645732,0.0070603491667805855
88,88,81527.47637874178,1981.2247101693183,15.665302493870865,81667.027373699,-3239.673607479572,17.8357578047257,81701.98744085284,25781.30797385875,9.235824728751526,81727.45203459915,-7819.890907768322,9.0488928040476,81944.90898882126,8720.735591477713,33.900969541227376,0.9381966179136004,149.0,107.0,78.0,251.0,329.0,42.0,851.0,853.0,43.0,18.0,25.0,0.4186046511627907,53.56631410638604,1848.318175731535,20.0,10.0,10.0,0.5,272.44186934264485,2368.338851955973,22.0,11.0,11.0,0.5,1449.515774155626,21474.674934428847,18.0,8.0,10.0,0.4444444444444444,842.9270393402136,13844.879530748323,85.0,42.0,43.0,0.4941176470588235,59.62805386335913,9112.831636388342,,,,,81509.0,81551.0,81658.0,81677.0,81691.0,81713.0,81719.0,81736.0,81905.0,81987.0,0.02703697053213524,-0.08409546835633279,0.056223515720202365,-0.10779268525381157,0.006837502781489017
89,89,82393.24660900142,1852.3849281438652,14.883793689411675,82533.027373699,-3261.3578034622456,17.835757800833285,82569.29956134023,26963.040010721394,9.533140371369525,82593.60271279886,-7921.606373636861,9.63784120771774,82809.9639612749,9001.100531965956,34.999746337388004,0.9345161023397172,146.0,108.0,80.0,249.0,329.0,38.0,866.0,867.0,40.0,15.0,25.0,0.375,74.58987997064281,2165.5633749473714,20.0,9.0,11.0,0.45,269.8420047550003,2481.583296646817,22.0,11.0,11.0,0.5,1490.1722210421458,22273.567837799736,20.0,8.0,12.0,0.4,835.0226521870807,14279.820149778649,88.0,43.0,45.0,0.4886363636363636,66.67538740635024,9418.918906713276,,,,,82379.0,82417.0,82525.0,82543.0,82558.0,82580.0,82586.0,82605.0,82770.0,82854.0,0.04026694389345074,-0.08273915988872395,0.05526721840154538,-0.10541077311869972,0.007407470583131847
90,90,83172.68793258263,1798.850788503647,15.018020781662416,83308.027373699,-3923.3173469696103,8.777308038856463,83343.9629552748,26178.806469210893,9.042073467516673,83368.60271279886,-7991.180437709611,9.749257602997451,83583.92320232843,8805.579349321068,34.137354425967736,0.9448735525112032,146.0,106.0,80.0,246.0,326.0,40.0,779.0,774.0,43.0,20.0,23.0,0.4651162790697674,44.489763900559254,1451.9756575880756,18.0,8.0,10.0,0.4444444444444444,286.7404066640276,2167.706816819419,21.0,11.0,10.0,0.5238095238095238,1484.9081469798168,20830.05683267128,20.0,9.0,11.0,0.45,797.4649472847443,13594.41614591804,87.0,44.0,43.0,0.5057471264367817,56.654200664176734,9256.69214211273,,,,,83154.0,83194.0,83300.0,83318.0,83333.0,83354.0,83360.0,83380.0,83543.0,83626.0,0.02473232587432532,-0.07308621284115784,0.056721766468850646,-0.09979313488174837,0.006433898147603987
91,91,83960.73054113291,1794.024781259882,14.872228493070512,84093.60271279886,-3127.1371807627306,20.38372320666998,84130.06174871985,25649.656445748256,9.412224847019402,84155.027373699,-8344.9245826684,9.061287991542857,84371.48429210998,8716.078937916605,33.74251079408905,0.944899581708952,143.0,102.0,79.0,248.0,327.0,41.0,791.0,787.0,42.0,19.0,23.0,0.4523809523809524,48.39107381897012,1780.2022631971604,20.0,9.0,11.0,0.45,254.98910838954336,2485.327279449324,22.0,11.0,11.0,0.5,1429.95935233543,21063.61011686343,19.0,9.0,10.0,0.4736842105263157,850.4018134672095,14167.12179297286,85.0,41.0,44.0,0.4823529411764706,59.57386962474514,9115.280122494743,,,,,83943.0,83984.0,84086.0,84105.0,84119.0,84141.0,84147.0,84165.0,84332.0,84413.0,0.026973470112819028,-0.08154074914211143,0.055749649331948974,-0.10190647081861132,0.0068349392024878814
92,92,84809.09297342967,1773.3737466724433,14.64826070082235,84948.027373699,-3416.2986442369065,17.835757804923233,84982.75704663181,25595.66499771236,9.099453503805076,85008.45203459915,-7726.797467486193,9.302493121271038,85225.31386753567,8355.868965746557,32.99072751158884,0.9371327747322312,146.0,106.0,79.0,250.0,329.0,40.0,846.0,852.0,42.0,18.0,24.0,0.4285714285714285,48.13068165214055,1597.498035139986,21.0,11.0,10.0,0.5238095238095238,273.7184630361099,2489.1276480372107,21.0,11.0,10.0,0.5238095238095238,1458.891689551397,20963.88294438313,19.0,9.0,10.0,0.4736842105263157,810.9938424568729,13560.727145293991,84.0,41.0,43.0,0.4880952380952381,57.549420920353505,8671.67307619892,,,,,84792.0,84832.0,84938.0,84958.0,84972.0,84993.0,84999.0,85017.0,85186.0,85267.0,0.02714074331056999,-0.08012135107036286,0.05699760837164367,-0.10495859971346169,0.006887305336676225
93,93,85734.08841617513,2210.9584563206176,17.081350830274967,85873.027373699,-3052.258086500808,17.835757805021576,85908.2007583368,25732.18622157157,9.153654251526548,85933.45203459915,-7303.364000153775,8.92191249351044,86151.26122534879,8461.417493766587,34.64617025761821,0.9442544847911328,150.0,107.0,77.0,253.0,330.0,43.0,924.0,926.0,46.0,20.0,26.0,0.4347826086956521,50.732767130419,1955.3287735451947,18.0,8.0,10.0,0.4444444444444444,267.672584578963,2415.47178601259,22.0,11.0,11.0,0.5,1438.6390986030683,21846.42675224247,18.0,8.0,10.0,0.4444444444444444,838.6133367946734,13520.11315109392,88.0,43.0,45.0,0.4886363636363636,55.34009313119007,8781.758549055474,,,,,85715.0,85758.0,85865.0,85883.0,85898.0,85919.0,85925.0,85942.0,86111.0,86195.0,0.022946051738505432,-0.08769657643395094,0.055908156664785894,-0.11482562511974154,0.006540286325779148
94,94,86895.92736715644,1603.7144958569493,11.832209724786546,87032.85173331581,-3747.334329074806,6.755385988560493,87067.47372463775,26270.98209698653,9.147981452848812,87092.027373699,-6553.653778627594,8.712125248382328,87311.3281792309,8539.603646599833,36.801957658804646,0.9510745970121924,142.0,117.0,77.0,256.0,333.0,25.0,1170.0,1159.0,25.0,13.0,12.0,0.52,79.97727151421068,1686.9307670920707,16.0,8.0,8.0,0.5,320.2299363898606,1481.2617447695654,22.0,11.0,11.0,0.5,1416.9658292628706,22508.43849751485,17.0,7.0,10.0,0.4117647058823529,827.7585694294904,13188.449920741845,92.0,45.0,47.0,0.4891304347826087,53.7542636077965,8934.954379058101,,,,,86883.0,86908.0,87025.0,87041.0,87056.0,87078.0,87085.0,87102.0,87268.0,87358.0,0.04987001846078258,-0.08545539529399913,0.05393653819380459,-0.12630489760214827,0.006294702404507912
95,95,87909.3175325779,1665.6101928603705,10.999752067710116,88046.66744984612,-3623.962164464217,7.691100639441638,88081.85725667891,25602.002525317646,8.809337433260211,88107.45203459915,-6895.665020381101,8.539581413573806,88325.67298273709,8867.99117543342,35.16552573006138,0.9433694499416442,142.0,117.0,77.0,254.0,331.0,25.0,1013.0,1014.0,28.0,14.0,14.0,0.5,75.11472152907592,1560.3629698186571,17.0,8.0,9.0,0.4705882352941176,280.6244655071243,1847.5854828527092,21.0,11.0,10.0,0.5238095238095238,1431.8620032424874,21237.98228958908,17.0,8.0,9.0,0.4705882352941176,794.8350759441386,12739.587099214556,89.0,44.0,45.0,0.4943820224719101,59.14468356533871,9202.35346137874,,,,,87897.0,87922.0,88039.0,88056.0,88071.0,88092.0,88099.0,88116.0,88285.0,88370.0,0.045097419462882,-0.07743581548915345,0.05592773463038795,-0.11526590598512144,0.0066694567456477005
96,96,88897.28385728472,2436.688098971842,18.437837281054428,89030.027373699,-3714.3565558701266,8.557377679262697,89065.3840847008,25307.254412340186,8.865074951580864,89090.45203459915,-6983.643746591564,8.788560537911053,89308.9653036432,9002.54235058654,35.86260938623795,0.9484515278616636,145.0,99.0,77.0,254.0,331.0,46.0,982.0,984.0,49.0,22.0,27.0,0.4489795918367347,54.428121354939336,2357.34302549413,18.0,8.0,10.0,0.4444444444444444,270.8300066214053,2173.6359376422433,22.0,11.0,11.0,0.5,1416.0027440642896,21510.201250460377,18.0,8.0,10.0,0.4444444444444444,818.9014500254226,13207.180631645797,89.0,44.0,45.0,0.4943820224719101,63.23514363585812,9417.837230030536,,,,,88877.0,88923.0,89022.0,89040.0,89054.0,89076.0,89082.0,89099.0,89268.0,89353.0,0.02233692583712508,-0.07291438033685502,0.05595244434630672,-0.11725991183686818,0.007024142866902279
97,97,89745.33038471597,1737.023511955733,14.029444934844442,89880.60271279886,-3538.261364291228,20.383723206912453,89917.01718063935,25472.91375455816,9.266587029990133,89942.027373699,-7586.02125048909,10.102314956619772,90159.82549145354,8585.343573232114,32.827768256114155,0.931594547449582,144.0,105.0,80.0,249.0,329.0,39.0,848.0,852.0,41.0,18.0,23.0,0.4390243902439024,48.989104008098394,1577.287532442616,22.0,11.0,11.0,0.5,251.02926573834867,2934.045540518604,22.0,11.0,11.0,0.5,1432.3182152943575,20690.61110060641,20.0,9.0,11.0,0.45,780.0624482093616,13365.225352176629,83.0,41.0,42.0,0.4939759036144578,58.03930116409068,8911.729940143268,,,,,89728.0,89767.0,89872.0,89892.0,89906.0,89927.0,89934.0,89952.0,90121.0,90201.0,0.02820290207410091,-0.07094706690460499,0.056229068613638925,-0.10282893000847698,0.0067602770546130505
98,98,90583.0909934432,1821.5481340405784,14.39122180299239,90717.60271279886,-3453.5680255833418,20.383723206912453,90753.88698097448,25510.084550231702,9.451431569954096,90778.60271279886,-7708.853371718009,10.16477449588572,90996.72827415244,8636.99956334808,33.08380367207326,0.9354677401970154,144.0,104.0,81.0,248.0,329.0,40.0,837.0,836.0,44.0,19.0,25.0,0.4318181818181818,52.257437294236325,1499.8738214562577,22.0,11.0,11.0,0.5,259.76492927545877,2699.163948965149,21.0,11.0,10.0,0.5238095238095238,1418.7339043248744,20523.169405422377,20.0,9.0,11.0,0.45,766.9865317163071,13193.382471452063,84.0,42.0,42.0,0.5,59.497381699838144,8882.209038393752,,,,,90565.0,90605.0,90709.0,90729.0,90743.0,90764.0,90771.0,90790.0,90957.0,91038.0,0.028688474555057897,-0.0752163928294367,0.055614629639163166,-0.0994942431425927,0.006888663275186545
99,99,91386.54288980352,1853.4336262115196,15.22868791820049,91519.60271279886,-3153.1543534222697,20.383723206912453,91556.0992113527,25771.51208685569,9.3995103644041,91581.60271279886,-7359.805678662105,10.14651553734432,91796.9309073352,8605.998967829488,34.40500733320464,0.9400815035998294,145.0,103.0,81.0,247.0,328.0,42.0,803.0,803.0,46.0,21.0,25.0,0.4565217391304347,49.14675833255218,1416.832838942558,20.0,9.0,11.0,0.45,257.73783027094413,2435.5527028954257,22.0,11.0,11.0,0.5,1423.121241746333,20972.497058544475,20.0,9.0,11.0,0.45,704.6059334470377,12204.002878854026,88.0,44.0,44.0,0.5,58.52517276364418,9017.374610693048,,,,,91367.0,91409.0,91512.0,91531.0,91545.0,91567.0,91573.0,91593.0,91757.0,91840.0,0.026516600129355482,-0.08173968077116456,0.055220711805737274,-0.09573702951014922,0.006800508922022886
100,100,92214.3369309216,1823.445627376067,14.36943539319764,92349.027373699,-3470.2327306043067,17.835757804709065,92384.41782214114,25444.48608729249,9.161127574050711,92410.45203459916,-7659.142256939124,9.65474593715697,92626.41780712818,8589.101243703448,33.37101934386778,0.9366129248667164,144.0,103.0,79.0,249.0,328.0,41.0,830.0,828.0,41.0,18.0,23.0,0.4390243902439024,52.86019159664758,1780.5661038682003,21.0,10.0,11.0,0.4761904761904761,268.62450853608595,2654.003259889507,21.0,10.0,11.0,0.4761904761904761,1423.4338372968227,21438.263780569003,19.0,9.0,10.0,0.4736842105263157,773.8354317853158,13178.87809770809,85.0,42.0,43.0,0.4941176470588235,61.2601052988883,8948.725751999686,,,,,92196.0,92237.0,92340.0,92359.0,92374.0,92395.0,92401.0,92419.0,92587.0,92668.0,0.02898917894947778,-0.07740821131881483,0.05594272300935625,-0.10103421582021496,0.00713230681077339
101,101,93081.74275762684,2097.4358309808345,16.378113443006495,93220.45203459916,-3332.51217344737,15.287792405094947,93254.90063689643,25405.954309803416,9.312706247780651,93279.027373699,-7860.223307109555,9.18668231881159,93497.1063917492,8625.989529165154,33.96200970411912,0.9417449648085152,149.0,104.0,78.0,251.0,329.0,45.0,867.0,870.0,46.0,20.0,26.0,0.4347826086956521,48.84693056644911,1836.07942729002,18.0,9.0,9.0,0.5,271.1695371220052,2246.0334028184584,21.0,11.0,10.0,0.5238095238095238,1454.237084158581,20958.49879676979,19.0,8.0,11.0,0.4210526315789473,872.7597607161191,14291.488739882729,86.0,42.0,44.0,0.4883720930232558,58.55428799273471,8924.475687981178,,,,,93062.0,93107.0,93211.0,93229.0,93244.0,93265.0,93271.0,93289.0,93458.0,93540.0,0.02328887961430819,-0.08137090669394001,0.05724001021278045,-0.11103498292811984,0.006788124167639901
102,102,93975.52059170186,2174.577119636933,17.73450541994665,94113.02737369902,-3853.700788793156,8.61900457970352,94148.90607362054,26256.51938118049,8.920337535864807,94174.027373699,-6752.076151513045,9.312172629076356,94388.92665172882,8716.431742334957,36.50966946311208,0.9446425163766468,149.0,103.0,78.0,250.0,328.0,46.0,891.0,894.0,49.0,20.0,29.0,0.4081632653061224,54.42087831021197,1953.5521089129993,18.0,8.0,10.0,0.4444444444444444,284.687886168482,2336.8375684594,21.0,11.0,10.0,0.5238095238095238,1476.6803641808433,21821.89367727755,19.0,9.0,10.0,0.4736842105263157,767.0126202855841,12645.323580122858,91.0,45.0,46.0,0.4945054945054945,62.31150697708369,9195.398204977237,,,,,93957.0,94003.0,94106.0,94123.0,94138.0,94159.0,94166.0,94184.0,94346.0,94434.0,0.025025959216980115,-0.07387389467194112,0.056240522315355417,-0.11359655949877097,0.007148740312442542
103,103,94859.48275820464,2079.183885929648,15.970747141583336,94997.60271279886,-3199.912689720648,20.383723205208863,95033.95407491933,26136.425406276725,9.150228140747036,95059.45203459916,-7518.60837750237,9.353576809855864,95276.36630344809,8727.423086994171,33.79717192239902,0.9399924042153768,149.0,107.0,78.0,251.0,329.0,42.0,885.0,886.0,43.0,18.0,25.0,0.4186046511627907,51.19831909592279,2025.4384806798976,21.0,10.0,11.0,0.4761904761904761,257.5638067078383,2648.230886477916,22.0,11.0,11.0,0.5,1464.9582582841342,21599.282274564655,19.0,9.0,10.0,0.4736842105263157,818.6673646336143,13619.599725119464,86.0,42.0,44.0,0.4883720930232558,60.1376342617524,9092.70524725151,,,,,94841.0,94883.0,94990.0,95009.0,95023.0,95045.0,95051.0,95068.0,95236.0,95319.0,0.02462423811688542,-0.08049088574673692,0.056050444370725656,-0.10888549097506924,0.0068906518753939
104,104,95772.5737592802,2217.4263975889676,17.173253358159677,95911.027373699,-3207.986192150199,17.83575780583972,95946.5786140868,25801.800475598586,9.233686446867951,95971.027373699,-7605.24703312679,9.129671990992328,96189.0810413144,8687.227037166833,34.23657866824616,0.9446411157026132,150.0,105.0,78.0,251.0,329.0,45.0,914.0,912.0,47.0,21.0,26.0,0.4468085106382978,52.16587178571429,1923.9291214469672,20.0,9.0,11.0,0.45,263.9837197390437,2519.496099582422,21.0,11.0,10.0,0.5238095238095238,1477.652442534706,21034.87516236316,18.0,8.0,10.0,0.4444444444444444,853.933703782412,13912.63472191064,87.0,43.0,44.0,0.4942528735632184,62.749325352955296,9103.837382553287,,,,,95753.0,95798.0,95903.0,95921.0,95936.0,95957.0,95963.0,95981.0,96149.0,96232.0,0.023525412993384953,-0.08228954363488229,0.0572693538938168,-0.11228217835171742,0.007223170878865363
105,105,96819.0116435774,2393.5610128596472,18.914957536480273,96954.027373699,-3679.291727887647,8.327082159937206,96989.29197556032,25228.07159177437,8.890304577755693,97014.45203459916,-6849.818121467649,8.793330128783175,97232.87421386271,8870.228880701114,36.07962178180357,0.9504343456293592,149.0,102.0,76.0,254.0,330.0,47.0,1047.0,1043.0,51.0,23.0,28.0,0.4509803921568627,48.75605442671382,2226.325961874348,18.0,8.0,10.0,0.4444444444444444,273.6546419261569,2092.38192124842,22.0,11.0,11.0,0.5,1407.1637318545922,21307.046274051187,18.0,8.0,10.0,0.4444444444444444,805.9457472525763,13049.864366455236,91.0,45.0,46.0,0.4945054945054945,63.511575908040655,9219.912749992924,,,,,96798.0,96845.0,96947.0,96964.0,96978.0,97000.0,97006.0,97023.0,97192.0,97277.0,0.02036967270304246,-0.0743769894221645,0.055777696949036684,-0.11765943751509327,0.007160083100699046
106,106,97895.52696266492,2138.2829441330064,17.351046574855047,98021.84561985225,-3557.764376603712,7.349163292055078,98056.96318169324,25477.975363035443,8.97519842690994,98082.45203459916,-6603.485674953737,8.996033189757236,98300.58047249832,8959.820577794866,36.42169493908998,0.9551803097192813,138.0,97.0,77.0,254.0,331.0,41.0,1075.0,1067.0,47.0,24.0,23.0,0.5106382978723404,54.83125421277865,1881.9793425802663,17.0,8.0,9.0,0.4705882352941176,283.4837405925328,1658.6958723825048,23.0,12.0,11.0,0.5217391304347826,1401.5187566566517,21111.354326999957,18.0,8.0,10.0,0.4444444444444444,775.9913578212204,12613.394499907066,90.0,45.0,45.0,0.5,55.94784140297364,9371.304306266748,,,,,97876.0,97917.0,98014.0,98031.0,98046.0,98068.0,98074.0,98091.0,98259.0,98345.0,0.025642656114909373,-0.07968030217424067,0.055009031788688996,-0.11751238603643324,0.0062443037689425655
107,107,98854.99192202667,2384.679706066393,18.325793230485335,98987.027373699,-3696.734067674736,8.879296847497622,99022.70238305708,25416.958927733685,8.916416855230215,99047.027373699,-7124.435642002879,8.95413891635983,99265.58312286346,9235.47886729212,35.49377069587794,0.94924326154185,146.0,100.0,77.0,252.0,329.0,46.0,961.0,966.0,49.0,23.0,26.0,0.4693877551020408,51.35176472393637,2256.446258497748,18.0,8.0,10.0,0.4444444444444444,270.18348809654145,2225.1257982261013,21.0,11.0,10.0,0.5238095238095238,1453.2585068115282,20774.251352213338,18.0,8.0,10.0,0.4444444444444444,830.3109800600905,13410.184847085588,88.0,44.0,44.0,0.5,59.635970107671106,9638.75544947944,,,,,98834.0,98880.0,98980.0,98997.0,99012.0,99033.0,99039.0,99057.0,99225.0,99309.0,0.021534030164848755,-0.07308707717417397,0.05717672641103444,-0.11654410563622788,0.006457268861160484
108,108,99720.49041265988,1931.217756111662,15.560561255755244,99856.027373699,-3294.9004476468103,17.8357578060484,99891.0999021955,25556.49776957029,9.275734688306343,99916.027373699,-7464.239088990949,9.572708592652,100133.75948449956,8992.219136059712,33.49188501075067,0.9379564059419822,145.0,102.0,79.0,250.0,329.0,43.0,865.0,869.0,45.0,19.0,26.0,0.4222222222222222,47.24495900577914,1698.1682480184886,20.0,10.0,10.0,0.5,271.4949463174596,2504.3986614114733,22.0,11.0,11.0,0.5,1439.1554304260058,21269.94787262249,19.0,8.0,11.0,0.4210526315789473,796.9015523370906,13314.427774485024,84.0,41.0,43.0,0.4880952380952381,67.32946545971345,9364.550576965969,,,,,99702.0,99745.0,99847.0,99866.0,99880.0,99902.0,99908.0,99926.0,100095.0,100176.0,0.024463817638515673,-0.08239852785578361,0.05631270150558677,-0.10676259734397381,0.0074875249858753394
109,109,100556.16964403848,1972.9531745112356,15.465482939196642,100689.60271279886,-3111.7626153625765,20.38372320642678,100726.42589501385,26183.23142700754,9.50162693564801,100751.60271279886,-7327.164347739642,10.101338977896972,100967.32485759826,9085.427073866058,34.81637656085182,0.9384851040742832,145.0,104.0,80.0,247.0,327.0,41.0,835.0,835.0,45.0,19.0,26.0,0.4222222222222222,58.84420648391888,1624.5627140476918,19.0,8.0,11.0,0.4210526315789473,264.80898684232574,2499.6199176159676,22.0,11.0,11.0,0.5,1425.6744155498732,21600.791317845877,21.0,9.0,12.0,0.4285714285714285,731.4577073818838,12662.2881251157,89.0,44.0,45.0,0.4943820224719101,66.78155789634721,9504.63026104744,,,,,100538.0,100579.0,100683.0,100701.0,100716.0,100737.0,100743.0,100763.0,100926.0,101010.0,0.029825445045595925,-0.08509935350948057,0.05444990315745807,-0.09982821084223821,0.007350403822891522
110,110,101335.7331594695,1888.1694364940763,15.213313299900596,101470.027373699,-3262.12874651808,17.835757804114262,101506.14701022951,25579.92317884791,9.542313296835388,101530.60271279886,-8223.865368530647,9.70439419145911,101746.61213808942,8856.757846489309,33.93296317161415,0.9437693915465608,145.0,103.0,80.0,247.0,327.0,42.0,780.0,780.0,44.0,20.0,24.0,0.4545454545454545,43.594001292187464,1537.738000385081,20.0,9.0,11.0,0.45,271.5471614557216,2445.029176695793,22.0,11.0,11.0,0.5,1426.659090108021,20743.08602808963,20.0,9.0,11.0,0.45,812.9812455977993,13905.237417057968,85.0,42.0,43.0,0.4941176470588235,60.71813523965372,9288.430439184662,,,,,101317.0,101359.0,101462.0,101480.0,101495.0,101517.0,101523.0,101542.0,101707.0,101789.0,0.02308797105260433,-0.08324231891385793,0.05577261042315124,-0.09885634177679324,0.006855571337961048
111,111,102159.15306945096,1908.6453410064616,15.430845073202466,102292.60271279886,-3114.498498991781,20.383723206897905,102329.06662299394,25663.665662498548,9.245450787048576,102354.45203459916,-7853.3229166868,9.039105293092392,102570.66374820324,8767.929183939801,33.80111197605609,0.9426695114802706,145.0,102.0,78.0,250.0,328.0,43.0,825.0,823.0,43.0,19.0,24.0,0.4418604651162791,47.82500600292879,1881.8822640095177,20.0,9.0,11.0,0.45,250.6421268394236,2523.6512876359,22.0,11.0,11.0,0.5,1438.467269336415,21200.280774415885,18.0,8.0,10.0,0.4444444444444444,843.9213767114194,13905.424328971836,85.0,42.0,43.0,0.4941176470588235,59.65217579858936,9183.839092872511,,,,,102140.0,102183.0,102285.0,102304.0,102318.0,102340.0,102346.0,102363.0,102531.0,102613.0,0.02505704175387023,-0.08047591832860441,0.05605073290205767,-0.10746041970568265,0.006803450911516728
112,112,103074.31603607522,2098.870480464841,16.753659309728796,103212.60271279886,-3059.329147709901,20.383723206903984,103248.65178503135,26060.684836566073,9.191080480271376,103273.45203459916,-7520.287198528873,8.847056055859188,103491.2601729957,8606.389839028725,34.01617397350665,0.9435179969679912,150.0,107.0,77.0,252.0,329.0,43.0,913.0,919.0,45.0,19.0,26.0,0.4222222222222222,48.37907839372965,1868.5708868008576,19.0,8.0,11.0,0.4210526315789473,254.38087788210805,2612.0017960773207,21.0,11.0,10.0,0.5238095238095238,1477.315236926906,21306.77844683091,18.0,8.0,10.0,0.4444444444444444,878.0851350216005,14141.341789258791,87.0,43.0,44.0,0.4942528735632184,57.18624410616033,8929.378475649426,,,,,103055.0,103098.0,103205.0,103224.0,103238.0,103259.0,103265.0,103282.0,103450.0,103534.0,0.023050054228698783,-0.08314923488129024,0.05668750634112525,-0.11676218099667424,0.006644626280676834
113,113,104321.60271279886,1426.3352352074744,13.20988846193768,104455.79364840122,-3492.579302178502,8.344333740281655,104491.57619465406,25794.018804733765,9.00074122290802,104516.45203459916,-6700.905084837865,8.69644048050704,104736.78935502253,8904.848787236626,35.44671105184641,0.9489759933679008,140.0,116.0,76.0,256.0,332.0,24.0,1255.0,1243.0,26.0,13.0,13.0,0.5,64.82028409611773,1472.1734028410558,18.0,8.0,10.0,0.4444444444444444,266.12751106698545,1931.3349040831752,22.0,12.0,10.0,0.5454545454545454,1438.74853525211,21192.95606594733,17.0,7.0,10.0,0.4117647058823529,838.8493136517046,13456.037353745563,88.0,43.0,45.0,0.4886363636363636,53.008905339851,9271.002562480551,,,,,104309.0,104333.0,104449.0,104465.0,104480.0,104502.0,104509.0,104525.0,104695.0,104781.0,0.04544533605852413,-0.07619798665730738,0.055778378163703145,-0.1251844792653113,0.005952813641914839
114,114,105236.86603626628,1547.280251708059,12.308975914793088,105376.84181751596,-3860.538878492483,7.0662943095712265,105411.59046283584,26597.29227959019,8.988547447610234,105436.027373699,-7048.329326018789,8.880092605277827,105653.17148356172,9104.479927172477,35.09287676390695,0.9476060193275276,145.0,119.0,77.0,251.0,328.0,26.0,915.0,920.0,28.0,14.0,14.0,0.5,73.21119904328096,1605.9588710104986,17.0,8.0,9.0,0.4705882352941176,313.84159375585335,1767.5529728292831,22.0,12.0,10.0,0.5454545454545454,1495.505669802037,21578.321274137088,18.0,8.0,10.0,0.4444444444444444,837.7141897688861,13611.58019167381,88.0,43.0,45.0,0.4886363636363636,63.684017652014454,9619.980170950015,,,,,105224.0,105250.0,105369.0,105385.0,105400.0,105422.0,105428.0,105446.0,105613.0,105697.0,0.04731605600372805,-0.08129476314933697,0.0562277413084502,-0.11885287293209729,0.006994800160078162
115,115,106102.60271279886,1478.119142667028,9.924382710761428,106243.027373699,-3631.465857519639,8.387673682839521,106278.44764427116,25997.478069860048,8.813561959967634,106303.45203459916,-7094.247029474457,8.693121834053896,106520.2428197226,8951.628279171444,33.57025124109795,0.9386249745290688,146.0,121.0,77.0,251.0,328.0,25.0,866.0,867.0,26.0,14.0,12.0,0.5384615384615384,71.77547117416682,1323.247856508808,18.0,8.0,10.0,0.4444444444444444,269.6816895933525,2005.0160874945568,22.0,11.0,11.0,0.5,1458.7566644799083,22098.720958961287,18.0,8.0,10.0,0.4444444444444444,840.318813516478,13387.375785505585,84.0,41.0,43.0,0.4880952380952381,62.29701122205533,9387.98736967808,,,,,106089.0,106114.0,106235.0,106253.0,106267.0,106289.0,106295.0,106312.0,106481.0,106563.0,0.04855865072193,-0.07426248797986779,0.05611146821856945,-0.11845074044154465,0.006959293804347012
116,116,107035.70827757704,1524.1818178618466,10.901206257541476,107176.30155586448,-3633.132814435421,8.209904012680704,107211.7229667408,26011.299881848765,8.80759009048258,107236.45203459916,-6918.572590888727,8.488850400718475,107454.1681500349,8736.869335880361,34.22468347647675,0.9407472963389996,146.0,120.0,76.0,252.0,328.0,26.0,933.0,933.0,28.0,14.0,14.0,0.5,73.22581202286983,1370.231210097273,17.0,7.0,10.0,0.4117647058823529,262.13090279573805,2170.51848757806,21.0,11.0,10.0,0.5238095238095238,1479.982451549184,21517.16627965951,18.0,8.0,10.0,0.4444444444444444,856.2421820060767,13501.921585405682,86.0,42.0,44.0,0.4883720930232558,61.73245308660301,9110.284408923568,,,,,107023.0,107049.0,107169.0,107186.0,107201.0,107222.0,107229.0,107245.0,107415.0,107497.0,0.04804270144462981,-0.07215010190495127,0.056897673636908355,-0.12375994769986043,0.00706574068048399
117,117,108138.83858479232,1966.9642202626433,16.850268345044558,108277.24541149766,-3509.1717062074736,8.06866338640691,108312.83118524314,25581.97732276539,8.920418088196596,108337.45203459916,-6807.962169180348,8.440656952203577,108557.39540453404,8748.512145984914,35.5176009650149,0.9492923997764656,155.0,112.0,76.0,255.0,331.0,43.0,1105.0,1101.0,46.0,25.0,21.0,0.5434782608695652,64.20075804781783,1817.9308262342176,17.0,7.0,10.0,0.4117647058823529,260.7273421034968,1992.103523320014,21.0,11.0,10.0,0.5238095238095238,1434.2880174539275,21172.756831095852,17.0,7.0,10.0,0.4117647058823529,857.9188465299019,13484.162499874545,89.0,43.0,46.0,0.4831460674157303,60.861140389183824,9140.86062624081,,,,,108115.0,108158.0,108270.0,108287.0,108302.0,108323.0,108330.0,108346.0,108516.0,108601.0,0.032639514937005454,-0.07429882716832831,0.05606634699724932,-0.12601698205869907,0.0069567418291938635
118,118,109212.21990573849,1855.037797165542,13.355025595420802,109350.37990239046,-3486.235352277713,6.701265017902876,109384.9946544785,25633.26934454363,8.850772917057082,109410.45203459916,-6358.1574572971695,8.425039991494067,109629.48548755456,9128.679331582593,35.900846144329336,0.9459649668203092,144.0,117.0,76.0,254.0,330.0,27.0,1072.0,1072.0,29.0,14.0,15.0,0.4827586206896552,82.75543440298846,1871.9961754943845,16.0,7.0,9.0,0.4375,275.6840677123358,1594.8459761646411,22.0,11.0,11.0,0.5,1417.6742398608317,21605.78808658365,17.0,8.0,9.0,0.4705882352941176,786.9813846235562,12326.773582349088,90.0,44.0,46.0,0.4888888888888889,68.4584877852315,9678.754444966651,,,,,109199.0,109226.0,109343.0,109359.0,109374.0,109396.0,109402.0,109419.0,109589.0,109673.0,0.04461118502783985,-0.07907787049781911,0.05530602518178594,-0.12377507004334228,0.00749927621494874
119,119,110162.73847065288,1624.4554714426272,12.122321440208664,110299.38522513844,-3690.586984270521,6.5445044780170925,110333.95384500443,26684.653502327365,9.106739630248736,110359.027373699,-6313.214490443795,8.772680594265994,110575.42545496453,9125.29804630737,36.87176510850632,0.9425854224141904,142.0,117.0,77.0,252.0,329.0,25.0,949.0,949.0,26.0,14.0,12.0,0.5384615384615384,78.00748740215103,1766.098135623129,17.0,8.0,9.0,0.4705882352941176,306.5709882791976,1518.130511516236,23.0,12.0,11.0,0.5217391304347826,1454.5628122298886,22358.818073420527,18.0,8.0,10.0,0.4444444444444444,776.6710045482915,12305.075266647023,93.0,46.0,47.0,0.4946236559139785,65.25816105353115,9632.562877339633,,,,,110150.0,110175.0,110292.0,110308.0,110323.0,110345.0,110351.0,110369.0,110534.0,110621.0,0.04802069910409736,-0.08306835459665889,0.05450933856431846,-0.1230230662563303,0.007151345711928656
120,120,110980.85648500058,1760.3860116833189,14.1219676504822,111114.60271279886,-3445.9405028533483,20.383723206912453,111151.26677657594,25602.20668076848,9.496301353387476,111175.60271279886,-8213.576016133135,9.790938692638813,111393.50113225744,9030.252261413842,33.12036772313595,0.9370306673112684,143.0,103.0,81.0,248.0,329.0,40.0,813.0,818.0,41.0,18.0,23.0,0.4390243902439024,49.24791375660739,1632.566154204589,21.0,10.0,11.0,0.4761904761904761,256.0022272470455,2754.483429215128,22.0,11.0,11.0,0.5,1424.0159412297337,20929.21834066586,20.0,9.0,11.0,0.45,817.6076733832296,13963.327164013392,84.0,42.0,42.0,0.5,62.90313709252508,9345.61386442557,,,,,110963.0,111003.0,111106.0,111126.0,111140.0,111162.0,111168.0,111187.0,111354.0,111435.0,0.027975633429122442,-0.07429095976412463,0.05562082827412712,-0.09954344755284199,0.006965822800024028
121,121,111798.43394740252,2013.9681250313663,15.630998141802142,111932.027373699,-3109.3787101326297,17.83575780594623,111966.77935247208,25235.154532090204,9.267293479506131,111992.027373699,-7604.266855663583,9.234475822597968,112208.94116202342,8941.256471721952,34.08375583640826,0.9413926772803258,144.0,101.0,79.0,249.0,328.0,43.0,818.0,816.0,44.0,19.0,25.0,0.4318181818181818,50.168693176659765,2014.0561454930032,19.0,9.0,10.0,0.4736842105263157,273.77016367652504,2093.23710894144,21.0,11.0,10.0,0.5238095238095238,1427.0097599554008,20679.75340939714,19.0,9.0,10.0,0.4736842105263157,788.5841173848781,13015.94277794205,85.0,42.0,43.0,0.4941176470588235,60.577602342283264,9371.382445783256,,,,,111779.0,111822.0,111923.0,111942.0,111956.0,111977.0,111983.0,112002.0,112169.0,112251.0,0.024910370999977182,-0.08804658074758846,0.056548485096088806,-0.10370284635625965,0.006775065957885103
122,122,112648.47318131178,2097.51328194772,16.0508127813079,112783.60271279886,-3195.866885437751,20.38372320642091,112820.07072971977,25769.955724550466,9.312182972595046,112845.027373699,-7501.191086006083,9.376401499127146,113065.10949479598,8902.200904611416,33.09822370544263,0.9387291492779752,147.0,103.0,79.0,250.0,329.0,44.0,848.0,853.0,44.0,19.0,25.0,0.4318181818181818,48.49754906959845,1983.0557275311971,21.0,10.0,11.0,0.4761904761904761,246.06214000296373,2588.505352984005,22.0,11.0,11.0,0.5,1437.0186765223536,21426.006220476535,18.0,8.0,10.0,0.4444444444444444,811.6343080902742,13373.704944442408,85.0,44.0,41.0,0.5176470588235295,61.159012283159335,9162.30085387993,,,,,112629.0,112673.0,112776.0,112795.0,112809.0,112831.0,112837.0,112855.0,113023.0,113105.0,0.023121450284483702,-0.0769938638946971,0.055763335097752526,-0.10820072422957283,0.006870100207632749
123,123,113496.09593080172,1970.8620301738629,16.073158463477476,113634.027373699,-3172.580994233625,17.835757805434767,113669.47333248353,26283.333404078858,9.396234141720862,113695.027373699,-7349.524602191107,9.777591976516751,113910.80210274692,9038.249172876978,34.54736956518309,0.9383581324006178,147.0,107.0,79.0,249.0,328.0,40.0,847.0,849.0,45.0,18.0,27.0,0.4,60.02025085421453,1681.732830533574,19.0,9.0,10.0,0.4736842105263157,291.7600530672678,2314.8887042857923,22.0,11.0,11.0,0.5,1438.6303817753883,22032.292899648422,20.0,9.0,11.0,0.45,760.2207920469211,12939.616611417036,87.0,43.0,44.0,0.4942528735632184,64.3934611832476,9465.910154311166,,,,,113479.0,113519.0,113626.0,113644.0,113659.0,113680.0,113686.0,113705.0,113870.0,113954.0,0.030453806474175033,-0.09196299593219556,0.05473546142941405,-0.10343809065150653,0.00712455033619641
124,124,114307.06859462,1946.3298877371212,15.624650720464,114442.027373699,-3126.992157770218,17.835757805745352,114477.69126156632,26041.999774675187,9.292213701786263,114503.027373699,-7784.447322830151,9.48589686203248,114719.68483389584,8882.828630598697,33.820114431396135,0.9435998715658056,146.0,104.0,79.0,248.0,327.0,42.0,811.0,808.0,45.0,20.0,25.0,0.4444444444444444,54.46364701231971,1649.9117843310298,19.0,9.0,10.0,0.4736842105263157,272.7034128395154,2375.738101132586,21.0,11.0,10.0,0.5238095238095238,1474.9796583531538,21069.04782619801,20.0,9.0,11.0,0.45,795.7926476659068,13379.182105150285,86.0,44.0,42.0,0.5116279069767442,56.673433242156385,9234.05487210204,,,,,114288.0,114330.0,114434.0,114452.0,114467.0,114488.0,114494.0,114513.0,114678.0,114761.0,0.027982741957295464,-0.08720949688405154,0.056638494398095846,-0.10222853526569751,0.006380111065852751
125,125,115148.4065051124,2039.4880899116197,15.95588898510618,115286.60271279886,-3087.8246522551053,20.383723206676844,115323.26802435478,25975.77277745107,9.233660874807576,115348.45203459916,-7796.088645316633,8.87894171057,115565.68483389584,8817.374452033731,33.383599013121405,0.9404544071941524,149.0,108.0,78.0,250.0,328.0,41.0,842.0,846.0,44.0,19.0,25.0,0.4318181818181818,49.93769101977232,1909.9918208181705,20.0,9.0,11.0,0.45,241.30239862299536,2540.8806785505744,22.0,11.0,11.0,0.5,1448.230083484534,21829.401321820616,18.0,8.0,10.0,0.4444444444444444,861.2132290351498,14047.68939937725,85.0,43.0,42.0,0.5058823529411764,56.53556379553247,9144.730619528676,,,,,115130.0,115171.0,115279.0,115298.0,115313.0,115334.0,115340.0,115357.0,115525.0,115607.0,0.0244854045810762,-0.07814640589994869,0.055753108709886263,-0.11046734692434633,0.0064118365510146295
126,126,116060.57589502588,2027.0519632750204,16.643270754292903,116199.602712799,-3185.208769749437,20.383723200434563,116236.25380187311,26120.597232221084,9.3391356707546,116260.027373699,-7944.889778236959,8.866179047203007,116478.28372764667,8695.740303633333,34.10192460301364,0.943395903970844,150.0,109.0,78.0,251.0,329.0,41.0,912.0,913.0,45.0,20.0,25.0,0.4444444444444444,53.22216633200498,1787.247247180988,20.0,9.0,11.0,0.45,249.559147735871,2691.6803654609366,22.0,11.0,11.0,0.5,1466.5132610482176,21867.057578505348,18.0,7.0,11.0,0.3888888888888889,918.2307546121968,14776.856672216538,87.0,43.0,44.0,0.4942528735632184,60.3220467305838,9080.377625548572,,,,,116042.0,116083.0,116192.0,116211.0,116226.0,116247.0,116253.0,116270.0,116438.0,116521.0,0.026255945726233985,-0.07834938485225332,0.05614394066147917,-0.11557501491429883,0.0069369650684461565
127,127,117297.90406919828,1515.838760183487,16.17283575353249,117434.19660264118,-3455.283059522381,6.973051290211213,117469.00859005425,25954.75693158622,9.04186779143718,117493.45203459916,-6734.444044729513,8.204149920869419,117713.72808452706,8924.70436597547,36.56669432831511,0.9504042852696942,137.0,112.0,75.0,257.0,332.0,25.0,1247.0,1232.0,44.0,25.0,19.0,0.5681818181818182,76.01705420741199,1302.8670412096044,16.0,7.0,9.0,0.4375,278.20259322572787,1571.510845377824,22.0,11.0,11.0,0.5,1427.4508783771892,21731.923113105702,17.0,7.0,10.0,0.4117647058823529,889.698349032608,13716.3958983153,91.0,45.0,46.0,0.4945054945054945,58.57274695570547,9334.735915394029,,,,,117290.0,117315.0,117427.0,117443.0,117458.0,117480.0,117487.0,117502.0,117672.0,117759.0,0.05014850932971947,-0.08051513824866882,0.05499765927840461,-0.13211162541752805,0.006562990162341749
128,128,118258.55643093985,1519.359312126199,15.134484014512324,118391.20043774357,-3586.5760169984674,6.872139318068044,118426.43159124524,26987.597450358982,9.16443490929514,118450.60271279886,-6583.293807812033,8.83540131005805,118667.83551209555,9569.079569883655,37.214144041929586,0.944494230504358,132.0,112.0,79.0,250.0,329.0,20.0,958.0,958.0,40.0,24.0,16.0,0.6,75.10404833003277,1704.5684464631106,17.0,8.0,9.0,0.4705882352941176,292.78565452505956,1548.124285712841,22.0,11.0,11.0,0.5,1464.6114031302209,22850.738079176284,19.0,8.0,11.0,0.4210526315789473,805.7042677197804,12872.76191166049,93.0,48.0,45.0,0.5161290322580645,66.73128998996374,10141.156756318083,,,,,118251.0,118271.0,118383.0,118400.0,118415.0,118437.0,118443.0,118462.0,118623.0,118712.0,0.04943139370036952,-0.08163375128183842,0.05426979581358544,-0.12238619317942265,0.006973637276461176
129,129,119056.24855805602,1200.1916307717934,11.70326280084573,119189.60271279886,-2871.7640358025124,20.38372320660109,119226.37254076726,26283.246862911143,9.391639957827834,119252.027373699,-7639.851262849791,9.238895558754976,119467.7133752186,9232.175528753156,33.91663281670559,0.9408143082277284,132.0,117.0,79.0,248.0,327.0,15.0,798.0,800.0,17.0,6.0,11.0,0.3529411764705882,72.34861098970808,1123.3145005247834,19.0,8.0,11.0,0.4210526315789473,255.88318434407265,2279.678498135878,22.0,11.0,11.0,0.5,1436.4539095176872,21927.639325403987,19.0,9.0,10.0,0.4736842105263157,779.2163019842992,13112.33097487869,85.0,42.0,43.0,0.4941176470588235,63.977849531663225,9652.323555504496,,,,,119051.0,119066.0,119183.0,119201.0,119216.0,119237.0,119243.0,119262.0,119428.0,119510.0,0.060280882764682915,-0.08910313701054699,0.05465283330518416,-0.10199364819749628,0.00692987793964785
130,130,119865.32873009844,1396.2806178532535,14.083414309703882,120005.45203459916,-3719.874530281336,7.8112730211646415,120040.41246039217,25755.703795275636,8.821253929580962,120065.45203459916,-7449.180287082626,8.54738293617212,120281.37167686052,9164.578091997268,34.44232082178887,0.9423737599979116,140.0,116.0,77.0,250.0,327.0,24.0,811.0,814.0,43.0,24.0,19.0,0.5581395348837209,67.52594908437486,1092.4927864773435,18.0,8.0,10.0,0.4444444444444444,273.0035184595108,1905.7498978424271,22.0,11.0,11.0,0.5,1448.5787092834933,21758.880551819697,18.0,8.0,10.0,0.4444444444444444,850.1658611298609,13634.138444961336,86.0,42.0,44.0,0.4883720930232558,66.03635731295402,9663.763150375677,,,,,119857.0,119881.0,119997.0,120014.0,120029.0,120051.0,120057.0,120074.0,120242.0,120324.0,0.048361302320585324,-0.07339051794278217,0.05624302565357215,-0.1141287803980399,0.007205608010544269
131,131,120753.59736996438,1790.6876043647771,15.557082237687649,120887.60271279886,-2932.68829140218,20.383723206787856,120923.96826498338,25942.95985963309,9.090322854184713,120949.45203459916,-7260.398895232381,8.776378532797532,121166.3457429784,8877.972580295484,34.34460557214555,0.9432266284346242,150.0,103.0,77.0,251.0,328.0,47.0,888.0,884.0,49.0,24.0,25.0,0.4897959183673469,44.82026961268245,1446.8508544476167,19.0,8.0,11.0,0.4210526315789473,246.94595437421097,2526.876301899716,22.0,11.0,11.0,0.5,1454.3007026776077,21603.093719038832,17.0,8.0,9.0,0.4705882352941176,821.8025511961611,13251.536725347512,87.0,43.0,44.0,0.4942528735632184,63.81134121729168,9332.525412956256,,,,,120731.0,120778.0,120881.0,120899.0,120913.0,120935.0,120941.0,120958.0,121126.0,121209.0,0.025029641967383727,-0.0842046374646045,0.05605762451725798,-0.11318972456675991,0.007187602872182768
132,132,121674.67126990156,2110.098187310946,16.961728215832053,121816.027373699,-3164.789157407356,17.835757802938474,121851.20464709694,25788.139365536314,9.370427462326658,121876.027373699,-7452.946363058527,9.273792079400808,122093.83898557106,8979.399462260439,34.66448969438587,0.942838787986206,149.0,106.0,78.0,251.0,329.0,43.0,912.0,927.0,43.0,16.0,27.0,0.3720930232558139,55.33475468138587,2370.018806626216,19.0,9.0,10.0,0.4736842105263157,284.333238359043,2344.2325532038744,22.0,11.0,11.0,0.5,1428.8628672493526,21861.384364825863,19.0,8.0,11.0,0.4210526315789473,820.4173065758255,13577.987779353803,87.0,43.0,44.0,0.4942528735632184,66.20719998059467,9328.104387084815,,,,,121659.0,121702.0,121808.0,121826.0,121840.0,121862.0,121868.0,121886.0,122054.0,122137.0,0.02622378191410279,-0.08984271122565812,0.05540775342477434,-0.11007959357420413,0.007373232503894857
133,133,122532.95117197912,2035.6130894401344,16.170545180341723,122664.02737376004,-3640.7666593797176,8.313107095497132,122699.86787215609,26231.957551502383,8.93582924084452,122725.027373699,-6760.105788720652,9.267611779866977,122939.83551209555,8938.436689136743,36.02536681892006,0.9480495851999888,142.0,103.0,78.0,249.0,327.0,39.0,858.0,848.0,44.0,20.0,24.0,0.4545454545454545,62.81054073466563,1898.610808023658,17.0,7.0,10.0,0.4117647058823529,276.37943814528865,2030.175884922921,21.0,11.0,10.0,0.5238095238095238,1469.673161733442,21533.88223906908,20.0,9.0,11.0,0.45,758.0177696091139,12504.595724442066,90.0,45.0,45.0,0.5,61.356753921355995,9460.05808296134,,,,,122515.0,122554.0,122657.0,122674.0,122689.0,122710.0,122716.0,122735.0,122897.0,122984.0,0.030855834569201334,-0.07591242834342363,0.056026057485338884,-0.11213105139181093,0.006864371931606948
134,134,123357.50393455266,1834.0301323007736,14.77278918636917,123491.60271279886,-3165.7268311158714,20.383723206912453,123528.12931140805,25686.721098111702,9.32690265667307,123553.027373699,-7965.153247991337,9.219838657127022,123769.7609422392,8819.206591191289,33.46218078979534,0.9408773013589088,145.0,104.0,79.0,249.0,328.0,41.0,829.0,829.0,42.0,19.0,23.0,0.4523809523809524,47.97069016545595,1816.0172611869943,20.0,9.0,11.0,0.45,248.9374620384545,2516.330208509593,22.0,11.0,11.0,0.5,1439.1690273774634,21222.229602049298,19.0,9.0,10.0,0.4736842105263157,834.0951569726519,13792.064218198497,85.0,42.0,43.0,0.4941176470588235,60.473660360026315,9138.174378290812,,,,,123339.0,123380.0,123484.0,123503.0,123517.0,123539.0,123545.0,123563.0,123731.0,123812.0,0.02615588987367245,-0.07863516826267279,0.05602774374668087,-0.10471803002446879,0.006857040906653441
135,135,124243.15321694492,2010.420470393278,16.16800545626142,124383.027373699,-3237.0818481001143,17.835757800836145,124417.96010739524,25738.583667615458,9.171229748713342,124443.45203459916,-7373.897576614141,9.068203682611658,124660.43537254854,8927.988363261862,33.99219624685862,0.9380495585926276,150.0,108.0,78.0,251.0,329.0,42.0,883.0,890.0,46.0,20.0,26.0,0.4347826086956521,50.89321901554936,1844.112350060984,20.0,10.0,10.0,0.5,277.69377614418573,2428.6035381407814,22.0,11.0,11.0,0.5,1448.8319614406284,21553.82289018648,18.0,8.0,10.0,0.4444444444444444,816.2487291090752,13381.434462697674,86.0,42.0,44.0,0.4883720930232558,64.09900206102812,9302.280607334187,,,,,124224.0,124266.0,124374.0,124393.0,124407.0,124429.0,124435.0,124452.0,124621.0,124703.0,0.025314713894448976,-0.0857852192730832,0.05629027533723867,-0.11069434049338539,0.007179557079710327
136,136,125113.52059170186,2221.0510946637733,17.133780630527074,125250.027373699,-3954.0897042460874,8.396673183739074,125285.73004295518,26556.61818414439,8.877143651625753,125311.027373699,-6789.362617787792,9.518821200987478,125525.83551209555,8903.552894331646,35.87222742025718,0.94257223649829,147.0,106.0,79.0,249.0,328.0,41.0,868.0,867.0,49.0,21.0,28.0,0.4285714285714285,61.91654199110946,1695.104578598574,18.0,8.0,10.0,0.4444444444444444,282.0544267510486,2309.460290825292,21.0,11.0,10.0,0.5238095238095238,1498.0745083182228,21618.671027389213,20.0,9.0,11.0,0.45,749.2094212193521,12545.145787438334,90.0,45.0,45.0,0.5,62.19646963150717,9391.370200702378,,,,,125095.0,125136.0,125242.0,125260.0,125275.0,125296.0,125302.0,125321.0,125483.0,125570.0,0.027877135352657206,-0.07133232876537052,0.05641059030673744,-0.11035047962476782,0.006985578720052745
137,137,125932.2476627961,1706.3972192478586,14.06940834574117,126069.027373699,-3383.763121656413,17.835757802251997,126104.57102548704,25759.23431772953,9.27317367492241,126130.027373699,-7870.340560063251,9.474290260009528,126345.79399353526,8632.155456871016,32.95814568852221,0.9373789068827358,145.0,107.0,80.0,248.0,328.0,38.0,820.0,819.0,40.0,18.0,22.0,0.45,45.243287799663605,1560.1406392636145,20.0,10.0,10.0,0.5,270.7472131980538,2531.785567324626,21.0,11.0,10.0,0.5238095238095238,1461.6333578122735,20826.946693125377,19.0,9.0,10.0,0.4736842105263157,788.7903344791728,13358.16490938815,85.0,42.0,43.0,0.4941176470588235,59.56647868453429,8956.075856785474,,,,,125915.0,125953.0,126060.0,126079.0,126094.0,126115.0,126121.0,126140.0,126307.0,126388.0,0.0265139249462712,-0.0800136426410127,0.056742111965892655,-0.10022315152177272,0.006900533590034064
