Unnamed: 0,cycle,p_center,p_height,p_width,q_center,q_height,q_width,r_center,r_height,r_width,s_center,s_height,s_width,t_center,t_height,t_width,r_squared,pr_interval,pr_segment,qrs_duration,st_segment,qt_interval,p_duration,pp_interval,rr_interval,fwhm_p,rise_time_p,decay_time_p,rise_decay_symmetry_p,sharpness_deriv_p,sharpness_diff_p,fwhm_q,rise_time_q,decay_time_q,rise_decay_symmetry_q,sharpness_deriv_q,sharpness_diff_q,fwhm_r,rise_time_r,decay_time_r,rise_decay_symmetry_r,sharpness_deriv_r,sharpness_diff_r,fwhm_s,rise_time_s,decay_time_s,rise_decay_symmetry_s,sharpness_deriv_s,sharpness_diff_s,fwhm_t,rise_time_t,decay_time_t,rise_decay_symmetry_t,sharpness_deriv_t,sharpness_diff_t,Average_Heart_Rate,SDNN,RMSSD,NN50,p_on,p_off,q_on,q_off,r_on,r_off,s_on,s_off,t_on,t_off,sharpness_deriv_p_norm,sharpness_deriv_q_norm,sharpness_deriv_r_norm,sharpness_deriv_s_norm,sharpness_deriv_t_norm
0,0,0.0,0.0,0.0,0.0,0.0,0.0,0.0,0.0,0.0,0.0,0.0,0.0,0.0,0.0,0.0,0.0,0.0,0.0,0.0,0.0,0.0,0.0,0.0,0.0,0.0,0.0,0.0,0.0,0.0,0.0,0.0,0.0,0.0,0.0,0.0,0.0,0.0,0.0,0.0,0.0,0.0,0.0,0.0,0.0,0.0,0.0,0.0,0.0,0.0,0.0,0.0,0.0,0.0,0.0,75.0120133121858,449.71581087183387,657.3495647161852,171.0,,,,,,,,,,,,,,,
1,1,1540.8172848701763,2255.535575164972,14.172389357751616,1651.027373698992,-5333.861273079495,17.8357578060484,1688.2966661286298,51861.316333001734,11.055219509210213,1714.8766954992802,-7274.7949296048355,7.851845782676064,1927.566369040104,12606.185755505052,31.000794469223436,0.977969942754924,83.0,41.0,121.0,242.0,363.0,42.0,,,42.0,20.0,22.0,0.4761904761904761,37.65847033500221,2133.3284322179843,60.0,50.0,10.0,0.8333333333333334,388.29832636218526,2198.9859992966076,26.0,13.0,13.0,0.5,2174.4261859722315,50933.73189436666,15.0,4.0,11.0,0.2666666666666666,1232.0198032866072,19185.06985284445,80.0,41.0,39.0,0.5125,84.83602603603946,12924.05747679697,0.0,0.0,0.0,0.0,1521.0,1563.0,1604.0,1661.0,1675.0,1701.0,1712.0,1725.0,1888.0,1967.0,0.016696021445925465,-0.07279872994109611,0.041927709123506074,-0.1693545749685524,0.006729714100793099
2,2,2349.1548939428535,2682.0649012091417,15.234576420091498,2456.602712798848,-4577.004732778287,20.383723206912453,2495.0542533691664,50779.86409520236,11.184523592769862,2520.87669549928,-9849.482770212591,7.829550692413807,2732.648799304921,13729.99935823957,33.13833596100295,0.979568123114073,115.0,70.0,88.0,242.0,330.0,45.0,805.0,807.0,45.0,20.0,25.0,0.4444444444444444,44.391550576536766,2578.3061400221472,25.0,14.0,11.0,0.56,347.675134655892,2314.9930599877775,26.0,13.0,13.0,0.5,2135.757845988658,48287.05391111083,16.0,4.0,12.0,0.25,1410.2826632043243,21891.770053978405,84.0,42.0,42.0,0.5,86.00381825572586,14223.88281317849,0.0,0.0,0.0,0.0,2329.0,2374.0,2444.0,2468.0,2482.0,2508.0,2518.0,2532.0,2691.0,2774.0,0.016551258903736425,-0.0759612792545333,0.04205914852360628,-0.1431834235468067,0.006263934615853696
3,3,3116.390847826552,2713.3321308314753,15.367520658549676,3225.602712798848,-4995.322677239101,20.383723206912453,3263.5886294612696,50356.09802539196,11.12560835003494,3289.4520345991364,-11336.521855053745,7.926072357453656,3500.024424333869,13766.41233769088,33.07555854244282,0.9789270838135834,117.0,73.0,88.0,240.0,328.0,44.0,771.0,768.0,44.0,20.0,24.0,0.4545454545454545,48.55944416132847,2717.2681881708427,25.0,14.0,11.0,0.56,373.4345556173331,2567.829089767092,26.0,14.0,12.0,0.5384615384615384,2169.869318140021,46255.24973775835,16.0,4.0,12.0,0.25,1529.477099550391,23987.232022236603,84.0,42.0,42.0,0.5,78.34556473317558,14072.59224412515,0.0,0.0,0.0,0.0,3096.0,3140.0,3213.0,3237.0,3250.0,3276.0,3286.0,3301.0,3459.0,3541.0,0.01789660897372261,-0.07475684350059428,0.04309049754104991,-0.1349159044639922,0.00569106625686885
4,4,3839.598939487494,2878.6791727863956,14.68158992724203,3950.602712798848,-5166.230195349968,20.383723206912453,3989.151791865655,50461.14795116621,11.21531845067729,4014.452034599136,-12058.303642773417,8.152747710422014,4224.668794768269,14148.337535658417,32.906422416748775,0.980956239183889,76.0,35.0,129.0,240.0,369.0,41.0,723.0,726.0,41.0,19.0,22.0,0.4634146341463415,64.50313620879899,2892.415016610624,69.0,58.0,11.0,0.8405797101449275,342.84388239150456,2640.441977613623,26.0,13.0,13.0,0.5,2179.1230635473703,47517.487765561025,17.0,4.0,13.0,0.2352941176470588,1590.9534251009068,25041.38235735603,86.0,44.0,42.0,0.5116279069767442,96.80964133146468,14619.206277259736,0.0,0.0,0.0,0.0,3821.0,3862.0,3897.0,3962.0,3976.0,4002.0,4011.0,4026.0,4182.0,4266.0,0.022407198696742462,-0.06636248665421302,0.043184175390861446,-0.13193841125856626,0.006842474678560139
5,5,4552.915275971729,2617.7105093042023,11.13728857328849,4661.178051898705,-6023.279381629402,22.93168860777651,4700.090664647286,50484.57254040707,11.263182354819554,4724.452034599137,-12956.96474958344,8.676059245415939,4935.983983863665,13403.607257662066,30.05890815530901,0.9738388856771014,58.0,27.0,140.0,238.0,378.0,31.0,713.0,710.0,31.0,15.0,16.0,0.4838709677419355,79.68307691555931,2573.8212866616345,81.0,68.0,13.0,0.8395061728395061,281.65124010463296,3660.1627101138856,25.0,13.0,12.0,0.52,2224.940338547895,46289.481977986674,17.0,3.0,14.0,0.1764705882352941,1660.3653383749456,26396.353305767585,79.0,40.0,39.0,0.5063291139240507,82.0212701213836,13537.99317005586,0.0,0.0,0.0,0.0,4538.0,4569.0,4596.0,4674.0,4687.0,4712.0,4721.0,4736.0,4898.0,4974.0,0.030439988162304237,-0.046760447633169784,0.044071688172997545,-0.12814462109486913,0.006119342990633867
6,6,5260.073637435832,2584.4230560142432,12.43879517146169,5370.178051898705,-6063.3212100891715,22.93168860777651,5409.415077425907,50099.87669330429,11.259469926008578,5433.452034599137,-13652.449222033249,8.634213461691413,5644.967631021343,13750.708703314696,31.010395501351564,0.9750684384199088,61.0,26.0,142.0,238.0,380.0,35.0,709.0,710.0,35.0,17.0,18.0,0.4857142857142857,65.6514141848737,2509.1503754358127,80.0,67.0,13.0,0.8375,275.7489814078895,3966.557803014081,26.0,13.0,13.0,0.5,2220.038276891119,46443.73186243177,17.0,3.0,14.0,0.1764705882352941,1703.7471957316798,27057.586305867535,79.0,39.0,40.0,0.4936708860759494,94.08210247651029,14207.909542151216,0.0,0.0,0.0,0.0,5243.0,5278.0,5304.0,5383.0,5396.0,5422.0,5430.0,5446.0,5606.0,5684.0,0.025402735063864826,-0.045478207710495704,0.04431225031713144,-0.1247942525200575,0.006841982075718846
7,7,5981.903201982728,2940.346990690155,15.552683180951494,6093.178051898705,-5214.995552926308,22.93168860777651,6132.10791869061,50643.363481522,11.054458282772297,6156.452034599137,-11776.759251117246,7.761337894006453,6368.6196827580425,13602.150044252854,32.03454800130376,0.9788509651953592,74.0,27.0,135.0,241.0,376.0,47.0,722.0,723.0,47.0,23.0,24.0,0.4893617021276595,43.32212516967055,2871.6104450363737,77.0,64.0,13.0,0.8311688311688312,265.93369739059705,3228.869957908623,26.0,13.0,13.0,0.5,2230.1123536018044,47293.27933424979,16.0,3.0,13.0,0.1875,1653.3365429599685,25222.53062984025,81.0,41.0,40.0,0.5061728395061729,91.94053956384784,14084.920941201704,0.0,0.0,0.0,0.0,5959.0,6006.0,6033.0,6106.0,6119.0,6145.0,6153.0,6168.0,6329.0,6409.0,0.01473367779613726,-0.05099404106708639,0.04403562876339157,-0.14038977172800052,0.006759265209156718
8,8,6805.987632742782,2272.516630950616,15.87555594392411,6914.602712798849,-5021.9025131595545,20.383723206912453,6952.181240636927,49267.14127492547,11.238766739553183,6976.452034599137,-12061.21189085986,8.041114258387157,7190.608505066474,13269.946231691383,32.53110274695096,0.9741146480504316,117.0,71.0,86.0,244.0,330.0,46.0,823.0,820.0,47.0,21.0,26.0,0.4468085106382978,36.21692966949747,2289.353796633775,28.0,17.0,11.0,0.6071428571428571,383.69933019459,2184.7848539078486,26.0,13.0,13.0,0.5,2147.1647654116728,46091.45633525497,16.0,3.0,13.0,0.1875,1631.6913028655729,25067.615191222103,84.0,42.0,42.0,0.5,90.86585403700246,13658.35692161964,0.0,0.0,0.0,0.0,6785.0,6831.0,6902.0,6926.0,6939.0,6965.0,6973.0,6988.0,7150.0,7232.0,0.01593692612684976,-0.07640517297759802,0.043582085541148965,-0.13528419180680254,0.006847492254339054
9,9,7670.911379466234,2777.9673203944817,16.264946430911785,7780.602712798849,-4857.803776853749,20.383723206912453,7818.90968925159,50335.16689049126,11.137689177262155,7844.452034599137,-11328.851816655588,7.949513391253689,8058.383896706563,13616.166100094051,32.82939949284789,0.977908624026375,118.0,73.0,88.0,244.0,332.0,45.0,865.0,866.0,45.0,21.0,24.0,0.4666666666666667,51.30883603092681,2856.213616018861,29.0,18.0,11.0,0.6206896551724138,347.2727541971088,2490.740928780936,26.0,13.0,13.0,0.5,2162.659232348429,47007.114628307856,16.0,4.0,12.0,0.25,1547.738108090334,24215.083093241963,84.0,42.0,42.0,0.5,82.64594152168951,14036.184500804851,0.0,0.0,0.0,0.0,7650.0,7695.0,7768.0,7792.0,7806.0,7832.0,7841.0,7856.0,8017.0,8100.0,0.018469920669779788,-0.07148760430624614,0.04296517456778263,-0.13661915021386914,0.0060696925194764365
10,10,8517.778486266296,2749.4734358575956,17.49159329948159,8627.60271279885,-4543.20519098085,20.383723206912453,8666.460401696433,51772.61215192661,11.16458276605108,8691.876695499283,-10596.549834944006,7.546369693401155,8903.526703342866,13571.872789833224,33.959525340627636,0.9786378603718184,120.0,71.0,88.0,243.0,331.0,49.0,847.0,848.0,50.0,23.0,27.0,0.46,39.15629044954017,2701.6085821433676,51.0,40.0,11.0,0.7843137254901961,327.69414738088545,2319.310881009591,26.0,13.0,13.0,0.5,2184.350671153936,50150.77421927932,15.0,4.0,11.0,0.2666666666666666,1503.9258816923418,23099.83402824644,87.0,44.0,43.0,0.5057471264367817,75.60557911296601,13826.975731513376,0.0,0.0,0.0,0.0,8495.0,8544.0,8615.0,8639.0,8653.0,8679.0,8689.0,8703.0,8862.0,8946.0,0.014241377981281288,-0.07212840574126442,0.04219123935149272,-0.1419259952643151,0.005570755067023811
11,11,9350.50897812934,2294.002847095572,14.51921582440126,9456.178051898703,-4810.65016725015,22.93168860777651,9495.700764952451,52173.734753951576,11.162310828183273,9521.45203459914,-8795.26254570357,7.832868931752325,9733.766945641804,12994.245832925197,32.217897427037855,0.9787479872618264,110.0,69.0,91.0,242.0,333.0,41.0,836.0,829.0,42.0,21.0,21.0,0.5,40.65579170331208,2203.4642448018208,59.0,46.0,13.0,0.7796610169491526,275.8935592820441,3395.8238155107674,26.0,13.0,13.0,0.5,2187.3897922916535,48658.65602344204,16.0,3.0,13.0,0.1875,1437.0070382232193,22086.211943490092,83.0,42.0,41.0,0.5060240963855421,87.25522545283451,13384.84584830688,0.0,0.0,0.0,0.0,9331.0,9372.0,9441.0,9469.0,9483.0,9509.0,9518.0,9532.0,9693.0,9774.0,0.017722642216763687,-0.057350576261035756,0.041925114286091685,-0.16338421175672443,0.0067149126293843606
12,12,10138.143894049172,2268.042155343067,14.323522661147903,10245.60271279885,-4870.153072522129,20.383723206912453,10284.049568841034,51067.71151346691,11.165572858508394,10309.876695499284,-9303.243333391856,7.697250149021775,10522.239405945716,13785.110202971242,31.64148726807271,0.9793668602119008,84.0,41.0,120.0,242.0,362.0,43.0,789.0,789.0,43.0,21.0,22.0,0.4883720930232558,38.68099256332881,2267.561076485753,61.0,50.0,11.0,0.819672131147541,339.719671799805,2313.447190994312,26.0,13.0,13.0,0.5,2149.5451368509616,48722.744303155865,15.0,4.0,11.0,0.2666666666666666,1385.3901190102165,21430.6339919443,81.0,40.0,41.0,0.4938271604938271,85.1380527130775,14039.838222097696,0.0,0.0,0.0,0.0,10117.0,10160.0,10201.0,10257.0,10271.0,10297.0,10307.0,10321.0,10483.0,10563.0,0.01705479436182608,-0.06975544027897931,0.04209205921209357,-0.14891474611200126,0.006176087928170995
13,13,10905.851898028672,2557.851084818184,13.637388899066089,11012.60271279885,-4940.772981319643,20.383723206912453,11050.918494129002,49879.492846354355,11.182662243575011,11076.45203459914,-11008.603727960224,8.248989307024573,11287.162377777118,14337.946796056223,33.348898400074994,0.9764467612826616,111.0,71.0,90.0,241.0,331.0,40.0,760.0,766.0,40.0,19.0,21.0,0.475,50.58958477285609,2515.5400578043777,62.0,51.0,11.0,0.8225806451612904,346.2186566324769,2552.249377969508,26.0,13.0,13.0,0.5,2136.327391453774,46532.79375983254,16.0,3.0,13.0,0.1875,1512.6472882426558,23813.77760713162,85.0,42.0,43.0,0.4941176470588235,79.98127331034793,14681.658543450892,0.0,0.0,0.0,0.0,10887.0,10927.0,10998.0,11024.0,11038.0,11064.0,11073.0,11088.0,11246.0,11329.0,0.019778158733760716,-0.07007378358436629,0.04282977371150068,-0.13740591682855796,0.0055782933531562185
14,14,11665.366880947377,2535.793697948515,14.507479166524792,11772.60271279885,-4731.106700682534,20.383723206912453,11811.518340711897,51042.98646216492,11.20792817420676,11836.45203459914,-11126.713645105749,7.984671094401368,12048.083630977811,14485.32908429492,33.099595423900865,0.9773759302039052,113.0,72.0,88.0,243.0,331.0,41.0,760.0,761.0,41.0,18.0,23.0,0.4390243902439024,46.051338240770995,2487.848508402801,57.0,45.0,12.0,0.7894736842105263,324.94578880892755,2574.630112188923,26.0,14.0,12.0,0.5384615384615384,2204.079945198216,46427.57327553275,16.0,3.0,13.0,0.1875,1588.3032373500323,24417.863026008865,85.0,42.0,43.0,0.4941176470588235,84.2254145632082,14793.161997236904,0.0,0.0,0.0,0.0,11647.0,11688.0,11760.0,11784.0,11798.0,11824.0,11833.0,11848.0,12006.0,12091.0,0.018160522395030416,-0.06868282821904,0.04318085789968358,-0.1427468422402217,0.005814532350150463
15,15,12415.233846038022,2667.9413085736246,13.883570771055574,12524.60271279885,-5512.674980635273,20.383723206912453,12563.178407437475,50035.52410273657,11.284801998447843,12588.027373698991,-13078.29137931382,8.454514386351937,12799.339700019746,15249.423317148525,32.88592274734549,0.9778314144696996,86.0,47.0,117.0,240.0,357.0,39.0,751.0,752.0,39.0,18.0,21.0,0.4615384615384615,52.08624231151245,2677.0418602110294,57.0,45.0,12.0,0.7894736842105263,353.97213267891976,3089.361651967507,26.0,13.0,13.0,0.5,2177.3360821565375,46565.616443777355,17.0,4.0,13.0,0.2352941176470588,1602.8185582969934,25733.19345376633,83.0,41.0,42.0,0.4939759036144578,108.38154733252188,15911.487133092098,0.0,0.0,0.0,0.0,12397.0,12436.0,12483.0,12536.0,12550.0,12576.0,12584.0,12600.0,12759.0,12840.0,0.01952300904976039,-0.0642105935725107,0.043515804444975395,-0.12255565439016,0.0071072554731065095
16,16,13151.558412618258,2385.3618177450053,12.981809166272358,13260.178051898703,-5610.454103104581,22.93168860777651,13299.765612639783,49986.8138045804,11.33223504265401,13324.027373698991,-14125.429079094714,8.913542564522123,13535.57920584156,15129.19228348132,30.8628323312092,0.9717961517059184,61.0,24.0,140.0,238.0,378.0,37.0,736.0,736.0,37.0,17.0,20.0,0.4594594594594595,61.82776875803259,2353.9223488597668,80.0,67.0,13.0,0.8375,280.9516381055573,3917.105756686164,25.0,13.0,12.0,0.52,2220.851086427537,44227.6767478795,17.0,4.0,13.0,0.2352941176470588,1657.9095970838475,26996.24354652626,78.0,39.0,39.0,0.5,103.94020222107338,15577.577168497692,0.0,0.0,0.0,0.0,13135.0,13172.0,13196.0,13273.0,13287.0,13312.0,13320.0,13336.0,13497.0,13574.0,0.025919660614204552,-0.0500764524479562,0.04442873864915223,-0.11737056536834783,0.006870175239596869
17,17,13869.179592451952,1924.1602823459436,12.495518859789865,13980.60271279885,-6459.5731676164605,20.383723206912453,14018.812232110931,49207.69580124113,11.33912588770476,14042.45203459914,-15552.838391698157,8.6785335079042,14254.438320233488,14449.848256184478,29.705784689831756,0.9672595399643366,70.0,30.0,135.0,238.0,373.0,40.0,717.0,719.0,40.0,19.0,21.0,0.475,32.88403921996538,1810.9654706428068,77.0,65.0,12.0,0.8441558441558441,379.2347153850736,3564.291503222284,25.0,13.0,12.0,0.52,2247.4772578897923,43358.35045087393,18.0,4.0,14.0,0.2222222222222222,1790.8317876964134,28683.875223891668,76.0,37.0,39.0,0.4868421052631579,101.55080815890724,14760.070440733283,0.0,0.0,0.0,0.0,13850.0,13890.0,13920.0,13992.0,14006.0,14031.0,14039.0,14055.0,14218.0,14293.0,0.01709007275624307,-0.058708943384413854,0.04567328791349556,-0.11514501357207757,0.007027811390022307
18,18,14593.842339185963,3150.334683064074,15.54350510103445,14708.60271279885,-5200.186607111505,20.383723206912453,14746.494448413714,51419.23847113383,11.12964857037293,14770.45203459914,-13110.82738655662,7.816925792084545,14983.59003099473,14280.670912662985,31.761230081878487,0.9802279973356586,79.0,37.0,129.0,241.0,370.0,42.0,727.0,728.0,44.0,21.0,23.0,0.4772727272727273,63.30659688061891,3192.6476146634,68.0,57.0,11.0,0.8382352941176471,340.06385433393564,1992.6399817735492,26.0,13.0,13.0,0.5,2279.9019282019526,48984.6648365933,16.0,3.0,13.0,0.1875,1757.6414816528636,26773.515477768746,79.0,40.0,39.0,0.5063291139240507,108.15722739945286,14955.252861994846,0.0,0.0,0.0,0.0,14574.0,14616.0,14653.0,14720.0,14734.0,14759.0,14767.0,14782.0,14945.0,15023.0,0.020095197256643774,-0.0653945483165704,0.044339472850844795,-0.13406030220908005,0.007573679700408716
19,19,15425.26265634383,2162.7085912901975,14.723668032676512,15531.178051898703,-5064.680664065037,22.93168860777651,15570.411525885682,52012.66387039624,11.18003840950146,15595.45203459914,-11950.308839759937,7.740014337078654,15810.895361895176,13455.246159515102,31.490399360106785,0.9768143075194148,73.0,32.0,126.0,245.0,371.0,41.0,833.0,824.0,42.0,19.0,23.0,0.4523809523809524,40.54940429966531,2244.2855773310193,71.0,58.0,13.0,0.8169014084507042,274.7561402910722,3165.7641853053874,26.0,13.0,13.0,0.5,2227.8379185789872,49648.91404176849,15.0,3.0,12.0,0.2,1647.7805496696055,25418.65260983974,82.0,41.0,41.0,0.5,90.81570261947915,13777.671022210612,0.0,0.0,0.0,0.0,15407.0,15448.0,15480.0,15544.0,15557.0,15583.0,15592.0,15606.0,15771.0,15851.0,0.01874936108496935,-0.05424944996839074,0.04283260561562957,-0.13788602217436138,0.0067494642270262235
20,20,16235.72656462509,1785.8704332096554,11.984486495004806,16343.60271279885,-5774.579358253994,20.383723206912453,16381.649497285656,51554.69371532897,11.218192777881374,16407.45203459914,-10307.689325891506,8.132222509792783,16620.652411230672,12443.700472571682,30.933234574831705,0.9732720786195306,66.0,28.0,135.0,241.0,376.0,38.0,804.0,811.0,38.0,18.0,20.0,0.4736842105263157,33.85637147817605,1606.809396124919,73.0,62.0,11.0,0.8493150684931506,380.5989939852917,2782.8533905478844,26.0,13.0,13.0,0.5,2202.0322559269853,47831.26654300467,16.0,3.0,13.0,0.1875,1489.2330810392357,23347.45238409147,81.0,41.0,40.0,0.5061728395061729,88.41600464181526,12856.99993651346,0.0,0.0,0.0,0.0,16218.0,16256.0,16284.0,16355.0,16369.0,16395.0,16404.0,16419.0,16580.0,16660.0,0.018957910298860646,-0.06590938843731986,0.04271254656435377,-0.14447787801466677,0.007105282294177782
21,21,17018.54662252091,2338.9392766893075,14.237902363937742,17126.602712798853,-5247.8785343838945,20.383723206912453,17164.751689682656,51306.577114592845,11.153924769007912,17190.876695499283,-7995.069153228344,7.582815020206722,17402.046134064647,12648.358068812642,32.51041629692743,0.9772576410566064,83.0,41.0,119.0,242.0,361.0,42.0,789.0,784.0,42.0,20.0,22.0,0.4761904761904761,40.50265347533951,2234.9998668610983,60.0,49.0,11.0,0.8166666666666667,365.56885527436833,2612.976006901898,26.0,13.0,13.0,0.5,2141.3071899083566,48558.31624435053,14.0,3.0,11.0,0.2142857142857142,1303.511122003668,20053.690496016843,84.0,42.0,42.0,0.5,78.26004810405927,12917.501181529897,0.0,0.0,0.0,0.0,16999.0,17041.0,17082.0,17138.0,17152.0,17178.0,17188.0,17201.0,17361.0,17443.0,0.01731667593041137,-0.06966031185348051,0.04173553003011219,-0.16303938052584835,0.006187368168918852
22,22,17768.657330797414,3119.733394153219,14.711991077959512,17876.178051898707,-4391.377491395855,22.93168860777651,17915.700672085488,51246.56604744647,11.122968095382758,17941.876695499283,-8237.81256199019,7.483297944246689,18153.512303576274,13602.969559437955,32.56502368748731,0.980757651351861,112.0,72.0,90.0,242.0,332.0,40.0,750.0,750.0,41.0,20.0,21.0,0.4878048780487805,59.98346737603098,3057.086831325088,56.0,43.0,13.0,0.7678571428571429,260.89724652442004,2993.028274180145,26.0,13.0,13.0,0.5,2131.773037814309,48098.07622998464,14.0,3.0,11.0,0.2142857142857142,1314.561214211888,20150.929016729733,83.0,42.0,41.0,0.5060240963855421,94.7313574891555,14102.343309045304,0.0,0.0,0.0,0.0,17750.0,17790.0,17862.0,17889.0,17903.0,17929.0,17939.0,17952.0,18113.0,18194.0,0.019227113281041163,-0.059411254677058184,0.0415983587239897,-0.15957649003539606,0.006964020398283505
23,23,18505.838949864577,2806.293614056811,13.649096195361338,18614.178051898707,-5705.011559235263,22.93168860777651,18653.42451065203,49923.19668474045,11.226122068841786,18679.027373698995,-10928.68780830217,8.51469930877135,18890.80759099557,13553.354980472275,32.369792138016805,0.9771879800665294,83.0,43.0,121.0,241.0,362.0,40.0,735.0,738.0,40.0,19.0,21.0,0.475,56.21507650582147,2723.733825982298,74.0,61.0,13.0,0.8243243243243243,295.8269020906158,4174.526165186975,26.0,13.0,13.0,0.5,2118.8107270218725,47618.52997638834,16.0,4.0,12.0,0.25,1446.8678296882424,23185.785497273515,84.0,42.0,42.0,0.5,86.02068706018562,13858.331064286433,0.0,0.0,0.0,0.0,18487.0,18527.0,18570.0,18627.0,18640.0,18666.0,18675.0,18691.0,18850.0,18932.0,0.02003178720296352,-0.051853865503871194,0.04244140735622223,-0.13239172488659653,0.006346818716408192
24,24,0.0,0.0,0.0,0.0,0.0,0.0,0.0,0.0,0.0,0.0,0.0,0.0,0.0,0.0,0.0,0.0,0.0,0.0,0.0,0.0,0.0,0.0,0.0,0.0,0.0,0.0,0.0,0.0,0.0,0.0,0.0,0.0,0.0,0.0,0.0,0.0,0.0,0.0,0.0,0.0,0.0,0.0,0.0,0.0,0.0,0.0,0.0,0.0,0.0,0.0,0.0,0.0,0.0,0.0,0.0,0.0,0.0,0.0,,18948.0,19249.0,19335.0,19347.0,19372.0,19380.0,19399.0,19562.0,19634.0,,,,,
25,25,0.0,0.0,0.0,0.0,0.0,0.0,0.0,0.0,0.0,0.0,0.0,0.0,0.0,0.0,0.0,0.0,0.0,0.0,0.0,0.0,0.0,0.0,0.0,0.0,0.0,0.0,0.0,0.0,0.0,0.0,0.0,0.0,0.0,0.0,0.0,0.0,0.0,0.0,0.0,0.0,0.0,0.0,0.0,0.0,0.0,0.0,0.0,0.0,0.0,0.0,0.0,0.0,0.0,0.0,0.0,0.0,0.0,0.0,,19654.0,19944.0,20034.0,20046.0,20071.0,20079.0,20098.0,20260.0,20332.0,,,,,
26,26,0.0,0.0,0.0,0.0,0.0,0.0,0.0,0.0,0.0,0.0,0.0,0.0,0.0,0.0,0.0,0.0,0.0,0.0,0.0,0.0,0.0,0.0,0.0,0.0,0.0,0.0,0.0,0.0,0.0,0.0,0.0,0.0,0.0,0.0,0.0,0.0,0.0,0.0,0.0,0.0,0.0,0.0,0.0,0.0,0.0,0.0,0.0,0.0,0.0,0.0,0.0,0.0,0.0,0.0,0.0,0.0,0.0,0.0,,20355.0,20640.0,20725.0,20738.0,20763.0,20771.0,20789.0,20951.0,21024.0,,,,,
27,27,21308.31288455271,2898.283675396877,12.09217881415126,21420.178051898707,-6083.220522499614,22.93168860777651,21459.171965540703,49322.434554824875,11.236005099104103,21483.027373698995,-14732.372810345692,8.697457138248302,21696.33381816032,13773.13585181563,29.796477116928138,0.9735044834023652,60.0,25.0,143.0,240.0,383.0,35.0,2802.0,2805.0,35.0,16.0,19.0,0.4571428571428571,76.35795190318886,2886.028652967771,83.0,70.0,13.0,0.8433734939759037,281.6061036046913,3888.665057731343,25.0,13.0,12.0,0.52,2226.862657710982,44482.368455452495,17.0,4.0,13.0,0.2352941176470588,1708.0397313023334,27689.812005624903,78.0,39.0,39.0,0.5,100.73612642939048,14225.779421475872,0.0,0.0,0.0,0.0,21292.0,21327.0,21352.0,21433.0,21446.0,21471.0,21479.0,21495.0,21658.0,21735.0,0.026345920708652777,-0.046292272746505415,0.045149082315385086,-0.11593785694201791,0.007313957221739814
28,28,22071.22043659997,3646.0204368662016,16.202074421088206,22183.178051898707,-4704.5005374506845,22.93168860777651,22222.380970923317,51218.29163585573,10.924025454102347,22247.45203459914,-11903.11519056822,7.512719600860509,22461.170649650783,14033.706752532284,33.76709705991946,0.9830283800020658,95.0,46.0,116.0,245.0,361.0,49.0,762.0,764.0,49.0,24.0,25.0,0.4897959183673469,52.10775494547784,3430.377883736576,61.0,48.0,13.0,0.7868852459016393,266.5255760148382,3284.192557227296,25.0,12.0,13.0,0.48,2242.2177814319957,48856.0158296714,16.0,4.0,12.0,0.25,1641.359029253642,25291.681488380826,86.0,43.0,43.0,0.5,83.28631126511543,14454.177342488529,0.0,0.0,0.0,0.0,22047.0,22096.0,22142.0,22196.0,22210.0,22235.0,22244.0,22258.0,22419.0,22503.0,0.01429167933854619,-0.05665332034572694,0.043777676096137405,-0.1378932323997184,0.005934733619119339
29,29,23008.40133946348,3452.5069061276467,19.468343453704396,23118.65947599489,-3626.003979095942,22.93168860777651,23154.42791682027,50706.00901277166,11.26666843006826,23179.45203459914,-11988.344314233778,7.567832289778464,23396.64719633935,14191.373960909625,35.367969046461006,0.9816663592123374,122.0,69.0,84.0,250.0,334.0,53.0,941.0,932.0,53.0,24.0,29.0,0.4528301886792453,51.78807507470504,3558.425485374674,21.0,13.0,8.0,0.6190476190476191,469.0796871954143,603.3958913958654,26.0,13.0,13.0,0.5,2146.67484197901,48343.53071953369,15.0,3.0,12.0,0.2,1633.1185273294634,24908.66376639396,87.0,44.0,43.0,0.5057471264367817,89.88047688450382,14839.10915806452,0.0,0.0,0.0,0.0,22984.0,23037.0,23106.0,23127.0,23141.0,23167.0,23176.0,23190.0,23354.0,23440.0,0.015000136562446698,-0.12936546399278032,0.04233570899729681,-0.1362255274392194,0.006333458418619726
30,30,23914.83203384348,2834.952111368928,16.66614548635001,24023.027373698995,-4676.854658541724,17.8357578060484,24060.33454356153,50813.0740307004,11.203376872934374,24085.45203459914,-11662.808764079728,7.772868048609397,24300.724484071103,14119.70086998724,34.441132959809984,0.9787248736629742,114.0,69.0,88.0,247.0,335.0,45.0,903.0,906.0,45.0,20.0,25.0,0.4444444444444444,55.964219203813485,2949.76112509924,39.0,29.0,10.0,0.7435897435897436,370.8574120312336,1607.0780673025947,26.0,13.0,13.0,0.5,2175.056569322442,48773.33926615776,16.0,3.0,13.0,0.1875,1615.3316022652596,24755.4674359989,86.0,43.0,43.0,0.5,79.0117698343068,14524.080439356934,0.0,0.0,0.0,0.0,23895.0,23940.0,24009.0,24033.0,24047.0,24073.0,24082.0,24097.0,24258.0,24344.0,0.01974079878788138,-0.07929633035610936,0.04280505776935105,-0.1385027942188607,0.00559585295480684
31,31,24797.63355727626,2969.224178951548,17.751435843851226,24904.941511660687,-4223.480857188574,20.383723206912453,24941.920916483527,53240.781009246944,11.1422374142787,24967.876695499283,-9582.326443978993,7.140142392399974,25180.9416530818,14016.722143434508,35.85959372753958,0.9845465797941908,122.0,69.0,85.0,247.0,332.0,53.0,885.0,882.0,53.0,27.0,26.0,0.5094339622641509,52.20498086538983,3043.1995618179017,22.0,12.0,10.0,0.5454545454545454,423.1651449944813,1153.3551422944977,26.0,13.0,13.0,0.5,2222.725148771451,50583.36638218776,14.0,4.0,10.0,0.2857142857142857,1452.8476907693198,21939.796481853064,90.0,45.0,45.0,0.5,80.94900610071393,14461.160579071337,0.0,0.0,0.0,0.0,24771.0,24824.0,24893.0,24915.0,24929.0,24955.0,24965.0,24978.0,25138.0,25225.0,0.01758202739808745,-0.1001934563700539,0.04174854513094774,-0.1516174281123776,0.005775173772609225
32,32,25634.461540158783,2199.300637947669,14.587607878980402,25738.178051898707,-4699.450808701542,22.93168860777651,25777.81503550549,52333.329468087824,11.141281089921222,25803.45203459914,-9799.043534004082,7.713712318992997,26017.806395018364,14277.92145169961,33.24529817209954,0.9783218804987608,108.0,62.0,95.0,246.0,341.0,46.0,838.0,835.0,47.0,23.0,24.0,0.4893617021276595,35.64644253937811,2124.98804217415,64.0,51.0,13.0,0.796875,263.8292327921842,3342.167961042867,26.0,13.0,13.0,0.5,2208.008397082462,48986.66048479962,15.0,3.0,12.0,0.2,1508.541262729918,23057.201808950816,85.0,42.0,43.0,0.4941176470588235,87.6224951651849,14687.310383516276,0.0,0.0,0.0,0.0,25611.0,25657.0,25719.0,25751.0,25765.0,25791.0,25800.0,25814.0,25977.0,26060.0,0.016208080843664215,-0.056140439283602205,0.04219124637252206,-0.15394780699718946,0.006136922342765412
33,33,26403.711047441477,2092.2741440209184,12.85657743026734,26511.602712798853,-5342.312291591817,20.383723206912453,26549.461594839147,50500.82325064808,11.310218299938173,26574.45203459914,-12008.2663456683,8.257709471481315,26787.99154169401,14516.710144272074,32.69874389877784,0.9742205708538212,79.0,42.0,121.0,243.0,364.0,37.0,768.0,772.0,37.0,18.0,19.0,0.4864864864864865,44.76510096229937,1981.4255206023108,60.0,49.0,11.0,0.8166666666666667,382.63426832939547,2371.497608994023,26.0,13.0,13.0,0.5,2159.5193727353544,48272.96086473442,16.0,3.0,13.0,0.1875,1604.30380648875,25057.113310534096,84.0,42.0,42.0,0.5,103.97703077466105,15186.300642200642,0.0,0.0,0.0,0.0,26386.0,26423.0,26465.0,26523.0,26536.0,26562.0,26571.0,26586.0,26748.0,26829.0,0.021395428075342986,-0.07162334349708789,0.04276206274929669,-0.13359995192540552,0.007162575386661402
34,34,27126.471249024387,1807.3096246786415,10.812561651801555,27233.178051898707,-6263.003605611875,22.93168860777651,27271.94734904835,49897.15063139695,11.294417424739777,27297.027373698995,-13508.903324527622,8.740342870479225,27509.34215388564,14538.827256058954,31.107179737107412,0.9689475928623656,62.0,29.0,136.0,239.0,375.0,33.0,722.0,722.0,33.0,15.0,18.0,0.4545454545454545,48.117944352596645,1714.8128891713675,76.0,63.0,13.0,0.8289473684210527,313.78113722114216,4114.954906187106,25.0,13.0,12.0,0.52,2185.375401379363,45328.07066379599,17.0,4.0,13.0,0.2352941176470588,1584.812019110444,25989.3659602576,80.0,40.0,40.0,0.5,108.92915470892396,14986.395098522213,0.0,0.0,0.0,0.0,27111.0,27144.0,27173.0,27246.0,27259.0,27284.0,27293.0,27309.0,27471.0,27548.0,0.026624073537566934,-0.0501007435058768,0.04379759913593648,-0.11731611227337446,0.0074922930708547
35,35,0.0,0.0,0.0,0.0,0.0,0.0,0.0,0.0,0.0,0.0,0.0,0.0,0.0,0.0,0.0,0.0,0.0,0.0,0.0,0.0,0.0,0.0,0.0,0.0,0.0,0.0,0.0,0.0,0.0,0.0,0.0,0.0,0.0,0.0,0.0,0.0,0.0,0.0,0.0,0.0,0.0,0.0,0.0,0.0,0.0,0.0,0.0,0.0,0.0,0.0,0.0,0.0,0.0,0.0,0.0,0.0,0.0,0.0,,27563.0,27851.0,27942.0,27955.0,27979.0,27987.0,28006.0,28172.0,28238.0,,,,,
36,36,0.0,0.0,0.0,0.0,0.0,0.0,0.0,0.0,0.0,0.0,0.0,0.0,0.0,0.0,0.0,0.0,0.0,0.0,0.0,0.0,0.0,0.0,0.0,0.0,0.0,0.0,0.0,0.0,0.0,0.0,0.0,0.0,0.0,0.0,0.0,0.0,0.0,0.0,0.0,0.0,0.0,0.0,0.0,0.0,0.0,0.0,0.0,0.0,0.0,0.0,0.0,0.0,0.0,0.0,0.0,0.0,0.0,0.0,,28268.0,28568.0,28650.0,28663.0,28688.0,28696.0,28712.0,28876.0,28951.0,,,,,
37,37,29342.396110653055,1665.4785085766528,12.615905329992094,29449.178051898707,-5653.726915779761,22.93168860777651,29488.29680453091,50488.91766028548,11.268277690749818,29512.45203459914,-13423.85644060056,8.006391072169881,29728.636842016236,13875.174079762164,31.13892095441788,0.9702001605577388,64.0,27.0,134.0,245.0,379.0,37.0,2213.0,2217.0,38.0,17.0,21.0,0.4473684210526316,39.73807981084044,1694.2119528359335,74.0,61.0,13.0,0.8243243243243243,293.3584287565029,3828.9228249621624,26.0,13.0,13.0,0.5,2212.163839626092,47047.0677933376,16.0,3.0,13.0,0.1875,1724.9038066658895,26712.452755677194,82.0,41.0,41.0,0.5,88.9028554244634,13974.80284687845,0.0,0.0,0.0,0.0,29326.0,29363.0,29390.0,29462.0,29475.0,29501.0,29509.0,29524.0,29689.0,29769.0,0.023859857456102092,-0.05188761910974665,0.043814839813177006,-0.12849540028220982,0.006407332615317162
38,38,30242.64381873788,2592.200389698798,16.138466014473966,30350.602712798853,-4477.732273286089,20.383723206912453,30389.256821444786,51605.66471966828,11.197219217671226,30414.45203459914,-11035.444612502104,7.532106145702189,30629.79151672328,14254.051144440444,34.03219871526319,0.9789581663193724,115.0,69.0,89.0,248.0,337.0,46.0,904.0,901.0,46.0,22.0,24.0,0.4782608695652174,41.19113414277759,2484.985754153032,29.0,18.0,11.0,0.6206896551724138,338.75167785321355,2145.160667415291,26.0,13.0,13.0,0.5,2192.005426698735,49373.114840884984,15.0,3.0,12.0,0.2,1600.264816610633,24269.3164008966,86.0,43.0,43.0,0.5,78.58446250759783,14655.614320048106,0.0,0.0,0.0,0.0,30221.0,30267.0,30336.0,30362.0,30376.0,30402.0,30411.0,30425.0,30587.0,30673.0,0.015890412757620105,-0.07565250827392872,0.04247606224251005,-0.14501135865406692,0.005513131790483887
39,39,31167.76518009603,2872.5933796060885,16.53398175785492,31275.602712798853,-4403.669827699338,20.383723206912453,31313.750866215905,52902.70115055542,11.099088714158752,31339.876695499283,-9116.966014621494,7.182308276671968,31554.6683182909,13843.912627138716,34.0004264160663,0.9821543537955112,119.0,74.0,85.0,247.0,332.0,45.0,927.0,924.0,47.0,23.0,24.0,0.4893617021276595,53.424449576740685,2889.812360431407,23.0,12.0,11.0,0.5217391304347826,371.8331767709403,1951.5846581142937,26.0,13.0,13.0,0.5,2212.4442334681344,49934.54984088987,14.0,4.0,10.0,0.2857142857142857,1412.2724340505124,21376.408545576807,86.0,43.0,43.0,0.5,87.89465737129164,14232.44634524982,0.0,0.0,0.0,0.0,31146.0,31191.0,31265.0,31287.0,31301.0,31327.0,31337.0,31350.0,31512.0,31597.0,0.018597985345237635,-0.08443711525148595,0.04182100696846755,-0.15490596672023957,0.006348975158871533
40,40,32055.768539908397,3151.111355599103,18.56624394502107,32164.77383717371,-3859.688908995403,17.8357578060484,32200.785174642897,53159.656167054425,11.154164377123054,32226.876695499283,-7221.904678327986,6.6403384907588245,32440.8299746464,14211.90271321142,35.0678552215126,0.9840357425608116,122.0,70.0,83.0,248.0,331.0,52.0,888.0,887.0,53.0,26.0,27.0,0.490566037735849,45.22771188218092,3088.689787792893,20.0,12.0,8.0,0.6,480.34680194938494,305.3692385082272,27.0,14.0,13.0,0.5185185185185185,2183.541138075749,50873.28982276079,13.0,3.0,10.0,0.2307692307692307,1333.2104145824408,19443.356978195283,87.0,43.0,44.0,0.4942528735632184,88.31801926897309,14771.26896270955,0.0,0.0,0.0,0.0,32031.0,32083.0,32153.0,32173.0,32187.0,32214.0,32224.0,32236.0,32399.0,32484.0,0.01435293989271986,-0.12445220671279678,0.04107515540006434,-0.18460648180295636,0.0062143698174117416
41,41,32920.746495720035,2581.579395067216,15.249686861265886,33026.60271279886,-4620.202323626098,20.383723206912453,33064.927406469455,52176.612564422874,11.12607162117448,33091.45203459914,-9015.21637899447,7.595533424090418,33306.516583410266,14668.19582289136,33.21802053893118,0.9808719881055356,114.0,71.0,88.0,246.0,334.0,43.0,864.0,865.0,44.0,21.0,23.0,0.4772727272727273,50.25415345928329,2447.9076279156507,51.0,40.0,11.0,0.7843137254901961,360.8022950997313,2064.7890905358063,26.0,13.0,13.0,0.5,2177.153170032555,49660.208194456834,14.0,3.0,11.0,0.2142857142857142,1402.4929250961698,21652.132152638103,85.0,43.0,42.0,0.5058823529411764,80.75898104438856,14971.26676926163,0.0,0.0,0.0,0.0,32900.0,32943.0,33014.0,33038.0,33052.0,33078.0,33088.0,33102.0,33265.0,33348.0,0.01946643731171198,-0.0780923149738951,0.0417266101233461,-0.15556952447242312,0.005505720132148436
42,42,33731.936096578254,2278.6937866091657,14.311361423913896,33838.60271279886,-5242.236836830715,20.383723206912453,33876.91115465212,50948.54044758041,11.149163142656231,33902.45203459914,-11579.25800956573,8.428323375532019,34116.71976188001,15006.287522020051,32.55659118403945,0.9763842751216564,111.0,71.0,90.0,244.0,334.0,40.0,811.0,811.0,41.0,20.0,21.0,0.4878048780487805,52.384466582114186,2245.1927902174893,28.0,17.0,11.0,0.6071428571428571,361.9805640984304,2960.409789630473,26.0,13.0,13.0,0.5,2197.3367851026555,47334.10639215117,17.0,4.0,13.0,0.2352941176470588,1551.7271524320984,24786.594560527272,85.0,43.0,42.0,0.5058823529411764,94.11008947151458,15342.862775023672,0.0,0.0,0.0,0.0,33713.0,33753.0,33824.0,33850.0,33864.0,33890.0,33899.0,33914.0,34076.0,34158.0,0.022988813543071727,-0.06905078411475817,0.04312855217831876,-0.13400920431604532,0.006271377203283526
43,43,34484.30519933828,2412.735556004735,13.779897505666312,34591.60271279886,-5218.931981999397,20.383723206912453,34630.19579635972,50483.29127598212,11.167539101774004,34655.45203459914,-12604.67227050442,8.092717636531866,34868.47057937125,15318.71837670866,33.14355763910406,0.9764473541042484,79.0,39.0,123.0,244.0,367.0,40.0,753.0,754.0,41.0,20.0,21.0,0.4878048780487805,52.09660951438202,2423.018795314814,63.0,51.0,12.0,0.8095238095238095,339.69485636241603,2831.1752194162773,26.0,13.0,13.0,0.5,2191.8422468071503,47515.22029670196,17.0,4.0,13.0,0.2352941176470588,1626.810559274828,25634.79532338792,85.0,42.0,43.0,0.4941176470588235,97.43699924039063,15800.494380972272,0.0,0.0,0.0,0.0,34465.0,34505.0,34544.0,34603.0,34617.0,34643.0,34652.0,34667.0,34826.0,34911.0,0.02159234126787154,-0.06508896025739683,0.04341718203008565,-0.12906409023276616,0.0063606495559405726
44,44,0.0,0.0,0.0,0.0,0.0,0.0,0.0,0.0,0.0,0.0,0.0,0.0,0.0,0.0,0.0,0.0,0.0,0.0,0.0,0.0,0.0,0.0,0.0,0.0,0.0,0.0,0.0,0.0,0.0,0.0,0.0,0.0,0.0,0.0,0.0,0.0,0.0,0.0,0.0,0.0,0.0,0.0,0.0,0.0,0.0,0.0,0.0,0.0,0.0,0.0,0.0,0.0,0.0,0.0,0.0,0.0,0.0,0.0,,34933.0,35231.0,35315.0,35328.0,35353.0,35361.0,35378.0,35543.0,35616.0,,,,,
45,45,0.0,0.0,0.0,0.0,0.0,0.0,0.0,0.0,0.0,0.0,0.0,0.0,0.0,0.0,0.0,0.0,0.0,0.0,0.0,0.0,0.0,0.0,0.0,0.0,0.0,0.0,0.0,0.0,0.0,0.0,0.0,0.0,0.0,0.0,0.0,0.0,0.0,0.0,0.0,0.0,0.0,0.0,0.0,0.0,0.0,0.0,0.0,0.0,0.0,0.0,0.0,0.0,0.0,0.0,0.0,0.0,0.0,0.0,,35639.0,35941.0,36025.0,36037.0,36062.0,36070.0,36087.0,36253.0,36324.0,,,,,
46,46,36636.20350562344,2971.113739631791,16.094257816803175,36747.178051898714,-5472.169904650965,22.93168860777651,36786.14720092511,50004.09151063859,11.017386222160692,36810.45203459914,-12651.51693758374,8.026358095140061,37025.56549692334,13924.703381222293,32.158723117002715,0.9778644076763772,87.0,41.0,120.0,244.0,364.0,46.0,2148.0,2156.0,46.0,21.0,25.0,0.4565217391304347,43.73099807596388,2943.082572849531,65.0,52.0,13.0,0.8,260.90405875966275,3660.256925736649,25.0,13.0,12.0,0.52,2235.3872434581212,46358.65430886007,16.0,3.0,13.0,0.1875,1675.7847347405768,26070.587817520063,81.0,41.0,40.0,0.5061728395061729,98.85339963745888,14588.1856938391,0.0,0.0,0.0,0.0,36615.0,36661.0,36702.0,36760.0,36773.0,36798.0,36807.0,36822.0,36985.0,37066.0,0.014718722306936473,-0.04767835489499556,0.04470408672423402,-0.13245721781886402,0.007099138626591101
47,47,37477.047137005815,2320.6012483921727,14.27436590783822,37582.60271279886,-5133.339572653408,20.383723206912453,37621.057641751344,49142.35777607112,11.226704783781967,37645.45203459914,-12342.871470766388,8.30603911221648,37863.48924383961,13011.786189020882,31.452667278200487,0.9706369411618452,107.0,65.0,92.0,246.0,338.0,42.0,847.0,834.0,42.0,19.0,23.0,0.4523809523809524,39.010038148674525,2271.6448871359653,52.0,41.0,11.0,0.7884615384615384,345.6965131873465,2808.5838507467306,25.0,13.0,12.0,0.52,2156.66121484519,45478.36293751975,16.0,3.0,13.0,0.1875,1623.800391093565,25366.952446617383,82.0,41.0,41.0,0.5,86.36022800423792,13407.890633378664,0.0,0.0,0.0,0.0,37458.0,37500.0,37565.0,37594.0,37608.0,37633.0,37642.0,37657.0,37823.0,37903.0,0.0168103150748982,-0.06734339474227632,0.04388599392549563,-0.13155774934053824,0.006637077089162991
48,48,38316.205425597705,2527.0292768801355,15.386055727956224,38423.60271279886,-5055.149693926449,20.383723206912453,38461.865751450656,49995.02767103984,11.1919862689726,38487.45203459914,-10197.27279110371,7.805297993810036,38702.82081076091,13172.394026720272,32.96371058288579,0.975852388598664,90.0,44.0,116.0,246.0,362.0,46.0,841.0,841.0,47.0,24.0,23.0,0.5106382978723404,38.90971409935773,2408.530249978989,56.0,45.0,11.0,0.8035714285714286,352.05527117457603,2543.616979086626,26.0,13.0,13.0,0.5,2125.922468381256,46950.52379650735,15.0,3.0,12.0,0.2,1484.2782020237798,22837.220866802065,85.0,43.0,42.0,0.5058823529411764,72.4403964697493,13385.18309401074,0.0,0.0,0.0,0.0,38293.0,38339.0,38383.0,38435.0,38449.0,38475.0,38484.0,38499.0,38662.0,38745.0,0.015397413261232798,-0.06964289734042015,0.04252267810250097,-0.14555638869626905,0.005499410078593426
49,49,39114.14200217222,2135.1936425918557,13.09962814468338,39221.178051898714,-5708.036196557091,22.93168860777651,39260.27686929455,50595.7956136268,11.220205318361762,39286.45203459914,-8931.876550077537,8.258002171700854,39500.10940970026,12656.945383002389,32.2437038130734,0.9722124576231947,83.0,43.0,120.0,244.0,364.0,40.0,790.0,799.0,40.0,19.0,21.0,0.475,43.64922251167199,2073.2817186708353,71.0,58.0,13.0,0.8169014084507042,295.21902310196646,3871.812490012844,26.0,13.0,13.0,0.5,2107.1403721495876,48623.69820037555,16.0,3.0,13.0,0.1875,1370.3528980866497,21523.500101841695,83.0,41.0,42.0,0.4939759036144578,76.44271238770222,12920.43472870414,0.0,0.0,0.0,0.0,39095.0,39135.0,39178.0,39234.0,39247.0,39273.0,39283.0,39298.0,39460.0,39542.0,0.020442746569199848,-0.05171989331112394,0.04164655079723815,-0.1534227315395166,0.006039586177748761
50,50,39899.66523631666,3018.387679913079,15.315824898734268,40006.178051898714,-4837.391713337327,22.93168860777651,40045.4320003357,50633.604806715804,11.097271064646502,40071.87669549929,-7285.43967135559,7.194944602750792,40285.20829175472,12902.372302947706,32.741374933846096,0.9799461394202248,81.0,39.0,121.0,245.0,366.0,42.0,792.0,785.0,42.0,20.0,22.0,0.4761904761904761,60.251611297546425,2990.6642548640552,63.0,50.0,13.0,0.7936507936507936,274.5370067958895,3324.8750776645466,27.0,13.0,14.0,0.4814814814814814,2078.982110535882,49642.80349904495,13.0,3.0,10.0,0.2307692307692307,1243.5580792177216,18797.917394195985,84.0,42.0,42.0,0.5,73.17241992104287,13121.102101565306,0.0,0.0,0.0,0.0,39880.0,39922.0,39961.0,40019.0,40032.0,40059.0,40069.0,40082.0,40244.0,40327.0,0.019961521741727193,-0.05675310643935549,0.041059334378265235,-0.17069087595455096,0.005671237676526024
51,51,40653.27177050923,3260.0996764464826,15.625445367140252,40763.60271279886,-4927.144891188934,20.383723206912453,40801.92448445736,49730.07516028825,11.092360705139283,40828.45203459914,-8073.154810794272,7.669027173045413,41040.433002033235,13592.817638580338,33.335540307350755,0.9787856059626142,110.0,67.0,96.0,244.0,340.0,43.0,749.0,757.0,43.0,20.0,23.0,0.4651162790697674,64.40713502596697,3316.7037332719333,36.0,25.0,11.0,0.6944444444444444,339.79994231608674,2498.937915816725,26.0,13.0,13.0,0.5,2077.91781582963,47457.75098074715,15.0,3.0,12.0,0.2,1301.761801018953,20178.632566020355,85.0,42.0,43.0,0.4941176470588235,95.895324270585,14179.081497181503,0.0,0.0,0.0,0.0,40633.0,40676.0,40743.0,40775.0,40789.0,40815.0,40825.0,40839.0,40999.0,41083.0,0.01975618582808821,-0.06896487718957502,0.04178392671099244,-0.16124573745054693,0.007054852556721308
52,52,41392.71903025642,3018.0471269592804,14.752555124434902,41504.60271279886,-5690.122887158687,20.383723206912453,41542.223230619114,48223.15587146713,11.228339467676308,41568.027373699,-10324.569035607165,8.358401184810194,41780.48578781058,13837.04044556842,32.61857749343365,0.9761034208748594,115.0,71.0,93.0,242.0,335.0,44.0,742.0,740.0,44.0,21.0,23.0,0.4772727272727273,52.50509944631358,2901.9008431621487,58.0,47.0,11.0,0.8103448275862069,392.70444303667944,2967.191522827992,26.0,13.0,13.0,0.5,2051.351697569467,45943.200085853125,16.0,4.0,12.0,0.25,1380.5004388267448,22052.974341984176,84.0,42.0,42.0,0.5,89.15993613586906,14123.669608898244,0.0,0.0,0.0,0.0,41372.0,41416.0,41487.0,41516.0,41529.0,41555.0,41564.0,41580.0,41740.0,41822.0,0.017397044259946037,-0.06901510755117855,0.04253872772319364,-0.13371022403605448,0.006443569814412463
53,53,42123.62499058979,2916.28403338733,13.44597428680496,42233.60271279886,-5460.51292257826,20.383723206912453,42271.64904807036,48585.71097769039,11.166382772681658,42297.027373699,-11637.86595556683,8.300890871648567,42509.132777068946,14210.51384796522,32.46163113378103,0.9747183147922877,113.0,75.0,90.0,241.0,331.0,38.0,728.0,729.0,38.0,18.0,20.0,0.4736842105263157,66.35942423254049,2915.7978724938885,62.0,51.0,11.0,0.8225806451612904,364.5618928302007,2975.9142237427295,25.0,13.0,12.0,0.52,2117.659646583889,44272.282483190465,16.0,4.0,12.0,0.25,1482.4934421696046,23707.085007226153,83.0,41.0,42.0,0.4939759036144578,94.50925092219944,14680.923322019338,0.0,0.0,0.0,0.0,42106.0,42144.0,42219.0,42245.0,42259.0,42284.0,42293.0,42309.0,42469.0,42550.0,0.022754787761692236,-0.06676330557204643,0.04358605861621078,-0.12738533403200714,0.006650656825877698
54,54,42830.970256748085,2017.8840725495677,10.976396061742394,42943.178051898714,-6936.981597573603,22.93168860777651,42981.759996343506,49180.49824181161,11.25630833430065,43006.027373699,-13573.088304670817,9.450553764320263,43219.371192267885,14062.192704604557,29.744158641243004,0.9621689199051848,61.0,29.0,143.0,238.0,381.0,32.0,709.0,710.0,32.0,16.0,16.0,0.5,58.52720907776406,1901.6619428821325,82.0,69.0,13.0,0.8414634146341463,310.07768461672816,4621.539304705241,25.0,13.0,12.0,0.52,2198.509144888814,43118.93748600751,17.0,4.0,13.0,0.2352941176470588,1601.218640623179,26399.84216754861,78.0,39.0,39.0,0.5,88.33364848179681,14314.623039552807,0.0,0.0,0.0,0.0,42815.0,42847.0,42876.0,42956.0,42969.0,42994.0,43002.0,43019.0,43181.0,43257.0,0.029004247505564466,-0.04469922260211649,0.044702864417500245,-0.11797010412671981,0.006281641159196506
55,55,43542.38082005269,2701.2730443803675,11.33507838499886,43659.178051898714,-6393.929159850966,22.93168860777651,43697.692249048545,49591.44769890496,11.14552814838743,43721.45203459914,-14220.606356510618,8.573406413531156,43935.789985514915,14201.969634096697,31.075090809704868,0.9696495722589892,61.0,32.0,145.0,243.0,388.0,29.0,709.0,716.0,29.0,15.0,14.0,0.5172413793103449,95.78078033760625,2656.0432785423504,85.0,72.0,13.0,0.8470588235294118,280.08624998066966,3740.6643500110654,25.0,13.0,12.0,0.52,2264.9511601982085,43561.37922390091,16.0,3.0,13.0,0.1875,1739.005233316872,27716.579565387307,80.0,40.0,40.0,0.5,121.68233532117786,14822.081468400143,0.0,0.0,0.0,0.0,43527.0,43556.0,43588.0,43672.0,43685.0,43710.0,43718.0,43733.0,43897.0,43976.0,0.035457644882239944,-0.04380502864176213,0.045672212957965766,-0.122287699252761,0.00856799010674109
56,56,44314.060744692506,2959.232125749037,14.378573929106429,44425.178051898714,-5430.1648921834485,22.93168860777651,44463.72342547799,49680.37618110467,11.046712878376145,44487.45203459914,-12879.37690936523,8.138574812402982,44703.48681176068,13785.69303169836,31.73807140312792,0.9756421827370012,81.0,37.0,126.0,244.0,370.0,44.0,775.0,766.0,45.0,22.0,23.0,0.4888888888888889,47.12324965813381,2735.635132244433,79.0,66.0,13.0,0.8354430379746836,282.335524009358,3484.602865694491,25.0,13.0,12.0,0.52,2249.892856138632,44452.79839065205,16.0,3.0,13.0,0.1875,1699.7610243202323,26462.273914079487,81.0,41.0,40.0,0.5061728395061729,91.97971464606502,14297.82145121332,0.0,0.0,0.0,0.0,44292.0,44336.0,44373.0,44438.0,44451.0,44476.0,44484.0,44499.0,44663.0,44743.0,0.015924147770667377,-0.051993913557905225,0.0452873554728507,-0.1319754081491514,0.0066721139397613125
57,57,45217.136808730094,2914.108418966145,18.107734499939433,45324.60271279886,-4251.548625156419,20.383723206912453,45362.49002626031,49216.7002284861,10.98778458791219,45387.45203459914,-11600.851319560406,7.362514759555209,45605.40736161545,13620.220754142638,34.340582830562376,0.9785002142072288,115.0,62.0,91.0,251.0,342.0,53.0,900.0,899.0,53.0,25.0,28.0,0.4716981132075472,45.182181654222504,3059.734033764117,32.0,21.0,11.0,0.65625,328.12328596864177,1675.2057027060018,26.0,13.0,13.0,0.5,2146.0557969588176,47440.64934098964,15.0,3.0,12.0,0.2,1603.563584037945,24332.605015394984,88.0,44.0,44.0,0.5,89.21385778265982,14087.44121079038,0.0,0.0,0.0,0.0,45192.0,45245.0,45307.0,45336.0,45350.0,45375.0,45384.0,45398.0,45563.0,45649.0,0.015504633032923341,-0.07717735698167388,0.04360421944169072,-0.13822809549624582,0.006550103657866567
58,58,46167.498088845896,3425.160107098061,19.074866108309376,46277.4248235853,-4318.579145891615,20.383723206912453,46312.5493742169,50208.073636519664,11.342772653655537,46337.45203459914,-11532.463452203949,7.7204592306171085,46555.43853408453,13948.263795385214,35.308845989789624,0.9806982258813466,120.0,69.0,85.0,250.0,335.0,51.0,952.0,950.0,51.0,23.0,28.0,0.4509803921568627,55.89363012508281,3632.4190846766633,21.0,13.0,8.0,0.6190476190476191,479.86372697944586,166.4336401549449,26.0,14.0,12.0,0.5384615384615384,2149.393005454341,45716.68532791346,16.0,3.0,13.0,0.1875,1600.1502255213172,24336.90234581929,89.0,44.0,45.0,0.4943820224719101,84.78597664158909,14482.073911371232,0.0,0.0,0.0,0.0,46144.0,46195.0,46264.0,46285.0,46299.0,46325.0,46334.0,46349.0,46512.0,46599.0,0.016318545229244256,-0.1111161126770025,0.04280970867384454,-0.13875181414214804,0.006078604325625139
59,59,47039.781205372106,2742.3512066251214,16.26961738921193,47145.60271279886,-4573.217139550661,20.383723206912453,47183.86644896896,51602.086587084406,11.187181984563594,47209.45203459914,-9782.04742320768,7.512212872608157,47425.09112994425,13562.661285580672,34.01155279541959,0.9792757963819212,115.0,69.0,87.0,248.0,335.0,46.0,876.0,872.0,47.0,23.0,24.0,0.4893617021276595,52.751109830727096,2726.1622190607136,25.0,14.0,11.0,0.56,360.2924940567229,2221.915396421043,26.0,13.0,13.0,0.5,2167.704908840224,48660.701474412665,15.0,3.0,12.0,0.2,1506.7722587490969,22867.847465754705,86.0,43.0,43.0,0.5,89.05033431195473,14102.633367912124,0.0,0.0,0.0,0.0,47018.0,47064.0,47133.0,47157.0,47171.0,47197.0,47206.0,47220.0,47383.0,47468.0,0.019235723602173235,-0.07878315922084628,0.04200808634321356,-0.15403444632401952,0.006565845186049865
60,60,47840.136090053704,2257.167467710454,14.007794822575065,47949.027373699,-5624.3731508502,17.8357578060484,47986.23697869192,50611.50878763489,11.166088255920156,48012.45203459914,-8391.447232802208,7.744482393516023,48226.46451016985,13164.066930570694,32.83575232611987,0.975141722281228,76.0,36.0,125.0,245.0,370.0,40.0,798.0,802.0,41.0,19.0,22.0,0.4634146341463415,45.19089690313265,2244.2865364467816,66.0,55.0,11.0,0.8333333333333334,387.4405141902296,2138.9445327796984,26.0,13.0,13.0,0.5,2125.2948944127934,49359.48714467276,15.0,3.0,12.0,0.2,1357.4696388143332,20973.398546549488,85.0,42.0,43.0,0.4941176470588235,86.72289664809183,13650.598705405477,0.0,0.0,0.0,0.0,47822.0,47862.0,47898.0,47959.0,47973.0,47999.0,48009.0,48023.0,48185.0,48268.0,0.02002106514009428,-0.0688859902781633,0.04199232438081421,-0.1617682386785414,0.0065878498723442895
61,61,48606.21597399909,2839.168117919804,15.968305555576425,48714.60271279886,-4767.016456079541,20.383723206912453,48752.96476563713,50417.03928427581,11.05465217348078,48779.45203459914,-7178.7688915677845,6.957998510718709,48991.93878734257,13151.096791552558,33.33788117195019,0.9800810808919674,111.0,67.0,92.0,244.0,336.0,44.0,765.0,767.0,44.0,20.0,24.0,0.4545454545454545,50.81904932629916,2948.0091551690653,54.0,43.0,11.0,0.7962962962962963,338.18321731811,2403.9115538414503,26.0,13.0,13.0,0.5,2087.8200149231807,48562.39931045615,14.0,3.0,11.0,0.2142857142857142,1296.579107096001,19318.679773005857,84.0,42.0,42.0,0.5,85.39108735676909,13633.18115445602,0.0,0.0,0.0,0.0,48586.0,48630.0,48697.0,48726.0,48740.0,48766.0,48776.0,48789.0,48951.0,49033.0,0.017899274440829224,-0.07094232219123416,0.041411000022255076,-0.18061301689471698,0.0064930772474900336
62,62,49367.62061412052,2784.234338160173,14.831989060725748,49476.60271279886,-4644.881836614998,20.383723206912453,49514.91282411238,49910.79628556765,11.064868996136004,49541.45203459914,-7382.907491707645,7.306379419795516,49755.026127690566,13595.324109593888,33.1310639281853,0.9793921899771616,112.0,73.0,89.0,246.0,335.0,39.0,762.0,762.0,39.0,18.0,21.0,0.4615384615384615,57.161442151425426,2824.5147474555138,55.0,44.0,11.0,0.8,340.9152708053647,2318.838655113015,26.0,13.0,13.0,0.5,2078.133322723174,47884.94303864527,14.0,3.0,11.0,0.2142857142857142,1283.4885380782937,19390.319994631467,85.0,43.0,42.0,0.5058823529411764,86.72638767258091,14097.73964436932,0.0,0.0,0.0,0.0,49350.0,49389.0,49462.0,49488.0,49502.0,49528.0,49538.0,49551.0,49714.0,49797.0,0.02053039910038528,-0.07339589741938622,0.04163694986617741,-0.17384594612893173,0.0063791335148369295
63,63,50129.350245981055,2567.27965950768,13.45928782012776,50238.60271279886,-5597.625431244409,20.383723206912453,50276.63588390507,48343.1106184528,11.318524846515023,50302.45203459914,-10653.315762421966,8.484963099472251,50516.088863321595,13909.379612886789,32.69843490541852,0.9737364845060624,77.0,38.0,126.0,244.0,370.0,39.0,765.0,761.0,39.0,18.0,21.0,0.4615384615384615,54.56878103732057,2511.7457517260104,64.0,53.0,11.0,0.828125,358.01820529513833,2656.1257841203096,26.0,14.0,12.0,0.5384615384615384,2060.7225665462697,44434.75316766459,17.0,4.0,13.0,0.2352941176470588,1436.6514921616092,22883.54964486994,84.0,42.0,42.0,0.5,86.55078157868216,14282.740050611124,0.0,0.0,0.0,0.0,50111.0,50150.0,50188.0,50250.0,50263.0,50289.0,50299.0,50314.0,50475.0,50558.0,0.021255487626846647,-0.06395894289331669,0.04262701634593786,-0.13485486811807362,0.00622247605482666
64,64,50883.69166937067,2929.174522295263,14.058865067444096,50992.60271279886,-5459.21779945063,20.383723206912453,51030.65570385787,49127.24251707815,11.135819521975687,51056.027373699,-12147.755886176965,8.257771529202651,51269.72400454491,14841.66014608209,33.02725901256495,0.9750967449860456,83.0,46.0,118.0,243.0,361.0,37.0,751.0,754.0,37.0,17.0,20.0,0.4594594594594595,66.30858361208803,2988.558027554363,59.0,48.0,11.0,0.8135593220338984,346.31236094759316,2666.4070067209204,25.0,13.0,12.0,0.52,2158.8083743528227,44832.08996010141,16.0,4.0,12.0,0.25,1523.4376925131362,24292.91838673805,84.0,42.0,42.0,0.5,89.05523717076534,15276.122873761517,0.0,0.0,0.0,0.0,50867.0,50904.0,50950.0,51004.0,51018.0,51043.0,51052.0,51068.0,51228.0,51311.0,0.02263729358130887,-0.06343626022439389,0.04394320266606362,-0.12540898144378,0.006000355505665867
65,65,51635.281075948085,2749.593801271351,13.752423320650244,51744.60271279886,-5247.017958209349,20.383723206912453,51783.157209255834,49694.56990377008,11.17043464743578,51808.027373699,-12841.627814414867,8.444945287450949,52022.10724956193,15022.509777708954,32.05561037382197,0.9770964792122594,99.0,64.0,101.0,242.0,343.0,35.0,750.0,753.0,35.0,15.0,20.0,0.4285714285714285,77.71985732148997,2926.9895957346203,73.0,62.0,11.0,0.8493150684931506,330.51969946273255,2793.933462137794,26.0,13.0,13.0,0.5,2188.426894576808,46186.44509733624,16.0,4.0,12.0,0.25,1586.4962976621534,25502.022463888687,81.0,40.0,41.0,0.4938271604938271,108.1432840455315,15610.73226362196,0.0,0.0,0.0,0.0,51620.0,51655.0,51719.0,51756.0,51770.0,51796.0,51804.0,51820.0,51983.0,52062.0,0.028265941422167172,-0.06299191313908312,0.04403754572812558,-0.1235432392676335,0.007198749453037411
66,66,52398.89521946868,2633.529688915614,15.078320034957011,52509.60271279886,-5504.152267321696,20.383723206912453,52547.745587934296,50001.62523572021,11.075558750443616,52572.45203459914,-13293.631122963232,7.949791258086112,52787.756658908176,15008.915332006209,31.736509606589717,0.9747352813725104,74.0,31.0,132.0,243.0,375.0,43.0,768.0,764.0,44.0,21.0,23.0,0.4772727272727273,48.35124073560401,2551.0257947030905,72.0,60.0,12.0,0.8333333333333334,326.99766232023745,2504.4684403612846,25.0,13.0,12.0,0.52,2245.55303881609,45551.53091858943,16.0,4.0,12.0,0.25,1689.4140820741436,26509.3007760486,81.0,41.0,40.0,0.5061728395061729,107.34619999608354,15625.806885741003,0.0,0.0,0.0,0.0,52378.0,52421.0,52452.0,52521.0,52535.0,52560.0,52569.0,52584.0,52748.0,52827.0,0.018359861648460544,-0.05940926893713163,0.044909601002567204,-0.12708447123644595,0.007152162406244636
67,67,53186.08471348938,2624.417002528378,13.771196225582951,53294.60271279886,-5316.258962878007,20.383723206912453,53332.527813236,49997.629639125415,11.013784044626968,53357.45203459914,-12654.365616631854,7.769791313721174,53573.18017690638,14125.06850430061,31.368332069916185,0.9720932201876136,76.0,35.0,125.0,245.0,370.0,41.0,781.0,785.0,41.0,19.0,22.0,0.4634146341463415,42.15001178188241,2586.173075594591,68.0,57.0,11.0,0.8382352941176471,346.2926626196289,2487.9296408165364,25.0,13.0,12.0,0.52,2248.21337104091,45244.74563697557,16.0,4.0,12.0,0.25,1649.9987201853196,25825.084451337105,81.0,40.0,41.0,0.4938271604938271,78.04290605877759,14387.260487492094,0.0,0.0,0.0,0.0,53167.0,53208.0,53243.0,53306.0,53320.0,53345.0,53354.0,53368.0,53534.0,53613.0,0.016060714338184387,-0.06513841124702476,0.04496639915268265,-0.13038968291043349,0.005525134694746163
68,68,54021.76314040552,1929.7160115756071,13.059960253508292,54128.178051898714,-5631.10846583209,22.93168860777651,54167.365299053476,49514.65177759498,11.2827102120195,54191.45203459914,-13085.998707812789,8.42325430623044,54409.475209141,13598.731395278452,31.123146706808615,0.9677221067541032,65.0,29.0,133.0,247.0,380.0,36.0,835.0,835.0,37.0,17.0,20.0,0.4594594594594595,48.49871162771136,1870.9828782360937,72.0,59.0,13.0,0.8194444444444444,278.20902636459465,3779.091060995879,26.0,13.0,13.0,0.5,2173.650796110866,46063.11602196005,17.0,3.0,14.0,0.1764705882352941,1666.383811419428,26268.95272475039,82.0,41.0,41.0,0.5,89.35442332783187,13950.287307255228,0.0,0.0,0.0,0.0,54005.0,54041.0,54070.0,54141.0,54154.0,54180.0,54188.0,54203.0,54369.0,54450.0,0.025132564240948757,-0.049405730337585434,0.043899143345978796,-0.12734097325139881,0.006570791107680543
69,69,54861.908028433485,2438.18206689816,17.36004597875435,54970.60271279886,-4754.959364657863,20.383723206912453,55008.9115271616,49435.73736600601,11.068511631887278,55034.027373699,-11818.742680465575,7.621289201069634,55250.34691827482,14456.695386234656,33.949715859312946,0.9742417124158044,123.0,70.0,86.0,248.0,334.0,53.0,848.0,841.0,53.0,26.0,27.0,0.490566037735849,27.56153216911238,2368.263815676294,25.0,14.0,11.0,0.56,346.03969554526253,2633.9763835523004,26.0,13.0,13.0,0.5,2154.960803227173,46018.23235495188,15.0,4.0,11.0,0.2666666666666666,1563.940705115149,24062.30887621814,88.0,44.0,44.0,0.5,88.58302414614991,14829.036025222582,0.0,0.0,0.0,0.0,54836.0,54889.0,54959.0,54982.0,54996.0,55022.0,55030.0,55045.0,55208.0,55293.0,0.01130413210042841,-0.07277448007595358,0.04359115324350376,-0.1323271643522694,0.006127473933669287
70,70,55691.749267513216,2688.8687184478354,15.003310350073717,55800.60271279886,-4991.851028411699,20.383723206912453,55838.45390768215,50008.27428576802,11.246065498471468,55863.45203459914,-11694.895811553071,7.851139450435563,56079.097650502845,14113.53824061982,33.669208054862814,0.97345989062837,115.0,73.0,88.0,247.0,335.0,42.0,828.0,830.0,44.0,21.0,23.0,0.4772727272727273,51.30335077597475,2584.0726070941755,27.0,16.0,11.0,0.5925925925925926,375.50374459906055,2271.6759853411068,26.0,13.0,13.0,0.5,2135.4278000470963,47926.88235106741,16.0,3.0,13.0,0.1875,1593.2284965552474,24654.485968262827,87.0,44.0,43.0,0.5057471264367817,87.82017977285565,14511.081417758953,0.0,0.0,0.0,0.0,55672.0,55714.0,55787.0,55812.0,55825.0,55851.0,55860.0,55875.0,56037.0,56122.0,0.019079901679093465,-0.07522334750412972,0.04270148951440268,-0.13623280807524082,0.006222407044613561
71,71,56496.06992974073,2314.735169597201,12.995826575774355,56604.60271279886,-5704.508932707383,20.383723206912453,56642.74547348272,50654.55735206719,11.182641635382486,56668.45203459914,-11010.22831169211,8.000605448372495,56883.56273701297,13679.919361205337,32.32309154565581,0.9746104326612232,76.0,38.0,126.0,244.0,370.0,38.0,802.0,804.0,38.0,18.0,20.0,0.4736842105263157,47.92547522628031,2217.9971599341548,65.0,54.0,11.0,0.8307692307692308,365.2895690823777,2907.319834292535,26.0,13.0,13.0,0.5,2174.936123606163,47024.04890958313,16.0,4.0,12.0,0.25,1521.1442953073574,23923.01351297615,83.0,42.0,41.0,0.5060240963855421,90.0270657043122,14036.424321857236,0.0,0.0,0.0,0.0,56478.0,56516.0,56554.0,56616.0,56630.0,56656.0,56665.0,56680.0,56843.0,56924.0,0.020704517672585444,-0.06403523482765584,0.042936632699987556,-0.138157379869408,0.006580964648053299
72,72,57274.50939753692,2898.568481169937,15.00491536404696,57383.60271279886,-4923.358296230365,20.383723206912453,57422.373086480664,50603.17726358002,11.1192092686918,57447.87669549929,-9725.789126835289,7.609151206184982,57662.444484185784,13883.452982627265,33.25930887381676,0.9782042333162604,80.0,38.0,124.0,245.0,369.0,42.0,777.0,780.0,42.0,20.0,22.0,0.4761904761904761,51.63370004979482,2838.7334528011347,67.0,55.0,12.0,0.8208955223880597,324.8631532227413,2545.150791616985,26.0,13.0,13.0,0.5,2145.620578840079,48984.0838352184,15.0,4.0,11.0,0.2666666666666666,1428.2338751578302,21895.983259952845,86.0,43.0,43.0,0.5,89.28303615661656,14350.940323420353,0.0,0.0,0.0,0.0,57255.0,57297.0,57335.0,57395.0,57409.0,57435.0,57445.0,57459.0,57621.0,57704.0,0.01781351739150704,-0.06598405675075021,0.042400906323807434,-0.14685017909930448,0.006430895560948621
73,73,58039.39449184081,3052.0575185324797,14.548433805031909,58148.60271279886,-5073.710556592177,20.383723206912453,58186.22447729224,50325.003272850714,11.103887324004829,58212.45203459914,-9371.001922245256,7.771966841099654,58425.90955048325,13706.377546907952,32.74266094273146,0.9786456857535056,91.0,51.0,112.0,244.0,356.0,40.0,770.0,764.0,41.0,19.0,22.0,0.4634146341463415,65.17913800759466,3109.3529023614715,52.0,41.0,11.0,0.7884615384615384,376.3443369528293,2131.643331665632,26.0,13.0,13.0,0.5,2121.045972247737,48494.04662615471,16.0,4.0,12.0,0.25,1402.455343151849,21849.223022019716,84.0,42.0,42.0,0.5,90.93646965293192,14141.75123691027,0.0,0.0,0.0,0.0,58020.0,58060.0,58111.0,58160.0,58173.0,58199.0,58209.0,58223.0,58386.0,58467.0,0.021355802638652346,-0.07417536588953662,0.04214696143680128,-0.14965906044930424,0.006634610008495385
74,74,58787.17690221902,3050.364070014803,14.312201325318892,58896.60271279886,-5173.93269769403,20.383723206912453,58934.889043579285,49997.83158349118,11.126687830260847,58960.87669549929,-8759.62578098465,7.568938542956945,59174.02746480023,13717.31739704666,33.1121561954383,0.9785254074747994,84.0,45.0,119.0,243.0,362.0,39.0,743.0,749.0,39.0,18.0,21.0,0.4615384615384615,66.56715854640045,3148.4420409934123,60.0,49.0,11.0,0.8166666666666667,348.45194862974205,2643.0072575364147,26.0,13.0,13.0,0.5,2106.032984255675,47496.83354398812,15.0,4.0,11.0,0.2666666666666666,1329.943496725859,20521.34395779632,84.0,42.0,42.0,0.5,92.21793909718916,14356.223723936391,0.0,0.0,0.0,0.0,58769.0,58808.0,58853.0,58908.0,58922.0,58948.0,58958.0,58972.0,59133.0,59215.0,0.021822692969917328,-0.06734759978324488,0.04212248646701445,-0.15182651975988443,0.006722738595889287
75,75,59541.42160792282,3320.465445257991,15.194973583193722,59650.178051898714,-4685.6600674880365,22.93168860777651,59689.76177325635,49680.02290329987,11.124166775164454,59715.45203459914,-9242.52257629294,7.6663865001190175,59929.308872045265,14188.551503614026,32.97151927454523,0.9791529684709792,86.0,44.0,118.0,245.0,363.0,42.0,755.0,754.0,42.0,19.0,23.0,0.4523809523809524,60.68810889503131,3346.40869891,65.0,52.0,13.0,0.8,256.42442327939096,3307.84932181711,26.0,13.0,13.0,0.5,2093.969786050664,46336.90054864138,15.0,3.0,12.0,0.2,1425.0086542851832,21829.01542724521,83.0,41.0,42.0,0.4939759036144578,95.70930542880065,14735.35695681924,0.0,0.0,0.0,0.0,59522.0,59564.0,59608.0,59663.0,59677.0,59703.0,59712.0,59726.0,59889.0,59971.0,0.018276988541380833,-0.05472535770544257,0.04214913085137844,-0.15417962385510733,0.006745530395010521
76,76,60340.647835553216,2776.305115099132,14.222528116252995,60449.60271279886,-5129.640072912952,20.383723206912453,60487.69435228797,49164.96807028758,11.2032956671078,60513.027373699,-11363.34884479686,8.291664680695751,60727.666795056895,14607.857181365744,32.757428878261635,0.9750142501825202,79.0,40.0,123.0,244.0,367.0,39.0,800.0,798.0,40.0,19.0,21.0,0.475,58.32013441049426,2789.0931012542305,60.0,49.0,11.0,0.8166666666666667,343.76251382569325,2347.5432186073685,25.0,13.0,12.0,0.52,2133.978817847777,45122.11381898687,16.0,4.0,12.0,0.25,1483.891652196121,23600.183133470284,83.0,41.0,42.0,0.4939759036144578,91.686779392098,14966.667821996243,0.0,0.0,0.0,0.0,60323.0,60362.0,60402.0,60461.0,60475.0,60500.0,60509.0,60525.0,60688.0,60769.0,0.0210063851027454,-0.06701493846340802,0.04340445853228223,-0.13058576942972028,0.006276538595205917
77,77,61130.50985728492,2312.5567452857495,12.800608163091985,61237.60271279886,-5842.651293410314,20.383723206912453,61275.88046141914,49356.30291346031,11.272671814444816,61300.45203459914,-12872.63438686202,8.558898655944036,61515.18806243263,14597.327100954124,32.011938089223804,0.969971771533566,76.0,38.0,123.0,244.0,367.0,38.0,787.0,788.0,38.0,18.0,20.0,0.4736842105263157,45.53212671285554,2181.688702035381,63.0,52.0,11.0,0.8253968253968254,356.36835244857986,3110.5066643876635,25.0,13.0,12.0,0.52,2175.7465490291124,44965.14423041173,16.0,3.0,13.0,0.1875,1630.902145672079,25997.695897277776,83.0,41.0,42.0,0.4939759036144578,93.92916158827389,14968.858674440104,0.0,0.0,0.0,0.0,61113.0,61151.0,61189.0,61249.0,61263.0,61288.0,61297.0,61312.0,61475.0,61556.0,0.019689085167607163,-0.060994287447979835,0.04408244581941223,-0.1266952899195676,0.006434682249610917
78,78,61906.52275409369,2661.9828473164416,13.935095841535878,62015.60271279886,-5310.804617048598,20.383723206912453,62053.38148521886,49729.88077427445,11.04918637052932,62078.45203459914,-12467.90656021938,7.881193307515742,62292.97389116174,15004.68300912438,32.06481632104428,0.9723865201046414,72.0,33.0,128.0,245.0,373.0,39.0,778.0,778.0,39.0,18.0,21.0,0.4615384615384615,56.11091766679355,2673.760341000206,69.0,58.0,11.0,0.8405797101449275,358.96759008335414,2422.5556673229116,26.0,13.0,13.0,0.5,2194.960996506004,47398.526581313046,16.0,4.0,12.0,0.25,1622.8801847132486,25457.22029647829,81.0,40.0,41.0,0.4938271604938271,85.07794602306895,15281.138094702936,0.0,0.0,0.0,0.0,61889.0,61928.0,61961.0,62027.0,62041.0,62066.0,62075.0,62089.0,62254.0,62334.0,0.021078617288371803,-0.06759194057544621,0.04413766858740329,-0.13016460918076475,0.005670092861764082
79,79,62666.509592570386,2810.491243520677,15.235945090125062,62776.60271279886,-5474.839149456764,20.383723206912453,62814.32351940394,49580.72503935269,11.10417003566785,62838.45203459914,-13273.493020530872,7.7145535419992735,63053.65249175016,15020.2478057572,31.61445688171998,0.9739736530405242,74.0,30.0,130.0,243.0,373.0,44.0,755.0,761.0,44.0,21.0,23.0,0.4772727272727273,46.22776851331059,2748.583024110314,71.0,60.0,11.0,0.8450704225352113,364.3522989992035,2515.05531896705,26.0,13.0,13.0,0.5,2211.1295750298227,46698.22675774133,15.0,3.0,12.0,0.2,1727.2613808563287,26388.481241046484,81.0,41.0,40.0,0.5061728395061729,115.9638497567293,15635.886992916414,0.0,0.0,0.0,0.0,62646.0,62690.0,62720.0,62788.0,62801.0,62827.0,62835.0,62850.0,63015.0,63093.0,0.016448287686319736,-0.06655032030216926,0.04459655588486913,-0.13012862388104432,0.007720501769104024
80,80,63428.79384023236,3535.788194051171,17.438240742254425,63541.60271279886,-4562.2295975809975,20.383723206912453,63579.27735125163,50332.16053953384,10.934790835047018,63603.45203459914,-12384.795464015124,7.412403910194603,63819.92925889142,14471.212874253835,33.09577174660517,0.9790780112042308,117.0,73.0,88.0,247.0,335.0,44.0,768.0,765.0,45.0,21.0,24.0,0.4666666666666667,69.50638781651263,3734.020215108226,57.0,46.0,11.0,0.8070175438596491,350.6239293886938,1901.7038137071263,26.0,13.0,13.0,0.5,2252.178797766762,47625.04105796765,15.0,3.0,12.0,0.2,1714.1577774879172,25872.608072666822,85.0,43.0,42.0,0.5058823529411764,88.5404746309865,14877.91438647878,0.0,0.0,0.0,0.0,63409.0,63453.0,63526.0,63553.0,63566.0,63592.0,63600.0,63614.0,63779.0,63861.0,0.019657961394139636,-0.07685363524330362,0.0447463167411176,-0.13840824279000172,0.006118386578951615
81,81,64238.31420238,2358.1847955954668,14.827542353523386,64347.60271279886,-5245.689924922994,20.383723206912453,64385.607618378286,48813.397036124596,11.002662799842806,64410.45203459914,-12312.586239609767,7.751890847247415,64627.69023786525,13564.266430632597,32.33334268802374,0.96985709143101,68.0,27.0,133.0,248.0,381.0,41.0,807.0,806.0,41.0,18.0,23.0,0.4390243902439024,45.21894695971627,2508.596649963045,73.0,62.0,11.0,0.8493150684931506,321.40230278441845,2484.020688489122,25.0,13.0,12.0,0.52,2189.7563701879667,44376.51417991576,16.0,4.0,12.0,0.25,1615.3716923754264,25187.77947696941,83.0,42.0,41.0,0.5060240963855421,92.28902657424732,13964.14331411359,0.0,0.0,0.0,0.0,64220.0,64261.0,64288.0,64359.0,64373.0,64398.0,64407.0,64421.0,64588.0,64669.0,0.019175319527195072,-0.06126978669810275,0.04485974144695209,-0.13119678197085455,0.006803834696569229
82,82,65072.23245810513,2458.035798524658,13.571028839787248,65179.60271279886,-5381.762768479025,20.383723206912453,65217.78820821861,48934.771991952606,11.141100465054084,65243.027373699,-11771.67099692281,7.872669847131312,65459.6952802681,13388.367994374195,32.50483572537173,0.9685964909788488,110.0,70.0,91.0,247.0,338.0,40.0,835.0,832.0,40.0,19.0,21.0,0.475,48.28038838710594,2397.9732859044734,61.0,50.0,11.0,0.819672131147541,355.0007451438896,2963.862339667656,25.0,13.0,12.0,0.52,2137.0519827539024,45221.29888128993,16.0,4.0,12.0,0.25,1526.122328523296,23853.657603478205,84.0,42.0,42.0,0.5,82.86718177355736,13624.008300701382,0.0,0.0,0.0,0.0,65053.0,65093.0,65163.0,65191.0,65205.0,65230.0,65239.0,65254.0,65419.0,65501.0,0.01964185729763757,-0.06596365548164411,0.043671440486232234,-0.12964364438338738,0.006189490893018345
83,83,65906.90401250399,2560.7374679908557,14.365894596147877,66015.60271279886,-5295.266900077332,20.383723206912453,66054.04598156645,49977.406422113105,11.200553785855137,66079.45203459915,-10481.762433327338,8.039174824685253,66294.83231927644,13155.144393967916,33.41735400064103,0.9733368767965456,88.0,48.0,115.0,247.0,362.0,40.0,835.0,837.0,40.0,19.0,21.0,0.475,53.43834512352986,2540.364852147037,65.0,53.0,12.0,0.8153846153846154,340.8515657223071,2846.703888416355,26.0,13.0,13.0,0.5,2127.4628863554426,47132.34021519976,16.0,3.0,13.0,0.1875,1502.9487545976024,23311.729584809407,87.0,44.0,43.0,0.5057471264367817,70.96958281352921,13402.095166893298,0.0,0.0,0.0,0.0,65888.0,65928.0,65976.0,66027.0,66041.0,66067.0,66076.0,66091.0,66252.0,66338.0,0.02086834194895323,-0.06436910020858992,0.04256849321845003,-0.14338702714906937,0.005394815950942446
84,84,66715.47681397651,2758.7315481546752,14.661410049781004,66823.60271279886,-5015.435884116531,20.383723206912453,66862.16798657601,50419.32209225172,11.06736162407742,66888.45203459915,-8420.778663408895,7.407191810752328,67102.89648568882,12989.199644843851,33.8219421064507,0.9775972297392383,88.0,47.0,114.0,247.0,361.0,41.0,811.0,808.0,41.0,18.0,23.0,0.4390243902439024,53.231592715886286,2740.578850267911,54.0,42.0,12.0,0.7777777777777778,334.72707955736155,2827.9123131634597,26.0,13.0,13.0,0.5,2111.6832882953313,48727.75201526769,14.0,3.0,11.0,0.2142857142857142,1361.079261953156,20847.95090508356,87.0,43.0,44.0,0.4942528735632184,81.01584863099288,13354.941047797238,0.0,0.0,0.0,0.0,66697.0,66738.0,66785.0,66835.0,66849.0,66875.0,66885.0,66899.0,67061.0,67146.0,0.019295676939459033,-0.0667393796454291,0.041882421275549996,-0.16163342089342658,0.006237170175696903
85,85,67490.19079262251,3194.9083696448884,15.57600238640593,67599.60271279886,-4878.949179042925,20.383723206912453,67637.87696595163,49929.98439941014,11.09545123593783,67663.87669549929,-7380.406011047407,7.0112431190981965,67877.72355094846,12727.622162809965,33.619637846745974,0.9791235534193808,114.0,70.0,91.0,246.0,337.0,44.0,771.0,776.0,44.0,21.0,23.0,0.4772727272727273,53.19674136152402,3221.2599589211245,57.0,46.0,11.0,0.8070175438596491,348.1657791972153,2401.9675059420133,26.0,13.0,13.0,0.5,2080.5226996362835,47814.27866294681,13.0,3.0,10.0,0.2307692307692307,1275.545359109093,19006.94170024674,86.0,43.0,43.0,0.5,80.3254458029318,13157.874418212152,0.0,0.0,0.0,0.0,67469.0,67513.0,67583.0,67611.0,67625.0,67651.0,67661.0,67674.0,67836.0,67920.0,0.016650474820170444,-0.07136081283501153,0.041668803318529825,-0.17282861636606237,0.0063111117517019215
86,86,68260.55169589349,3049.7524321621277,14.484953014554783,68369.60271279886,-4786.593283590825,20.383723206912453,68408.05014728075,49220.45328706731,11.099250626150557,68434.45203459915,-7212.581973759088,7.399019246109311,68647.7089819067,12828.524970831872,33.34675458683245,0.9780859661257064,112.0,73.0,91.0,245.0,336.0,39.0,770.0,770.0,40.0,19.0,21.0,0.475,65.05680637812904,3070.768638220471,59.0,48.0,11.0,0.8135593220338984,332.90694583408515,2495.252039970066,26.0,13.0,13.0,0.5,2041.687971660745,47511.34426340106,14.0,3.0,11.0,0.2142857142857142,1272.5190035776286,19292.8068181354,86.0,43.0,43.0,0.5,80.85264196941644,13165.549068411492,0.0,0.0,0.0,0.0,68242.0,68281.0,68354.0,68381.0,68395.0,68421.0,68431.0,68445.0,68606.0,68690.0,0.021331831952014182,-0.06954987109001744,0.041480478852014134,-0.17643043894784477,0.006302567298520331
87,87,69027.59949802195,3462.712449024915,16.386695477363805,69137.60271279886,-4351.469435100198,20.383723206912453,69176.16395413199,49233.44134823075,11.041932823479543,69202.45203459915,-7523.121750322578,7.137418871630191,69415.74744850877,13819.053133355828,34.30869305788448,0.9810426109483632,121.0,75.0,85.0,246.0,331.0,46.0,769.0,768.0,46.0,22.0,24.0,0.4782608695652174,46.680432459289825,3394.4248393207117,23.0,12.0,11.0,0.5217391304347826,337.1255231808274,2464.345740512466,26.0,13.0,13.0,0.5,2051.2190190938095,47796.56015192654,14.0,3.0,11.0,0.2142857142857142,1304.8402233601198,19546.79182553531,86.0,43.0,43.0,0.5,89.04486996201285,14442.694166165627,0.0,0.0,0.0,0.0,69006.0,69052.0,69127.0,69149.0,69163.0,69189.0,69199.0,69212.0,69375.0,69458.0,0.013480886197303168,-0.077473949480485,0.04166312495983021,-0.1734439859761901,0.006443630334344704
88,88,69807.5315494523,2997.9057440568267,13.64373433691191,69915.60271279886,-5385.887553295012,20.383723206912453,69954.26426449194,48001.429767613634,11.337258990909,69979.45203459915,-10607.867912253423,8.678680627834083,70194.05200075387,13800.377877205805,32.34319709828083,0.9709270166951022,78.0,39.0,125.0,243.0,368.0,39.0,779.0,778.0,39.0,19.0,20.0,0.4871794871794871,61.81861215492956,2879.870964405247,67.0,55.0,12.0,0.8208955223880597,335.1875011506158,2944.4383691858693,26.0,13.0,13.0,0.5,2041.4325439802567,45429.96985972929,17.0,3.0,14.0,0.1764705882352941,1458.1107942540225,23025.458188725323,83.0,41.0,42.0,0.4939759036144578,107.37095462029278,14552.074085173155,0.0,0.0,0.0,0.0,69789.0,69828.0,69867.0,69927.0,69941.0,69967.0,69976.0,69992.0,70154.0,70235.0,0.020620598988971336,-0.062234403862656336,0.04252857787493661,-0.1374555948768669,0.007780290914905906
89,89,70591.69448340467,3326.475014300069,15.497493354513512,70703.027373699,-5032.0006634437705,17.8357578060484,70739.61981917461,48526.94508001327,11.165316120208386,70764.45203459915,-11776.999499812026,7.965500476320806,70978.96819969546,14870.124070078273,33.774678690332586,0.9769892956150424,115.0,74.0,88.0,245.0,333.0,41.0,784.0,785.0,41.0,19.0,22.0,0.4634146341463415,71.73045376609542,3382.768311868267,27.0,17.0,10.0,0.6296296296296297,396.5554651440249,1638.1061040255922,25.0,13.0,12.0,0.52,2142.3764094042667,44419.93383805778,16.0,3.0,13.0,0.1875,1581.1316269434094,24403.54567047975,86.0,43.0,43.0,0.5,98.41719068541131,15398.056455772712,0.0,0.0,0.0,0.0,70573.0,70614.0,70688.0,70713.0,70727.0,70752.0,70761.0,70776.0,70937.0,71021.0,0.021563502944629328,-0.07880671956681194,0.04414818212586484,-0.13425589658627787,0.006618451212753954
90,90,71367.76371309454,2512.283386972373,13.49289091652065,71477.60271279886,-5620.03519904804,20.383723206912453,71515.68222083391,49369.46081698836,11.12264321350198,71540.45203459915,-12765.21968296695,8.322263444806152,71754.88198681979,15034.58814168339,32.144706271334805,0.9710132616342428,83.0,46.0,118.0,244.0,362.0,37.0,777.0,776.0,37.0,17.0,20.0,0.4594594594594595,63.476870943576714,2534.937138623417,60.0,49.0,11.0,0.8166666666666667,359.9186215167721,3016.918592960665,25.0,13.0,12.0,0.52,2203.415491347426,44660.43331629806,17.0,4.0,13.0,0.2352941176470588,1629.6690189650724,25843.230599010516,82.0,41.0,41.0,0.5,100.77267538330592,15630.573483385417,0.0,0.0,0.0,0.0,71351.0,71388.0,71434.0,71489.0,71503.0,71528.0,71537.0,71552.0,71714.0,71796.0,0.025266604584793503,-0.06404205823795152,0.04463114352241854,-0.12766478442510418,0.0067027227107015796
91,91,72146.15447713787,2795.5438513955496,14.893513624996872,72257.60271279886,-5569.668891348708,20.383723206912453,72295.03234278661,49367.32778020012,11.038798997089945,72319.45203459915,-12697.441860387677,7.779031166754525,72535.07767540163,14914.817826071569,31.904178595863144,0.9744834316377372,88.0,43.0,117.0,244.0,361.0,45.0,775.0,780.0,45.0,20.0,25.0,0.4444444444444444,44.47665566888059,2729.450619027451,57.0,46.0,11.0,0.8070175438596491,377.04742544781914,2617.475784680393,25.0,13.0,12.0,0.52,2207.7050315567235,45821.82704071768,15.0,3.0,12.0,0.2,1675.881536169648,25751.630929981915,80.0,39.0,41.0,0.4875,110.2604153143099,15541.337444547738,0.0,0.0,0.0,0.0,72126.0,72171.0,72214.0,72269.0,72282.0,72307.0,72316.0,72331.0,72496.0,72575.0,0.01590984010022866,-0.06769656020907847,0.04471996218604673,-0.1319857617460656,0.007392675968295854
92,92,72966.52684531135,2607.072591790708,14.051991458004329,73075.17805189872,-5193.189386857215,22.93168860777651,73113.64277190654,49272.36886349954,10.98086696717879,73138.027373699,-12581.985112913077,7.972283382238353,73355.24219886762,14202.106065245867,31.728458329439267,0.9697519341537072,67.0,29.0,132.0,246.0,378.0,38.0,821.0,818.0,38.0,17.0,21.0,0.4473684210526316,60.56017051745837,2588.1494393767885,75.0,62.0,13.0,0.8266666666666667,277.1624553343487,3167.092919586683,25.0,13.0,12.0,0.52,2218.680930588053,44189.784613309464,16.0,4.0,12.0,0.25,1613.1469134608294,25362.064116832727,82.0,41.0,41.0,0.5,99.62480105762316,14753.747372032232,0.0,0.0,0.0,0.0,72950.0,72988.0,73017.0,73088.0,73101.0,73126.0,73134.0,73149.0,73316.0,73395.0,0.02322918460657886,-0.053370373134433345,0.04502890731181444,-0.12821084264399843,0.007014790665548973
93,93,73866.34013005477,3003.6715554745574,20.354783622088103,73975.79418505085,-4053.140485574386,20.383723206912453,74014.37776713369,49081.59837743575,10.928434459772127,74038.87669549929,-11599.224120740717,7.129991582726496,74257.66560686941,14334.753200435478,34.096344723378664,0.9803408486195664,130.0,66.0,85.0,251.0,336.0,64.0,903.0,901.0,64.0,32.0,32.0,0.5,30.84781196071282,2927.5468573003845,25.0,14.0,11.0,0.56,303.2364714251459,2368.833669501446,26.0,13.0,13.0,0.5,2161.8988088316523,46949.61498628384,15.0,4.0,11.0,0.2666666666666666,1592.2077325722892,23916.823183791166,86.0,43.0,43.0,0.5,102.48343335112992,14945.96231993648,0.0,0.0,0.0,0.0,73834.0,73898.0,73964.0,73987.0,74001.0,74027.0,74036.0,74049.0,74217.0,74300.0,0.010270034985845548,-0.07481518898848953,0.044047033517668414,-0.13726846864914374,0.00714929876490769
94,94,74774.36350632421,3178.9026318040937,19.883473885891412,74881.60271279886,-4029.357999097557,20.383723206912453,74920.34397541863,48780.53205917822,11.024684833788214,74945.45203459915,-10742.897798878375,7.13634812002135,75162.3778154646,14388.636212239113,35.87183561421595,0.977227045864296,123.0,66.0,86.0,251.0,337.0,57.0,913.0,906.0,60.0,29.0,31.0,0.4833333333333333,31.034622931718317,3102.423358405175,28.0,17.0,11.0,0.6071428571428571,298.9021878390149,2120.7215858339055,26.0,13.0,13.0,0.5,2093.9941662688016,46895.64270372451,15.0,3.0,12.0,0.2,1553.090365893302,23260.43132544999,92.0,46.0,46.0,0.5,90.53456175933437,14957.467983208697,0.0,0.0,0.0,0.0,74747.0,74804.0,74870.0,74893.0,74907.0,74933.0,74942.0,74956.0,75118.0,75207.0,0.009762684336797544,-0.07418109483097782,0.04292684146471522,-0.1445690348143733,0.00629208775758225
95,95,75630.86730985736,2535.7539850670582,13.798227556121562,75736.60271279886,-4812.8561642282175,20.383723206912453,75775.00564388241,48697.15542567755,11.042593852339287,75800.45203459915,-11075.533321800602,7.721240050357644,76017.2169388638,14098.272223789036,33.15539395920842,0.9703751404916984,106.0,68.0,91.0,248.0,339.0,38.0,850.0,855.0,38.0,17.0,21.0,0.4473684210526316,55.56012006777814,2589.1807328164123,56.0,45.0,11.0,0.8035714285714286,325.848957461296,2625.519323993945,26.0,13.0,13.0,0.5,2114.113941775404,45823.49432532874,16.0,4.0,12.0,0.25,1520.2418355867508,23552.56236477626,85.0,42.0,43.0,0.4941176470588235,84.16186250542748,14480.663187844752,0.0,0.0,0.0,0.0,75614.0,75652.0,75720.0,75748.0,75762.0,75788.0,75797.0,75811.0,75976.0,76059.0,0.021910690230585936,-0.06770386363988683,0.04341349968586977,-0.13726127595087204,0.005969657924707616
96,96,76459.2419848232,2773.3919073066636,15.693119282720325,76565.60271279886,-4653.602798522559,20.383723206912453,76604.19935516354,49406.40072147786,11.186408149642224,76629.45203459915,-10675.59807964699,7.641107473197585,76845.38040901747,14148.527888449637,33.59470873862957,0.9737577014055456,109.0,66.0,93.0,247.0,340.0,43.0,833.0,829.0,45.0,21.0,24.0,0.4666666666666667,39.74569072909937,2757.621338363672,36.0,25.0,11.0,0.6944444444444444,324.95571785063413,2362.281416849052,26.0,13.0,13.0,0.5,2103.928061951784,47081.69797869933,15.0,3.0,12.0,0.2,1529.2264796893712,23295.735442562724,87.0,43.0,44.0,0.4942528735632184,98.10777573495422,14815.858546799158,0.0,0.0,0.0,0.0,76439.0,76482.0,76548.0,76577.0,76591.0,76617.0,76626.0,76641.0,76804.0,76888.0,0.014331076190273368,-0.06982884700726975,0.04258411928876187,-0.1432450405382757,0.006934133113243956
97,97,77263.89431615584,2141.73091063018,12.389437984426142,77371.60271279886,-5175.746082486545,20.383723206912453,77409.84893488389,50077.77238809567,11.223757307345013,77435.45203459915,-9422.439198021337,7.630292545615344,77650.7046344517,13516.126838450818,32.81078788669044,0.9739248063401984,76.0,40.0,123.0,247.0,370.0,36.0,798.0,806.0,36.0,17.0,19.0,0.4722222222222222,52.205048688894856,2043.9999577577405,64.0,53.0,11.0,0.828125,361.2507589834212,2536.753865506287,26.0,13.0,13.0,0.5,2107.4477056885603,47212.35140626197,15.0,3.0,12.0,0.2,1453.6600336469553,22096.885339967084,85.0,43.0,42.0,0.5058823529411764,83.83210126368655,13869.333321316528,0.0,0.0,0.0,0.0,77247.0,77283.0,77323.0,77383.0,77397.0,77423.0,77432.0,77446.0,77609.0,77693.0,0.0243751670341883,-0.06979684730010328,0.04208349543498337,-0.15427640371000922,0.006202376040538486
98,98,78051.8659221786,2768.896251446273,14.450506898347427,78161.60271279886,-4882.118014823345,20.383723206912453,78200.0040489968,49891.214572518875,11.089246397713692,78226.45203459915,-7777.029902912856,7.366860695782543,78440.82945949599,13651.817546218526,31.964166563945913,0.9775725995658048,116.0,75.0,88.0,244.0,332.0,41.0,793.0,790.0,41.0,19.0,22.0,0.4634146341463415,53.65333664781094,2702.966763634189,30.0,19.0,11.0,0.6333333333333333,345.9795491459572,2634.0878209335374,26.0,13.0,13.0,0.5,2075.635990272792,47978.38301365927,14.0,3.0,11.0,0.2142857142857142,1307.0100000235375,19898.762503178703,82.0,41.0,41.0,0.5,82.4672407530709,13935.572843108766,0.0,0.0,0.0,0.0,78033.0,78074.0,78149.0,78173.0,78187.0,78213.0,78223.0,78237.0,78401.0,78481.0,0.01937715673521039,-0.07086669107454506,0.04160323632241448,-0.16806030275568337,0.00604075175147018
99,99,78844.88599268802,3097.5305202833847,14.627969852616738,78953.60271279886,-4380.869527127611,20.383723206912453,78992.11405695985,49542.46987683437,11.031501688509104,79018.87669549929,-6872.511246277134,6.952046698617674,79232.73085138264,14022.273719184906,33.57710688357594,0.9791816705456624,116.0,76.0,86.0,247.0,333.0,40.0,787.0,792.0,40.0,19.0,21.0,0.475,63.103857299604805,3060.2192757416337,25.0,14.0,11.0,0.56,338.86399689253847,2340.835745147174,26.0,13.0,13.0,0.5,2043.9533178627632,48161.48529770049,13.0,4.0,9.0,0.3076923076923077,1183.4250335398297,17930.90024911101,85.0,43.0,42.0,0.5058823529411764,85.16730780585858,14391.95439634413,0.0,0.0,0.0,0.0,78826.0,78866.0,78942.0,78965.0,78979.0,79005.0,79016.0,79028.0,79191.0,79275.0,0.020372311712955005,-0.07735085347650611,0.04125658900220673,-0.1721968856989351,0.006073715968711616
100,100,79694.13945402774,2976.087606695831,17.035729828276082,79804.60271279886,-4641.775239024889,20.383723206912453,79842.62493725333,49582.07574070664,11.145479812150366,79868.45203459915,-8827.968133778266,7.533622260236593,80084.16627641878,14926.139622672184,33.394143675417965,0.975230664736214,121.0,73.0,87.0,247.0,334.0,48.0,855.0,850.0,50.0,24.0,26.0,0.48,41.11627219710793,2935.188565399676,53.0,42.0,11.0,0.7924528301886793,354.7012740018159,2085.254400444636,27.0,14.0,13.0,0.5185185185185185,2093.011472605463,46327.497455515026,15.0,3.0,12.0,0.2,1401.4295527789989,21247.508916649826,84.0,42.0,42.0,0.5,94.9452928275172,15519.07777898224,0.0,0.0,0.0,0.0,79671.0,79719.0,79792.0,79816.0,79829.0,79856.0,79865.0,79879.0,80043.0,80126.0,0.013815544980800088,-0.07641500411733185,0.04221306674514861,-0.1587488232333711,0.006361007951667507
101,101,80514.48895736576,2024.5343066461571,14.447740553940871,80624.60271279886,-5560.077708994209,20.383723206912453,80662.6742018304,48198.393148483156,11.23540442165163,80688.027373699,-11653.018176819396,8.489523069658045,80903.17666237721,15122.172224182394,31.862342633080395,0.9670116388548936,85.0,41.0,121.0,244.0,365.0,44.0,817.0,820.0,44.0,20.0,24.0,0.4545454545454545,27.37698057566062,2007.955325194766,63.0,52.0,11.0,0.8253968253968254,344.70564375373584,2749.1204025936727,25.0,13.0,12.0,0.52,2094.131320632877,43944.08030821647,16.0,4.0,12.0,0.25,1473.5264404062707,23580.881871610643,82.0,41.0,41.0,0.5,101.72854357938928,15710.956150550675,0.0,0.0,0.0,0.0,80494.0,80538.0,80579.0,80636.0,80650.0,80675.0,80684.0,80700.0,80863.0,80944.0,0.013522606401772129,-0.06199655145037378,0.04344815633545204,-0.1264501966827326,0.006727111824365525
102,102,81342.76137247623,1377.7703750720896,9.843591724524044,81450.17805189872,-6152.102109040236,22.93168860777651,81488.91140238925,49530.32524570932,11.24101436317361,81513.45203459915,-13449.907750730918,8.955579289329993,81730.1135580037,15206.201607841664,30.67707796986961,0.9651099275958028,64.0,35.0,133.0,243.0,376.0,29.0,829.0,826.0,29.0,14.0,15.0,0.4827586206896552,46.524944755723126,1245.880691709453,75.0,62.0,13.0,0.8266666666666667,305.4321591611692,4160.426661549128,25.0,13.0,12.0,0.52,2190.8869869699142,44459.01794644954,18.0,4.0,14.0,0.2222222222222222,1645.3454372362148,26661.612517225447,78.0,38.0,40.0,0.4871794871794871,103.94224926755716,15547.263067988888,0.0,0.0,0.0,0.0,81329.0,81358.0,81393.0,81463.0,81476.0,81501.0,81510.0,81526.0,81692.0,81769.0,0.03376828649932961,-0.04964679612718885,0.04423324450427882,-0.12233135481147078,0.0068355169784119745
103,103,82169.66242168582,1476.800663696948,10.160066952433615,82274.17805189872,-5784.5186222532875,22.93168860777651,82313.04004162153,50234.69773062064,11.1893486964729,82337.45203459915,-13494.146533193682,8.3184543158022,82554.35858614133,15357.544829840635,30.7835477879196,0.9614887069777852,55.0,24.0,139.0,244.0,383.0,31.0,827.0,825.0,31.0,15.0,16.0,0.4838709677419355,47.73741774212263,1426.064227814816,79.0,66.0,13.0,0.8354430379746836,276.4844667648442,3450.733516362511,25.0,13.0,12.0,0.52,2230.0784646409825,46003.98960463796,17.0,4.0,13.0,0.2352941176470588,1696.8947162654183,26769.455830441228,80.0,40.0,40.0,0.5,103.75751799632653,15762.611515162664,0.0,0.0,0.0,0.0,82155.0,82186.0,82210.0,82287.0,82300.0,82325.0,82334.0,82349.0,82516.0,82593.0,0.03232488914422559,-0.04779731639227451,0.04439318967538317,-0.12575042905390857,0.006756126656047223
104,104,83003.82194810128,1227.7867717508927,12.256776001623257,83113.17805189893,-6261.565354584965,22.931688607776223,83152.10841946193,49972.18091125333,11.303394943725062,83176.027373699,-14653.919805587528,8.74997165144829,83394.91471494183,14677.982592152986,29.536363496732065,0.9604163699195992,57.0,19.0,140.0,245.0,385.0,38.0,830.0,838.0,39.0,13.0,26.0,0.3333333333333333,36.789968367435485,1526.4870461571647,80.0,67.0,13.0,0.8375,295.66525471298525,3948.723724396677,25.0,13.0,12.0,0.52,2238.490970594051,45019.38076698283,17.0,4.0,13.0,0.2352941176470588,1707.466215456892,27567.019392736012,78.0,39.0,39.0,0.5,99.63912863997174,15084.587359707892,0.0,0.0,0.0,0.0,82991.0,83029.0,83048.0,83126.0,83139.0,83164.0,83172.0,83188.0,83357.0,83433.0,0.02996446061637472,-0.04721906391929416,0.044794742390159736,-0.11651941856579812,0.006788339474747704
105,105,83853.20479013637,2066.0760085731567,13.350737104611186,83960.60271279886,-5487.341102445525,20.383723206912453,83998.18295099605,49110.89368488679,11.134593494676244,84022.45203459915,-13283.79860527217,7.88941521318372,84241.4927594317,14671.80054198904,31.09590323567978,0.9658665251938032,65.0,26.0,134.0,248.0,382.0,39.0,854.0,847.0,39.0,18.0,21.0,0.4615384615384615,41.25705008053639,2057.7828763111365,73.0,62.0,11.0,0.8493150684931506,352.2802783290716,2274.4534355438295,25.0,13.0,12.0,0.52,2191.758712519438,45777.17751668043,16.0,3.0,13.0,0.1875,1699.0917235714323,26320.275116237583,81.0,40.0,41.0,0.4938271604938271,100.94568499505348,15082.507033740036,0.0,0.0,0.0,0.0,83835.0,83874.0,83900.0,83972.0,83985.0,84010.0,84019.0,84034.0,84202.0,84282.0,0.019968795876502497,-0.06419872061025549,0.04462876865126,-0.1279070674029253,0.006880251998121043
106,106,84742.49633099274,2764.836037683543,16.43344907662119,84852.027373699,-4641.933967933935,17.8357578060484,84889.41616392643,48840.184098769234,11.045198627619238,84913.87669549929,-12051.746449774027,7.372207959809296,85134.13320475399,14702.9537575405,32.787210494085286,0.9729514950771588,84.0,36.0,121.0,250.0,371.0,48.0,887.0,891.0,48.0,22.0,26.0,0.4583333333333333,41.01716405291104,2809.4792908976287,64.0,53.0,11.0,0.828125,348.3788810037791,1728.216275733036,26.0,13.0,13.0,0.5,2158.4501916366635,46947.02666958015,15.0,4.0,11.0,0.2666666666666666,1598.086442919418,24373.378732756453,84.0,42.0,42.0,0.5,105.57709763082808,15505.986370156965,0.0,0.0,0.0,0.0,84720.0,84768.0,84804.0,84862.0,84876.0,84902.0,84911.0,84925.0,85093.0,85175.0,0.014835297100393833,-0.07505037413508019,0.04419414528150921,-0.13260206307687317,0.007180672630265345
107,107,85619.66412526536,2562.6871967981156,15.880364472070909,85728.60271279886,-4582.678610515664,20.383723206912453,85767.19835628333,48323.92746076232,11.053454684325253,85792.45203459915,-11543.783266015687,7.526738502918811,86011.79369934608,14345.407357651096,33.23854663154483,0.9720838930047396,113.0,67.0,91.0,251.0,342.0,46.0,880.0,878.0,46.0,21.0,25.0,0.4565217391304347,38.09731941786776,2485.5528105968015,37.0,25.0,12.0,0.6756756756756757,309.90032282792475,2519.375171858222,26.0,13.0,13.0,0.5,2098.124001877847,45821.262301288574,16.0,4.0,12.0,0.25,1558.3510115172437,24007.968422220372,86.0,43.0,43.0,0.5,81.81679737990076,14679.23637252851,0.0,0.0,0.0,0.0,85599.0,85645.0,85712.0,85740.0,85754.0,85780.0,85789.0,85803.0,85970.0,86054.0,0.01486616059325051,-0.06762427592386919,0.04341791141834374,-0.13499482583885217,0.005703344306654626
108,108,86472.39919037401,2504.7926353027037,15.303156776252706,86581.60271279886,-5166.759111413244,20.383723206912453,86619.6754181136,49452.192116446095,11.192663301442236,86645.027373699,-11393.247327587733,7.91306011695417,86863.86540371124,14332.411784345915,32.77119448190931,0.9727170610904388,81.0,37.0,123.0,250.0,373.0,44.0,851.0,852.0,44.0,20.0,24.0,0.4545454545454545,37.60806074763653,2594.346596535058,63.0,52.0,11.0,0.8253968253968254,351.7961300087221,2415.6541910828105,25.0,13.0,12.0,0.52,2138.297534217995,45535.240728960416,16.0,4.0,12.0,0.25,1505.0768629964734,23587.752111084486,86.0,43.0,43.0,0.5,95.2118738069378,14702.51536477886,0.0,0.0,0.0,0.0,86452.0,86496.0,86533.0,86593.0,86607.0,86632.0,86641.0,86656.0,86822.0,86906.0,0.01501444080343665,-0.06808835527702717,0.043239691562770396,-0.1321025358022435,0.0066431159835171425
109,109,87275.14341764184,2920.4728762183854,16.97739544915029,87388.027373699,-5010.031161342928,17.8357578060484,87424.87894362904,50439.42889806744,11.162288343902077,87450.45203459915,-9666.229108833437,7.307574785572832,87666.97993255402,14344.408355622165,33.53069503232004,0.974804002390864,116.0,70.0,91.0,248.0,339.0,46.0,807.0,806.0,49.0,23.0,26.0,0.4693877551020408,47.58011551940056,2879.3668027192593,42.0,32.0,10.0,0.7619047619047619,403.7208560144652,1573.889380281582,26.0,13.0,13.0,0.5,2143.0529360963837,47959.09196616325,15.0,3.0,12.0,0.2,1487.2185539557026,22345.864792803397,86.0,43.0,43.0,0.5,91.61296632456944,14841.490702656674,0.0,0.0,0.0,0.0,87254.0,87300.0,87370.0,87398.0,87412.0,87438.0,87447.0,87461.0,87625.0,87709.0,0.016291921731870464,-0.08058250398311868,0.042487652674007455,-0.15385715952010853,0.006386667477202888
110,110,88033.8683344082,3032.382152580963,14.441041305854428,88144.60271279886,-4942.898490467659,20.383723206912453,88183.23328489257,50491.32747052279,11.003641649760633,88209.45203459915,-7840.043246758884,6.889360980125975,88424.18292392562,13626.018840562583,33.199984538303625,0.9787636450503148,95.0,55.0,109.0,247.0,356.0,40.0,755.0,758.0,40.0,19.0,21.0,0.475,68.07803328728988,2990.1963776628436,53.0,41.0,12.0,0.7735849056603774,327.87617607865707,2723.63640700519,26.0,13.0,13.0,0.5,2114.6574323736627,49211.22044942107,14.0,3.0,11.0,0.2142857142857142,1356.5627396007203,20128.46005915952,85.0,43.0,42.0,0.5058823529411764,96.35221059308824,14260.487149760298,0.0,0.0,0.0,0.0,88015.0,88055.0,88110.0,88156.0,88170.0,88196.0,88206.0,88219.0,88382.0,88466.0,0.02245034756893895,-0.0663327755386771,0.04188159706452985,-0.17303000722113754,0.007071193113740779
111,111,88808.11690201596,3042.5382591295875,14.742945985020128,88918.17805189872,-4996.024239103615,22.93168860777651,88957.34147391863,49625.868900589754,11.05918709643251,88983.87669549929,-7306.770947993192,7.283847810424309,89199.28003114415,13057.675002347723,32.66893651404638,0.9780092807159922,103.0,62.0,102.0,247.0,349.0,41.0,776.0,774.0,41.0,19.0,22.0,0.4634146341463415,55.35395741028359,2984.8974976453665,67.0,54.0,13.0,0.8059701492537313,283.19195343911184,3550.092916690621,27.0,13.0,14.0,0.4814814814814814,2049.5828535906767,48407.661718151896,14.0,4.0,10.0,0.2857142857142857,1214.996710676562,18547.551998982857,84.0,42.0,42.0,0.5,89.52121890270524,13474.942626146458,0.0,0.0,0.0,0.0,88789.0,88830.0,88892.0,88931.0,88944.0,88971.0,88981.0,88994.0,89158.0,89241.0,0.018193348019268394,-0.05668346266669075,0.04130069455703413,-0.1662836729554608,0.006855831446762892
112,112,89579.81793468958,3347.769689023821,16.19789059041202,89691.60271279886,-4387.739403053863,20.383723206912453,89729.53833955659,49246.50882117475,11.10609954159648,89755.87669549929,-6664.893865119212,6.897202698814324,89970.40204626639,13657.824615812176,34.27001029525546,0.9790418427512008,119.0,75.0,88.0,247.0,335.0,44.0,772.0,772.0,44.0,21.0,23.0,0.4772727272727273,53.938842864561806,3365.809471317645,27.0,16.0,11.0,0.5925925925925926,351.71035529635395,1777.4394157834247,27.0,14.0,13.0,0.5185185185185185,2038.6845813747757,46439.61312088073,13.0,3.0,10.0,0.2307692307692307,1208.5050498056946,17857.47143281915,87.0,43.0,44.0,0.4942528735632184,82.74764478228377,14160.834088944275,0.0,0.0,0.0,0.0,89559.0,89603.0,89678.0,89703.0,89716.0,89743.0,89753.0,89766.0,89928.0,90013.0,0.0161118738369036,-0.08015753056153788,0.041397545332151404,-0.18132397518442384,0.0060586255212622744
113,113,90399.84549023876,2159.407513160534,12.816466960163584,90508.60271279886,-5513.759759642414,20.383723206912453,90546.3599274142,48361.53587228471,11.155277591839958,90572.45203459916,-8702.628975788792,8.166487126006647,90788.95472340638,13743.508477115383,31.268633829955135,0.9684851605529752,76.0,38.0,126.0,245.0,371.0,38.0,819.0,817.0,38.0,18.0,20.0,0.4736842105263157,42.28463907972397,2127.158507523686,65.0,54.0,11.0,0.8307692307692308,361.1847500286592,2604.6533380551937,26.0,13.0,13.0,0.5,2033.6400598373352,46924.351156234035,16.0,3.0,13.0,0.1875,1333.7121593733823,20835.67785996383,80.0,40.0,40.0,0.5,95.80341523033402,14144.072296868131,0.0,0.0,0.0,0.0,90382.0,90420.0,90458.0,90520.0,90533.0,90559.0,90569.0,90584.0,90749.0,90829.0,0.01958159301661208,-0.06550607312859842,0.04205077492178624,-0.15325393775649235,0.006970812103027286
114,114,91231.67806312992,2502.319229559445,15.051387274099902,91341.60271279886,-5013.038383531645,20.383723206912453,91379.2967385486,48767.066842374,11.191670122767867,91405.027373699,-10580.30194069021,8.310475987653268,91621.21064384672,14817.053538989285,32.77261439294981,0.9704587775833056,113.0,68.0,92.0,247.0,339.0,45.0,831.0,833.0,45.0,21.0,24.0,0.4666666666666667,40.91685656511036,2462.5880796977526,53.0,42.0,11.0,0.7924528301886793,372.04799280275887,2224.349859932209,26.0,13.0,13.0,0.5,2075.3332801622328,46509.52917940076,16.0,4.0,12.0,0.25,1411.0712498369962,22453.190221374785,86.0,43.0,43.0,0.5,104.63378743515314,15292.11531477489,0.0,0.0,0.0,0.0,91211.0,91256.0,91324.0,91353.0,91366.0,91392.0,91401.0,91416.0,91580.0,91663.0,0.016351573405090334,-0.07421606705126683,0.04255604067536338,-0.13336776755020893,0.007061713528929485
115,115,92039.31126000796,1681.520389798532,12.316250254892724,92149.60271279886,-5758.135852533468,20.383723206912453,92187.09503068484,49269.57720557965,11.131904211289934,92212.45203459916,-12132.957164019175,8.37768840528076,92429.04151733124,15280.81835122234,31.618081497285356,0.9682134020190478,67.0,28.0,136.0,245.0,381.0,39.0,807.0,808.0,39.0,18.0,21.0,0.4615384615384615,37.47720682332723,1694.9715658955438,76.0,65.0,11.0,0.8552631578947368,379.96054883487847,2671.159855742958,26.0,13.0,13.0,0.5,2155.9475045065633,46052.46627917986,17.0,4.0,13.0,0.2352941176470588,1561.4692163920256,24884.49954148364,82.0,41.0,41.0,0.5,105.89575317511898,15811.60225035544,0.0,0.0,0.0,0.0,92021.0,92060.0,92088.0,92161.0,92174.0,92200.0,92209.0,92224.0,92388.0,92469.0,0.022287690979362722,-0.06598672878961395,0.0437581896737366,-0.12869650780789305,0.006929979189671356
116,116,92853.52243190978,1783.9345393727997,11.66410935854258,92962.17805189872,-5648.573398979269,22.93168860777651,93001.20852301538,49737.49351636362,11.252107683138462,93026.027373699,-12938.107387261329,8.328833261053962,93243.50754007215,15417.68902903556,31.557026289723805,0.966870033696378,67.0,32.0,134.0,246.0,380.0,35.0,812.0,814.0,35.0,17.0,18.0,0.4857142857142857,46.68260425902884,1639.9403805659588,77.0,64.0,13.0,0.8311688311688312,274.91406730486335,3473.3563709786513,26.0,13.0,13.0,0.5,2162.9035652590023,46179.98145512729,16.0,4.0,12.0,0.25,1593.6338866355718,25476.251461191663,82.0,41.0,41.0,0.5,107.6040549144316,15901.759702486926,0.0,0.0,0.0,0.0,92837.0,92872.0,92904.0,92975.0,92988.0,93014.0,93022.0,93038.0,93205.0,93284.0,0.0261683392684586,-0.04866964592414467,0.04348638044149546,-0.12317364811832064,0.006979259648562433
117,117,93681.83284698312,1741.5744549636777,14.8874199296187,93794.027373699,-5564.125474261964,17.8357578060484,93831.06314922958,49931.32004476256,11.098419192402734,93855.45203459916,-12862.723172870725,8.01308421215548,94074.32204709308,15001.686716589076,31.26989438955088,0.9669412287039882,82.0,38.0,122.0,247.0,369.0,44.0,828.0,830.0,45.0,20.0,25.0,0.4444444444444444,30.626686881614507,1844.1910580155063,62.0,51.0,11.0,0.8225806451612904,379.8237203301961,2242.9815297430837,25.0,13.0,12.0,0.52,2239.275107651906,46613.34232651216,16.0,3.0,13.0,0.1875,1687.422206555361,26225.38173583901,80.0,39.0,41.0,0.4875,104.43120956949424,15513.418660612477,0.0,0.0,0.0,0.0,93663.0,93707.0,93745.0,93804.0,93818.0,93843.0,93852.0,93867.0,94036.0,94114.0,0.017585631664684274,-0.06826296820356602,0.0448471040950737,-0.1311870110144615,0.006961297855527988
118,118,94548.52820710956,2015.050822801963,14.201835665196198,94657.60271279886,-5352.543042017986,20.383723206912453,94696.140048439,50617.63903386234,11.10685399640372,94721.45203459916,-12029.292718887698,7.817596965171021,94940.87411992312,14348.10336435849,31.68001953007002,0.9669863399015436,86.0,44.0,117.0,249.0,366.0,42.0,871.0,865.0,42.0,20.0,22.0,0.4761904761904761,35.676885844027076,1947.0283134861052,57.0,45.0,12.0,0.7894736842105263,324.94559927328663,2730.093180338256,26.0,13.0,13.0,0.5,2206.7366419028267,47868.16240661858,16.0,4.0,12.0,0.25,1602.848077422702,25103.193824928338,82.0,41.0,41.0,0.5,95.52305240069616,14720.283777886514,0.0,0.0,0.0,0.0,94529.0,94571.0,94615.0,94669.0,94683.0,94709.0,94718.0,94732.0,94901.0,94981.0,0.017705203978139742,-0.06070863825333713,0.04359619855889678,-0.13324541308284923,0.006657538628971749
119,119,95432.30690075149,2655.519420424189,16.713566627543088,95543.027373699,-4934.926129640972,17.8357578060484,95580.2038090854,50464.20525936478,11.165889039314656,95605.45203459916,-10960.0744597547,7.531995647303803,95824.80969696926,14632.1092599467,32.79955263328771,0.972442232873053,113.0,67.0,91.0,250.0,341.0,46.0,886.0,884.0,47.0,21.0,26.0,0.4468085106382978,42.15060251294754,2785.3772623227987,31.0,21.0,10.0,0.6774193548387096,384.1387353335642,1677.465478660191,26.0,13.0,13.0,0.5,2166.483539948211,48450.18367115772,15.0,3.0,12.0,0.2,1569.3671921532944,23914.880614275826,84.0,42.0,42.0,0.5,97.40381030568042,15141.733580183123,0.0,0.0,0.0,0.0,95412.0,95458.0,95525.0,95553.0,95567.0,95593.0,95602.0,95616.0,95784.0,95866.0,0.015872827812426417,-0.07784082785480545,0.04293109400640309,-0.14318946444351244,0.006656853675382905
120,120,96283.92635401268,2063.699415056545,14.58154633839082,96394.60271279886,-5418.087187092049,20.383723206912453,96433.0401599516,51225.08047521822,11.210961448555636,96458.45203459916,-10100.01810598315,7.683739679234935,96676.7935151566,14006.690778316592,32.221310482790926,0.9721247029370356,89.0,45.0,116.0,249.0,365.0,44.0,849.0,853.0,44.0,20.0,24.0,0.4545454545454545,34.96326653429998,1971.3439744249547,55.0,44.0,11.0,0.8,354.47573029665176,2853.821842248447,26.0,13.0,13.0,0.5,2167.9540983097245,48734.694026074794,15.0,3.0,12.0,0.2,1517.5960487406624,23190.605879247614,84.0,42.0,42.0,0.5,89.16135476383975,14270.545905803949,0.0,0.0,0.0,0.0,96264.0,96308.0,96353.0,96406.0,96420.0,96446.0,96455.0,96469.0,96636.0,96718.0,0.016942034425755745,-0.06542451571121782,0.042322121862913266,-0.15025676516774297,0.006365625983681187
121,121,97089.18768186089,2424.08699125261,13.650910579073932,97198.60271279886,-5070.237111291364,20.383723206912453,97237.22844958644,51030.69279545952,11.145378178062527,97262.87669549928,-8671.779563762564,7.519046190460465,97480.51891006314,13568.142730684478,32.16944598886746,0.974377819109881,85.0,45.0,119.0,247.0,366.0,40.0,801.0,804.0,40.0,19.0,21.0,0.475,43.32546129186764,2356.916441841058,57.0,46.0,11.0,0.8070175438596491,335.3163985058537,2751.5811964978343,26.0,13.0,13.0,0.5,2143.2869404109647,49375.31344254349,14.0,3.0,11.0,0.2142857142857142,1373.1361417550168,20861.411658043624,83.0,42.0,41.0,0.5060240963855421,84.24097178205939,13917.454501737622,0.0,0.0,0.0,0.0,97070.0,97110.0,97155.0,97210.0,97224.0,97250.0,97260.0,97274.0,97441.0,97521.0,0.01787289872360557,-0.06613426377222234,0.041999957731353094,-0.15834536978926989,0.006208732724453706
122,122,97890.98066409428,2885.115853534267,16.018922298118206,98002.60271279886,-4688.319152181324,20.383723206912453,98040.7413175063,50618.55172508764,11.08350601283395,98066.87669549928,-7287.294814385199,7.044772152132933,98284.48354899645,13602.120927487407,32.62060955774308,0.9769043566361738,117.0,76.0,87.0,249.0,336.0,41.0,806.0,803.0,41.0,18.0,23.0,0.4390243902439024,60.08958660924679,3053.640688896906,56.0,45.0,11.0,0.8035714285714286,358.5900671473364,2203.0395969091664,26.0,13.0,13.0,0.5,2103.0272357293907,48072.56211796676,13.0,3.0,10.0,0.2307692307692307,1268.8077450077712,19013.429675892585,83.0,41.0,42.0,0.4939759036144578,86.48878229466487,14057.042982650077,0.0,0.0,0.0,0.0,97873.0,97914.0,97990.0,98014.0,98028.0,98054.0,98064.0,98077.0,98244.0,98326.0,0.020827443215369338,-0.07648584823422185,0.041546570655578145,-0.17411231154023452,0.006358477678277864
123,123,98689.8304734179,2366.4120644156337,12.503066889861335,98800.60271279886,-5644.099918740748,20.383723206912453,98838.2387410062,49414.950709461904,11.138639362875043,98864.45203459916,-7789.466379633168,7.871987984963501,99081.92791135696,12917.376654759542,31.652002536003145,0.9711126608761472,76.0,39.0,126.0,248.0,374.0,37.0,798.0,798.0,37.0,17.0,20.0,0.4594594594594595,56.59442063351326,2233.570724827169,69.0,58.0,11.0,0.8405797101449275,379.3384781463573,2631.076413443872,26.0,13.0,13.0,0.5,2070.1247637496417,47997.43645832366,15.0,3.0,12.0,0.2,1300.5998715808196,20142.171109307084,83.0,42.0,41.0,0.5060240963855421,79.42644605852341,13275.608333136652,0.0,0.0,0.0,0.0,98673.0,98710.0,98749.0,98812.0,98825.0,98851.0,98861.0,98875.0,99041.0,99123.0,0.02391570829296325,-0.06720973824130869,0.04189268094024947,-0.16696905900787382,0.006148806230656586
124,124,99479.8725144854,2360.401628324765,12.304831150849385,99589.60271279886,-5691.040100560978,20.383723206912453,99627.55299624904,48857.13513468444,11.213699330114244,99653.45203459916,-8679.35457009377,8.33824263094667,99871.1014755956,13893.864802558646,32.27621155738967,0.9703068649242076,74.0,38.0,128.0,247.0,375.0,36.0,790.0,789.0,36.0,17.0,19.0,0.4722222222222222,55.4736914386676,2246.449613570564,66.0,55.0,11.0,0.8333333333333334,368.3147687396652,2904.6389814537433,27.0,14.0,13.0,0.5185185185185185,2068.3425148954175,45244.76449085166,16.0,3.0,13.0,0.1875,1346.2240966867585,21017.825340404157,83.0,41.0,42.0,0.4939759036144578,88.5837210179725,14387.519917399122,0.0,0.0,0.0,0.0,99463.0,99499.0,99537.0,99601.0,99614.0,99641.0,99650.0,99665.0,99831.0,99912.0,0.02350180188531671,-0.06471835766951627,0.04233450261038882,-0.15510647546597628,0.00637574370247645
125,125,100247.6619175647,2670.182399165279,12.385394252035288,100357.60271279886,-5443.419359897173,20.383723206912453,100395.77665577111,48340.21144032915,11.175584196255604,100421.45203459916,-10453.856944965426,8.495997101653504,100637.95861877174,14523.365150424985,32.48230172218,0.9713593757774374,76.0,41.0,126.0,246.0,372.0,35.0,767.0,768.0,35.0,17.0,18.0,0.4857142857142857,63.61779349443365,2480.0985918067117,64.0,53.0,11.0,0.828125,334.5936146105887,2846.8176132065214,25.0,13.0,12.0,0.52,2079.9200295107858,44750.24269588917,17.0,4.0,13.0,0.2352941176470588,1433.9966098725247,22795.706433736585,84.0,42.0,42.0,0.5,91.52648874698724,14934.749964258088,0.0,0.0,0.0,0.0,100231.0,100266.0,100307.0,100369.0,100383.0,100408.0,100418.0,100433.0,100597.0,100679.0,0.023825261343315383,-0.061467543190886764,0.04302670525300093,-0.13717392704164916,0.0063020166331292015
126,126,100990.3310353388,2885.562661983498,14.809519888782482,101102.17805189872,-5363.532917089855,22.93168860777651,101140.95167249996,48604.93326434999,11.11089354447692,101166.45203459916,-11277.144370195212,8.013258080111806,101381.78897996446,14929.570832457992,33.296785558665945,0.9707547043507724,83.0,41.0,125.0,246.0,371.0,42.0,743.0,745.0,42.0,20.0,22.0,0.4761904761904761,56.03832445756106,2963.524771622826,67.0,54.0,13.0,0.8059701492537313,289.80020557456544,3731.2152154693417,26.0,13.0,13.0,0.5,2098.123700018828,45216.78175244779,16.0,4.0,12.0,0.25,1504.1002538901298,23667.18592826916,86.0,43.0,43.0,0.5,82.69595881439588,15375.648219223052,0.0,0.0,0.0,0.0,100970.0,101012.0,101053.0,101115.0,101128.0,101154.0,101163.0,101178.0,101340.0,101424.0,0.019420241742052848,-0.054031588890071584,0.04316688778498392,-0.13337598637695663,0.005539071400137555
127,127,101714.98347030793,2386.516918892024,11.601178297920663,101827.17805189872,-6569.249209923865,22.93168860777651,101866.13809680444,48801.17783610839,11.20199441597191,101891.027373699,-12427.19866981351,8.868128377040636,102107.0369191496,14517.25541426503,30.41343252070325,0.9661388537518248,69.0,36.0,135.0,243.0,378.0,33.0,726.0,726.0,33.0,16.0,17.0,0.4848484848484848,68.0730285175704,2291.4542948252697,77.0,64.0,13.0,0.8311688311688312,297.0857949605417,4687.665292478294,25.0,13.0,12.0,0.52,2149.338335195884,44868.8432358432,17.0,4.0,13.0,0.2352941176470588,1519.8279098123396,24871.059507816353,78.0,39.0,39.0,0.5,94.84485539177082,14907.675764276064,0.0,0.0,0.0,0.0,101699.0,101732.0,101768.0,101840.0,101853.0,101878.0,101887.0,101903.0,102068.0,102146.0,0.02852400834818901,-0.045223706007643576,0.044042755328859526,-0.12229851233521377,0.0065332497559128025
128,128,102435.01721694232,2002.0251802705257,10.51571094188268,102548.60271279886,-6963.601151506621,20.383723206912453,102586.09278768252,48717.32655735405,11.13659770753105,102610.45203459916,-12399.327463952062,8.612448044679804,102827.26056865738,13118.258513060931,29.86937909107416,0.9590725376880614,56.0,25.0,146.0,244.0,390.0,31.0,721.0,719.0,31.0,15.0,16.0,0.4838709677419355,60.57297562466244,1844.0061811121705,84.0,73.0,11.0,0.8690476190476191,354.9978878355924,3315.935569306476,25.0,13.0,12.0,0.52,2194.595762172742,45177.93559876277,16.0,3.0,13.0,0.1875,1604.9209429278442,25522.445323501233,80.0,40.0,40.0,0.5,103.25040968494407,13508.192754718886,0.0,0.0,0.0,0.0,102420.0,102451.0,102476.0,102560.0,102573.0,102598.0,102607.0,102622.0,102789.0,102866.0,0.030255851036038145,-0.05097906673744321,0.045047540931645404,-0.12943612849920688,0.007870740585127581
129,129,103210.47534866644,3394.9431293363486,16.210547580319968,103321.17805189872,-4456.0477876941695,22.93168860777651,103360.70316955764,50493.12121554376,10.970007842619026,103385.87669549928,-9691.413918156664,6.945171557348289,103603.45120151744,14081.378791320512,33.559923607323114,0.9778681188774224,119.0,74.0,88.0,249.0,337.0,45.0,774.0,775.0,45.0,21.0,24.0,0.4666666666666667,52.26270007459357,3406.848294897911,60.0,47.0,13.0,0.7833333333333333,251.32252474174928,3236.7622254001885,26.0,13.0,13.0,0.5,2170.710455210345,47066.45919254066,13.0,3.0,10.0,0.2307692307692307,1475.293383556556,21970.360145206894,84.0,41.0,43.0,0.4880952380952381,87.34928951232298,14625.107666809916,0.0,0.0,0.0,0.0,103189.0,103234.0,103308.0,103334.0,103348.0,103374.0,103383.0,103396.0,103563.0,103645.0,0.015394278514706667,-0.056400320803516084,0.04299022130052272,-0.15222684698180358,0.006203177317136258
130,130,104005.08914628428,2519.788145727181,12.256805116635917,104115.60271279886,-5879.699465579505,20.383723206912453,104153.37193955173,48893.84268556445,11.282185638407729,104178.45203459916,-10249.122703873129,8.303465746530991,104397.00615295132,13157.148789076418,31.050609279965546,0.9683655042593864,73.0,37.0,129.0,247.0,376.0,36.0,795.0,793.0,36.0,17.0,19.0,0.4722222222222222,61.67430985589083,2484.6382093783373,70.0,59.0,11.0,0.8428571428571429,378.1033279606723,2767.778842633302,26.0,13.0,13.0,0.5,2081.944619560412,46899.038671845316,17.0,3.0,14.0,0.1764705882352941,1474.8623041322223,22902.060028827535,82.0,41.0,41.0,0.5,93.09972109036674,13620.270730922886,0.0,0.0,0.0,0.0,103988.0,104024.0,104061.0,104127.0,104140.0,104166.0,104175.0,104190.0,104357.0,104437.0,0.024475990158328312,-0.06430657386047303,0.0425809162300735,-0.14390132177604567,0.007075979954537095
131,131,104787.66761105148,2895.934583763413,14.971440105171752,104898.60271279886,-4803.133957702173,20.383723206912453,104936.4003530074,50220.31831217672,11.009755379159936,104962.87669549928,-7382.820634271532,7.098880678385334,105178.50281356263,13380.135473439806,32.45012043753897,0.9759711296763788,117.0,75.0,88.0,247.0,335.0,42.0,783.0,783.0,42.0,20.0,22.0,0.4761904761904761,47.2356970941731,2866.873413574437,28.0,17.0,11.0,0.6071428571428571,368.1238093852001,2223.326590162922,27.0,13.0,14.0,0.4814814814814814,2089.8343883491766,49362.00813275181,14.0,4.0,10.0,0.2857142857142857,1240.8884077242649,18773.986609799893,82.0,41.0,41.0,0.5,85.512820852475,13860.16696485262,0.0,0.0,0.0,0.0,104768.0,104810.0,104885.0,104910.0,104923.0,104950.0,104960.0,104973.0,105138.0,105220.0,0.016311037327641543,-0.07664241985066582,0.04161332421985989,-0.16807782136328497,0.0063910280297402025
132,132,105554.53606609767,3266.111998218826,15.279482247832764,105664.17805189872,-4372.955482693007,22.93168860777651,105703.77489827394,49484.24584017249,11.01666300833224,105729.87669549928,-7072.657849140452,6.873488322547499,105945.58170266628,13324.10570281434,34.04376264297798,0.977599700419678,119.0,77.0,86.0,248.0,334.0,42.0,766.0,767.0,42.0,20.0,22.0,0.4761904761904761,62.25376158599203,3304.9450617999673,67.0,54.0,13.0,0.8059701492537313,254.590673793498,3289.2846522928858,26.0,13.0,13.0,0.5,2058.941009034821,46970.2466061061,13.0,3.0,10.0,0.2307692307692307,1245.2337873600743,18506.83554999911,86.0,44.0,42.0,0.5116279069767442,88.42324584726914,13893.966115579364,0.0,0.0,0.0,0.0,105535.0,105577.0,105654.0,105677.0,105691.0,105717.0,105727.0,105740.0,105904.0,105988.0,0.019060510362149893,-0.05821936097934225,0.041608010268256404,-0.1760630605807418,0.006636336262972773
133,133,106323.85989087509,2609.3537502502245,12.750371438753175,106435.027373699,-5245.627873553992,17.8357578060484,106471.87669521409,48381.21716812814,11.044597089089969,106498.45203459916,-7409.942760975837,7.519980081510983,106713.58526649614,12675.03431276718,32.67303233243193,0.9732841873089176,77.0,40.0,125.0,247.0,372.0,37.0,770.0,769.0,37.0,18.0,19.0,0.4864864864864865,57.01044100467133,2523.2788200775803,63.0,53.0,10.0,0.8412698412698413,381.7252939438925,2024.558843195023,26.0,13.0,13.0,0.5,2041.9027226323176,46502.3845617024,14.0,3.0,11.0,0.2142857142857142,1247.445033153738,19204.726847893664,84.0,43.0,41.0,0.5119047619047619,83.83373676214347,13140.717696818328,0.0,0.0,0.0,0.0,106306.0,106343.0,106383.0,106445.0,106459.0,106485.0,106495.0,106508.0,106672.0,106755.0,0.02184849064608595,-0.07277018178669771,0.04220445127572053,-0.16834745873117357,0.006614083614566651
134,134,107070.62090368576,3297.829059888119,14.386261257312407,107180.1780518988,-4584.099109897375,22.931688607776508,107219.1574814043,48632.06892184026,11.021103466354212,107245.45203459916,-7688.08132441017,7.224598743391546,107460.56681508718,13918.972881747924,33.56185595264884,0.9775357007550552,117.0,77.0,87.0,247.0,334.0,40.0,743.0,747.0,40.0,19.0,21.0,0.475,68.24751349031982,3147.074653848715,64.0,51.0,13.0,0.796875,276.4438058072585,3349.146753525896,26.0,13.0,13.0,0.5,2022.752955171663,46882.91367319817,14.0,3.0,11.0,0.2142857142857142,1293.5275434419796,19565.492017009183,85.0,43.0,42.0,0.5058823529411764,88.05481978017112,14391.153393119972,0.0,0.0,0.0,0.0,107052.0,107092.0,107169.0,107193.0,107206.0,107232.0,107242.0,107256.0,107420.0,107503.0,0.020694678908747065,-0.06030493651640253,0.041592985863352014,-0.16825102244105347,0.006326244079089931
135,135,107798.36307794088,3343.436075664082,14.080032051370887,107909.17805189872,-5113.389573271513,22.93168860777651,107948.15568591857,47735.14950960215,11.102202571578374,107974.45203459916,-9099.128737789122,7.992843980071034,108188.65114480618,14131.805232584278,33.3205379523603,0.9738171550887728,86.0,46.0,121.0,245.0,366.0,40.0,733.0,729.0,40.0,19.0,21.0,0.475,70.29039201892449,3311.67363554058,65.0,52.0,13.0,0.8,280.9890482864042,3540.5274586757137,26.0,13.0,13.0,0.5,2011.8129747131563,45453.19359371208,16.0,4.0,12.0,0.25,1329.2410343682277,20773.624369215468,85.0,43.0,42.0,0.5058823529411764,96.21539933005212,14683.89037032,0.0,0.0,0.0,0.0,107779.0,107819.0,107865.0,107922.0,107935.0,107961.0,107971.0,107986.0,108147.0,108231.0,0.021023399409532073,-0.05495162147534738,0.042145316300066696,-0.14608442991336362,0.006808429478507414
136,136,108536.38039207444,3305.382966671781,14.600136455657465,108648.60271279886,-5030.617303970725,20.383723206912453,108686.40991962196,48108.28391190615,11.140084964811908,108711.45203459916,-10605.839148548655,7.855332891099581,108926.61231377644,14631.74904070779,33.57461290844288,0.9729650122748656,117.0,76.0,89.0,246.0,335.0,41.0,737.0,738.0,41.0,19.0,22.0,0.4634146341463415,71.48901931307078,3334.6319282799404,28.0,17.0,11.0,0.6071428571428571,365.877165630566,2539.556507763592,26.0,13.0,13.0,0.5,2071.4037783460835,46212.34704108988,16.0,3.0,13.0,0.1875,1504.7329295293664,23034.396489702223,86.0,43.0,43.0,0.5,94.60876354241032,15163.047248117298,0.0,0.0,0.0,0.0,108517.0,108558.0,108634.0,108660.0,108673.0,108699.0,108708.0,108723.0,108885.0,108969.0,0.02162805945147521,-0.07273007337325678,0.043057112204192324,-0.14187778151767275,0.006465991405346969
137,137,109277.39978759424,2895.3345159588116,14.375842408805612,109389.60271279886,-5189.761531136758,20.383723206912453,109427.95936225238,48501.066142003445,11.16879137359332,109452.45203459916,-11896.160986153818,7.7537315552943396,109668.26353892835,14649.244122161685,32.926315857729946,0.9745900921896694,115.0,75.0,91.0,244.0,335.0,40.0,738.0,742.0,40.0,19.0,21.0,0.475,57.98897296847178,2931.9370362230634,71.0,60.0,11.0,0.8450704225352113,345.5448397990519,2810.3221059947846,25.0,13.0,12.0,0.52,2132.896084568535,45089.03543955642,16.0,3.0,13.0,0.1875,1607.6176820140158,24660.532612637413,83.0,42.0,41.0,0.5060240963855421,112.40086861665652,15359.341437627132,0.0,0.0,0.0,0.0,109258.0,109298.0,109373.0,109401.0,109415.0,109440.0,109449.0,109464.0,109628.0,109708.0,0.02002841904755461,-0.06658202650081385,0.04397627215706461,-0.13513751906057378,0.007672810124490596
138,138,110016.74019054626,3066.406893023253,15.91882239056123,110130.60271279886,-4841.534138440285,20.383723206912453,110168.66487332588,48965.17270581264,10.917918054844122,110193.45203459916,-11823.737820427812,7.476751837168065,110409.1113797642,14863.64807084272,33.08324163052145,0.974229795924013,120.0,76.0,87.0,247.0,334.0,44.0,739.0,740.0,45.0,21.0,24.0,0.4666666666666667,55.61963828113824,2968.176810433698,29.0,18.0,11.0,0.6206896551724138,337.8085835043134,2680.157047674417,25.0,13.0,12.0,0.52,2191.1030508182566,44856.514344707306,16.0,4.0,12.0,0.25,1616.9018583720972,24709.149183728212,83.0,41.0,42.0,0.4939759036144578,99.19650153151802,15532.423098444691,0.0,0.0,0.0,0.0,109997.0,110041.0,110117.0,110142.0,110156.0,110181.0,110190.0,110204.0,110369.0,110451.0,0.018138375049862137,-0.06977304586623022,0.044748194068110606,-0.13675048304763524,0.006673765488709792
139,139,110792.20050368198,2523.206349607224,13.809022151117391,110906.027373699,-6232.55237021118,17.8357578060484,110942.01936865882,47738.78559181251,10.98360382686729,110966.027373699,-12998.129193202409,8.076997562388142,111184.54011392996,14148.807568537251,31.08857397426652,0.9673636893430968,64.0,26.0,138.0,247.0,385.0,38.0,775.0,773.0,38.0,17.0,21.0,0.4473684210526316,61.51452346532128,2533.2788371667334,77.0,67.0,10.0,0.8701298701298701,417.6425219318356,2427.6334866508696,25.0,13.0,12.0,0.52,2204.181576213419,44184.73057277234,16.0,4.0,12.0,0.25,1626.200944022513,25624.346713084728,80.0,40.0,40.0,0.5,101.4955018159495,14609.828315544011,0.0,0.0,0.0,0.0,110775.0,110813.0,110839.0,110916.0,110929.0,110954.0,110962.0,110977.0,111146.0,111224.0,0.024379505653549485,-0.06700986965275745,0.046171714443264955,-0.12511038472159228,0.0071734314940889695
140,140,111636.9691369472,2171.2078718738308,17.803596430173453,111746.60271280217,-5203.398640216702,20.383723206912443,111784.0904654146,47708.587405023296,10.877341787592696,111808.45203459916,-12350.924907326962,7.661443954825381,112028.9583850894,13895.641262902978,31.521224151130554,0.9683389728970826,85.0,33.0,120.0,250.0,370.0,52.0,841.0,843.0,53.0,24.0,29.0,0.4528301886792453,36.83868617599848,2348.208011158358,60.0,49.0,11.0,0.8166666666666667,342.0712343927204,2560.088338559328,25.0,13.0,12.0,0.52,2165.6041836833874,44522.82393210037,16.0,4.0,12.0,0.25,1631.457836742726,25262.555257054544,80.0,40.0,40.0,0.5,88.14622665977033,14399.599647593064,0.0,0.0,0.0,0.0,111614.0,111666.0,111699.0,111758.0,111771.0,111796.0,111805.0,111819.0,111989.0,112069.0,0.016966908905044344,-0.06573996305969639,0.04539233503810193,-0.1320919565930559,0.006343444321284634
141,141,112487.43404823673,2106.6227524828,14.183778827503648,112594.60271279886,-5620.148065487962,20.383723206912453,112632.07127298624,46621.58067742953,11.040538262450106,112656.45203459916,-11877.77424147474,7.798465299100812,112876.33709188733,13478.756673653672,32.50773805749522,0.9658911640151726,74.0,32.0,126.0,249.0,375.0,42.0,854.0,847.0,42.0,19.0,23.0,0.4523809523809524,33.78895069929607,2087.8516698693475,67.0,56.0,11.0,0.835820895522388,345.2141248217556,2784.58255893519,25.0,13.0,12.0,0.52,2085.4955797120574,43502.33197654477,15.0,3.0,12.0,0.2,1579.5690591318266,24266.105965976323,84.0,42.0,42.0,0.5,70.3074996785273,13799.451317415398,0.0,0.0,0.0,0.0,112468.0,112510.0,112542.0,112606.0,112619.0,112644.0,112653.0,112668.0,112835.0,112917.0,0.016039393222860365,-0.06142438256060124,0.04473240824118366,-0.1329852737574601,0.005216171000100791
