Unnamed: 0,cycle,p_center,p_height,p_width,q_center,q_height,q_width,r_center,r_height,r_width,s_center,s_height,s_width,t_center,t_height,t_width,r_squared,pr_interval,pr_segment,qrs_duration,st_segment,qt_interval,p_duration,pp_interval,rr_interval,fwhm_p,rise_time_p,decay_time_p,rise_decay_symmetry_p,sharpness_deriv_p,sharpness_diff_p,fwhm_q,rise_time_q,decay_time_q,rise_decay_symmetry_q,sharpness_deriv_q,sharpness_diff_q,fwhm_r,rise_time_r,decay_time_r,rise_decay_symmetry_r,sharpness_deriv_r,sharpness_diff_r,fwhm_s,rise_time_s,decay_time_s,rise_decay_symmetry_s,sharpness_deriv_s,sharpness_diff_s,fwhm_t,rise_time_t,decay_time_t,rise_decay_symmetry_t,sharpness_deriv_t,sharpness_diff_t,Average_Heart_Rate,SDNN,RMSSD,NN50,p_on,p_off,q_on,q_off,r_on,r_off,s_on,s_off,t_on,t_off,sharpness_deriv_p_norm,sharpness_deriv_q_norm,sharpness_deriv_r_norm,sharpness_deriv_s_norm,sharpness_deriv_t_norm
0,0,0.0,0.0,0.0,0.0,0.0,0.0,0.0,0.0,0.0,0.0,0.0,0.0,0.0,0.0,0.0,0.0,0.0,0.0,0.0,0.0,0.0,0.0,0.0,0.0,0.0,0.0,0.0,0.0,0.0,0.0,0.0,0.0,0.0,0.0,0.0,0.0,0.0,0.0,0.0,0.0,0.0,0.0,0.0,0.0,0.0,0.0,0.0,0.0,0.0,0.0,0.0,0.0,0.0,0.0,50.80919410298228,140.45012706643223,173.10262886716754,722.0,,,,,,,,,,,,,,,
1,1,2346.555923871571,1196.2778448541903,8.953722619186136,2460.9726263010075,-5159.263060121952,17.835757806014744,2489.8820226508738,53983.042937601866,11.026693533187126,2517.408903705694,-10888.90925840406,7.690501584985106,2751.3100341194818,13052.700507688556,32.89701866545848,0.9840345954837232,111.0,86.0,83.0,263.0,346.0,25.0,,,25.0,13.0,12.0,0.52,53.38921937029647,1162.1405689577375,21.0,17.0,4.0,0.8095238095238095,953.7917261889812,7614.650132408096,26.0,13.0,13.0,0.5,2257.653913893491,51737.87965750162,16.0,4.0,12.0,0.25,1467.4005842099343,22926.76794990986,82.0,41.0,41.0,0.5,95.90712744987069,13811.617270415092,0.0,0.0,0.0,0.0,2334.0,2359.0,2445.0,2465.0,2477.0,2503.0,2513.0,2528.0,2713.0,2791.0,0.04462944758189004,-0.1848697604821174,0.04182153859876104,-0.1347610260483523,0.007347684672101194
2,2,3479.2799317077247,1577.6203829955662,12.545894856263288,3593.5479654008636,-5176.864136714067,13.787437311707762,3622.196061433128,54147.2717113401,11.100684927346702,3649.2009942500817,-10710.081098824248,7.389725614468153,3884.357591079766,13104.794324617764,34.10195737503414,0.985787946102581,114.0,82.0,82.0,265.0,347.0,32.0,1132.0,1132.0,32.0,15.0,17.0,0.46875,52.961428224626616,1631.6010621525218,21.0,18.0,3.0,0.8571428571428571,1027.9027982151028,9740.85482266254,26.0,13.0,13.0,0.5,2279.757350537563,53590.14906033999,16.0,4.0,12.0,0.25,1509.0126066399623,22849.290680033304,83.0,41.0,42.0,0.4939759036144578,99.96293513515332,14031.913280705408,0.0,0.0,0.0,0.0,3464.0,3496.0,3578.0,3597.0,3609.0,3635.0,3645.0,3660.0,3845.0,3925.0,0.0335704512920048,-0.1985570358946194,0.042102903405567375,-0.14089646873034617,0.00762796673179142
3,3,4702.338395351631,1473.4101566368363,11.56167167095002,4814.972626301007,-5551.786078917079,13.313891482728485,4843.779166947239,53318.29306608492,11.1238231160381,4870.936150889758,-11182.84600728124,7.78397050599404,5107.081495777811,13156.624486468689,34.4302528507614,0.9856611172753172,112.0,81.0,82.0,266.0,348.0,31.0,1223.0,1222.0,31.0,14.0,17.0,0.4516129032258064,50.07859540454334,1516.3572228957876,20.0,16.0,4.0,0.8,977.3268565512222,8141.165848889141,26.0,13.0,13.0,0.5,2272.2299059594084,51402.35013023429,16.0,4.0,12.0,0.25,1463.6808439531385,22799.858954977768,84.0,42.0,42.0,0.5,102.5370057156609,14178.099740682244,0.0,0.0,0.0,0.0,4688.0,4719.0,4800.0,4819.0,4831.0,4857.0,4867.0,4882.0,5068.0,5148.0,0.0339882246494427,-0.17603827717040887,0.042616328754994305,-0.13088625587798708,0.00779356481756533
4,4,5697.749066359391,1276.654523683724,10.907446901876575,5811.972626301007,-4780.166798504136,17.83575780587747,5841.006160326137,54222.223452033126,11.030334923304563,5868.447510056982,-10556.65298086767,7.426701609847195,6100.314932032715,13335.57619921554,33.95448787925126,0.9834962730568912,113.0,85.0,82.0,262.0,344.0,28.0,995.0,997.0,29.0,15.0,14.0,0.5172413793103449,46.767891866925176,1263.1146925467694,20.0,16.0,4.0,0.8,944.7085394832789,7795.356742292512,26.0,13.0,13.0,0.5,2249.296514806477,52436.25243178239,16.0,4.0,12.0,0.25,1479.7128698391962,22684.007248092537,83.0,41.0,42.0,0.4939759036144578,103.28638619140814,14339.788756947186,0.0,0.0,0.0,0.0,5684.0,5712.0,5797.0,5816.0,5828.0,5854.0,5864.0,5879.0,6061.0,6141.0,0.03663316190818697,-0.1976308734203392,0.04148292658629691,-0.14016875164135367,0.007745176110011949
5,5,7035.3263164943555,1548.6736088217444,15.003536908998528,7142.547965400863,-4912.667322624801,9.589418729517996,7171.295025616178,54081.00198004856,10.970491955096325,7198.452034599137,-9792.268809540352,6.880430464785432,7434.992285948788,13471.50187876215,37.36881090039922,0.9891801336959584,111.0,72.0,80.0,269.0,349.0,39.0,1339.0,1330.0,39.0,17.0,22.0,0.4358974358974359,35.681734023507126,1633.2233149075605,18.0,15.0,3.0,0.8333333333333334,1027.8748554981166,10236.13409027542,26.0,13.0,13.0,0.5,2277.9400039147354,54107.40719149439,15.0,4.0,11.0,0.2666666666666666,1489.9411479104672,21911.750912672826,88.0,44.0,44.0,0.5,99.51527297962184,14640.434523628055,0.0,0.0,0.0,0.0,7018.0,7057.0,7129.0,7146.0,7158.0,7184.0,7195.0,7209.0,7393.0,7478.0,0.023040189889110566,-0.20922948532752078,0.04212089126520081,-0.15215484551025155,0.007387095653863796
6,6,8248.797700870551,1456.1425541406688,9.754250521782804,8360.972626301007,-5391.794035472609,14.142407532034913,8389.802119652772,53029.89030069877,11.093519972889991,8417.03977452801,-10989.839584923022,7.804287047017374,8653.243234320307,13125.361414097784,33.66594749060714,0.9856248503423088,110.0,84.0,82.0,266.0,348.0,26.0,1212.0,1219.0,26.0,13.0,13.0,0.5,60.165357811647006,1448.51489254827,20.0,16.0,4.0,0.8,961.5949041873494,7948.63149227896,26.0,13.0,13.0,0.5,2254.1208876161586,51090.1305109609,16.0,4.0,12.0,0.25,1449.5060831765911,22646.02532758738,83.0,41.0,42.0,0.4939759036144578,100.58576221331288,14073.141939907542,0.0,0.0,0.0,0.0,8236.0,8262.0,8346.0,8365.0,8377.0,8403.0,8413.0,8428.0,8614.0,8694.0,0.041318315738085906,-0.17834414628248357,0.04250661041979294,-0.13189510838403598,0.007663466097419229
7,7,9418.650650972242,1344.7464625121745,13.1141412070568,9525.54796540086,-5106.152174470253,10.271335011673736,9554.855588730914,53710.902817503615,11.05516697466584,9581.559765670194,-10153.67781114948,7.224259147512401,9816.885466513795,13351.176464768036,35.64209441297338,0.9882435905481148,109.0,74.0,80.0,267.0,347.0,35.0,1172.0,1165.0,35.0,16.0,19.0,0.4571428571428571,34.45303254637278,1359.042063219428,19.0,15.0,4.0,0.7894736842105263,980.162769171528,9009.707378544626,26.0,13.0,13.0,0.5,2279.9772734951275,52213.310640657095,15.0,4.0,11.0,0.2666666666666666,1442.9282803531812,21508.50964234258,86.0,43.0,43.0,0.5,101.05524765114616,14460.057748132816,0.0,0.0,0.0,0.0,9403.0,9438.0,9512.0,9529.0,9542.0,9568.0,9578.0,9592.0,9777.0,9859.0,0.02562046713401253,-0.19195721860232587,0.04244905882967425,-0.1421089291181507,0.007569014454854777
8,8,10677.043392598594,899.9697582032283,8.359616510381455,10783.972626301009,-5358.7880403571435,14.923265269230011,10812.446137808083,53758.29508220043,11.030116402335056,10839.629069063749,-10930.411837071946,7.484686963257555,11076.04462017169,13264.68693013911,34.7711726048956,0.9861691650514922,104.0,78.0,83.0,267.0,350.0,26.0,1258.0,1258.0,26.0,13.0,13.0,0.5,38.20214391164385,862.1077311238711,21.0,17.0,4.0,0.8095238095238095,995.1048326808782,8541.227702490909,26.0,12.0,14.0,0.4615384615384615,2274.3152787105337,53737.98865321488,16.0,5.0,11.0,0.3125,1437.081829031454,22035.473775883864,85.0,42.0,43.0,0.4941176470588235,96.66470780056189,14220.599056966255,0.0,0.0,0.0,0.0,10664.0,10690.0,10768.0,10788.0,10800.0,10826.0,10836.0,10851.0,11036.0,11118.0,0.04244825291453534,-0.18569587473636262,0.042306313383505496,-0.13147554277482937,0.007287371975657184
9,9,11770.305430965824,1084.127168778336,10.448386010479854,11877.54796540086,-5391.082277178504,11.833989992637711,11906.401428615136,53234.96494170893,11.122204124477562,11933.45203459914,-10623.665314910048,7.425505772104548,12167.762980633415,13498.8738792691,34.41648457722261,0.9869228513301332,108.0,76.0,81.0,264.0,345.0,32.0,1093.0,1094.0,32.0,15.0,17.0,0.46875,31.635176517823503,1051.6540411316207,20.0,17.0,3.0,0.85,1014.8710573888887,9334.549441264004,27.0,13.0,14.0,0.4814814814814814,2250.7824902375937,53446.7071015519,16.0,4.0,12.0,0.25,1507.928360034978,22836.19089490532,82.0,41.0,41.0,0.5,102.03743034723496,14540.280910772966,0.0,0.0,0.0,0.0,11755.0,11787.0,11863.0,11881.0,11893.0,11920.0,11930.0,11944.0,12129.0,12208.0,0.02918031890435146,-0.18824996637225044,0.04228015351756405,-0.1419404993791209,0.007558958714618334
10,10,13155.564303093995,1556.7399695241068,10.701273288729508,13266.972626301009,-5290.565878454073,12.37776700044506,13295.85589540708,53875.011343590464,11.096792535800164,13322.692889874364,-10551.677365896532,7.415017473537385,13561.20149253198,13065.098054056552,34.582099480998686,0.9871911340785108,110.0,82.0,82.0,269.0,351.0,28.0,1385.0,1389.0,28.0,14.0,14.0,0.5,59.08650952767386,1538.6030175472029,20.0,16.0,4.0,0.8,970.1765595346126,8528.708732640713,26.0,13.0,13.0,0.5,2290.6030609272484,52390.63841846358,15.0,4.0,11.0,0.2666666666666666,1460.1837056078027,22095.28682524322,85.0,42.0,43.0,0.4941176470588235,98.09144194103436,14022.79320505897,0.0,0.0,0.0,0.0,13142.0,13170.0,13252.0,13271.0,13283.0,13309.0,13319.0,13334.0,13521.0,13603.0,0.03795528520137922,-0.18337859915622154,0.04251698521822701,-0.13838403648761838,0.007507899407657195
11,11,14418.508719722864,1335.7426645508506,9.902109844742776,14530.54796540086,-5652.814589641887,15.287792404974097,14558.973246808904,53483.30975079018,11.084305639607082,14586.347933256877,-11072.5652002611,7.889022923731384,14823.221240884664,13131.743840561829,33.79636656758613,0.985124465458402,110.0,83.0,83.0,266.0,349.0,27.0,1262.0,1263.0,27.0,14.0,13.0,0.5185185185185185,52.54072070444819,1302.9358596554353,22.0,18.0,4.0,0.8181818181818182,1051.5152223195926,9132.607921008745,26.0,13.0,13.0,0.5,2263.472587318366,51911.45483464657,16.0,4.0,12.0,0.25,1473.1250030424335,23149.85551583533,83.0,41.0,42.0,0.4939759036144578,101.67306737786348,14082.979079771228,0.0,0.0,0.0,0.0,14405.0,14432.0,14515.0,14534.0,14546.0,14572.0,14582.0,14598.0,14784.0,14864.0,0.039334463215723696,-0.1860162235369208,0.04232110162712817,-0.13304279328223742,0.007742541174448731
12,12,15511.594463237378,1483.2575196928133,11.611773511997589,15625.972626301009,-5264.353851907635,13.717834691152255,15654.935661261588,53690.21012752219,11.096430238991587,15682.027956392294,-10590.519627037447,7.437673281014674,15917.277300894151,13396.146065511652,34.20698263468936,0.9841293005633784,114.0,85.0,82.0,265.0,347.0,29.0,1093.0,1096.0,29.0,15.0,14.0,0.5172413793103449,53.38126020104598,1465.6933732316272,20.0,16.0,4.0,0.8,957.539036099955,8097.895373862632,26.0,13.0,13.0,0.5,2267.9780980312,52378.08360571909,15.0,4.0,11.0,0.2666666666666666,1468.743703936036,22351.38685305369,83.0,41.0,42.0,0.4939759036144578,103.7561012786884,14397.84095081019,0.0,0.0,0.0,0.0,15497.0,15526.0,15611.0,15630.0,15642.0,15668.0,15678.0,15693.0,15878.0,15958.0,0.035989205847479125,-0.18189108540889082,0.0422419300025911,-0.1386847629446202,0.007745220212685517
13,13,16693.81037403429,1486.145058715786,11.37725903160218,16807.972626301005,-5317.481175920816,14.481979415333482,16836.549615713648,54068.65335072581,11.082718937284898,16863.71705554193,-10974.2649499072,7.525012879882956,17100.24215136726,13157.66765050309,34.3942206243007,0.9855743152282194,113.0,85.0,82.0,266.0,348.0,28.0,1183.0,1182.0,29.0,15.0,14.0,0.5172413793103449,54.58017790186789,1478.9094472720044,21.0,17.0,4.0,0.8095238095238095,994.2507393896568,8689.10232569773,26.0,13.0,13.0,0.5,2290.9989366122895,51372.05291487534,15.0,4.0,11.0,0.2666666666666666,1455.0954673144815,22310.16673854356,84.0,42.0,42.0,0.5,104.56197445567337,14234.33056858704,0.0,0.0,0.0,0.0,16680.0,16708.0,16793.0,16812.0,16824.0,16850.0,16860.0,16875.0,17060.0,17141.0,0.03672600974028198,-0.18697776381267295,0.04237203619167881,-0.13259161082371956,0.007946847209784584
14,14,17909.209223538273,1144.7560915503384,8.48509331438884,18022.972626301005,-5319.3279920876785,17.83575780604836,18051.41688346491,53758.12005520636,11.02025259125457,18079.02178223446,-11152.898417607948,7.825646285410242,18315.368249477535,13056.902411468049,33.14109444240858,0.9847708266097636,110.0,86.0,83.0,265.0,348.0,24.0,1215.0,1215.0,24.0,12.0,12.0,0.5,55.49239451940647,1182.527083837606,21.0,17.0,4.0,0.8095238095238095,994.2425854892546,8213.805123235012,26.0,12.0,14.0,0.4615384615384615,2249.5636413924485,52990.60440832433,16.0,5.0,11.0,0.3125,1428.2808439843147,22568.826097657024,83.0,41.0,42.0,0.4939759036144578,101.82505666941616,13961.393849471462,0.0,0.0,0.0,0.0,17897.0,17921.0,18007.0,18027.0,18039.0,18065.0,18075.0,18090.0,18276.0,18355.0,0.048475299610988176,-0.18691131416753337,0.04184602510434297,-0.12806364682111482,0.007798561516396253
15,15,19055.554848255564,1438.9223213496646,11.626187514455278,19168.972626301005,-5406.266325791689,11.546741134151544,19197.89677318219,53349.207369917625,11.110059063746837,19224.77667287332,-10627.147411298523,7.4674376693248625,19460.6104671897,13216.525187631862,33.87283863802924,0.9847652556202936,114.0,85.0,81.0,265.0,346.0,29.0,1146.0,1146.0,29.0,15.0,14.0,0.5172413793103449,52.71300661636419,1436.6455532752768,19.0,15.0,4.0,0.7894736842105263,969.7908440457792,8381.092761263166,26.0,13.0,13.0,0.5,2270.3260895011676,52018.660486290566,15.0,4.0,11.0,0.2666666666666666,1458.054024077074,22144.902192502705,83.0,42.0,41.0,0.5060240963855421,99.81863920534268,14130.092369475307,0.0,0.0,0.0,0.0,19041.0,19070.0,19155.0,19173.0,19185.0,19211.0,19221.0,19236.0,19421.0,19501.0,0.03663367079254217,-0.17938273581144076,0.042555947903011426,-0.1372008844562471,0.0075525630064060875
16,16,20309.79712517879,1277.6040523790457,9.856869201643113,20423.972626301005,-5263.036952373842,17.83575779129391,20452.25377198798,54545.9638006602,11.025126319921636,20479.748504796175,-10960.141511329091,7.681371983617458,20717.152216914117,13180.53090790755,33.519230806256616,0.9851726809528898,111.0,86.0,83.0,267.0,350.0,25.0,1254.0,1255.0,25.0,13.0,12.0,0.52,54.46746671702541,1284.6015478887753,22.0,18.0,4.0,0.8181818181818182,1017.9247456532222,8840.768154323592,26.0,13.0,13.0,0.5,2275.576089020092,53369.71991916005,16.0,5.0,11.0,0.3125,1421.0731364640203,22194.72659523056,83.0,41.0,42.0,0.4939759036144578,94.34244418804586,13997.786221333852,0.0,0.0,0.0,0.0,20297.0,20322.0,20408.0,20428.0,20439.0,20465.0,20476.0,20491.0,20678.0,20758.0,0.04263250935655747,-0.19341014605532972,0.04171850546699019,-0.12965828360839227,0.007157711995610578
17,17,21480.56535331279,1542.1043478881554,12.216099672883272,21594.972626301005,-5531.314701692798,12.804560362374026,21623.61016129864,53092.35750095551,11.15178053447594,21650.65685362555,-10912.287702050293,7.718551104254853,21886.8435043878,13363.210547095903,33.92429974746761,0.9835570687829808,114.0,83.0,82.0,265.0,347.0,31.0,1171.0,1171.0,32.0,15.0,17.0,0.46875,50.52928680930675,1546.4083131507225,20.0,16.0,4.0,0.8,992.8159315268956,8551.11207061534,26.0,13.0,13.0,0.5,2260.35948151344,50745.68751254559,15.0,4.0,11.0,0.2666666666666666,1432.9194734379555,22164.57990497497,82.0,41.0,41.0,0.5,101.73813563826806,14373.536410629336,0.0,0.0,0.0,0.0,21466.0,21497.0,21580.0,21599.0,21611.0,21637.0,21647.0,21662.0,21848.0,21927.0,0.03276645116687752,-0.17949004623133363,0.042574102712857685,-0.1313124720097626,0.007613300357703173
18,18,22680.904169799214,1540.725239320495,12.12920372675722,22794.54796540086,-5245.507479288759,12.949659952076312,22823.468773201897,53799.92166366347,11.085838715138506,22850.45203459914,-10694.693003035774,7.469041542203522,23087.70140159372,13312.290401799548,34.05596856112252,0.9853788032042338,114.0,82.0,81.0,267.0,348.0,32.0,1201.0,1200.0,32.0,15.0,17.0,0.46875,49.21334306980901,1535.83252481033,21.0,17.0,4.0,0.8095238095238095,1005.3359109562108,9150.918768019636,27.0,13.0,14.0,0.4814814814814814,2276.9989575556324,54077.22938518429,16.0,4.0,12.0,0.25,1523.935142895905,23124.653599766963,83.0,42.0,41.0,0.5060240963855421,101.8044778396384,14330.5101090087,0.0,0.0,0.0,0.0,22666.0,22698.0,22780.0,22798.0,22810.0,22837.0,22847.0,22861.0,23048.0,23128.0,0.03194167383894713,-0.19165655847897575,0.04232346232380335,-0.14249451970835664,0.0076474051246565745
19,19,23969.901921292698,1548.9673517951378,11.104067036532555,24082.54796540086,-5548.153781075686,12.92364446888881,24111.415567440596,52777.14207360471,11.095444726967118,24138.491729889727,-11022.712613936512,7.752198222576286,24376.513270549323,13370.575866227036,34.67758634613361,0.9854431487932284,112.0,83.0,82.0,268.0,350.0,29.0,1288.0,1288.0,29.0,14.0,15.0,0.4827586206896552,56.92834276524145,1571.3289891393597,21.0,17.0,4.0,0.8095238095238095,1005.099124053227,8703.900500155725,27.0,13.0,14.0,0.4814814814814814,2248.8507166329296,52810.10456996216,16.0,4.0,12.0,0.25,1505.7097338419894,23316.366975745656,84.0,42.0,42.0,0.5,101.68835821250352,14394.767711935248,0.0,0.0,0.0,0.0,23956.0,23985.0,24068.0,24086.0,24098.0,24124.0,24135.0,24150.0,24337.0,24418.0,0.03675244846139962,-0.1811592042530509,0.04261031628989326,-0.13660065236013255,0.007605383584813266
20,20,25214.159545989336,1569.3487536613911,11.562481283261736,25324.972626301005,-5239.837999846536,13.008479349295907,25354.083041303253,53565.301750833314,11.09377882702881,25381.05153091712,-10590.217278958726,7.508619884565272,25618.93932630664,13366.961677984818,34.763186137903915,0.9875217312900392,110.0,81.0,82.0,268.0,350.0,29.0,1245.0,1242.0,29.0,14.0,15.0,0.4827586206896552,57.87790258915153,1620.3035410859477,20.0,16.0,4.0,0.8,942.2772776669964,7975.198683089213,26.0,13.0,13.0,0.5,2269.8396120607745,52697.22292893495,16.0,4.0,12.0,0.25,1475.109474127499,22488.30608629575,85.0,43.0,42.0,0.5058823529411764,99.00876141761704,14374.277696518946,0.0,0.0,0.0,0.0,25200.0,25229.0,25310.0,25329.0,25341.0,25367.0,25377.0,25392.0,25579.0,25660.0,0.03688020425932648,-0.17982946757029392,0.04237518576147035,-0.13928982147121138,0.007406975781241518
21,21,26400.35374985075,1563.4179444901824,12.21490681502485,26510.972626301005,-5383.917624751147,10.801358628732748,26539.865743258975,52969.735012275734,11.078633789320952,26566.71198610473,-10732.0793762236,7.521925634093341,26803.18289733447,13654.39199344537,36.27673064333368,0.986903397093848,112.0,79.0,81.0,268.0,349.0,33.0,1185.0,1186.0,33.0,15.0,18.0,0.4545454545454545,49.92284796034282,1611.6321604118875,19.0,15.0,4.0,0.7894736842105263,970.4164319590262,8423.239482940578,26.0,13.0,13.0,0.5,2268.208492331236,51474.53073419553,15.0,4.0,11.0,0.2666666666666666,1449.4679066472202,22090.135479038963,87.0,43.0,44.0,0.4942528735632184,103.22863762862497,14833.020108204328,0.0,0.0,0.0,0.0,26385.0,26418.0,26497.0,26515.0,26527.0,26553.0,26563.0,26578.0,26762.0,26846.0,0.03193186322076036,-0.18024355118246824,0.04282083895276385,-0.13505937254419173,0.007560105032738086
22,22,27496.526846917845,1590.044867802347,11.66881200063703,27609.54796540086,-5288.844277929124,13.125749406965229,27638.363100591356,53260.467361697265,11.126083876098154,27665.45203459914,-10762.54267050108,7.575615206801979,27900.98358699037,13360.830793587347,34.140526911535694,0.9849677530773716,113.0,84.0,81.0,266.0,347.0,29.0,1097.0,1099.0,30.0,15.0,15.0,0.5,56.3875139870142,1576.7506621939,21.0,17.0,4.0,0.8095238095238095,1008.5807612223592,9258.880416916869,27.0,13.0,14.0,0.4814814814814814,2249.584603085989,53217.503249211855,16.0,4.0,12.0,0.25,1505.804819566922,23020.84465732644,84.0,42.0,42.0,0.5,99.83112476243726,14341.827720325911,0.0,0.0,0.0,0.0,27482.0,27511.0,27595.0,27613.0,27625.0,27652.0,27662.0,27676.0,27862.0,27942.0,0.03546284455793328,-0.19069965161032773,0.0422374176292677,-0.1399116236439335,0.007471924935263166
23,23,28672.748204463653,1392.214623863018,11.712743015004998,28786.54796540086,-5252.388420747538,12.636818403215178,28815.600177877022,53529.615242212414,11.057844695604066,28842.57387118686,-10926.338411605106,7.5496004855456516,29078.61715739299,13339.87969004439,35.051064704731274,0.9829167261690076,114.0,84.0,82.0,266.0,348.0,30.0,1176.0,1177.0,30.0,15.0,15.0,0.5,49.18264131796643,1395.107263805554,20.0,16.0,4.0,0.8,990.3314931514132,8787.733610578198,26.0,13.0,13.0,0.5,2288.356204750949,51091.5763672267,15.0,4.0,11.0,0.2666666666666666,1443.638934247382,22151.364737534324,85.0,43.0,42.0,0.5058823529411764,103.07139784556216,14370.761431433297,0.0,0.0,0.0,0.0,28658.0,28688.0,28772.0,28790.0,28803.0,28829.0,28839.0,28854.0,29038.0,29120.0,0.035326910431021,-0.18854879224839693,0.0427493490172968,-0.1321246770751729,0.007726561276447252
24,24,29942.04803735561,830.56357196919,8.484778979576344,30048.972626301005,-5729.3823046688185,12.536177406307912,30077.531622699047,52781.331706253935,11.110388315340538,30104.585862861964,-11123.485260432224,7.874577616034958,30341.593163302787,13319.71582529566,34.79789806769932,0.986182550173207,105.0,78.0,82.0,267.0,349.0,27.0,1270.0,1262.0,27.0,13.0,14.0,0.4814814814814814,34.055785530013736,789.3067339137149,20.0,16.0,4.0,0.8,997.3928396546544,8351.68288431941,26.0,13.0,13.0,0.5,2268.662296244373,50135.21555015288,16.0,5.0,11.0,0.3125,1421.8719927352968,22239.797790489607,85.0,43.0,42.0,0.5058823529411764,98.505458205284,14255.021710650975,0.0,0.0,0.0,0.0,29929.0,29956.0,30034.0,30053.0,30065.0,30091.0,30101.0,30116.0,30302.0,30383.0,0.04100322561615674,-0.1740838342803357,0.04298228602624599,-0.12782612278842964,0.0073954624480959946
25,25,31186.021507508744,1623.904535805339,12.016262250453137,31296.972626301005,-5205.986125873295,12.131858971892107,31326.15592555024,53895.70676630547,11.010305200221447,31353.45203459914,-10235.82647961777,7.1418590104400055,31590.469149737368,13545.102359590068,35.354396082414944,0.9855885105690504,111.0,82.0,81.0,268.0,349.0,29.0,1244.0,1248.0,29.0,14.0,15.0,0.4827586206896552,60.13256460840024,1696.7785022278624,19.0,15.0,4.0,0.7894736842105263,941.465857184958,7898.360338757575,26.0,13.0,13.0,0.5,2277.628373138179,53482.50577968907,15.0,4.0,11.0,0.2666666666666666,1488.0829606468794,22331.57900313553,85.0,42.0,43.0,0.4941176470588235,106.1344716065236,14632.668205406237,0.0,0.0,0.0,0.0,31172.0,31201.0,31283.0,31301.0,31313.0,31339.0,31350.0,31364.0,31550.0,31632.0,0.0370296179871059,-0.18084294395368347,0.0422599221680883,-0.14537985414368298,0.007835634518581496
26,26,32333.943553667683,1356.3664719804322,11.32166828117008,32440.972626301005,-5544.257729134605,10.925726695508986,32469.67658051112,52980.51369918753,11.083542620212029,32496.6016099007,-11040.718344064231,7.616861303281104,32732.22438292177,13798.8066407407,35.2328256768373,0.9865582061633534,108.0,76.0,81.0,266.0,347.0,32.0,1149.0,1144.0,32.0,15.0,17.0,0.46875,38.34981169823269,1320.1298709259406,19.0,15.0,4.0,0.7894736842105263,991.8484381078144,8570.042818511376,26.0,13.0,13.0,0.5,2276.1252578030985,50866.91399815733,15.0,4.0,11.0,0.2666666666666666,1445.596472300601,22207.35291999917,85.0,42.0,43.0,0.4941176470588235,105.97155145900489,14859.43102997272,0.0,0.0,0.0,0.0,32319.0,32351.0,32427.0,32445.0,32457.0,32483.0,32493.0,32508.0,32693.0,32774.0,0.028273930748404664,-0.178896524397799,0.042961555086582774,-0.1309331899656502,0.007679762041604816
27,27,33321.72287888684,1436.995234803539,12.086760730017977,33434.54796540086,-5354.725355446555,12.308946393308226,33463.37383673108,52188.19424657758,11.148738243190932,33490.45203459914,-10083.411904049295,7.545860367563877,33723.663266596326,13206.340219248095,34.49026681461457,0.9837364725678512,113.0,81.0,81.0,264.0,345.0,32.0,986.0,994.0,33.0,15.0,18.0,0.4545454545454545,46.05502086298741,1436.5345396402372,21.0,17.0,4.0,0.8095238095238095,998.5411955167964,9073.659494055782,27.0,13.0,14.0,0.4814814814814814,2199.2496118861486,52347.99768495593,16.0,4.0,12.0,0.25,1454.0991177690564,22119.657616146305,84.0,42.0,42.0,0.5,105.3283267632926,14301.361525111372,0.0,0.0,0.0,0.0,33307.0,33339.0,33420.0,33438.0,33450.0,33477.0,33487.0,33501.0,33685.0,33765.0,0.03204952928691089,-0.18647850809026664,0.04214074933298487,-0.14420705328769912,0.007975587862697775
28,28,34210.04347655225,1450.772889065786,12.240554635510854,34323.972626301,-4642.3546614587785,17.83575780395792,34353.38456030805,52913.96657430005,11.08661091911163,34380.80200465104,-9584.02659693946,7.37285282112613,34611.86466864978,13159.133142968274,32.87722402225611,0.9846638034332637,114.0,84.0,83.0,260.0,343.0,30.0,889.0,890.0,30.0,15.0,15.0,0.5,52.574035272297714,1505.0377041245056,20.0,16.0,4.0,0.8,889.9122081509464,7194.967844927629,27.0,13.0,14.0,0.4814814814814814,2172.329118247477,52388.67566455864,15.0,4.0,11.0,0.2666666666666666,1351.8476587647915,20622.94527443458,82.0,41.0,41.0,0.5,106.7616527807854,14129.567864313502,0.0,0.0,0.0,0.0,34195.0,34225.0,34309.0,34328.0,34340.0,34367.0,34377.0,34392.0,34573.0,34652.0,0.03623863918917892,-0.19169414511542449,0.04105398364337634,-0.1410521606019423,0.008113122013499396
29,29,35027.10364508633,937.9504842524738,7.4637218785460435,35142.97262630048,-5667.49052692602,17.83575780598152,35171.24215683139,53242.84748062768,11.126354037324091,35198.63938147994,-11269.63959070151,7.918602545210207,35427.166079602386,12900.978444991551,31.913324011740908,0.9819388483678284,109.0,88.0,85.0,256.0,341.0,21.0,817.0,818.0,21.0,11.0,10.0,0.5238095238095238,51.17541897454826,955.6858126652576,25.0,21.0,4.0,0.84,1001.3224766849992,8507.905550457157,26.0,13.0,13.0,0.5,2223.8531859015084,51937.89141548188,16.0,5.0,11.0,0.3125,1405.0602155398524,22187.332898698707,80.0,40.0,40.0,0.5,103.4913873262656,13791.123735351744,0.0,0.0,0.0,0.0,35016.0,35037.0,35125.0,35147.0,35158.0,35184.0,35194.0,35210.0,35389.0,35466.0,0.054560896160029126,-0.17667827973028916,0.04176811142023637,-0.12467658830005143,0.00802197971010821
30,30,36464.10151210067,1867.303364152728,13.295789595902525,36575.972626301,-5220.325620291918,10.983685946181591,36604.96066268192,53451.08201095619,11.10025603362734,36631.68559903513,-10495.433021795034,7.410647720166809,36872.16205487057,13183.165412615706,36.12813823798862,0.988014733113349,113.0,81.0,81.0,271.0,352.0,32.0,1437.0,1433.0,32.0,15.0,17.0,0.46875,63.79670604927448,1966.096149519082,19.0,15.0,4.0,0.7894736842105263,962.2314911068388,8579.247554406786,26.0,13.0,13.0,0.5,2273.5075413363056,52267.14664736905,15.0,4.0,11.0,0.2666666666666666,1458.0743648012926,22016.10741762909,88.0,44.0,44.0,0.5,101.18565547991862,14257.924524029686,0.0,0.0,0.0,0.0,36449.0,36481.0,36562.0,36580.0,36592.0,36618.0,36628.0,36643.0,36831.0,36914.0,0.034165153490323015,-0.18432403667820077,0.04253435956395216,-0.13892465053832703,0.007675368723135979
31,31,37679.03796243139,1351.7332497495693,10.304962996861574,37792.972626301,-4952.009125283174,17.835757806048363,37821.6789089904,53745.539644860815,10.99331121291641,37849.086391219265,-10768.347191633742,7.512172535093784,38086.11990634845,13159.576791250978,33.94461424766751,0.9834843147535977,112.0,85.0,82.0,267.0,349.0,27.0,1215.0,1217.0,27.0,13.0,14.0,0.4814814814814814,52.558863006715406,1368.6452891843687,21.0,17.0,4.0,0.8095238095238095,963.0416194333228,8035.097778099006,26.0,13.0,13.0,0.5,2253.4805233576467,50902.19334322382,15.0,4.0,11.0,0.2666666666666666,1444.7788262312615,22342.393401453697,84.0,42.0,42.0,0.5,103.06921275179307,14126.353942556136,0.0,0.0,0.0,0.0,37666.0,37693.0,37778.0,37797.0,37809.0,37835.0,37845.0,37860.0,38046.0,38127.0,0.03888257022341708,-0.1944749282703013,0.041928698423128144,-0.1341690419634458,0.0078322589234266
32,32,38986.4997267008,1957.8188141296791,14.754446890395812,39098.54796540086,-5317.5990504712945,11.598240652595685,39127.656486923144,53507.03127978231,11.070354209688997,39154.45203459915,-10493.893331178146,7.25685013874475,39392.39079705752,13335.859924519258,36.23771128562538,0.9866887842472246,113.0,78.0,81.0,270.0,351.0,35.0,1307.0,1306.0,36.0,15.0,21.0,0.4166666666666667,59.45187761397684,2121.6452267117065,20.0,16.0,4.0,0.8,992.0447839832926,8894.212488749983,26.0,13.0,13.0,0.5,2279.5881769889907,51442.73873665968,15.0,3.0,12.0,0.2,1533.8220097782466,22903.397642181917,87.0,43.0,44.0,0.4942528735632184,103.69957339641589,14498.418940413889,0.0,0.0,0.0,0.0,38971.0,39006.0,39084.0,39102.0,39115.0,39141.0,39151.0,39165.0,39352.0,39435.0,0.03036638384763165,-0.1865587786080578,0.04260352560150978,-0.14616329339094253,0.007775994497794197
33,33,40219.41895227155,1442.8279515311822,10.85649762953717,40330.972626301,-5065.376847156629,17.83575780556491,40359.37374595036,53507.136428877486,11.012476570785129,40386.907771556806,-11120.11339184694,7.733337943197619,40623.66862267655,13158.395154916048,34.40664236303713,0.984926414689004,110.0,79.0,83.0,267.0,350.0,31.0,1233.0,1232.0,31.0,14.0,17.0,0.4516129032258064,47.172765903203086,1452.1391122401296,21.0,17.0,4.0,0.8095238095238095,992.6831362806772,8430.369952584784,27.0,13.0,14.0,0.4814814814814814,2235.626559421142,52598.65546104612,16.0,5.0,11.0,0.3125,1422.242111624935,22354.72568228437,84.0,42.0,42.0,0.5,104.10179428749908,14229.75819293343,0.0,0.0,0.0,0.0,40205.0,40236.0,40315.0,40335.0,40346.0,40373.0,40383.0,40398.0,40584.0,40665.0,0.03269465763616626,-0.19597419229290008,0.041781838996238774,-0.12789816627838493,0.00791143547992675
34,34,41345.38778891735,1447.7340968632016,11.917015852639944,41459.972626301,-5361.9764844266465,12.64422557195368,41488.9115392724,53247.852891684845,11.11518026564076,41515.88305417008,-10721.98207199654,7.452010528748502,41751.993627690834,13188.959322889306,34.24365880643486,0.9826515946498062,114.0,85.0,82.0,266.0,348.0,29.0,1126.0,1129.0,29.0,14.0,15.0,0.4827586206896552,53.241524206290315,1511.836824924202,20.0,16.0,4.0,0.8,961.9292339307732,8167.7312974141,26.0,13.0,13.0,0.5,2259.226373288707,51912.900359122345,15.0,4.0,11.0,0.2666666666666666,1464.595088106847,22277.074254687963,83.0,41.0,42.0,0.4939759036144578,104.9488276627022,14263.629711093396,0.0,0.0,0.0,0.0,41331.0,41360.0,41445.0,41464.0,41476.0,41502.0,41512.0,41527.0,41713.0,41793.0,0.036775761738048765,-0.17939825672951115,0.04242849712427572,-0.13659741998002847,0.007957324387267203
35,35,42522.6356237706,1281.203118795665,11.437751319242231,42635.54796540086,-5300.463030306272,15.28779239426142,42664.27722999483,53751.67720867727,11.043054970352928,42691.551513227365,-10980.105420335496,7.524707582506181,42928.209544219826,13095.8520236921,33.918295924071245,0.9817198859142378,112.0,81.0,82.0,267.0,349.0,31.0,1177.0,1176.0,31.0,15.0,16.0,0.4838709677419355,44.18717323811334,1276.6774508688018,21.0,17.0,4.0,0.8095238095238095,1014.4948525998178,8926.80901449088,26.0,13.0,13.0,0.5,2266.3708326483215,53174.86683208474,16.0,5.0,11.0,0.3125,1422.5508527105835,21911.49662538885,84.0,42.0,42.0,0.5,99.3775459608285,13998.076228167718,0.0,0.0,0.0,0.0,42508.0,42539.0,42620.0,42639.0,42651.0,42677.0,42687.0,42702.0,42889.0,42969.0,0.03448881179718749,-0.19139740184947543,0.042163723075090496,-0.12955712156241916,0.0075884750210251
36,36,43595.118255902365,1385.0801118607935,10.692198368645018,43709.54796540086,-5302.300375326738,13.758199044805052,43738.19891538077,52816.21591200464,11.112540052715968,43765.3901487904,-10989.692018854808,7.72300722792247,44000.082422808286,13290.733250206162,34.025011727639885,0.9824224551629508,113.0,86.0,82.0,264.0,346.0,27.0,1073.0,1073.0,28.0,14.0,14.0,0.5,53.39415011159993,1408.8405144365202,21.0,17.0,4.0,0.8095238095238095,1014.8755500709518,9241.770321299227,26.0,13.0,13.0,0.5,2236.1419033271036,52141.45145485655,16.0,4.0,12.0,0.25,1487.63215726796,23045.000242546936,84.0,42.0,42.0,0.5,101.99291643018564,14258.996059775644,0.0,0.0,0.0,0.0,43582.0,43609.0,43695.0,43713.0,43725.0,43751.0,43761.0,43777.0,43961.0,44041.0,0.03854950313297565,-0.19140287766296404,0.04233816953211237,-0.13536613716887222,0.007673987169113003
37,37,44703.556062060015,1257.3497348338533,9.911558725242443,44817.54796540086,-5304.336602162789,14.398251021022777,44846.24256576279,53702.07159116615,11.074703485304005,44873.332311662736,-10771.182417989736,7.503891723230606,45109.22533523241,13128.27461062016,34.175076124442484,0.9833689840937884,112.0,85.0,82.0,266.0,348.0,27.0,1108.0,1109.0,27.0,14.0,13.0,0.5185185185185185,50.25741898398207,1227.268568996108,21.0,17.0,4.0,0.8095238095238095,1020.6329442304916,9192.8278072458,26.0,13.0,13.0,0.5,2267.034248949013,53165.37082472327,16.0,4.0,12.0,0.25,1502.955086855246,22956.991816141097,84.0,42.0,42.0,0.5,107.10041488254032,14193.42333301168,0.0,0.0,0.0,0.0,44690.0,44717.0,44802.0,44821.0,44833.0,44859.0,44869.0,44884.0,45070.0,45150.0,0.03997091468796715,-0.1924148146658602,0.04221502414670227,-0.13953482807468298,0.008157996237822531
38,38,45887.76985144647,1001.4112359119782,8.254034206463874,46000.972626301,-5314.581582530229,17.835757806048395,46030.01629097778,53593.655826663795,10.993454532785751,46057.58945305991,-11122.785496264163,7.786975784128709,46293.837113021305,12763.44806301292,33.231201623530474,0.9823458477676256,110.0,86.0,83.0,265.0,348.0,24.0,1184.0,1183.0,24.0,12.0,12.0,0.5,47.742809158531095,987.0851549806948,21.0,16.0,5.0,0.7619047619047619,939.4332218710118,6995.855211057907,26.0,13.0,13.0,0.5,2251.745937686605,51700.62274586435,16.0,5.0,11.0,0.3125,1385.6366138903068,21866.18177044016,82.0,41.0,41.0,0.5,103.59748708436976,13744.45446476654,0.0,0.0,0.0,0.0,45876.0,45900.0,45986.0,46005.0,46017.0,46043.0,46053.0,46069.0,46255.0,46334.0,0.04767552774165955,-0.1767652273810341,0.042015158379367756,-0.12457640348775079,0.008116731981272676
39,39,47053.6610112168,1128.5152110035594,9.905940317214224,47163.972626301,-5183.197239936727,13.89022455166814,47193.182451280394,53531.05379212953,11.055974428736926,47220.16959062819,-10537.820462247892,7.376747441905348,47456.02817369394,13213.936650703072,35.02894417237176,0.9850145524869864,109.0,81.0,82.0,267.0,349.0,28.0,1166.0,1163.0,28.0,14.0,14.0,0.5,42.226771955712465,1075.5533423592274,20.0,16.0,4.0,0.8,928.8165833947112,7555.343140601714,26.0,13.0,13.0,0.5,2261.1272853293485,52897.74823804103,16.0,4.0,12.0,0.25,1485.884734420439,22530.110979331752,85.0,42.0,43.0,0.4941176470588235,102.43610809564034,14285.89752759103,0.0,0.0,0.0,0.0,47040.0,47068.0,47149.0,47168.0,47180.0,47206.0,47216.0,47231.0,47416.0,47498.0,0.03741799095305174,-0.1791976149852344,0.04223954368822445,-0.14100493927977542,0.007752126470970332
40,40,48237.317339274014,1337.4581194023183,11.21432101351229,48351.972626301,-5308.311436372678,13.034567569474772,48380.74848752966,53799.5803971187,11.093390808242734,48407.75804780227,-10733.118224483702,7.550973063274808,48643.63265321872,13341.371001502424,34.917936663374036,0.9833231736038016,114.0,86.0,82.0,266.0,348.0,28.0,1184.0,1188.0,29.0,14.0,15.0,0.4827586206896552,50.70339669663272,1377.5070777267138,20.0,16.0,4.0,0.8,979.1836441748892,8504.161226226763,26.0,13.0,13.0,0.5,2288.0094551544767,51886.16085642493,15.0,4.0,11.0,0.2666666666666666,1453.4754290983403,22260.684426874897,85.0,43.0,42.0,0.5058823529411764,104.96108302258484,14423.010566335995,0.0,0.0,0.0,0.0,48223.0,48251.0,48337.0,48356.0,48368.0,48394.0,48404.0,48419.0,48603.0,48685.0,0.0379102687112857,-0.18446235792902038,0.04252838847934609,-0.13541967941644073,0.007867338597417369
41,41,49388.85553774588,1233.874964317574,9.59817593665888,49505.972626301,-5301.43638059751,17.83575780598604,49534.73377116484,53657.565977654594,11.02172901213132,49562.259265364686,-11088.33106364776,7.815235018113582,49797.78370661256,13053.22531355596,33.045784579593416,0.9812425571535088,114.0,89.0,83.0,265.0,348.0,25.0,1152.0,1154.0,25.0,13.0,12.0,0.52,53.419272631879494,1229.1891598033246,21.0,17.0,4.0,0.8095238095238095,964.6613308350884,7644.854605876465,26.0,13.0,13.0,0.5,2255.396305466114,50878.608606831105,16.0,4.0,12.0,0.25,1451.8817152007612,22894.92730617212,82.0,41.0,41.0,0.5,102.72754940965696,13991.02165267248,0.0,0.0,0.0,0.0,49376.0,49401.0,49490.0,49510.0,49522.0,49548.0,49558.0,49573.0,49759.0,49838.0,0.043293910790567325,-0.18196225731683008,0.04203314601346922,-0.1309378036123618,0.007869897817742633
42,42,50571.86992083106,1457.311291099842,12.17869763045507,50685.972626301,-5448.692119044763,12.413330784197637,50714.67768617447,53516.491671918746,11.108205967162618,50741.48012319554,-10642.39928874682,7.44104698575571,50977.67163218659,13234.914541765287,34.42458912886917,0.9848689414947162,114.0,83.0,81.0,267.0,348.0,31.0,1182.0,1180.0,31.0,15.0,16.0,0.4838709677419355,49.89935776508863,1480.62454411992,20.0,16.0,4.0,0.8,987.3477127314404,8614.031589500522,26.0,13.0,13.0,0.5,2282.3278141143965,51477.863352908214,15.0,3.0,12.0,0.2,1535.1004360176487,23148.488015399107,84.0,42.0,42.0,0.5,99.8240548731498,14204.512451416238,0.0,0.0,0.0,0.0,50557.0,50588.0,50671.0,50690.0,50702.0,50728.0,50738.0,50752.0,50938.0,51019.0,0.034240699341202024,-0.18120820394317622,0.04264718674210072,-0.14424383020855555,0.007542478234984898
43,43,51809.862698424826,1143.634530629579,8.50003132403998,51926.54796540086,-5727.037248273088,15.287792405183286,51955.03447063147,53345.935998998495,11.089271184171452,51982.30236772559,-11347.80821538306,7.891422440523355,52219.20876905935,13007.73590394421,33.10385788999744,0.9812002290671632,112.0,89.0,84.0,266.0,350.0,23.0,1239.0,1240.0,23.0,12.0,11.0,0.5217391304347826,55.12851122378106,1135.1606773912954,24.0,20.0,4.0,0.8333333333333334,1032.2320231740189,9088.8160553408,26.0,13.0,13.0,0.5,2266.6834028766248,51946.31590078623,16.0,4.0,12.0,0.25,1489.0272515173176,23386.317469709713,83.0,41.0,42.0,0.4939759036144578,98.82773235299172,13890.484998204734,0.0,0.0,0.0,0.0,51798.0,51821.0,51910.0,51930.0,51942.0,51968.0,51978.0,51994.0,52180.0,52260.0,0.04820465782318799,-0.18023839874365663,0.04249027335314126,-0.13121716751423382,0.007597612150399296
44,44,53111.99984166838,1469.1279599085049,10.877027905854147,53224.54796540086,-5377.476922398995,13.483109571590788,53253.41262746771,53435.59975967133,11.066156045348578,53280.45203459914,-10599.291283234055,7.521807376174283,53518.13890951213,13181.49192971324,34.204367941139296,0.9848179138028876,112.0,84.0,81.0,268.0,349.0,28.0,1302.0,1299.0,28.0,14.0,14.0,0.5,55.98583335222102,1494.2018575643228,21.0,17.0,4.0,0.8095238095238095,1004.3404792539789,8879.98632136228,27.0,13.0,14.0,0.4814814814814814,2264.6603372720547,53537.63380183512,16.0,4.0,12.0,0.25,1504.502987608984,22946.64694963534,84.0,42.0,42.0,0.5,97.99209793785558,14066.116366770384,0.0,0.0,0.0,0.0,53098.0,53126.0,53210.0,53228.0,53240.0,53267.0,53277.0,53291.0,53479.0,53559.0,0.03810820764428698,-0.18676797571563047,0.042381115725423725,-0.1419437344823993,0.007434067286189764
45,45,54420.97981998349,1495.6043536951036,11.238527239477945,54532.972626301,-5242.370865890049,13.9707126377686,54561.63972062626,53660.62716082756,11.082865032541326,54588.69272234539,-10874.677484142132,7.55177173633782,54826.887736264835,13341.29503658895,34.612362786748925,0.984716265789759,111.0,82.0,82.0,268.0,350.0,29.0,1307.0,1308.0,30.0,14.0,16.0,0.4666666666666667,53.85512733135376,1515.5746899637832,21.0,17.0,4.0,0.8095238095238095,979.1333999166726,8581.806311039814,26.0,13.0,13.0,0.5,2281.030536762174,51292.85640683098,15.0,4.0,11.0,0.2666666666666666,1448.6244275487954,22225.08793119455,84.0,42.0,42.0,0.5,102.0054860104692,14391.29730232204,0.0,0.0,0.0,0.0,54407.0,54436.0,54518.0,54537.0,54549.0,54575.0,54585.0,54600.0,54787.0,54868.0,0.03600893993006707,-0.1867730126244007,0.04250845838841284,-0.13321079449585835,0.007645845904068213
46,46,55594.15783492738,1034.5718331047856,8.5524173172193,55706.972626301,-5094.050734594719,17.83575780602441,55735.98504220007,53867.181586515966,11.034095819768112,55763.40081731813,-10711.35247046243,7.637011835360743,55999.629382956315,13314.608572418883,33.38459729046927,0.9801206612275108,109.0,85.0,83.0,266.0,349.0,24.0,1175.0,1174.0,24.0,12.0,12.0,0.5,49.65813932478678,1061.4113006554317,21.0,17.0,4.0,0.8095238095238095,938.8272057877542,7549.14814953307,26.0,13.0,13.0,0.5,2249.920558083335,51972.65113851707,16.0,4.0,12.0,0.25,1467.6218676856015,22787.161167326543,82.0,41.0,41.0,0.5,101.41903166358443,14247.855387596435,0.0,0.0,0.0,0.0,55582.0,55606.0,55691.0,55711.0,55723.0,55749.0,55759.0,55774.0,55961.0,56040.0,0.047998735066816,-0.1842987545082719,0.041767927926018224,-0.1370155516525768,0.007617124537455291
47,47,56918.61119672764,1408.761354834934,10.562311184394575,57030.54796540086,-5369.701388275397,13.33408773005549,57059.45519844481,53639.113822861465,11.069254039099098,57086.45956268053,-10459.269874286954,7.3918810323192625,57324.9851221691,13213.787467000744,34.42729309833071,0.984929814208008,111.0,84.0,81.0,269.0,350.0,27.0,1324.0,1324.0,28.0,14.0,14.0,0.5,53.8789728767056,1388.30198155355,21.0,17.0,4.0,0.8095238095238095,1005.4358606170446,8881.978913139845,27.0,13.0,14.0,0.4814814814814814,2267.7475239176924,53934.089502396746,16.0,4.0,12.0,0.25,1510.623923606482,22827.110087200428,84.0,42.0,42.0,0.5,104.88757270174249,14254.623128832744,0.0,0.0,0.0,0.0,56905.0,56932.0,57016.0,57034.0,57046.0,57073.0,57083.0,57097.0,57285.0,57366.0,0.0382456352112375,-0.1872424159027516,0.042277870797916846,-0.14442919455785308,0.007937737228155205
48,48,58179.605695322025,1292.9799469084112,9.09120329552138,58291.972626301,-5502.22919374224,17.83575780604835,58320.15120597808,53972.66662738482,11.025657122531817,58347.75414070071,-11065.308064192102,7.846106243812661,58585.68442837532,13341.057377334391,34.11909918277289,0.9849940371396952,109.0,84.0,83.0,267.0,350.0,25.0,1262.0,1261.0,25.0,13.0,12.0,0.52,55.15404279930302,1251.035714625351,22.0,18.0,4.0,0.8181818181818182,1024.8270177612196,8602.688809143681,26.0,13.0,13.0,0.5,2258.7732304006854,52447.847897198415,16.0,5.0,11.0,0.3125,1400.6765720813637,22135.64403107746,83.0,42.0,41.0,0.5060240963855421,104.09661307686578,14408.473416321256,0.0,0.0,0.0,0.0,58167.0,58192.0,58276.0,58296.0,58307.0,58333.0,58343.0,58359.0,58546.0,58626.0,0.04265653379325757,-0.18625669372820192,0.041850317420755755,-0.12658270008894051,0.00780272583593856
49,49,59384.678816860345,1586.706040610596,11.873902732401802,59495.54796540086,-5243.591855372845,12.274132959054592,59524.72111794683,53506.03855573001,11.087994572360268,59551.60337363315,-10461.60202453078,7.479915368933077,59789.137915240695,13444.206651124094,34.834348143954436,0.9850816828725162,111.0,81.0,82.0,267.0,349.0,30.0,1204.0,1204.0,31.0,15.0,16.0,0.4838709677419355,55.78657237596738,1589.330960390345,20.0,16.0,4.0,0.8,981.4396684976856,8763.977275701736,26.0,13.0,13.0,0.5,2277.029439627351,51562.82760542462,15.0,4.0,11.0,0.2666666666666666,1433.37601554103,21798.991144960528,84.0,42.0,42.0,0.5,105.596021080432,14559.139512924883,0.0,0.0,0.0,0.0,59370.0,59400.0,59481.0,59499.0,59512.0,59538.0,59548.0,59563.0,59750.0,59830.0,0.03515873195673951,-0.18716934795221593,0.04255649457688177,-0.13701305136440795,0.007854388423254631
50,50,60680.07691574462,1397.103500585078,9.09405573270453,60791.972626301,-5040.85298082448,17.835757806048395,60820.91270441232,54229.09163148177,10.975630738543368,60848.32161671949,-10890.464321480446,7.534526059739894,61086.704172863705,13292.694293084269,33.97467401164213,0.9845898411257624,109.0,85.0,82.0,268.0,350.0,24.0,1296.0,1296.0,24.0,12.0,12.0,0.5,64.77842482521335,1427.3621938249762,21.0,17.0,4.0,0.8095238095238095,949.4938127008746,7595.227529591525,26.0,13.0,13.0,0.5,2275.6522905754036,52096.65168201104,16.0,4.0,12.0,0.25,1478.6015948002182,22887.33823432636,83.0,42.0,41.0,0.5060240963855421,98.33865498155404,14223.164176437494,0.0,0.0,0.0,0.0,60668.0,60692.0,60777.0,60796.0,60808.0,60834.0,60844.0,60859.0,61047.0,61127.0,0.046366231849025843,-0.18835975108037684,0.04196368078668521,-0.1357702987818262,0.007397947535189782
51,51,61927.98349304213,1321.710883125848,9.541904572951807,62039.972626301,-4973.48902814197,17.835757806047088,62068.96837139484,54093.36548759414,11.007041134694813,62096.41615383726,-10653.882550040493,7.603195435462275,62334.0747485347,13331.54410987758,33.789658638638095,0.9840220040179284,110.0,84.0,82.0,268.0,350.0,26.0,1248.0,1248.0,26.0,13.0,13.0,0.5,56.16155848934401,1339.2888594583617,21.0,17.0,4.0,0.8095238095238095,942.205388989674,7629.140150417754,26.0,13.0,13.0,0.5,2259.7224740829406,52146.64489998831,16.0,4.0,12.0,0.25,1468.0221089986303,22781.729366926585,84.0,42.0,42.0,0.5,103.96008932791864,14302.937380292842,0.0,0.0,0.0,0.0,61915.0,61941.0,62025.0,62044.0,62056.0,62082.0,62092.0,62107.0,62295.0,62375.0,0.04249156090515185,-0.18944555495313306,0.041774484795204486,-0.13779221819871204,0.007798053134062149
52,52,63204.606300519714,1589.6913203356787,11.992505227163788,63316.972626301,-5350.221531154113,12.201754306002131,63345.75334523567,53896.33072445315,11.10616617475046,63372.59248883742,-10549.52271256263,7.407096220301275,63611.03954155772,13484.784009220686,34.88697708960286,0.9862994050148736,112.0,82.0,81.0,269.0,350.0,30.0,1276.0,1277.0,31.0,15.0,16.0,0.4838709677419355,56.19029834403347,1608.0374300664646,20.0,16.0,4.0,0.8,984.4364528534855,8695.948354244136,26.0,13.0,13.0,0.5,2292.4443010073537,52112.345214481575,15.0,4.0,11.0,0.2666666666666666,1451.7691646153078,21937.30238756863,85.0,42.0,43.0,0.4941176470588235,101.8911687362859,14491.26318847065,0.0,0.0,0.0,0.0,63190.0,63220.0,63302.0,63321.0,63333.0,63359.0,63369.0,63383.0,63571.0,63652.0,0.03534667241698743,-0.18399919463542844,0.042534329706553756,-0.1376146773812341,0.00755601043862581
53,53,64428.91852819311,1566.0628368802786,11.664221156257748,64542.54796540086,-5594.235488009985,12.682917308451898,64571.179986656745,53402.127159625314,11.12660916649706,64598.25366052174,-10946.356317725777,7.6427131302296205,64835.43494201034,13536.74274618788,34.75967556429548,0.9844582226421554,114.0,83.0,81.0,268.0,349.0,31.0,1225.0,1225.0,31.0,15.0,16.0,0.4838709677419355,52.25685056575177,1574.1698874428816,21.0,17.0,4.0,0.8095238095238095,1037.0788187013509,9418.518070649392,26.0,13.0,13.0,0.5,2268.52456250911,52870.07546328207,16.0,4.0,12.0,0.25,1496.9336696838698,23019.38102204903,85.0,42.0,43.0,0.4941176470588235,104.52395210289616,14620.06079120698,0.0,0.0,0.0,0.0,64414.0,64445.0,64528.0,64546.0,64558.0,64584.0,64594.0,64609.0,64795.0,64877.0,0.033368297449578435,-0.1853834757088974,0.042480041211246516,-0.13675177622893916,0.007721499482017669
54,54,65528.08640141879,1540.9452222769814,12.019001825282858,65643.54796540085,-5321.940789477761,14.17420787925473,65672.19858360066,53681.01623017,11.077482397274188,65699.45203459915,-10711.229512376269,7.434995315831316,65935.15170928491,13442.239737398684,33.689940292969816,0.9826158654385068,114.0,84.0,82.0,266.0,348.0,30.0,1099.0,1102.0,31.0,15.0,16.0,0.4838709677419355,54.41387261742093,1586.6175831804894,22.0,18.0,4.0,0.8181818181818182,1023.9179704809412,9327.270216185349,26.0,13.0,13.0,0.5,2261.6532939572216,53129.342547379034,16.0,4.0,12.0,0.25,1501.7892833947478,22886.580409331433,83.0,41.0,42.0,0.4939759036144578,106.07066244348268,14447.649614954844,0.0,0.0,0.0,0.0,65514.0,65544.0,65628.0,65647.0,65659.0,65685.0,65696.0,65710.0,65896.0,65976.0,0.03531200968780457,-0.19239559607753878,0.042131342749918345,-0.14020699319900748,0.007890847397132441
55,55,66865.78746718825,1901.0198271360507,13.447604245798823,66977.972626301,-5238.391790754625,10.558709660331672,67007.04612057065,53768.30047254501,11.044271657350484,67034.027373699,-10261.236395216874,7.2500890588524225,67273.28686546398,13409.769972823226,35.472513282467766,0.9870518813498934,114.0,80.0,81.0,270.0,351.0,34.0,1337.0,1334.0,34.0,16.0,18.0,0.4705882352941176,60.11043178755268,1938.195781430365,19.0,15.0,4.0,0.7894736842105263,962.3988264575272,8403.878481311027,26.0,13.0,13.0,0.5,2281.290607697272,52958.3280666679,15.0,4.0,11.0,0.2666666666666666,1468.6568828851152,22054.102668490304,86.0,43.0,43.0,0.5,104.56764961112664,14502.022796731198,0.0,0.0,0.0,0.0,66850.0,66884.0,66964.0,66982.0,66994.0,67020.0,67030.0,67045.0,67233.0,67315.0,0.03162009723912824,-0.18372028380085853,0.042428170272224563,-0.14312669802341832,0.007797870494650363
56,56,68083.40592095967,997.721805636104,7.291452824544496,68197.972626301,-5505.867194821789,17.835757806017902,68226.64444070547,53951.82993581002,11.0264114449986,68254.24985892288,-11062.363715370338,7.775053546034749,68492.16298842026,13079.618802773952,33.02632518208386,0.9812354766438908,109.0,89.0,83.0,267.0,350.0,20.0,1219.0,1220.0,20.0,10.0,10.0,0.5,56.931270321375415,1055.86437131329,21.0,17.0,4.0,0.8095238095238095,982.5200886702686,7666.961145050533,26.0,13.0,13.0,0.5,2264.3636167575014,50940.99572349108,16.0,4.0,12.0,0.25,1451.2642056948434,22823.189329701192,82.0,41.0,41.0,0.5,103.71542247397338,14027.016662470316,0.0,0.0,0.0,0.0,68073.0,68093.0,68182.0,68202.0,68214.0,68240.0,68250.0,68265.0,68453.0,68532.0,0.057061266978201915,-0.17844965268946525,0.04197009850178504,-0.13118934099756807,0.007929544739635471
57,57,69271.79907671855,1453.1517711944778,11.588843136935065,69383.972626301,-5159.75043435553,13.4572457776185,69413.32580434319,53731.401808306735,11.052650215402906,69440.45203459915,-10495.17131427702,7.399802616381956,69678.13325849801,13269.40166207884,33.91802280661182,0.9840779844550448,112.0,82.0,82.0,268.0,350.0,30.0,1188.0,1187.0,30.0,15.0,15.0,0.5,51.43222274887007,1466.431171762828,19.0,15.0,4.0,0.7894736842105263,919.6473432713864,7462.123808608089,27.0,13.0,14.0,0.4814814814814814,2267.3725136205176,53604.07250130344,16.0,4.0,12.0,0.25,1502.9991703024957,22793.88439511251,84.0,42.0,42.0,0.5,102.02454354918034,14254.86316774465,0.0,0.0,0.0,0.0,69257.0,69287.0,69369.0,69388.0,69400.0,69427.0,69437.0,69451.0,69639.0,69719.0,0.03539356574337259,-0.17823484972219464,0.04219827581848028,-0.1432086361713699,0.007688707158571062
58,58,70496.15931596764,1145.0949651140454,8.517234111427655,70609.972626301,-5161.420975073395,16.250696094611126,70638.79982468422,53839.95208504102,11.024873564781318,70666.20553899703,-11006.787375404996,7.636774557570758,70904.49460255765,13195.065293995567,33.76246649805139,0.983192875974244,111.0,88.0,82.0,268.0,350.0,23.0,1224.0,1225.0,23.0,12.0,11.0,0.5217391304347826,55.86632513250267,1179.691983745372,20.0,16.0,4.0,0.8,966.188072178604,7829.890170489045,26.0,13.0,13.0,0.5,2270.06844381849,51612.39140105732,16.0,4.0,12.0,0.25,1467.6885351769424,22839.265163380416,83.0,41.0,42.0,0.4939759036144578,102.47893165400797,14168.281708237368,0.0,0.0,0.0,0.0,70484.0,70507.0,70595.0,70614.0,70626.0,70652.0,70662.0,70677.0,70865.0,70945.0,0.048787503949018485,-0.18719420036550397,0.04216327013502691,-0.13334395270108856,0.007766458851904367
59,59,71600.25186934041,1423.2943239236074,12.102776188975552,71715.972626301,-5314.6332668429095,12.734398879785704,71744.80674398303,53425.390459537106,11.136250848837877,71771.81307365118,-10641.882559042691,7.521714499658376,72008.08029976947,13378.97836319022,34.122359514976104,0.983466632842698,115.0,85.0,82.0,266.0,348.0,30.0,1104.0,1106.0,31.0,15.0,16.0,0.4838709677419355,49.22438287449511,1471.1325766581845,20.0,16.0,4.0,0.8,973.81347544926,8476.32753516279,26.0,13.0,13.0,0.5,2262.981827164996,51756.43824764632,15.0,4.0,11.0,0.2666666666666666,1451.145328874639,22150.22251739183,83.0,41.0,42.0,0.4939759036144578,104.25144873276022,14411.603478132669,0.0,0.0,0.0,0.0,71586.0,71616.0,71701.0,71720.0,71732.0,71758.0,71768.0,71783.0,71969.0,72049.0,0.03458482342485414,-0.18323248784158186,0.04235779668992621,-0.1363617123966062,0.00779218307278146
60,60,72925.21918425478,1418.3189295741677,10.77654855302502,73036.54796540085,-5287.889711808203,12.355481512862449,73065.65293603798,53944.67895342875,11.081356229105166,73092.5667434731,-10452.69637043051,7.393652745490352,73331.89685123046,13249.30322909348,35.147608348258295,0.9855603921412688,111.0,82.0,81.0,271.0,352.0,29.0,1324.0,1321.0,29.0,14.0,15.0,0.4827586206896552,51.804410447037185,1442.3383531932814,20.0,16.0,4.0,0.8,994.8207983100476,8915.553489759577,26.0,13.0,13.0,0.5,2292.4248284472296,51820.57220413051,15.0,4.0,11.0,0.2666666666666666,1438.6632034350828,21776.930588841788,86.0,43.0,43.0,0.5,101.08626869728064,14287.840491910782,0.0,0.0,0.0,0.0,72911.0,72940.0,73022.0,73040.0,73053.0,73079.0,73089.0,73103.0,73291.0,73374.0,0.03652521965746505,-0.18813191131587859,0.042495847095990955,-0.13763560639768485,0.007629553565904536
61,61,74098.2565413349,1063.0918680107525,8.453723065328882,74213.972626301,-5402.364127817034,17.8357578060484,74242.69826880995,54045.71568600284,11.00573192524023,74270.26581720608,-11043.670088319448,7.773586859149248,74507.18376643854,13122.811947952268,33.60669682021962,0.9837564634124184,111.0,89.0,83.0,267.0,350.0,22.0,1175.0,1177.0,22.0,11.0,11.0,0.5,52.830575131180765,1097.502069723881,21.0,17.0,4.0,0.8095238095238095,974.0230387587272,7660.506568951521,26.0,13.0,13.0,0.5,2272.2258848326437,51187.22285754514,16.0,4.0,12.0,0.25,1454.5254093630012,22887.35183851202,84.0,42.0,42.0,0.5,100.57556936741231,14023.58069490927,0.0,0.0,0.0,0.0,74087.0,74109.0,74198.0,74218.0,74230.0,74256.0,74266.0,74281.0,74468.0,74548.0,0.049695211412007924,-0.1802957030873642,0.04204266436277615,-0.13170670598910847,0.007664178208627495
62,62,75213.38766707557,1355.9614622909314,11.59521142443374,75327.54796540085,-5184.738773809826,15.28779239534378,75356.32611893812,53934.484940382245,11.09343437214581,75383.53741565983,-10606.178185418838,7.478186594447473,75620.11247728408,13227.070359421356,33.7893544777621,0.9841440201576266,113.0,83.0,82.0,267.0,349.0,30.0,1113.0,1114.0,30.0,14.0,16.0,0.4666666666666667,48.63217088615564,1397.1744947279203,22.0,18.0,4.0,0.8181818181818182,1010.881490871848,9180.10539191098,27.0,13.0,14.0,0.4814814814814814,2257.3225953200977,53555.06837050957,15.0,4.0,11.0,0.2666666666666666,1413.971818124313,21636.45500133688,84.0,42.0,42.0,0.5,104.5836391615708,14219.914962007377,0.0,0.0,0.0,0.0,75199.0,75229.0,75312.0,75331.0,75343.0,75370.0,75380.0,75394.0,75581.0,75661.0,0.03586545210804911,-0.19497250198567606,0.041853048153056106,-0.13331586490487338,0.00790678784641666
63,63,76479.11029015195,1367.9468958827051,12.13508755438206,76593.972626301,-5346.958549402294,12.186454810550746,76623.01051209251,53755.08035075529,11.055640820108636,76650.02737369902,-10617.535685892171,7.43028431108611,76888.9195551542,13316.21534982322,34.88310515448209,0.9841506812185924,115.0,86.0,81.0,269.0,350.0,29.0,1267.0,1266.0,29.0,14.0,15.0,0.4827586206896552,50.46256983679066,1411.0509064066073,19.0,15.0,4.0,0.7894736842105263,957.629328485197,8059.131694251431,26.0,13.0,13.0,0.5,2288.648333930513,52768.96706791487,15.0,4.0,11.0,0.2666666666666666,1475.9542045853984,22456.288093019935,84.0,42.0,42.0,0.5,104.0544955316925,14435.021345810164,0.0,0.0,0.0,0.0,76465.0,76494.0,76580.0,76598.0,76610.0,76636.0,76646.0,76661.0,76850.0,76930.0,0.036889275445322244,-0.17909795253457592,0.04257547973134704,-0.13901099541831932,0.007814119312291978
64,64,77622.50987564054,1163.574315628368,9.167697085811524,77737.972626301,-5587.058687992642,17.8357578060484,77766.7737621818,53685.915210108906,11.047955505232586,77794.42639295562,-11166.623301008238,7.973896800816991,78031.35905496382,12949.912496759793,32.66585981457918,0.9808779528288304,112.0,87.0,84.0,265.0,349.0,25.0,1144.0,1144.0,25.0,13.0,12.0,0.52,50.42053148960393,1135.5482952065736,21.0,17.0,4.0,0.8095238095238095,968.5186983396584,7360.392867657534,26.0,13.0,13.0,0.5,2253.3898703556974,51007.051141670614,16.0,4.0,12.0,0.25,1456.566240968241,23149.46673727041,82.0,41.0,41.0,0.5,97.1593909355188,13731.826785179332,0.0,0.0,0.0,0.0,77610.0,77635.0,77722.0,77742.0,77754.0,77780.0,77790.0,77806.0,77993.0,78071.0,0.04333245484399955,-0.17335037135391798,0.041973576524432434,-0.13043927440775469,0.007502706366535614
65,65,78722.66864978951,1542.6430957546452,13.31025446224406,78835.972626301,-5340.359861124073,11.216937994213849,78865.10456914431,53404.05829522872,11.107240987734803,78892.027373699,-10485.089515232212,7.436416141129965,79128.20666687224,13295.68392921389,34.82596564479523,0.9849695035995332,115.0,80.0,81.0,267.0,348.0,35.0,1099.0,1098.0,35.0,16.0,19.0,0.4571428571428571,45.88117316259096,1558.8873292103294,19.0,15.0,4.0,0.7894736842105263,954.30450795386,8154.346666145781,26.0,13.0,13.0,0.5,2263.490988900106,52707.21072409317,15.0,4.0,11.0,0.2666666666666666,1472.4828819616678,22313.728233364804,85.0,42.0,43.0,0.4941176470588235,103.5206093197144,14357.447269755216,0.0,0.0,0.0,0.0,78707.0,78742.0,78822.0,78840.0,78852.0,78878.0,78888.0,78903.0,79088.0,79170.0,0.02974192364316541,-0.178696667035654,0.0423842505823632,-0.14043589039678855,0.007786031156490877
66,66,79976.26888963456,1157.3506032420764,10.213186218877368,80090.54796540085,-5368.76703554475,15.287792405184296,80119.30807498781,53671.12448902852,11.05215720336063,80146.58714920063,-10958.583439671407,7.635299891057541,80385.14356990994,12929.74085111204,34.223467446260884,0.9845244720686684,112.0,86.0,83.0,268.0,351.0,26.0,1254.0,1255.0,27.0,13.0,14.0,0.4814814814814814,47.22125508995884,1197.8442107158128,22.0,18.0,4.0,0.8181818181818182,1008.5133304354684,8836.28018678195,26.0,13.0,13.0,0.5,2264.4657211028707,53171.61576525387,16.0,5.0,11.0,0.3125,1418.142178772336,21974.135478774588,86.0,43.0,43.0,0.5,97.77643226190705,13798.22532508917,0.0,0.0,0.0,0.0,79963.0,79989.0,80075.0,80094.0,80106.0,80132.0,80143.0,80158.0,80345.0,80426.0,0.04080116686998593,-0.18784821985354375,0.04219150879847457,-0.12940926047416754,0.007562133950542223
67,67,81107.63410209748,1168.235223066632,10.215472851853058,81221.972626301,-5223.3354448441805,17.8357578054284,81250.60739758925,53514.35533805248,11.020998348487382,81278.22818725978,-10760.510540113715,7.747094814245816,81514.51875614909,12974.866319829804,33.65606469890334,0.9821387805844644,113.0,86.0,82.0,266.0,348.0,27.0,1131.0,1131.0,28.0,14.0,14.0,0.5,43.962467723749306,1138.400532942389,21.0,17.0,4.0,0.8095238095238095,979.0344701021182,7825.730282421494,26.0,13.0,13.0,0.5,2239.6436326634625,50407.47375715879,16.0,4.0,12.0,0.25,1426.392373833653,22410.003090766837,83.0,42.0,41.0,0.5060240963855421,95.21361772611678,13852.438030120922,0.0,0.0,0.0,0.0,81094.0,81121.0,81207.0,81226.0,81238.0,81264.0,81274.0,81289.0,81475.0,81555.0,0.03763152048124973,-0.18743473024856136,0.041851268103960844,-0.13255805740036747,0.007338312039531343
68,68,82201.0130829249,1435.1964035149397,13.088172746941238,82314.972626301,-5172.761862422109,12.381089537374883,82344.10124680123,53631.13046737432,11.105236961117782,82371.027373699,-10388.673508324731,7.319780773399639,82607.15039526855,13045.479804285686,33.92044263227217,0.983460688161765,114.0,81.0,82.0,266.0,348.0,33.0,1093.0,1093.0,33.0,15.0,18.0,0.4545454545454545,46.33364344979756,1480.536164580596,20.0,16.0,4.0,0.8,945.3436038701542,8149.148624294227,26.0,13.0,13.0,0.5,2263.877540502817,52927.565424664506,15.0,4.0,11.0,0.2666666666666666,1477.0915436895305,22219.222360097156,83.0,41.0,42.0,0.4939759036144578,102.55205381025552,14055.433392354762,0.0,0.0,0.0,0.0,82186.0,82219.0,82300.0,82319.0,82331.0,82357.0,82367.0,82382.0,82569.0,82648.0,0.03228383469769143,-0.18275413193436743,0.042212004870566956,-0.14218288239647692,0.00786111782385844
69,69,83498.96620584006,1260.67692153433,10.112142010596164,83611.54796540085,-5230.247505548723,15.287792405124158,83640.23827856303,53593.44598776801,11.06372087338398,83667.53045886077,-10878.2348444718,7.698335829794635,83906.66522014266,12958.269548062824,34.13329060182559,0.9858029231687258,111.0,83.0,83.0,269.0,352.0,28.0,1298.0,1297.0,28.0,14.0,14.0,0.5,47.92535780156264,1255.0139041473817,22.0,18.0,4.0,0.8181818181818182,1011.9613969627958,9112.942508204502,26.0,13.0,13.0,0.5,2258.4831500481846,52860.96897589629,16.0,5.0,11.0,0.3125,1402.744865545977,21827.310631408225,84.0,42.0,42.0,0.5,99.39964578426934,13948.8806754004,0.0,0.0,0.0,0.0,83485.0,83513.0,83596.0,83615.0,83627.0,83653.0,83663.0,83679.0,83867.0,83948.0,0.03801557479392437,-0.19348250649500143,0.04214103251661879,-0.1289496766342415,0.0076707499728718735
70,70,84597.8608604815,757.6532651818567,6.437811419274301,84712.972626301,-5803.458105562299,17.8357578060484,84741.14641248922,53555.01979744445,11.081607877138143,84768.73239546981,-11110.765835187558,7.978297508876197,85005.24097577704,12981.734040218093,32.50270387595479,0.9827028852063548,108.0,89.0,84.0,265.0,349.0,19.0,1100.0,1101.0,19.0,10.0,9.0,0.5263157894736842,48.97611466892793,798.1692766601404,24.0,20.0,4.0,0.8333333333333334,1019.9176612331688,8451.466453331164,26.0,13.0,13.0,0.5,2240.635875096574,52002.49115695532,16.0,5.0,11.0,0.3125,1391.6528983201288,22109.37001019354,81.0,40.0,41.0,0.4938271604938271,103.27807801742752,13909.724807923354,0.0,0.0,0.0,0.0,84588.0,84607.0,84696.0,84717.0,84728.0,84754.0,84764.0,84780.0,84967.0,85045.0,0.06464185785191907,-0.17574309018542464,0.04183801786594603,-0.12525265305410305,0.007955645809524877
71,71,85740.00751120418,1550.5671439262674,12.906128876484772,85852.972626301,-5208.479769647751,11.532933546664816,85882.1482620995,53798.34812505968,11.08312716020211,85909.027373699,-10320.597555441203,7.224594831809097,86146.2458632757,13304.673141192896,34.38034692525783,0.986171833092688,114.0,81.0,81.0,267.0,348.0,33.0,1141.0,1140.0,33.0,15.0,18.0,0.4545454545454545,49.58581513542976,1589.9173669395109,19.0,15.0,4.0,0.7894736842105263,948.2079761759148,8173.676209074999,26.0,13.0,13.0,0.5,2273.7298855018485,53288.09489863634,15.0,4.0,11.0,0.2666666666666666,1484.5784540765094,22194.680555696686,84.0,42.0,42.0,0.5,104.5737483416992,14393.746991855263,0.0,0.0,0.0,0.0,85725.0,85758.0,85839.0,85857.0,85869.0,85895.0,85905.0,85920.0,86107.0,86187.0,0.03197914732661694,-0.18205081292655997,0.0422639349486407,-0.14384617228813587,0.007859926150152918
72,72,87002.84884424527,1526.1231239877077,11.034054625505538,87115.972626301,-5468.457241781481,14.077514304356878,87144.6017109782,53235.4517784113,11.097557988854748,87171.79580510296,-10855.369386305556,7.755642778490168,87410.51561036837,13080.14783856308,34.40749075817005,0.9848316863637756,112.0,83.0,82.0,269.0,351.0,29.0,1262.0,1263.0,29.0,14.0,15.0,0.4827586206896552,54.926737574555496,1530.85290274545,21.0,17.0,4.0,0.8095238095238095,983.5914758750828,8307.395871887064,26.0,13.0,13.0,0.5,2264.092023704006,50730.50933920018,15.0,4.0,11.0,0.2666666666666666,1429.038234204251,22239.957911343303,84.0,42.0,42.0,0.5,99.9443669994993,14076.91964401475,0.0,0.0,0.0,0.0,86989.0,87018.0,87101.0,87120.0,87132.0,87158.0,87168.0,87183.0,87371.0,87452.0,0.035991026353780556,-0.17986635579044125,0.04252977946215474,-0.13164344605417433,0.007640920288747951
73,73,88116.33112727317,1258.604296462669,10.050373750594355,88230.972626301,-5030.234004709464,17.83575780591876,88260.0355121214,53754.678482092975,11.03312592160141,88287.47649628767,-10521.041405609176,7.541143332172348,88523.87081784829,13024.819450132616,33.733568493559524,0.9837251124292852,112.0,86.0,83.0,267.0,350.0,26.0,1115.0,1115.0,26.0,13.0,13.0,0.5,51.81073062321955,1292.558356654631,21.0,17.0,4.0,0.8095238095238095,934.8610789621648,7451.50032005215,26.0,13.0,13.0,0.5,2237.3999510440985,52062.341678764235,16.0,4.0,12.0,0.25,1465.9143597388163,22615.239559564907,84.0,42.0,42.0,0.5,98.12274808119436,13951.684991286736,0.0,0.0,0.0,0.0,88103.0,88129.0,88215.0,88235.0,88247.0,88273.0,88283.0,88298.0,88484.0,88565.0,0.041165226250088754,-0.1858484273469024,0.04162242272157636,-0.1393316786071463,0.007533520787514279
74,74,89381.09033561409,1299.5152692453312,12.307016982640654,89488.54796540085,-4965.163940036482,9.5965792335347,89517.71231902992,53730.06864981672,11.005683022870372,89544.45203459915,-9841.21692611743,6.9871704962930705,89782.75975844808,13402.290346855489,37.12205416524866,0.9871231141426526,110.0,75.0,80.0,271.0,351.0,35.0,1266.0,1258.0,35.0,16.0,19.0,0.4571428571428571,35.54516797525703,1304.360178838301,18.0,15.0,3.0,0.8333333333333334,991.002025991104,9390.59301904788,27.0,14.0,13.0,0.5185185185185185,2276.3835781592807,51815.98178486272,15.0,3.0,12.0,0.2,1518.4903684037674,22234.7932797309,88.0,44.0,44.0,0.5,103.68822703753273,14660.00622149748,0.0,0.0,0.0,0.0,89365.0,89400.0,89475.0,89492.0,89504.0,89531.0,89541.0,89555.0,89742.0,89826.0,0.027352635876221148,-0.19959099799307384,0.042367032750237246,-0.15429904449864051,0.007736605039440932
75,75,90624.0609817944,1541.2532499816575,12.248058339861563,90736.54796540084,-5524.73297739429,11.701066121673795,90765.18893713264,52409.6531640952,11.159827677590108,90792.02737610876,-10609.910875538624,7.658732290112323,91030.78327614158,13119.105105719898,35.07966729986745,0.986616099016161,113.0,81.0,81.0,269.0,350.0,32.0,1241.0,1247.0,34.0,16.0,18.0,0.4705882352941176,48.23945428641471,1536.321706861736,20.0,17.0,3.0,0.85,1026.6555537136894,9466.523898658415,26.0,13.0,13.0,0.5,2228.7138702142456,51921.97697218422,16.0,4.0,12.0,0.25,1459.3468159327892,22358.255309313077,86.0,43.0,43.0,0.5,100.60432363724024,14147.228220014338,0.0,0.0,0.0,0.0,90609.0,90641.0,90722.0,90740.0,90752.0,90778.0,90788.0,90803.0,90990.0,91072.0,0.0312988500020933,-0.18582899081539064,0.04252487348535045,-0.1375456243744087,0.0076685355309316795
76,76,91691.20821754796,1188.2324069768483,11.135827098163244,91804.54796540084,-5165.72357851399,12.093985951200084,91833.38098207608,53093.483135022274,11.108929659529863,91860.45203459916,-10365.936624428285,7.4000700808981135,92096.53652948124,13217.169465209176,34.347363856061534,0.9836456409607914,113.0,84.0,81.0,267.0,348.0,29.0,1068.0,1069.0,29.0,14.0,15.0,0.4827586206896552,42.78946091739949,1202.4022617159517,20.0,17.0,3.0,0.85,1006.1307126068732,9434.12463568269,27.0,13.0,14.0,0.4814814814814814,2239.8934859471233,53244.03284108208,16.0,4.0,12.0,0.25,1490.2161908086262,22546.7602596738,84.0,42.0,42.0,0.5,102.9989370597758,14270.429145878828,0.0,0.0,0.0,0.0,91677.0,91706.0,91790.0,91808.0,91820.0,91847.0,91857.0,91871.0,92057.0,92138.0,0.0360110199538037,-0.1947705287196773,0.0421877291465478,-0.1437608818962673,0.00779281353173947
77,77,92923.94981442904,1487.3098245656324,13.182298122412536,93037.972626301,-5353.243683066637,11.056938727708449,93066.86344525903,53566.942089381635,11.103798376544644,93093.6537616717,-10373.815763813862,7.368918706640801,93332.50537767922,12913.880454291872,34.97993570580606,0.984656847491025,116.0,81.0,81.0,269.0,350.0,35.0,1233.0,1233.0,35.0,16.0,19.0,0.4571428571428571,45.54039294451244,1512.555307318425,19.0,15.0,4.0,0.7894736842105263,977.5022748293744,8628.684297825002,26.0,13.0,13.0,0.5,2277.5108354493887,52170.03362312005,15.0,4.0,11.0,0.2666666666666666,1448.656853574713,21804.08381444216,85.0,43.0,42.0,0.5058823529411764,97.18488804438044,13910.092512453612,0.0,0.0,0.0,0.0,92908.0,92943.0,93024.0,93042.0,93054.0,93080.0,93090.0,93105.0,93292.0,93374.0,0.030619304863270486,-0.18259999594664567,0.04251709630258791,-0.13964551584075216,0.0075256146584570145
78,78,94126.77896900736,1372.838035007955,11.269639525004989,94240.54796540084,-5419.827476478927,13.64751066471996,94269.16127186207,52838.20512214405,11.10852461948153,94296.30432965123,-10611.961343249408,7.658448762334977,94534.39773328062,12963.209698557985,34.44762412200705,0.984300490792251,114.0,84.0,81.0,269.0,350.0,30.0,1202.0,1202.0,30.0,15.0,15.0,0.5,48.57389043832066,1362.556950210188,21.0,17.0,4.0,0.8095238095238095,1022.0973048147738,9204.580066431912,26.0,13.0,13.0,0.5,2236.611743434553,52164.88808848329,16.0,4.0,12.0,0.25,1467.2143776608173,22591.555934456937,85.0,42.0,43.0,0.4941176470588235,101.69134719060494,13930.07140603515,0.0,0.0,0.0,0.0,94112.0,94142.0,94226.0,94244.0,94256.0,94282.0,94292.0,94307.0,94495.0,94576.0,0.03538209839738246,-0.18858484135343637,0.0423294420819985,-0.1382604336939238,0.007844611755522014
79,79,95222.2684368157,1613.5158489726066,13.24789017938866,95336.972626301,-5299.950440424921,12.485328407864694,95366.15345718576,53171.46906130839,11.089852170774533,95393.15277529469,-10647.666421185651,7.540502201805719,95630.06490062816,13039.986516342047,33.97785224866,0.9844433842438688,116.0,83.0,81.0,267.0,348.0,33.0,1096.0,1097.0,33.0,15.0,18.0,0.4545454545454545,51.66631372235436,1682.695742490651,19.0,15.0,4.0,0.7894736842105263,936.6793262974182,7746.603884726765,26.0,13.0,13.0,0.5,2257.189212947243,52543.608886954506,16.0,4.0,12.0,0.25,1477.4410800250378,22573.964830305165,84.0,42.0,42.0,0.5,102.99214151431212,14052.50721840544,0.0,0.0,0.0,0.0,95207.0,95240.0,95323.0,95341.0,95353.0,95379.0,95389.0,95404.0,95591.0,95671.0,0.03202095210608094,-0.17673360096973292,0.04245113503154544,-0.13875726582543707,0.007898178528424069
80,80,96478.44324891071,1552.046951699875,13.257465619433766,96590.972626301,-5278.628978329082,11.016847436497732,96619.93244481806,53286.10643021108,11.061884347256177,96646.73449874036,-10519.295500877864,7.422767032050149,96885.42341922288,13254.578098677674,35.90142780577844,0.9862572965706464,114.0,80.0,81.0,270.0,351.0,34.0,1255.0,1254.0,34.0,15.0,19.0,0.4411764705882353,49.00359786086222,1610.456445770224,19.0,15.0,4.0,0.7894736842105263,961.5910525139022,8407.990466897101,26.0,13.0,13.0,0.5,2276.3065318587182,52030.04388996432,15.0,4.0,11.0,0.2666666666666666,1453.5129586712817,22004.70600502033,88.0,44.0,44.0,0.5,101.37204083836968,14289.904847721407,0.0,0.0,0.0,0.0,96463.0,96497.0,96577.0,96595.0,96607.0,96633.0,96643.0,96658.0,96844.0,96928.0,0.031573527983281155,-0.1821668195400026,0.04271857495987254,-0.13817588435936437,0.007648077523379106
81,81,97532.30687719025,1347.5443102470676,10.569280968279198,97647.54796540084,-5339.69851001508,15.287792405103064,97676.3009996362,52898.86920990143,11.067156900943862,97703.733096361,-11086.903891130434,7.920927958551414,97938.82010981742,13397.09814817024,33.5083432890591,0.9830268525534666,113.0,86.0,83.0,264.0,347.0,27.0,1055.0,1057.0,27.0,13.0,14.0,0.4814814814814814,52.73268808676398,1380.9926644354528,21.0,17.0,4.0,0.8095238095238095,1001.6602643352818,8668.494375814244,26.0,13.0,13.0,0.5,2235.9752529636608,52249.75613457791,16.0,5.0,11.0,0.3125,1400.5458921078612,22140.988010652844,82.0,41.0,41.0,0.5,102.50793790398583,14350.561833429723,0.0,0.0,0.0,0.0,97519.0,97546.0,97632.0,97651.0,97663.0,97689.0,97699.0,97715.0,97900.0,97979.0,0.03913243348346417,-0.187587419487557,0.042268866733074485,-0.12632434680238397,0.007651503091957734
82,82,98603.9452157355,1419.3375960628516,11.348805846869462,98718.54796540084,-5167.540046038916,13.831798195735155,98747.62309878836,53473.26635301229,11.09200001656808,98774.65248972422,-10585.082904341163,7.446370130496284,99010.59272130378,13265.743997420212,34.33800886801217,0.9842928644315632,115.0,85.0,82.0,265.0,347.0,30.0,1071.0,1071.0,30.0,15.0,15.0,0.5,49.974179993430766,1418.4417444716587,21.0,17.0,4.0,0.8095238095238095,982.098130693327,8738.44037712021,26.0,13.0,13.0,0.5,2263.334304073129,51125.2263842664,15.0,4.0,11.0,0.2666666666666666,1434.2425639615944,21829.016154546636,83.0,42.0,41.0,0.5060240963855421,101.67903341246372,14295.1255426242,0.0,0.0,0.0,0.0,98589.0,98619.0,98704.0,98722.0,98735.0,98761.0,98771.0,98786.0,98971.0,99051.0,0.03520950909216795,-0.19005138265858945,0.04232646438935237,-0.13549658296709058,0.007664781819416781
83,83,99957.77761209777,1311.119614597265,11.080346949436782,100069.54796540084,-5236.3616889481455,14.072223734691898,100098.50255705492,53376.846859207086,11.07467581450083,100125.7245395531,-10663.705775699204,7.57282055507311,100365.14306846666,13062.148879078282,35.097598211088005,0.9845643220124192,111.0,83.0,82.0,270.0,352.0,28.0,1354.0,1351.0,28.0,14.0,14.0,0.5,49.20467644160704,1326.0299853699053,21.0,17.0,4.0,0.8095238095238095,993.0540130984216,8727.831217238558,27.0,14.0,13.0,0.5185185185185185,2262.4748864081857,50607.150355190286,15.0,4.0,11.0,0.2666666666666666,1421.548652039416,21890.937620644487,86.0,43.0,43.0,0.5,101.16327392918916,14096.36306268976,0.0,0.0,0.0,0.0,99944.0,99972.0,100055.0,100073.0,100085.0,100112.0,100122.0,100137.0,100325.0,100407.0,0.03752874710574838,-0.18964580219780452,0.04238682161904299,-0.1333071900088323,0.007744765035653739
84,84,101087.9847037079,1269.2633480661395,11.30010876154092,101202.54796540084,-5127.936071382508,15.287792389820035,101231.5174857624,53410.69053657947,11.076939154065062,101258.79275911389,-10610.855006903628,7.542794631561506,101495.44726314444,13221.914912740524,33.28486524084887,0.9826225382246682,113.0,84.0,83.0,266.0,349.0,29.0,1130.0,1133.0,29.0,14.0,15.0,0.4827586206896552,46.00015771027755,1295.4335932742902,21.0,17.0,4.0,0.8095238095238095,987.1523884383496,8654.648610355456,26.0,13.0,13.0,0.5,2249.6433720306463,50544.45112148189,15.0,4.0,11.0,0.2666666666666666,1421.202167052052,21874.96600799203,82.0,40.0,42.0,0.4878048780487805,104.60727363731252,14182.695862187324,0.0,0.0,0.0,0.0,101074.0,101103.0,101187.0,101206.0,101219.0,101245.0,101255.0,101270.0,101457.0,101536.0,0.03624161824286802,-0.19250481571861916,0.04211972077930596,-0.13393851542852958,0.0079116583586931
85,85,102254.8722241674,1657.1334418092297,13.12815891089812,102368.54796540084,-5085.760120031776,12.261685282206704,102397.36160740876,53638.6228385676,11.074417775948266,102424.45203459916,-10495.944510099896,7.265679153893303,102660.78808142508,13354.40720226281,35.28259459654812,0.9823259177404136,114.0,83.0,81.0,268.0,349.0,31.0,1168.0,1166.0,31.0,15.0,16.0,0.4838709677419355,57.81714335252226,1727.821646286628,20.0,17.0,3.0,0.85,1008.4450008834256,9591.686362906392,27.0,13.0,14.0,0.4814814814814814,2263.961085292214,53750.18346363899,16.0,4.0,12.0,0.25,1512.1860908399722,22716.16358140012,86.0,43.0,43.0,0.5,101.50900031040813,14398.758077528606,0.0,0.0,0.0,0.0,102240.0,102271.0,102354.0,102372.0,102384.0,102411.0,102421.0,102435.0,102620.0,102703.0,0.034889853703874624,-0.19828796032108664,0.042207666145827404,-0.14407336942233698,0.007601161082852719
86,86,103441.63716399897,1157.9972903580594,9.026075241662076,103555.972626301,-5223.355034158867,17.83575780602179,103584.7090975834,53221.31309101929,11.006219523722264,103612.3194529922,-10971.446652155451,7.871891757259645,103849.37683243044,13156.289563564616,33.644849272142494,0.982978817470104,112.0,87.0,82.0,267.0,349.0,25.0,1187.0,1187.0,25.0,13.0,12.0,0.52,51.34909428850066,1138.314933095472,20.0,16.0,4.0,0.8,963.2787980912856,7531.239523908871,26.0,13.0,13.0,0.5,2237.9312167156077,50370.134889650006,16.0,4.0,12.0,0.25,1434.6984067815977,22729.35279704709,83.0,41.0,42.0,0.4939759036144578,101.74524673743367,14088.41631304496,0.0,0.0,0.0,0.0,103429.0,103454.0,103541.0,103560.0,103572.0,103598.0,103608.0,103623.0,103810.0,103890.0,0.04434301765302337,-0.1844176380490677,0.04204953028664079,-0.13076656636704664,0.0077335821962454905
87,87,104611.32626262771,1323.9188502180684,12.319514740495867,104724.54796540084,-5316.4156700390195,12.408086175463138,104753.42974083454,53187.808492353135,11.05938549276433,104780.45203459916,-10428.440196556938,7.390111963170985,105017.85549509876,13209.539392503004,34.02788997368608,0.9828407756287858,114.0,83.0,81.0,268.0,349.0,31.0,1169.0,1169.0,31.0,15.0,16.0,0.4838709677419355,45.9137804983928,1366.3537864645348,21.0,17.0,4.0,0.8095238095238095,1001.9033468468226,9033.548958469632,27.0,13.0,14.0,0.4814814814814814,2256.0063600941708,53465.53583401519,16.0,4.0,12.0,0.25,1498.0746991643618,22680.024712970313,84.0,42.0,42.0,0.5,104.3214233292713,14228.4999969622,0.0,0.0,0.0,0.0,104596.0,104627.0,104710.0,104728.0,104740.0,104767.0,104777.0,104791.0,104979.0,105059.0,0.034680207545069806,-0.18845466739801955,0.042415854761500824,-0.14365280626137814,0.007897430805837054
88,88,105834.07827891262,1275.907221966154,10.808235099560164,105947.54796540084,-5505.071790757708,11.81667219573364,105976.20537105564,52828.20495750614,11.136338685255618,106003.1315162422,-10782.465279222277,7.655865408770144,106241.21144069178,13192.967957301798,34.47484007129504,0.9843159910629145,113.0,84.0,81.0,268.0,349.0,29.0,1223.0,1222.0,29.0,14.0,15.0,0.4827586206896552,46.870977152295715,1288.7531504016522,20.0,17.0,3.0,0.85,1029.8675476661858,9468.79767696419,26.0,13.0,13.0,0.5,2247.6951032167935,52380.2832423818,16.0,4.0,12.0,0.25,1478.0076775398322,22691.436256711248,85.0,42.0,43.0,0.4941176470588235,100.76184336767874,14124.99197548878,0.0,0.0,0.0,0.0,105820.0,105849.0,105933.0,105951.0,105963.0,105989.0,105999.0,106014.0,106201.0,106282.0,0.036735411748879544,-0.1870761339380166,0.04254725491855706,-0.13707511587242863,0.007637541733883387
89,89,106960.07740981792,1614.583767044187,13.16891091870294,107075.972626301,-5296.182366076462,11.330666665201388,107104.93084702067,52824.728377834224,11.117876986930051,107131.71482380162,-10419.828920512991,7.475639477632854,107368.43675248513,13493.45493391433,35.15214125866332,0.9847232136014678,117.0,85.0,81.0,267.0,348.0,32.0,1127.0,1129.0,32.0,15.0,17.0,0.46875,54.14587187737344,1700.132475975296,19.0,15.0,4.0,0.7894736842105263,958.8813579673294,8350.588472994612,26.0,13.0,13.0,0.5,2247.3502175997187,51577.12578590035,15.0,4.0,11.0,0.2666666666666666,1438.3194671837605,21826.464665316285,86.0,43.0,43.0,0.5,105.45782268459176,14547.1040578432,0.0,0.0,0.0,0.0,106945.0,106977.0,107062.0,107080.0,107092.0,107118.0,107128.0,107143.0,107328.0,107410.0,0.0335354987350691,-0.18105142377823585,0.04254352623501097,-0.13803676414995775,0.007815479667815468
90,90,108251.62803208928,1506.7817945074175,12.048463870658075,108364.972626301,-5237.169237577224,13.633821930288258,108393.81801457328,53572.22551948133,11.072505486092496,108420.83765405005,-10678.257715862092,7.494460770039623,108660.19175269024,13150.156841404858,34.59388040815582,0.9835458866162003,113.0,82.0,82.0,270.0,352.0,31.0,1291.0,1289.0,31.0,15.0,16.0,0.4838709677419355,51.96005922944699,1526.913568403194,20.0,16.0,4.0,0.8,962.7554313105398,8267.611639295528,26.0,13.0,13.0,0.5,2276.2535071320763,51843.96207564151,15.0,4.0,11.0,0.2666666666666666,1455.3865459189751,22222.80593433755,85.0,42.0,43.0,0.4941176470588235,104.49894661610207,14188.769069025806,0.0,0.0,0.0,0.0,108237.0,108268.0,108350.0,108369.0,108381.0,108407.0,108417.0,108432.0,108620.0,108702.0,0.03448412996417525,-0.1838312622022354,0.04248943337820314,-0.13629438290827736,0.007946593175761563
91,91,109364.0392024347,1087.6237747568605,9.444369712771753,109477.972626301,-5269.319718718627,17.835757806030454,109506.93422011046,53418.51797592048,11.015250313779315,109534.4833005112,-10966.662104730773,7.819036031379276,109771.35317514164,13097.697684307255,33.2095034302127,0.9828401155691698,111.0,85.0,84.0,266.0,350.0,26.0,1112.0,1113.0,26.0,13.0,13.0,0.5,46.46627864812084,1103.157019989274,21.0,17.0,4.0,0.8095238095238095,943.2909783658672,7221.22791510648,26.0,13.0,13.0,0.5,2241.3123489354307,51274.30654482014,16.0,4.0,12.0,0.25,1461.0421015792065,23013.841657559347,83.0,41.0,42.0,0.4939759036144578,107.4282644627155,14094.36565072876,0.0,0.0,0.0,0.0,109351.0,109377.0,109462.0,109482.0,109494.0,109520.0,109530.0,109546.0,109732.0,109812.0,0.04272275002310282,-0.17901570387064178,0.04195759137207344,-0.13322577896778143,0.008202072383410447
92,92,110427.73265880892,1409.110763996306,12.314699395249008,110541.972626301,-5295.470989665897,11.87295244549026,110571.0118491146,53269.50399781887,11.088008810191573,110597.86082554524,-10508.641300746864,7.433865038956445,110833.92926865576,13347.53844458649,34.57063465202646,0.983692260055896,115.0,84.0,81.0,266.0,347.0,31.0,1063.0,1064.0,31.0,15.0,16.0,0.4838709677419355,47.10223214585395,1410.9842482220186,19.0,15.0,4.0,0.7894736842105263,953.0319040099748,8130.486156100731,26.0,13.0,13.0,0.5,2266.3530399867254,52277.663850117024,15.0,4.0,11.0,0.2666666666666666,1460.4522260870046,22153.85390311571,84.0,42.0,42.0,0.5,99.2574891883898,14305.874967172796,0.0,0.0,0.0,0.0,110413.0,110444.0,110528.0,110546.0,110558.0,110584.0,110594.0,110609.0,110794.0,110875.0,0.033426919550504135,-0.17997113115524851,0.04254503740225405,-0.13897631333017413,0.007436389084059673
93,93,111678.31019910693,1136.6732654520904,9.334979477281909,111791.972626301,-4926.809752540667,17.835757805198526,111820.53273656363,53827.01217259076,10.991141626908265,111848.06176389252,-10682.702630800482,7.495860615801236,112086.47391093356,13146.545761494786,34.155899725442964,0.983938006217069,111.0,86.0,82.0,269.0,351.0,25.0,1250.0,1250.0,25.0,12.0,13.0,0.48,50.19955485701185,1173.6539924838248,21.0,17.0,4.0,0.8095238095238095,978.4933308354888,8304.584863473196,26.0,13.0,13.0,0.5,2253.234747459,50568.23045161489,15.0,4.0,11.0,0.2666666666666666,1429.8885380192703,22117.880616550257,85.0,42.0,43.0,0.4941176470588235,100.89695252825273,14090.366560405086,0.0,0.0,0.0,0.0,111666.0,111691.0,111777.0,111796.0,111808.0,111834.0,111844.0,111859.0,112047.0,112128.0,0.04416357486603322,-0.19860586870254068,0.04186066914199576,-0.13385082290848388,0.007674788066670112
94,94,112788.46855470297,1334.5528950029009,10.82618181939751,112903.972626301,-5010.676723879498,15.796782603484411,112932.65935416296,53650.02954643256,11.049965363369507,112959.88284494204,-10613.7036004052,7.4385635861212736,113195.97304112304,13295.514560287556,33.96860880591924,0.982317989255442,114.0,87.0,82.0,266.0,348.0,27.0,1112.0,1112.0,27.0,13.0,14.0,0.4814814814814814,52.08246700479776,1380.556525083523,20.0,16.0,4.0,0.8,971.0060576007749,8345.9193896872,26.0,13.0,13.0,0.5,2256.9534701206226,51146.07707490359,15.0,4.0,11.0,0.2666666666666666,1440.7841518856362,22045.024789060182,84.0,42.0,42.0,0.5,103.66110658573852,14301.101670808244,0.0,0.0,0.0,0.0,112775.0,112802.0,112889.0,112908.0,112920.0,112946.0,112956.0,112971.0,113157.0,113237.0,0.039026154152312226,-0.19378740858958807,0.04206807506354296,-0.13574753979662962,0.007796697609234654
95,95,114129.77179139345,1472.2560629073478,11.564172933184858,114244.54796540084,-5113.864025734801,14.19392117907715,114273.48772870316,53658.421188686334,11.030832612133372,114300.53138820406,-10464.017363069192,7.35612531898774,114540.16056272815,13021.504752424617,34.78175442517537,0.9846963316871308,115.0,85.0,81.0,271.0,352.0,30.0,1340.0,1341.0,30.0,15.0,15.0,0.5,53.16793406597387,1480.689111830441,21.0,17.0,4.0,0.8095238095238095,989.5427239973112,8842.695412571735,27.0,13.0,14.0,0.4814814814814814,2265.8167478876053,53901.5401389488,15.0,4.0,11.0,0.2666666666666666,1419.7420596685197,21531.09007658729,86.0,43.0,43.0,0.5,100.403431063442,13984.31988031016,0.0,0.0,0.0,0.0,114115.0,114145.0,114230.0,114248.0,114260.0,114287.0,114297.0,114311.0,114500.0,114582.0,0.03611323831873385,-0.19350196231608366,0.04222667565860741,-0.13567848852002443,0.007710585909416251
96,96,115388.57526407827,1438.7189831870846,11.047772728088011,115502.54796540084,-5342.159810270352,15.287792405030864,115531.05879932296,53184.414072356085,11.06777929883022,115558.41294200189,-10807.8840684508,7.721889190583193,115797.31191965895,13366.348029524195,34.00050829708531,0.9828454910418276,112.0,84.0,82.0,269.0,351.0,28.0,1259.0,1257.0,30.0,15.0,15.0,0.5,52.6609022488573,1420.25000381833,22.0,18.0,4.0,0.8181818181818182,1028.1548554475346,9180.45946962012,26.0,13.0,13.0,0.5,2243.23041943113,51932.34310936328,16.0,4.0,12.0,0.25,1470.043121751147,22863.499239639223,83.0,41.0,42.0,0.4939759036144578,100.61118438901218,14305.869243984962,0.0,0.0,0.0,0.0,115375.0,115403.0,115487.0,115506.0,115518.0,115544.0,115554.0,115569.0,115758.0,115838.0,0.03660263252536059,-0.1924605200823265,0.04217834225604648,-0.13601581146140687,0.007527200710828241
97,97,116606.64593419307,1483.3679682532184,12.19274100137102,116720.54796540084,-5358.675434468006,12.733520113775738,116749.349345693,53463.25637927868,11.075049139031886,116776.45203459916,-10445.83110882144,7.347986984465084,117014.64396583676,13348.307869625884,34.339013150595235,0.9820481286702136,114.0,84.0,81.0,269.0,350.0,30.0,1218.0,1219.0,31.0,15.0,16.0,0.4838709677419355,51.687714087148066,1496.8074933117568,21.0,17.0,4.0,0.8095238095238095,1014.4947284040616,9184.073405992409,27.0,13.0,14.0,0.4814814814814814,2260.453926753861,53542.99279482436,16.0,4.0,12.0,0.25,1500.8115744917388,22664.730793549876,84.0,42.0,42.0,0.5,100.74418469723447,14330.105296992118,0.0,0.0,0.0,0.0,116592.0,116622.0,116706.0,116724.0,116736.0,116763.0,116773.0,116787.0,116975.0,117056.0,0.034844836340921115,-0.1893181889462163,0.04228051338133547,-0.14367565001355542,0.007547337511331918
98,98,117739.0342899452,1408.701382757699,10.886570844145016,117854.54796540084,-5382.655833291879,13.13011273472738,117883.26744818216,53106.34142694972,11.097508243623588,117910.45203459916,-10814.693510446894,7.540706343914825,118147.53501206113,13360.486509369268,34.751129053231516,0.9832350870956766,115.0,87.0,81.0,268.0,349.0,28.0,1133.0,1134.0,28.0,14.0,14.0,0.5,53.45182971976898,1424.354201148438,21.0,17.0,4.0,0.8095238095238095,1015.749328846754,9216.056445813088,26.0,13.0,13.0,0.5,2249.777034566566,52813.58212835335,16.0,4.0,12.0,0.25,1498.6750651801951,22948.729621223356,85.0,43.0,42.0,0.5058823529411764,103.0253625073486,14403.436435587331,0.0,0.0,0.0,0.0,117725.0,117753.0,117840.0,117858.0,117870.0,117896.0,117907.0,117921.0,118108.0,118189.0,0.03794404575306849,-0.18870783499927962,0.04236362314020897,-0.13857767339707674,0.0077111984234331825
99,99,118780.63264672876,957.9257269159028,8.788763949219064,118895.972626301,-5133.001547233756,17.835757805958444,118924.76462415323,53604.16840703922,11.03006763247996,118952.23822913972,-10861.079412228366,7.627033244736969,119188.04301575173,13200.265061479837,33.186756954210836,0.9809971527926864,112.0,88.0,83.0,265.0,348.0,24.0,1042.0,1041.0,24.0,13.0,11.0,0.5416666666666666,43.99341169847744,942.383429332679,22.0,18.0,4.0,0.8181818181818182,954.3275008680788,7827.385796223862,26.0,13.0,13.0,0.5,2243.819786347122,51026.508846666235,16.0,4.0,12.0,0.25,1450.6454510466194,22586.62059418248,82.0,41.0,41.0,0.5,100.97385492869932,14098.959211999503,0.0,0.0,0.0,0.0,118768.0,118792.0,118880.0,118900.0,118912.0,118938.0,118948.0,118963.0,119149.0,119228.0,0.045925702235930926,-0.18591997140199162,0.04185905411886712,-0.13356365384948335,0.007649380861552146
100,100,119965.77187951094,1412.8445532743751,11.551333096263626,120081.54796540084,-5410.611107653123,11.230950289102758,120110.1675315955,53445.37657470049,11.101471167915888,120137.027373699,-10486.637461270284,7.32148312844042,120374.46601395456,13385.724390494275,35.14763465542326,0.983635736891869,115.0,87.0,81.0,268.0,349.0,28.0,1184.0,1185.0,30.0,15.0,15.0,0.5,51.645485887939586,1418.9332895499292,19.0,16.0,3.0,0.8421052631578947,1040.637804567025,9845.135732011167,26.0,13.0,13.0,0.5,2269.3361435036827,53043.77842220036,15.0,4.0,11.0,0.2666666666666666,1484.1858855581029,22299.034743650256,86.0,42.0,44.0,0.4883720930232558,105.62426229656218,14460.56481054147,0.0,0.0,0.0,0.0,119952.0,119980.0,120067.0,120085.0,120097.0,120123.0,120133.0,120148.0,120334.0,120416.0,0.03655425911381916,-0.1923327668283308,0.042460850478466296,-0.14153115248234377,0.007890814065436017
101,101,121223.62160733803,1186.232468683136,9.365353361910667,121338.972626301,-5231.985410453724,17.83575780604837,121367.64259571882,53484.41591454888,11.01834532919988,121395.14818577217,-10882.381752335232,7.711953969990548,121633.45808594357,13128.802854475962,33.79441584552099,0.9825893346488822,112.0,87.0,83.0,268.0,351.0,25.0,1259.0,1258.0,25.0,13.0,12.0,0.52,50.6080970930071,1163.1252735932276,21.0,17.0,4.0,0.8095238095238095,967.8817854281912,7820.178364442274,26.0,13.0,13.0,0.5,2244.765262918704,50483.499233405986,16.0,4.0,12.0,0.25,1435.0737424856156,22476.6122227563,85.0,42.0,43.0,0.4941176470588235,101.23566426100145,14032.810472101408,0.0,0.0,0.0,0.0,121211.0,121236.0,121323.0,121343.0,121355.0,121381.0,121391.0,121406.0,121594.0,121674.0,0.04266288305966563,-0.18499321184923856,0.04197045484249331,-0.1318712920705677,0.007710959284188465
102,102,122520.80328493543,1717.1519705437215,12.765248982096184,122632.972626301,-5205.80923925042,12.373208492252946,122662.22113689072,53452.293355885515,11.085320922885794,122689.13152983264,-10478.447330978412,7.42107283544836,122928.76601033151,13417.34527299687,33.874603765364796,0.985228753377512,113.0,81.0,81.0,269.0,350.0,32.0,1297.0,1294.0,32.0,15.0,17.0,0.46875,57.87854673761129,1772.347007801581,19.0,15.0,4.0,0.7894736842105263,931.4979380135368,7814.827228131895,26.0,13.0,13.0,0.5,2262.9380707816676,53056.95243191001,16.0,4.0,12.0,0.25,1484.4620689249482,22472.36779168016,83.0,42.0,41.0,0.5060240963855421,102.41442002487668,14410.106850523602,0.0,0.0,0.0,0.0,122506.0,122538.0,122619.0,122637.0,122649.0,122675.0,122685.0,122700.0,122889.0,122969.0,0.033706129527536544,-0.1789343203339626,0.042335659121583796,-0.14166813288609034,0.007632986849566375
103,103,123816.97679100372,1579.6108557991518,10.998168731773522,123928.54796540084,-5213.319017310368,13.953228665388398,123957.35937166834,53333.03859586343,11.101814196245044,123984.4650408678,-10859.122360918624,7.632834461514592,124223.31829857489,13596.519645169814,34.99233252199302,0.9843886192534343,110.0,81.0,83.0,269.0,352.0,29.0,1295.0,1296.0,29.0,14.0,15.0,0.4827586206896552,58.526188305478634,1603.514480586415,22.0,18.0,4.0,0.8181818181818182,1003.0683677796716,9154.965740963446,27.0,13.0,14.0,0.4814814814814814,2252.7862549365577,53124.75252711445,16.0,4.0,12.0,0.25,1507.0478959423378,23174.0387416611,85.0,42.0,43.0,0.4941176470588235,104.77307546279904,14657.49742037996,0.0,0.0,0.0,0.0,123803.0,123832.0,123913.0,123932.0,123944.0,123971.0,123981.0,123996.0,124183.0,124265.0,0.037051016768221215,-0.19240494672378022,0.0422399757120024,-0.13878173998352936,0.007705874605934163
104,104,124941.2564269357,1402.3804172152395,12.13941358025688,125054.54796540084,-5345.68184217047,11.33891231206222,125083.38390874743,53038.64217791048,11.081836168039093,125110.45203459916,-10461.038069334818,7.383229266825926,125347.47094095248,13577.32688858984,34.70533406945158,0.9839132097923028,114.0,82.0,81.0,268.0,349.0,32.0,1124.0,1126.0,33.0,15.0,18.0,0.4545454545454545,46.9172780828422,1421.9820796965264,19.0,16.0,3.0,0.8421052631578947,1014.1352797921083,9315.032383829424,27.0,13.0,14.0,0.4814814814814814,2247.833187129492,53221.49340369058,16.0,4.0,12.0,0.25,1494.3944411207665,22628.950279216224,85.0,42.0,43.0,0.4941176470588235,109.9213929343837,14745.789467389262,0.0,0.0,0.0,0.0,124926.0,124958.0,125040.0,125058.0,125070.0,125097.0,125107.0,125121.0,125308.0,125389.0,0.03345545724034541,-0.189711118194858,0.042381047003229456,-0.1428533603659651,0.008095952453406703
105,105,126144.4755772684,1559.1278069912892,12.40996805703364,126258.54796540084,-5280.541863139182,12.960067864274787,126287.4992790282,53652.56254981377,11.077979107737336,126314.45203459916,-10557.820688633088,7.408462829441663,126553.03382280785,13442.798388897443,34.495493993499174,0.9830291967809556,114.0,83.0,81.0,269.0,350.0,31.0,1205.0,1204.0,31.0,14.0,17.0,0.4516129032258064,55.71809350756421,1658.8672068127444,20.0,16.0,4.0,0.8,1002.7618446822984,8973.925547959745,27.0,13.0,14.0,0.4814814814814814,2269.142736691867,54056.86809568479,16.0,4.0,12.0,0.25,1519.303362658652,22965.648109888396,84.0,42.0,42.0,0.5,104.77528846036566,14497.273926517057,0.0,0.0,0.0,0.0,126130.0,126161.0,126244.0,126262.0,126274.0,126301.0,126311.0,126325.0,126513.0,126594.0,0.0357367069317336,-0.18989752769163265,0.04229327787624458,-0.1439031223834277,0.007794157542889339
106,106,127318.75956949516,1284.9395283581043,9.679891627775891,127430.972626301,-5114.192882041117,17.83575780493562,127459.75427349612,53454.77013070696,10.995621287872634,127487.27048239084,-10867.762388636644,7.789397593145863,127725.40240617412,13198.078999633257,33.662399073569134,0.9839486181981558,110.0,84.0,82.0,268.0,350.0,26.0,1173.0,1172.0,28.0,14.0,14.0,0.5,51.16387900019268,1263.691812644978,20.0,16.0,4.0,0.8,960.2821577241448,7599.753997804176,26.0,13.0,13.0,0.5,2246.560495382589,50749.028330971574,16.0,4.0,12.0,0.25,1439.1079590142774,22666.247551160857,83.0,41.0,42.0,0.4939759036144578,105.37724352193996,14207.362999394478,0.0,0.0,0.0,0.0,127306.0,127332.0,127416.0,127435.0,127447.0,127473.0,127483.0,127498.0,127686.0,127766.0,0.03981812207580685,-0.1877680759942101,0.04202731561447793,-0.13241989542566848,0.007984286465088452
107,107,128406.40425210852,1192.5600519578563,10.093322654357712,128519.972626301,-4922.0563572425135,17.83575780604815,128549.26068106884,53992.34708332928,11.00875399059827,128576.53497082382,-10336.914000493964,7.24229036668255,128813.77832350798,13232.58024683305,33.80995933060763,0.9834383095350434,112.0,85.0,82.0,267.0,349.0,27.0,1088.0,1090.0,27.0,13.0,14.0,0.4814814814814814,49.03551705997207,1225.9026584566575,20.0,16.0,4.0,0.8,915.7650724380676,7151.722090433508,27.0,13.0,14.0,0.4814814814814814,2241.2398431412103,53045.53609197175,14.0,4.0,10.0,0.2857142857142857,1399.6828568645224,21184.03279936345,82.0,41.0,41.0,0.5,99.73182300209162,14175.627963377228,0.0,0.0,0.0,0.0,128393.0,128420.0,128505.0,128524.0,128536.0,128563.0,128573.0,128587.0,128775.0,128854.0,0.04111785983395068,-0.18605334965142642,0.04151032441101671,-0.1354062592372962,0.007536838707323193
108,108,129555.13935984018,1522.5793643127856,12.421854558448802,129669.972626301,-5256.620768336433,11.692594748602351,129698.95248542694,53447.1268075308,11.090587294968016,129725.77658109787,-10574.815098042987,7.3533516121921485,129963.29906720962,13442.190735173856,35.2909808209986,0.9848686117961584,116.0,85.0,81.0,268.0,349.0,31.0,1149.0,1149.0,31.0,15.0,16.0,0.4838709677419355,52.34829819454955,1553.536688701179,19.0,15.0,4.0,0.7894736842105263,959.8658477455662,8373.442163458976,26.0,13.0,13.0,0.5,2273.06333541835,52281.48764471603,15.0,4.0,11.0,0.2666666666666666,1466.5161803416115,22101.07323136676,86.0,43.0,43.0,0.5,101.59449554312486,14501.527727146273,0.0,0.0,0.0,0.0,129540.0,129571.0,129656.0,129674.0,129686.0,129712.0,129722.0,129737.0,129923.0,130005.0,0.03438132646581408,-0.18260131176427546,0.04252919607079928,-0.13868007778339408,0.007557882308371433
109,109,130685.85761750142,1337.4985176908972,9.792203152133675,130799.972626301,-5145.198127472433,17.835757791258374,130828.8050847476,53315.82716499266,10.98958027282558,130856.32228469916,-10988.316442214998,7.771079560364568,131093.48887495583,13034.677404585484,33.782846361865026,0.9812606379456188,112.0,86.0,82.0,267.0,349.0,26.0,1131.0,1130.0,26.0,13.0,13.0,0.5,54.61132971170673,1327.0345817970745,20.0,16.0,4.0,0.8,951.759727947642,7449.703757628973,26.0,13.0,13.0,0.5,2243.4203140479203,50762.42702521808,16.0,4.0,12.0,0.25,1448.2677350934491,22798.583866943995,84.0,42.0,42.0,0.5,100.62549117452994,13934.61740664142,0.0,0.0,0.0,0.0,130673.0,130699.0,130785.0,130804.0,130816.0,130842.0,130852.0,130867.0,131054.0,131134.0,0.040830945970683825,-0.184980190143852,0.04207794257989037,-0.1318006941927412,0.007719829808686388
110,110,131709.60150266072,1254.0066472768128,11.4071873615063,131823.54796540082,-5315.477963943732,12.829047918670872,131852.5764871077,53023.27511131535,11.123557850477477,131879.55714160466,-10680.763156364384,7.520961977791524,132115.12232044674,13158.42777617222,34.02701822214057,0.9820859472488448,114.0,84.0,82.0,265.0,347.0,30.0,1023.0,1024.0,30.0,15.0,15.0,0.5,44.44306590672429,1244.457869735622,21.0,17.0,4.0,0.8095238095238095,988.7885534309388,8822.339128017878,27.0,14.0,13.0,0.5185185185185185,2251.5073155998125,50598.80089110611,15.0,4.0,11.0,0.2666666666666666,1424.6299896483538,21754.782664879847,84.0,42.0,42.0,0.5,102.3626083915057,14163.124612317924,0.0,0.0,0.0,0.0,131695.0,131725.0,131809.0,131827.0,131839.0,131866.0,131876.0,131891.0,132076.0,132156.0,0.03544085352596525,-0.18602062883867612,0.04246262251573617,-0.13338279004899142,0.007779243092922377
111,111,132882.3969087979,1484.6001444047297,11.304998931889198,132996.97262630097,-5176.7629941795085,15.63890942575264,133025.3631355464,53724.96579708076,11.027067383166758,133052.60948001296,-10888.272403801238,7.582567404201701,133290.63356319332,13163.588387868484,34.241674867963965,0.9831450750463284,114.0,85.0,82.0,268.0,350.0,29.0,1173.0,1173.0,29.0,14.0,15.0,0.4827586206896552,55.90060540002214,1545.3470640149048,21.0,17.0,4.0,0.8095238095238095,997.690872973021,8738.281370008906,27.0,13.0,14.0,0.4814814814814814,2265.288378360527,53302.10575491105,16.0,5.0,11.0,0.3125,1420.212158722734,21957.00799463307,85.0,43.0,42.0,0.5058823529411764,98.2473083063401,14097.768201773482,0.0,0.0,0.0,0.0,132868.0,132897.0,132982.0,133001.0,133012.0,133039.0,133049.0,133064.0,133251.0,133332.0,0.03765364405406025,-0.1927248502770504,0.04216453830639042,-0.130435031936464,0.007463565815905067
112,112,134002.28526738472,815.0242960443585,8.674931705191028,134110.97262630097,-5411.605633162823,15.273570105044366,134139.3144338304,52934.4112354888,11.08916578483154,134166.6903114312,-10915.741558643029,7.794587645338826,134402.86860867642,13143.373909653668,34.89605383451855,0.983916422309518,106.0,79.0,83.0,267.0,350.0,27.0,1120.0,1114.0,27.0,13.0,14.0,0.4814814814814814,32.049849536491045,793.8789217635406,21.0,17.0,4.0,0.8095238095238095,1001.3362461823016,8580.02929386561,27.0,13.0,14.0,0.4814814814814814,2230.733791914906,52397.00036818982,16.0,5.0,11.0,0.3125,1399.0132784923935,21924.285668902005,86.0,43.0,43.0,0.5,100.32320290501866,14127.797139062464,0.0,0.0,0.0,0.0,133989.0,134016.0,134095.0,134115.0,134126.0,134152.0,134163.0,134178.0,134363.0,134445.0,0.03932379647090509,-0.18503496264510108,0.04214146790055078,-0.12816474913558776,0.007632987054513631
113,113,135121.5615488052,1386.274539990946,12.3605521126892,135234.97262630097,-5317.6803698957165,12.751582662699663,135263.94939953013,53193.41774734646,11.10812923978042,135290.8545905765,-10485.838313404549,7.461137223806209,135528.50180053833,13155.459754003065,34.33566162801157,0.985002533658984,114.0,81.0,82.0,267.0,349.0,33.0,1119.0,1124.0,33.0,16.0,17.0,0.4848484848484848,44.57079985171429,1375.6579945676422,20.0,16.0,4.0,0.8,952.697649026008,8123.606239703637,26.0,13.0,13.0,0.5,2257.1757734611533,51992.407189226346,15.0,4.0,11.0,0.2666666666666666,1452.095060643063,22070.264326775927,83.0,42.0,41.0,0.5060240963855421,101.03182622247228,14164.9555716768,0.0,0.0,0.0,0.0,135106.0,135139.0,135220.0,135239.0,135251.0,135277.0,135287.0,135302.0,135489.0,135569.0,0.03215149565684542,-0.1791566214508472,0.04243336617665918,-0.1384815421754864,0.007679840014084599
114,114,136279.25994696683,996.5708455646256,8.100333083208458,136394.97262630097,-5292.197255359806,17.835757806048314,136423.70939935968,53757.37562135323,11.006384429436984,136451.19530316716,-11049.364564308267,7.722536421995042,136688.82496639306,13003.174117905592,33.197713028012686,0.9818669436998396,111.0,89.0,83.0,267.0,350.0,22.0,1158.0,1160.0,22.0,11.0,11.0,0.5,50.48553962179701,1022.7665952905976,21.0,17.0,4.0,0.8095238095238095,967.6374037063426,7666.059114382048,26.0,13.0,13.0,0.5,2260.6866609963445,50933.64460229062,16.0,4.0,12.0,0.25,1453.1021256551,22780.54209205505,82.0,41.0,41.0,0.5,103.14239245361532,13958.781124344105,0.0,0.0,0.0,0.0,136268.0,136290.0,136379.0,136399.0,136411.0,136437.0,136447.0,136462.0,136650.0,136729.0,0.05065925804120177,-0.18284227836109915,0.04205351609646595,-0.13151001735872853,0.007932093465670547
115,115,137451.38848914008,1022.5230187110648,8.327875053205098,137565.97262630097,-5109.604184466754,17.8357578060484,137594.8433401211,53620.36826048653,11.071830591659102,137622.22174551678,-10625.12094783311,7.622893337391499,137859.8671838364,12903.90785791932,32.95195304316357,0.9804497181776624,109.0,86.0,84.0,267.0,351.0,23.0,1172.0,1171.0,23.0,11.0,12.0,0.4782608695652174,50.26060889440694,1062.7535805559437,22.0,18.0,4.0,0.8181818181818182,945.2284386479582,7904.178579274375,26.0,13.0,13.0,0.5,2235.528139753723,51325.1967059371,16.0,4.0,12.0,0.25,1446.743843591059,22413.505325124137,82.0,41.0,41.0,0.5,97.23380128016215,13747.451965381988,0.0,0.0,0.0,0.0,137440.0,137463.0,137549.0,137570.0,137582.0,137608.0,137618.0,137633.0,137821.0,137900.0,0.04915352317228286,-0.1849905402695304,0.04169177147187013,-0.13616257647270438,0.007535221295034924
116,116,138653.1858793758,1385.1616878182494,11.577457112609196,138767.97262630097,-5315.916008952497,12.343822626113216,138796.92258639084,53157.27756719289,11.071609946412076,138823.79603591177,-10678.371897494975,7.477811910913001,139061.61912369664,13185.546083910527,34.72512393173611,0.9833865795713892,115.0,86.0,81.0,268.0,349.0,29.0,1202.0,1202.0,29.0,14.0,15.0,0.4827586206896552,50.85473153707121,1419.1134091916351,19.0,15.0,4.0,0.7894736842105263,957.2395189231509,8090.357966818234,26.0,13.0,13.0,0.5,2268.9115202194134,51835.572153874666,15.0,4.0,11.0,0.2666666666666666,1456.9935109241194,22188.92927557232,85.0,43.0,42.0,0.5058823529411764,98.83017389330332,14155.154517955683,0.0,0.0,0.0,0.0,138639.0,138668.0,138754.0,138772.0,138784.0,138810.0,138820.0,138835.0,139022.0,139103.0,0.03671393165455785,-0.18007047464840875,0.042682989499441916,-0.13644341336958993,0.007495341737411954
117,117,139786.20976126834,1266.2038787646875,10.572583788422104,139900.97262630097,-5368.428568777156,14.280326587301698,139929.8045025128,52707.85950969407,11.098656546015471,139957.1148514428,-10729.585583793028,7.6751813671027636,140193.79432792802,13280.007633644784,34.03479849299165,0.9826252902034336,114.0,86.0,82.0,267.0,349.0,28.0,1133.0,1133.0,29.0,14.0,15.0,0.4827586206896552,47.690439122671606,1282.0932197082516,20.0,16.0,4.0,0.8,961.059701597846,7822.08381869526,26.0,13.0,13.0,0.5,2230.5559325538543,50876.886225395385,16.0,4.0,12.0,0.25,1437.7503408264831,22318.91403288635,84.0,42.0,42.0,0.5,104.19067863543582,14270.811899621534,0.0,0.0,0.0,0.0,139772.0,139800.0,139886.0,139905.0,139917.0,139943.0,139953.0,139968.0,140154.0,140235.0,0.03766410759158197,-0.1790206741666231,0.042319228162616025,-0.13399868332269943,0.007845679122312373
118,118,140924.69496499235,1376.9583032212297,11.74028353701311,141040.54796540082,-5327.0595740395665,12.72838190007302,141069.40414665852,53348.45578824928,11.070450887073678,141096.45203459918,-10367.79765984086,7.306038798540359,141333.68058827013,13076.474659325091,34.332829375705515,0.9824347565821024,116.0,87.0,81.0,268.0,349.0,29.0,1139.0,1140.0,30.0,15.0,15.0,0.5,49.543168954101915,1377.234181387688,21.0,17.0,4.0,0.8095238095238095,1006.894037023692,9083.49016243496,27.0,13.0,14.0,0.4814814814814814,2255.3881956828163,53567.91824721295,16.0,4.0,12.0,0.25,1499.6540462812166,22592.37403818578,84.0,42.0,42.0,0.5,101.06413257572736,14074.951059489184,0.0,0.0,0.0,0.0,140910.0,140939.0,141026.0,141044.0,141056.0,141083.0,141093.0,141107.0,141294.0,141375.0,0.035980151932125747,-0.1890149759035177,0.042276541323612145,-0.14464538135134047,0.007728698690488154
119,119,142202.27098245523,1347.4869841439588,10.116622676598086,142316.97262630097,-5526.65256091308,13.612942399478827,142345.75003864343,52774.366913165475,11.1006404942564,142372.92553650957,-10994.179224094843,7.765014800347662,142612.31783994142,12911.875325161673,34.265978373374395,0.9842518755209204,113.0,87.0,82.0,269.0,351.0,26.0,1277.0,1276.0,26.0,13.0,13.0,0.5,56.64556194217081,1385.2535616082168,20.0,16.0,4.0,0.8,970.4940497000312,7907.217964287965,26.0,13.0,13.0,0.5,2249.5021946201637,50775.119668838866,15.0,4.0,11.0,0.2666666666666666,1442.4547254189551,22471.857807098924,85.0,42.0,43.0,0.4941176470588235,99.44116496690076,13885.203177816124,0.0,0.0,0.0,0.0,142189.0,142215.0,142302.0,142321.0,142333.0,142359.0,142369.0,142384.0,142572.0,142653.0,0.042037928832505206,-0.17560250784784126,0.042624901561045286,-0.13120167463321603,0.0077015276605960905
120,120,143307.5732483443,1089.9691997115665,10.144927397992312,143421.97262630097,-4952.500780315062,17.83575780570197,143450.89118110522,53607.63831665004,10.989476127786087,143478.25362817224,-10571.316602730536,7.4528254756579955,143714.82168022267,12947.092700384695,33.46526075747102,0.9804735458190564,113.0,86.0,82.0,266.0,348.0,27.0,1105.0,1105.0,27.0,14.0,13.0,0.5185185185185185,43.30881041590944,1067.8276308670677,20.0,16.0,4.0,0.8,945.8306216047368,7552.085045296867,26.0,13.0,13.0,0.5,2241.9402272735138,51455.51030683274,15.0,4.0,11.0,0.2666666666666666,1452.646316665351,22376.61787337303,83.0,42.0,41.0,0.5060240963855421,103.4329162012987,13906.388378975702,0.0,0.0,0.0,0.0,143294.0,143321.0,143407.0,143426.0,143438.0,143464.0,143474.0,143489.0,143676.0,143755.0,0.03973397636132292,-0.19098040839572894,0.04182128326621671,-0.13741394485244507,0.007988891297443589
121,121,144588.07643858655,1122.1958869217087,10.770060878065896,144695.97262630097,-5243.515000490913,11.262592843989442,144724.79532955258,53411.97843002261,11.075560605718932,144751.50667169754,-10190.287073634569,7.279919678465088,144990.806318945,13055.754869356835,35.856474822971215,0.9859581837584552,109.0,77.0,80.0,271.0,351.0,32.0,1280.0,1274.0,32.0,15.0,17.0,0.46875,33.19358170922713,1094.364449453781,19.0,15.0,4.0,0.7894736842105263,972.9749432523696,8699.693626042628,26.0,13.0,13.0,0.5,2275.242218479158,51829.09644479559,15.0,4.0,11.0,0.2666666666666666,1431.8064263520887,21413.188402730997,87.0,44.0,43.0,0.5057471264367817,101.37468600711266,14143.704063226622,0.0,0.0,0.0,0.0,144573.0,144605.0,144682.0,144700.0,144712.0,144738.0,144748.0,144762.0,144950.0,145033.0,0.02957913328329898,-0.18555776862682322,0.04259797680889228,-0.14050697649692478,0.007764751025239391
122,122,145745.28196451112,1076.2232373343622,9.444608151953584,145853.97262630097,-5273.670551882023,12.48113274604549,145883.30219189133,52573.38791379773,11.081686554696343,145910.45203459918,-10687.535532570822,7.580832813617771,146147.81242932804,13279.603244220012,35.574797590117846,0.9858886261970824,108.0,80.0,81.0,269.0,350.0,28.0,1159.0,1159.0,28.0,13.0,15.0,0.4642857142857143,39.96830394718497,1059.5857111865423,19.0,15.0,4.0,0.7894736842105263,915.687262019795,7352.031705852107,26.0,13.0,13.0,0.5,2229.5545744138485,52354.28580926432,16.0,4.0,12.0,0.25,1483.1323211433353,22769.103103113033,86.0,43.0,43.0,0.5,102.70913983941936,14440.640840884367,0.0,0.0,0.0,0.0,145732.0,145760.0,145840.0,145858.0,145870.0,145896.0,145907.0,145921.0,146108.0,146190.0,0.0371375589753853,-0.17363376286237908,0.04240842492535484,-0.13877215347012528,0.007734353048847588
123,123,146894.43119778883,1163.7696337812604,11.228142391710234,147001.97262630097,-5299.91556383545,11.439742566553027,147031.0735231746,53006.83419719139,11.053806610516958,147058.02737369903,-10149.505062863973,7.244008300823475,147295.69843447476,13205.559317792731,35.2004420909015,0.986140003763478,108.0,76.0,81.0,268.0,349.0,32.0,1148.0,1147.0,32.0,14.0,18.0,0.4375,34.91257989989204,1175.980305488304,19.0,15.0,4.0,0.7894736842105263,946.291750608352,7954.080818479987,26.0,13.0,13.0,0.5,2250.1681583592494,52318.82747644724,15.0,4.0,11.0,0.2666666666666666,1451.7866853680812,21794.57429054429,85.0,43.0,42.0,0.5058823529411764,102.16858876089876,14310.670566706372,0.0,0.0,0.0,0.0,146880.0,146912.0,146988.0,147006.0,147018.0,147044.0,147054.0,147069.0,147256.0,147337.0,0.029999562530649542,-0.17854845784062612,0.042450529114573615,-0.14304014593578793,0.0077367861748377596
124,124,148049.40515311828,1482.8709616310375,12.158789094855967,148164.54796540082,-5181.225917236729,12.54881020297972,148193.2633939759,53434.103446710345,11.03976237642619,148220.45203459918,-10525.811246439383,7.280424289071403,148457.5765916971,13217.083113166462,35.178604830277834,0.9833971588618,115.0,85.0,81.0,268.0,349.0,30.0,1156.0,1163.0,30.0,14.0,16.0,0.4666666666666667,52.246564287657144,1553.688823544108,20.0,17.0,3.0,0.85,1015.965801133373,9439.536947048342,26.0,13.0,13.0,0.5,2262.839005383532,53249.97730078066,16.0,4.0,12.0,0.25,1499.461504408007,22645.542914524933,85.0,43.0,42.0,0.5058823529411764,101.110140583962,14299.701482242672,0.0,0.0,0.0,0.0,148035.0,148065.0,148150.0,148168.0,148180.0,148206.0,148217.0,148231.0,148418.0,148499.0,0.035233385533553215,-0.19608598763344634,0.042348216951749805,-0.1424556710453303,0.007649958747950909
125,125,149174.01465159585,1236.9428258729313,10.031136677923644,149288.54796540082,-5519.149333115543,14.00058877862224,149317.1251389952,52850.56398551411,11.09499801906785,149344.3382835405,-10781.309231162812,7.691443099357976,149581.1037152929,13288.22783176483,34.361047115589116,0.983731901421564,112.0,85.0,82.0,267.0,349.0,27.0,1123.0,1123.0,27.0,13.0,14.0,0.4814814814814814,48.99675220750838,1249.885334281102,21.0,17.0,4.0,0.8095238095238095,1025.2403652824958,9095.784742886652,26.0,13.0,13.0,0.5,2240.55618757031,52025.59129560462,16.0,4.0,12.0,0.25,1471.1028193888726,22758.168851898216,84.0,42.0,42.0,0.5,105.90289367280452,14329.239041873616,0.0,0.0,0.0,0.0,149161.0,149188.0,149273.0,149292.0,149304.0,149330.0,149340.0,149355.0,149542.0,149622.0,0.039611169718317865,-0.18576057711121047,0.042394177443109735,-0.13644936694114354,0.007969677748875517
126,126,150223.37125457218,1381.0398901262297,11.6441214844643,150338.97262630097,-5219.727692382524,13.166839390214363,150367.804877266,53361.924320773105,11.115109984772827,150394.71684421375,-10496.990660787887,7.398091181156742,150630.32518034326,13301.60987976979,34.24739513765803,0.9840005925079468,115.0,86.0,82.0,265.0,347.0,29.0,1051.0,1051.0,29.0,14.0,15.0,0.4827586206896552,49.69015016827091,1424.9687988553085,20.0,16.0,4.0,0.8,963.4017742262844,8474.10538126049,26.0,13.0,13.0,0.5,2259.9154012544877,51696.29033808879,15.0,4.0,11.0,0.2666666666666666,1446.1805206534978,21883.37434795017,83.0,41.0,42.0,0.4939759036144578,106.22724478375076,14386.220308118269,0.0,0.0,0.0,0.0,150209.0,150238.0,150324.0,150343.0,150355.0,150381.0,150391.0,150406.0,150591.0,150671.0,0.03598024251401539,-0.18456935514705816,0.042350710361746306,-0.1377709638302136,0.007986044226519537
127,127,151538.028621854,1606.097829350515,11.97417042050106,151649.54796540082,-5386.808896901424,11.814260842625997,151678.59015586827,53109.64862571201,11.06506371873863,151705.4652045985,-10497.040604805248,7.45821251248753,151944.6027275331,13234.843592505327,35.1352264148119,0.9852457333818032,112.0,80.0,81.0,271.0,352.0,32.0,1313.0,1311.0,32.0,15.0,17.0,0.46875,53.33790928763695,1638.097222463883,20.0,16.0,4.0,0.8,993.3632621990224,8761.915264700343,27.0,14.0,13.0,0.5185185185185185,2270.2031359214907,50790.50518241285,16.0,4.0,12.0,0.25,1511.1840131743195,22879.40262658906,86.0,43.0,43.0,0.5,98.12135970968248,14245.420681910578,0.0,0.0,0.0,0.0,151523.0,151555.0,151635.0,151653.0,151665.0,151692.0,151702.0,151716.0,151904.0,151987.0,0.03320962665717947,-0.1844066275992119,0.04274558756584233,-0.14396286249312423,0.007413866210345468
128,128,152683.3997885584,1223.0441724479067,9.807786155104766,152797.97262630097,-4815.493432720598,17.83575780604827,152827.16598071673,53671.61063094286,11.000713458345176,152854.5715279593,-10504.343259154532,7.484878008619831,153091.02742738815,13229.756468045758,33.69438351471285,0.9822518098634812,113.0,87.0,82.0,266.0,348.0,26.0,1146.0,1149.0,26.0,13.0,13.0,0.5,52.338126937147265,1260.420396461755,20.0,16.0,4.0,0.8,915.2940783321482,7327.5362576375055,26.0,13.0,13.0,0.5,2236.1117111708863,52360.406593414344,16.0,5.0,11.0,0.3125,1382.772352077603,21329.04756963101,83.0,41.0,42.0,0.4939759036144578,104.81307510228685,14231.108259722432,0.0,0.0,0.0,0.0,152670.0,152696.0,152783.0,152802.0,152814.0,152840.0,152850.0,152865.0,153052.0,153131.0,0.0427933251440896,-0.19007274978569258,0.04166283971887587,-0.1316381536630115,0.007922524904781514
129,129,153883.91249229686,1406.5687711029464,12.74874307500857,153998.97262630097,-5069.949167877755,12.55932671628272,154028.1783229258,53710.05696107772,11.055969027264968,154055.02737369903,-10236.348127444136,7.190427439955221,154292.39187182844,13339.334548964269,34.688458283777,0.9820510474083872,116.0,85.0,81.0,268.0,349.0,31.0,1200.0,1200.0,31.0,15.0,16.0,0.4838709677419355,48.44334727096613,1444.4191135631845,19.0,15.0,4.0,0.7894736842105263,932.2319171138276,7957.171522687858,26.0,13.0,13.0,0.5,2269.7360299888687,53245.52192481323,15.0,4.0,11.0,0.2666666666666666,1481.5398980449686,22102.59348902842,85.0,42.0,43.0,0.4941176470588235,104.62608705739112,14370.41474237616,0.0,0.0,0.0,0.0,153869.0,153900.0,153985.0,154003.0,154015.0,154041.0,154051.0,154066.0,154253.0,154334.0,0.0344407954066688,-0.18387401653260627,0.04225905088191747,-0.1447332466226788,0.007843426272378393
130,130,155091.72657310366,1492.8149674789547,11.40506387588465,155204.97262630097,-5657.656994909434,12.098336789869634,155233.5887588382,52269.30463361319,11.12315719046657,155260.58291529628,-10879.97315659983,7.709384207315577,155498.17394432056,13169.484409761206,34.630935610333964,0.9844791544374392,113.0,83.0,82.0,267.0,349.0,30.0,1207.0,1206.0,30.0,15.0,15.0,0.5,52.16601325632993,1478.6547392130497,20.0,16.0,4.0,0.8,987.3290231187784,8299.144179957046,26.0,13.0,13.0,0.5,2240.1616323624053,49929.532104938546,15.0,4.0,11.0,0.2666666666666666,1414.0555411619814,21877.014885796623,85.0,42.0,43.0,0.4941176470588235,100.74558987099525,14153.017310865423,0.0,0.0,0.0,0.0,155077.0,155107.0,155190.0,155209.0,155221.0,155247.0,155257.0,155272.0,155459.0,155539.0,0.03494472817647801,-0.1745119974588674,0.04285807221016307,-0.12996866084216488,0.007649926658960372
131,131,156133.24090051037,1404.1438739474447,12.731218675138916,156247.97262630097,-5167.758485587119,13.4131379748106,156277.19657760373,53098.94196134527,11.102030356564583,156304.22782709746,-10519.74222813719,7.447151058043307,156539.3881185401,13371.37568613174,34.224292907495574,0.9832586836511364,115.0,81.0,82.0,265.0,347.0,34.0,1042.0,1043.0,34.0,15.0,19.0,0.4411764705882353,44.09422664648561,1442.116855394069,20.0,16.0,4.0,0.8,924.9156099013028,7671.411279437088,26.0,13.0,13.0,0.5,2238.880784887091,52564.18950240398,16.0,4.0,12.0,0.25,1479.304641728117,22469.15325162817,83.0,41.0,42.0,0.4939759036144578,107.2837537634321,14454.062844214077,0.0,0.0,0.0,0.0,156118.0,156152.0,156233.0,156252.0,156264.0,156290.0,156300.0,156315.0,156501.0,156580.0,0.03140292634153243,-0.1789781028817219,0.04216432008225214,-0.14062175761031634,0.008023389386531302
132,132,157448.04842824562,1237.9922258573945,10.369416272605314,157561.97262630097,-5194.4558572000415,17.8357578060484,157590.44107082795,53995.933635531095,11.02888745788464,157617.78142195387,-10806.568008839577,7.645003991890074,157857.56854917016,12921.186712363637,33.9166208055572,0.9849216255201616,112.0,84.0,83.0,269.0,352.0,28.0,1317.0,1314.0,28.0,14.0,14.0,0.5,47.50498227561093,1252.679547899704,22.0,18.0,4.0,0.8181818181818182,987.7096591404307,8464.477536831877,26.0,12.0,14.0,0.4615384615384615,2254.7896472393945,53377.96607321391,16.0,5.0,11.0,0.3125,1421.102402217104,22088.75024117996,83.0,42.0,41.0,0.5060240963855421,95.28593042767837,13830.263685607,0.0,0.0,0.0,0.0,157434.0,157462.0,157546.0,157566.0,157578.0,157604.0,157614.0,157629.0,157818.0,157898.0,0.03837260144562739,-0.19014689628584777,0.04175850838063237,-0.1315035819933459,0.0073743946704604175
133,133,158617.57162840545,1386.8030851198796,10.881777093203295,158732.97262630097,-5134.613631052642,15.764851979097452,158761.56451082646,53075.5623256812,11.053563091816343,158788.82869054485,-10589.920388215674,7.526881919787027,159025.72331580677,13117.775758104572,34.17642662200234,0.9827214315094503,114.0,86.0,82.0,267.0,349.0,28.0,1168.0,1171.0,28.0,14.0,14.0,0.5,51.93197966601054,1365.3048048520802,21.0,17.0,4.0,0.8095238095238095,972.5072247116566,8287.93655576827,26.0,13.0,13.0,0.5,2238.5584503250243,50294.143562586505,15.0,4.0,11.0,0.2666666666666666,1416.9528366584782,21818.11471965525,84.0,42.0,42.0,0.5,96.80917231028477,14010.63660488286,0.0,0.0,0.0,0.0,158604.0,158632.0,158718.0,158737.0,158749.0,158775.0,158785.0,158800.0,158986.0,159067.0,0.03744726286177924,-0.1894022208078554,0.042176820220741644,-0.13380202916683348,0.007379999025404367
134,134,159791.7929881252,1503.2870897695338,12.143873019534905,159907.97262630097,-5272.0608134039185,12.83746659282859,159936.95167846602,53521.34573541124,11.094099845834869,159963.87176853154,-10457.502498370464,7.364770957292888,160201.63483899203,13135.313866833343,34.096887355869235,0.983457224976708,116.0,86.0,82.0,267.0,349.0,30.0,1174.0,1175.0,30.0,15.0,15.0,0.5,52.90120502592849,1524.256714993717,20.0,16.0,4.0,0.8,956.33292474173,8165.156632064793,26.0,13.0,13.0,0.5,2267.576023918629,52345.64450589387,15.0,4.0,11.0,0.2666666666666666,1461.222744846823,22093.929300998363,83.0,42.0,41.0,0.5060240963855421,102.71413580708322,14160.722470050572,0.0,0.0,0.0,0.0,159777.0,159807.0,159893.0,159912.0,159924.0,159950.0,159960.0,159975.0,160163.0,160242.0,0.03519035411528657,-0.18139641377244878,0.04236769447331621,-0.13972960992115635,0.007819694058962408
135,135,161129.19636555837,1283.6727380081916,9.013020958082263,161244.54796540082,-5580.50742660404,15.28779240518434,161273.00469131253,53334.237201460106,11.074148166563148,161300.28942763252,-10801.711734108982,7.6880355959097315,161540.2876808287,13136.809105773878,33.97914372293135,0.9842983282076282,112.0,88.0,82.0,270.0,352.0,24.0,1338.0,1336.0,24.0,12.0,12.0,0.5,59.846122946475695,1313.9242528645352,22.0,18.0,4.0,0.8181818181818182,1036.7809267596838,9152.604246247822,26.0,13.0,13.0,0.5,2253.833940325057,51969.15783934734,16.0,4.0,12.0,0.25,1467.3073405951177,22761.190975836525,83.0,41.0,42.0,0.4939759036144578,105.0244156727204,14180.128165818856,0.0,0.0,0.0,0.0,161117.0,161141.0,161229.0,161248.0,161260.0,161286.0,161296.0,161311.0,161501.0,161581.0,0.04662101264169232,-0.18578613869717686,0.04225867020112467,-0.1358402609432489,0.007994667108815653
136,136,162400.7374801395,1543.9882824779656,11.318857197461464,162513.54796540082,-5196.885206882649,13.165802547683422,162542.31574058486,53465.118595685504,11.07644527297652,162569.45203459918,-10158.441045960572,7.219073869095068,162808.23180566562,13298.715429687089,34.93061353622236,0.9838091673459456,112.0,84.0,81.0,270.0,351.0,28.0,1271.0,1270.0,28.0,14.0,14.0,0.5,59.08512624412331,1556.1225618911408,20.0,17.0,3.0,0.85,1010.545842978121,9358.216714057146,27.0,13.0,14.0,0.4814814814814814,2249.392105731388,53454.413722656165,16.0,4.0,12.0,0.25,1488.1294982081065,22302.6314847734,85.0,42.0,43.0,0.4941176470588235,104.55778175435334,14351.26512131222,0.0,0.0,0.0,0.0,162387.0,162415.0,162499.0,162517.0,162529.0,162556.0,162566.0,162580.0,162769.0,162850.0,0.038267859228372426,-0.19445221565405651,0.04207214282533936,-0.1464919165721644,0.007862246719028677
137,137,163697.14321399367,1558.7569866593292,11.616399331208518,163810.54796540082,-5359.127767001964,12.196369567216436,163839.46796421238,53343.191162219504,11.068168908304104,163866.45203459918,-10533.772411096812,7.419535095502997,164106.18884478154,13208.16508294999,35.150517378331436,0.9852888103464016,113.0,85.0,81.0,271.0,352.0,28.0,1297.0,1297.0,28.0,14.0,14.0,0.5,61.15969556619733,1635.9906126175092,20.0,16.0,4.0,0.8,1004.6551034358232,9005.878979217,27.0,13.0,14.0,0.4814814814814814,2264.08018805221,53730.01187070843,16.0,4.0,12.0,0.25,1509.259310642709,22843.84617139862,86.0,43.0,43.0,0.5,101.36010244902404,14238.101965838943,0.0,0.0,0.0,0.0,163683.0,163711.0,163796.0,163814.0,163826.0,163853.0,163863.0,163877.0,164066.0,164148.0,0.039236196591023814,-0.18746616000122976,0.04244365848242976,-0.14327813927826827,0.007674048727621269
