Unnamed: 0,cycle,p_center,p_height,p_width,q_center,q_height,q_width,r_center,r_height,r_width,s_center,s_height,s_width,t_center,t_height,t_width,r_squared,pr_interval,pr_segment,qrs_duration,st_segment,qt_interval,p_duration,pp_interval,rr_interval,fwhm_p,rise_time_p,decay_time_p,rise_decay_symmetry_p,sharpness_deriv_p,sharpness_diff_p,fwhm_q,rise_time_q,decay_time_q,rise_decay_symmetry_q,sharpness_deriv_q,sharpness_diff_q,fwhm_r,rise_time_r,decay_time_r,rise_decay_symmetry_r,sharpness_deriv_r,sharpness_diff_r,fwhm_s,rise_time_s,decay_time_s,rise_decay_symmetry_s,sharpness_deriv_s,sharpness_diff_s,fwhm_t,rise_time_t,decay_time_t,rise_decay_symmetry_t,sharpness_deriv_t,sharpness_diff_t,Average_Heart_Rate,SDNN,RMSSD,NN50,p_on,p_off,q_on,q_off,r_on,r_off,s_on,s_off,t_on,t_off,sharpness_deriv_p_norm,sharpness_deriv_q_norm,sharpness_deriv_r_norm,sharpness_deriv_s_norm,sharpness_deriv_t_norm
0,0,,,,,,,,,,,,,,,,,,,,,,,,,,,,,,,,,,,,,,,,,,,,,,,,,,,,,,,75.17095013738087,263.2399899831444,356.41920413287033,478.0,,,,,,,,,,,,,,,
1,1,1842.397287201152,265.762583633914,14.391825992231205,1882.4440854697011,-130.7500743200662,1.911030282892102,1974.6936650391715,3400.573850594854,10.220883509952454,1991.87669549928,-2286.515274834068,10.639980016403287,2217.712207594816,864.2675863261602,41.86672995503817,0.9489996020739064,49.0,19.0,124.0,265.0,389.0,30.0,,,32.0,12.0,20.0,0.375,26.571366435184466,273.14224001385713,5.0,2.0,3.0,0.4,24.35536639323627,189.0547921166019,22.0,16.0,6.0,0.7272727272727273,194.30804487209383,1393.0364647390852,16.0,3.0,13.0,0.1875,187.70517665325667,3264.9268757524924,94.0,42.0,52.0,0.4468085106382978,28.45950384785464,969.190154725242,,,,,1831.0,1861.0,1880.0,1885.0,1960.0,1981.0,1989.0,2004.0,2177.0,2269.0,0.09998159286329909,-0.1862742068782018,0.05713978093376917,-0.0820922469747675,0.03292904222965328
2,2,2663.932505771157,302.70462443339125,12.296427401230073,2728.7260172995684,-127.85225097622518,7.64389620259217,2797.926268652718,2959.4871729805877,8.919580856182716,2820.8724107418184,-1916.1223058042988,8.875827886422881,3043.212394714081,868.7546084431052,40.40902071180379,0.9510978043426768,71.0,51.0,104.0,264.0,368.0,20.0,827.0,826.0,29.0,13.0,16.0,0.4482758620689655,25.638357224583444,340.96889972615514,6.0,2.0,4.0,0.3333333333333333,30.395858670562408,151.104583681065,20.0,12.0,8.0,0.6,185.32970154097828,2501.8100787752246,17.0,7.0,10.0,0.4117647058823529,167.61169840666392,3090.5224288236436,97.0,41.0,56.0,0.422680412371134,25.630754754341357,930.0301236959908,,,,,2656.0,2676.0,2727.0,2733.0,2786.0,2806.0,2814.0,2831.0,3003.0,3095.0,0.08469760669356753,-0.23774206897784445,0.06262223510647191,-0.0874744257707017,0.029502870551989614
3,3,3546.6986436005755,249.09179686568805,10.191861603456228,3640.292294369523,-130.76495283815268,1.105836787985098,3682.141218006547,3036.467890831562,9.585255910667923,3703.753396120596,-2317.7277925756784,8.643053712194947,3937.561529395104,814.9193127777874,39.41228000170095,0.9411933944548376,97.0,78.0,76.0,272.0,348.0,19.0,879.0,884.0,19.0,6.0,13.0,0.3157894736842105,26.140380873143023,257.5395463598647,4.0,2.0,2.0,0.5,28.512250229637385,140.27025869538932,21.0,13.0,8.0,0.6190476190476191,188.29494422435224,2225.48146329422,16.0,6.0,10.0,0.375,185.68870109713865,3330.858248364312,105.0,57.0,48.0,0.5428571428571428,26.457825117466808,771.5713748550374,,,,,3541.0,3560.0,3638.0,3642.0,3669.0,3690.0,3698.0,3714.0,3881.0,3986.0,0.10494276086995385,-0.2180419876335435,0.062011175811507134,-0.08011669950714263,0.03246680340324851
4,4,4419.326893845237,223.10086657249929,12.0412490249125,4499.9176406203205,-157.2935245158738,7.64389620259217,4551.3617344916875,3030.2001054758252,8.81325977062503,4573.990419718906,-2368.4488843964823,8.310003889174633,4799.601063510752,847.3616387758103,36.93353003165207,0.9538206848762756,88.0,70.0,86.0,269.0,355.0,18.0,872.0,869.0,30.0,10.0,20.0,0.3333333333333333,25.19165296543311,169.35813824936992,7.0,3.0,4.0,0.4285714285714285,29.04197294515594,219.0359229360024,19.0,11.0,8.0,0.5789473684210527,201.11685503220815,2558.0029010318267,16.0,7.0,9.0,0.4375,192.8632644588354,3460.956441308742,104.0,51.0,53.0,0.4903846153846153,22.010998657967654,702.7540354402906,,,,,4409.0,4427.0,4497.0,4504.0,4540.0,4559.0,4567.0,4583.0,4760.0,4852.0,0.11291597989937338,-0.18463552796939886,0.06637081645821778,-0.08143019920312951,0.025975920611378052
5,5,5254.40430478819,177.09700496732123,11.746922935088028,5287.855267721443,-191.85238660751787,3.229202845314563,5378.255237648071,2983.5141017793003,10.132006405276195,5398.280020405819,-2481.271164320604,10.335292347344383,5631.684833895824,933.16158912449,40.24915642576555,0.9361373291253102,36.0,20.0,125.0,263.0,388.0,16.0,839.0,825.0,16.0,5.0,11.0,0.3125,32.184158134212346,247.7253718935434,6.0,3.0,3.0,0.5,28.15920757186152,204.4561461222424,22.0,14.0,8.0,0.6363636363636364,188.68893662680347,1500.3495138311816,17.0,5.0,12.0,0.2941176470588235,189.72042566351325,3669.398142922545,109.0,64.0,45.0,0.5871559633027523,32.4497904033573,846.1450133474348,,,,,5249.0,5265.0,5285.0,5291.0,5365.0,5385.0,5393.0,5410.0,5571.0,5673.0,0.18173180365275585,-0.14677538325060419,0.06324385613403793,-0.07646098031992427,0.034774031402002206
6,6,6033.726017299569,195.95979090852575,7.64389620259217,6068.698643600575,-206.57516460994557,8.080731058827,6152.862246267507,2705.8365361502624,9.650222159250282,6174.974456475031,-2022.5720204468817,10.03941883038174,6401.835512095537,847.8706645636389,38.86594437660741,0.9357245364561568,35.0,25.0,123.0,260.0,383.0,10.0,779.0,775.0,11.0,7.0,4.0,0.6363636363636364,26.72072509343753,172.52205293026384,24.0,12.0,12.0,0.5,32.24736745665377,186.9215659894452,22.0,14.0,8.0,0.6363636363636364,170.99133559758573,1840.535781812367,17.0,6.0,11.0,0.3529411764705882,165.66998440398118,3074.9365506427657,99.0,55.0,44.0,0.5555555555555556,27.19998659247392,835.7097060902944,,,,,6028.0,6038.0,6063.0,6075.0,6140.0,6160.0,6169.0,6186.0,6348.0,6446.0,0.13635820373941301,-0.156104764662989,0.06319352012330508,-0.0819105489095893,0.03208034872449861
7,7,6736.435822894316,240.04741357641333,40.767446413824906,6777.544639680779,-293.52999574675573,5.432047074185098,6864.317194775595,2870.4483875645337,9.576014365490176,6887.300153048452,-1993.599466240346,7.258401435918928,7104.164242193952,1027.9666579641423,51.06598399259147,0.9502628995193664,50.0,10.0,121.0,268.0,389.0,40.0,706.0,713.0,46.0,17.0,29.0,0.3695652173913043,23.27059158457806,266.3562865222338,6.0,3.0,3.0,0.5,30.026723556984276,286.7934732521663,22.0,12.0,10.0,0.5454545454545454,171.24048796730975,2618.8254063911854,15.0,6.0,9.0,0.4,180.4320416370949,2987.755525224054,107.0,46.0,61.0,0.4299065420560747,30.116496115518355,1026.0932074999073,,,,,6725.0,6765.0,6775.0,6781.0,6852.0,6874.0,6881.0,6896.0,7059.0,7164.0,0.0969416468099975,-0.10229524747750128,0.059656354982435614,-0.09050566309458584,0.02929715266754195
8,8,7474.849321800287,195.71327515411775,5.095930801728113,7527.698643600575,-176.47172161321342,10.191861603250551,7612.473471177324,2984.8258373976787,9.146105352665066,7633.647973253911,-2217.3053806214934,9.420350128327838,7864.232799296688,823.0171401616649,34.60002487499614,0.9394998692111756,52.0,46.0,123.0,252.0,375.0,6.0,733.0,747.0,25.0,9.0,16.0,0.36,26.553309227941828,131.39701098620026,13.0,7.0,6.0,0.5384615384615384,31.43933942355381,321.60110489418065,20.0,12.0,8.0,0.6,195.87550900871156,2174.8669564069237,18.0,7.0,11.0,0.3888888888888889,180.60109017506028,3261.869759105699,95.0,54.0,41.0,0.5684210526315789,30.543701244003326,779.9023849268781,,,,,7470.0,7476.0,7522.0,7531.0,7600.0,7620.0,7628.0,7645.0,7817.0,7897.0,0.1356745433186991,-0.1781551125367373,0.06562376489593968,-0.08145070667913104,0.03711186529845981
9,9,8279.300191758206,202.7099001945464,10.191861603456228,8325.27398270043,-231.18603139426355,5.751976254489441,8413.532300733028,3492.777796579043,9.759724634522144,8431.452034599139,-2334.704437076596,10.945295970046963,8657.712207594817,766.7209974995188,38.85064771954626,0.9515811071239012,50.0,37.0,124.0,264.0,388.0,13.0,806.0,800.0,19.0,13.0,6.0,0.6842105263157895,25.09512966240707,283.90738386065505,11.0,4.0,7.0,0.3636363636363636,32.247543598929944,316.82331595903196,21.0,15.0,6.0,0.7142857142857143,206.4961368253748,1548.8152311092963,19.0,4.0,15.0,0.2105263157894736,193.5759611832624,3478.9235326025273,98.0,42.0,56.0,0.4285714285714285,25.708067827834505,782.7936773625531,,,,,8271.0,8284.0,8321.0,8332.0,8399.0,8420.0,8428.0,8445.0,8617.0,8709.0,0.12379824388607842,-0.13948742233450576,0.05912089140844426,-0.08291240557440703,0.033529886245029616
10,10,9130.348233719247,269.345693747121,29.906430360064196,9176.849321800286,-138.19765981994595,4.2289220447685665,9264.242102197357,3072.0134374981894,9.373992992822448,9285.891532953709,-2305.727101728765,8.4909698233995,9518.410851195393,875.0159617836524,40.26646161784322,0.9545120393148168,68.0,20.0,122.0,268.0,390.0,48.0,847.0,852.0,50.0,25.0,25.0,0.5,27.22981737330596,323.86452564821,5.0,3.0,2.0,0.6,31.34351320228061,124.18088730503904,21.0,13.0,8.0,0.6190476190476191,195.8814320899643,2386.334205304349,16.0,6.0,10.0,0.375,195.87501775868495,3448.953574035745,112.0,62.0,50.0,0.5535714285714286,24.608323738840017,920.691824453718,,,,,9106.0,9154.0,9174.0,9178.0,9251.0,9272.0,9280.0,9296.0,9475.0,9564.0,0.10109616751055636,-0.22680205470278758,0.06376320809634471,-0.08495151816180838,0.028123285532618
11,11,,,,,,,,,,,,,,,,,,,,,,,,,,,,,,,,,,,,,,,,,,,,,,,,,,,,,,,,,,,10784.0,11193.0,10784.0,11193.0,11004.0,11161.0,10635.0,,11409.0,,,,,,
12,12,13623.460024935304,82.78557207042753,1.680168789310908,13954.438470604897,-376.1208778607879,86.63082362937793,13997.092166646393,3636.100638420853,10.370223860836823,14014.027373698991,-2581.3784299758154,10.88144875717021,14252.657460196831,654.2871428632096,26.918835841290957,0.9108054174630756,276.0,271.0,131.0,256.0,387.0,5.0,4496.0,4731.0,5.0,2.0,3.0,0.4,26.38872389066734,45.49332241127404,79.0,58.0,21.0,0.7341772151898734,28.88234408375474,213.17912231050548,21.0,15.0,6.0,0.7142857142857143,206.8936147196231,1222.9982083951936,20.0,4.0,16.0,0.2,199.2430446933132,3675.5052684230977,79.0,42.0,37.0,0.5316455696202531,25.31631481245659,587.6361952341476,,,,,13621.0,13626.0,13897.0,13974.0,13983.0,14002.0,14010.0,14028.0,14212.0,14284.0,0.318759938848014,-0.07679005815371101,0.05689985929802986,-0.07718474841954107,0.03869297309079084
13,13,,,,,,,,,,,,,,,,,,,,,,,,,,,,,,,,,,,,,,,,,,,,,,,,,,,,,,,,,,,,14310.0,14708.0,14784.0,14791.0,14809.0,14817.0,14835.0,15020.0,15090.0,,,,,
14,14,15463.178051898703,253.3058368403926,9.554557095506642,15527.301356399426,-198.92277882770625,10.191861603456228,15589.418302777189,3011.723155120391,9.547809009415657,15610.70910988193,-2560.544766671904,9.098383097559095,15843.383477496402,874.8396815420398,36.58726893247509,0.9292216069011778,64.0,40.0,105.0,258.0,363.0,24.0,1844.0,1594.0,25.0,12.0,13.0,0.48,30.559730716102106,171.95917682311662,31.0,12.0,19.0,0.3870967741935484,27.99147601971325,129.13757590271243,21.0,13.0,8.0,0.6190476190476191,197.28087133075456,1937.7839738648952,17.0,7.0,10.0,0.4117647058823529,205.83140305663957,3669.592379861014,94.0,53.0,41.0,0.5638297872340425,24.703119853165177,810.0450105879434,,,,,15452.0,15476.0,15516.0,15533.0,15577.0,15597.0,15604.0,15621.0,15790.0,15879.0,0.12064361049586757,-0.14071528753354895,0.06550431801653045,-0.08038578576549207,0.028237310646017016
15,15,16215.698643600574,230.26661973489948,10.191861603456228,16317.849321800286,-178.84208967984864,5.095930801728113,16347.778903877474,2682.4411830336335,9.226248563596936,16371.123304495037,-2082.1835238573035,8.317114254605311,16590.71220759482,880.4994293129225,42.78645759063976,0.947639045964606,105.0,87.0,65.0,262.0,327.0,18.0,747.0,759.0,20.0,7.0,13.0,0.35,26.214244008184643,256.117872254762,5.0,3.0,2.0,0.6,49.89763299413076,221.61201433619817,21.0,12.0,9.0,0.5714285714285714,173.4910020576117,2111.6992198294465,17.0,7.0,10.0,0.4117647058823529,176.07102349892278,3000.8012307465133,118.0,62.0,56.0,0.5254237288135594,23.567653577359685,904.054121183172,,,,,16210.0,16228.0,16315.0,16320.0,16336.0,16357.0,16364.0,16380.0,16549.0,16642.0,0.1138430052882371,-0.27900385800375194,0.06467653537193564,-0.08456076108639371,0.02676623379046385
16,16,16954.69864360057,238.15473781218336,10.191861603456228,16999.123304500717,-212.4128690713653,12.73982700411194,17085.133653649813,2959.0157369196745,9.16819703985328,17107.84222363313,-2190.350471767535,8.614302453246657,17329.38306913619,863.3892189222248,38.96236772185676,0.950463272880644,43.0,25.0,126.0,259.0,385.0,18.0,739.0,738.0,19.0,7.0,12.0,0.3684210526315789,28.357566710979725,219.71254956417917,14.0,8.0,6.0,0.5714285714285714,31.77508369228697,326.54479463253165,21.0,12.0,9.0,0.5714285714285714,189.24325898193945,2445.7061505422816,17.0,7.0,10.0,0.4117647058823529,184.20311431853477,3312.7336313949445,93.0,41.0,52.0,0.4408602150537634,28.14156211273952,869.0767616995163,,,,,16949.0,16967.0,16992.0,17004.0,17073.0,17094.0,17101.0,17118.0,17290.0,17377.0,0.11907202422881645,-0.14959114215255645,0.06395479977370484,-0.08409755273999114,0.03259429408658686
17,17,17745.849321800284,149.09583447221556,5.095930801728113,17805.821948101293,-242.79298951765213,22.93168860777651,17875.999020309064,3625.058957485997,9.810542165443724,17892.45203459914,-2711.157574792961,10.640691647477318,18127.53415569611,792.9329487120157,36.57750784508346,0.9359760592065356,38.0,33.0,125.0,261.0,386.0,5.0,792.0,788.0,12.0,10.0,2.0,0.8333333333333334,24.67377517648884,31.467715499631467,31.0,26.0,5.0,0.8387096774193549,26.286767954214067,244.55554358071,21.0,15.0,6.0,0.7142857142857143,216.99875723457797,1290.1849783359712,20.0,4.0,16.0,0.2,215.22997594007705,3610.3591472869302,99.0,60.0,39.0,0.6060606060606061,27.48318207097121,637.5341036126551,,,,,17742.0,17747.0,17780.0,17811.0,17862.0,17881.0,17889.0,17905.0,18075.0,18166.0,0.1654893663785548,-0.10826823297673058,0.059860752550371786,-0.07938674533017993,0.034660158990256304
18,18,18597.53504670487,189.25336404966217,5.095930801728113,18697.69864360057,-319.6754619211422,10.191861603456228,18730.33314695472,3670.2644481976754,10.249507561609578,18746.876695499283,-2918.5726823708737,11.380129081368702,18977.74176465057,741.7071362220704,33.209399269843374,0.9403791355221334,96.0,86.0,68.0,265.0,333.0,10.0,853.0,854.0,10.0,2.0,8.0,0.2,33.84826370673578,170.45113723848448,12.0,6.0,6.0,0.5,54.15536544401146,183.143025112989,21.0,15.0,6.0,0.7142857142857143,204.90280369131244,1278.191175889723,19.0,4.0,15.0,0.2105263157894736,214.4743530118226,3966.437893123867,78.0,31.0,47.0,0.3974358974358974,29.00429702030708,763.577114808641,,,,,18596.0,18606.0,18692.0,18704.0,18715.0,18736.0,18744.0,18760.0,18947.0,19025.0,0.17885158278007476,-0.16940732678872472,0.05582780384991939,-0.07348604141583223,0.03910478355114958
19,19,19498.7959412097,293.25701826920215,7.64389620259217,19565.191861603453,-271.7504650201158,61.15116962073736,19625.16988611351,3600.14376849992,10.166747143109411,19642.45203459914,-2780.2303817740976,10.971084760157703,19871.383598035216,714.8227851018647,34.88203030597322,0.9405117553313488,36.0,30.0,125.0,268.0,393.0,6.0,900.0,895.0,10.0,5.0,5.0,0.5,26.28234673648447,24.60648641806429,50.0,34.0,16.0,0.68,27.77357995582177,324.48029138425323,21.0,15.0,6.0,0.7142857142857143,211.9260333178837,1124.5234430546602,20.0,4.0,16.0,0.2,209.48571744982945,3821.296463047832,89.0,36.0,53.0,0.4044943820224719,26.512137304650494,652.9507184535705,,,,,19495.0,19501.0,19531.0,19580.0,19611.0,19631.0,19639.0,19656.0,19835.0,19924.0,0.08962222589454952,-0.1022025112404716,0.05886599173404328,-0.07534833042006905,0.03708910496029085
20,20,20389.849321800284,121.001433209706,2.769558481605514,20479.7945744023,-319.66905340293783,40.767446413824906,20532.6879389655,3881.4620246162017,10.010790276875554,20549.45203459914,-3039.3013294631123,12.306759331565038,20802.630086497844,725.8073098041112,30.25182738227288,0.8933727981815195,70.0,65.0,106.0,261.0,367.0,5.0,891.0,908.0,5.0,3.0,2.0,0.6,27.308666433278404,124.00642745888092,52.0,24.0,28.0,0.4615384615384615,23.20283940641668,232.46373853672355,21.0,16.0,5.0,0.7619047619047619,213.8812039630532,777.7184361295466,21.0,4.0,17.0,0.1904761904761904,222.5713336417887,4018.902690016236,91.0,69.0,22.0,0.7582417582417582,31.16423426378373,624.6229825035182,,,,,20387.0,20392.0,20457.0,20490.0,20519.0,20538.0,20546.0,20563.0,20735.0,20824.0,0.22568878490844083,-0.07258394004492472,0.055103258155463145,-0.07323108488262517,0.042937338661131245
21,21,21235.849321800284,151.1615484518976,4.957988927052543,21325.698643585485,-320.9234931261991,10.191861603456228,21357.972626301005,3356.499808114945,10.450143989240011,21375.307861194357,-3026.8102014090146,11.228829892279226,21602.481021432588,755.1877449728121,35.662228261590954,0.9339414969982044,77.0,67.0,79.0,262.0,341.0,10.0,846.0,825.0,10.0,3.0,7.0,0.3,35.15067572369686,102.01245088680022,25.0,17.0,8.0,0.68,50.03593256309458,222.2838479734773,20.0,15.0,5.0,0.75,211.74272027423712,791.025983077139,19.0,4.0,15.0,0.2105263157894736,200.48111757561315,3982.043197645481,87.0,37.0,50.0,0.425287356321839,22.151062683119793,668.8060591611061,,,,,21233.0,21243.0,21310.0,21328.0,21344.0,21362.0,21371.0,21389.0,21573.0,21651.0,0.2325371503777791,-0.15591233934194584,0.06308438325016757,-0.066235113613099,0.029331861951649208
22,22,21834.150678199716,96.70754734516828,4.211291108151588,22062.754565038584,-208.376124641672,6.824977998971751,22148.7573591147,2653.8294244484746,9.624766546286516,22170.93996885528,-2353.994571525903,8.943674009093328,22389.686973456297,810.9513508867299,41.07075239637201,0.9464954004119752,223.0,218.0,124.0,261.0,385.0,5.0,600.0,793.0,7.0,2.0,5.0,0.2857142857142857,32.289085606398345,126.442644640798,10.0,7.0,3.0,0.7,32.64890857213137,341.2676346287785,21.0,13.0,8.0,0.6190476190476191,179.48567936808192,1716.6351537375515,16.0,7.0,9.0,0.4375,187.32896626770997,3418.889095311675,105.0,53.0,52.0,0.5047619047619047,29.34137705461446,816.78154992848,,,,,21833.0,21838.0,22056.0,22066.0,22136.0,22157.0,22164.0,22180.0,22338.0,22441.0,0.33388382285357976,-0.1566825788140322,0.06763271132446015,-0.07957918362839717,0.036181426940754595
23,23,22761.301573903544,194.51750606256869,19.951867956373373,22871.849321800284,-208.20996802077215,5.095930801728113,22895.53508288524,3016.0674020963143,8.747328252318287,22918.8767485681,-2117.994220535484,7.58269075780505,23140.625885652207,854.6301466773941,43.39932887940672,0.9560251102084784,116.0,97.0,59.0,264.0,323.0,19.0,925.0,747.0,25.0,10.0,15.0,0.4,27.287722694660168,227.805111638673,5.0,4.0,1.0,0.8,82.95926661804855,898.0612055500728,20.0,12.0,8.0,0.6,203.01020355824815,2565.9338626231124,16.0,7.0,9.0,0.4375,181.0320717617039,2989.58511208312,92.0,38.0,54.0,0.4130434782608695,25.879336364757243,927.2864598394448,,,,,22752.0,22771.0,22868.0,22873.0,22884.0,22903.0,22912.0,22927.0,23103.0,23191.0,0.14028414844000095,-0.39844041765460564,0.06730957120425961,-0.08547335493480915,0.03028132867225684
24,24,23515.178051898707,238.4319183273479,18.121011270177178,23622.58839074023,-144.96939114735355,1.561944242084207,23654.225723978216,3155.1374688281985,8.905193415702422,23676.276381928383,-2269.398662089021,8.913516134783324,23897.537683784845,851.5992788132047,41.84671877114712,0.9564038311212296,110.0,91.0,66.0,262.0,328.0,19.0,759.0,758.0,27.0,12.0,15.0,0.4444444444444444,25.264451331142443,228.5078409584774,5.0,3.0,2.0,0.6,37.784032262697366,186.80032717279823,18.0,11.0,7.0,0.6111111111111112,208.70688674594055,2482.625057752123,16.0,6.0,10.0,0.375,189.15720127506057,3528.581657276682,87.0,36.0,51.0,0.4137931034482758,28.64240536352381,995.2471288242753,,,,,23510.0,23529.0,23620.0,23625.0,23643.0,23661.0,23670.0,23686.0,23862.0,23948.0,0.10596086089638544,-0.26063455163643434,0.06614827049784718,-0.08335124384930151,0.0336336655937991
25,25,24314.972626301005,145.5307342135045,8.554892892374168,24362.69864360057,-287.09864121789286,10.191861603456228,24449.535452775297,3127.6864292895334,9.385891877264676,24470.18592442618,-2559.0839639987057,9.529133884478206,24693.16936919903,807.6678118394718,36.66171235237203,0.9398016779350036,49.0,34.0,127.0,259.0,386.0,15.0,793.0,794.0,16.0,11.0,5.0,0.6875,27.725958365266088,197.09871373273137,31.0,10.0,21.0,0.3225806451612903,28.63160032260731,294.30760668921164,21.0,14.0,7.0,0.6666666666666666,208.07731944937169,1499.9181686553766,17.0,6.0,11.0,0.3529411764705882,207.63564801875248,3858.375024102099,90.0,43.0,47.0,0.4777777777777778,32.799858725714245,838.2724695079111,,,,,24305.0,24320.0,24354.0,24365.0,24436.0,24457.0,24464.0,24481.0,24650.0,24740.0,0.19051617182519004,-0.09972739752842445,0.06652755132381902,-0.08113670787663828,0.040610580544261414
26,26,25106.69864360057,209.61379277065467,10.191861603456228,25209.849321800284,-142.43450042646612,2.888663870227361,25258.944011504613,2588.793017287871,9.25026099493395,25282.872423225912,-2184.10199865208,8.37383892552346,25500.86288579453,821.6690394481142,41.358945775864434,0.944932655079918,105.0,86.0,86.0,263.0,349.0,19.0,793.0,811.0,39.0,6.0,33.0,0.1538461538461538,26.66702191031261,208.60826458923904,10.0,4.0,6.0,0.4,33.37354221462162,141.34900226673105,21.0,12.0,9.0,0.5714285714285714,162.86451866359704,2069.40299401417,18.0,8.0,10.0,0.4444444444444444,175.26664669187372,2992.0135192164303,109.0,52.0,57.0,0.4770642201834862,20.70586489897375,787.9380974427501,,,,,25101.0,25120.0,25206.0,25211.0,25247.0,25268.0,25276.0,25292.0,25460.0,25555.0,0.12721978624512498,-0.23430799500610597,0.06291137127456439,-0.08024654837550611,0.0251997628058143
27,27,25855.436570342248,184.59356823246583,7.236321729636139,25898.465300346197,-242.41904798561015,7.64389620259217,25987.034880885098,2621.066887036554,9.233950527058862,26010.1179912097,-2025.1521448316569,7.986060997746803,26238.109494795972,829.5174058034909,37.83602542742674,0.9360565345319118,43.0,32.0,128.0,259.0,387.0,11.0,751.0,728.0,18.0,7.0,11.0,0.3888888888888889,29.401266981364508,225.3280327287765,15.0,11.0,4.0,0.7333333333333333,27.447249803982384,328.09973038977046,21.0,12.0,9.0,0.5714285714285714,165.44607413060254,2212.1021286027517,16.0,6.0,10.0,0.375,171.1983285460298,2982.2665916156648,107.0,59.0,48.0,0.5514018691588785,31.143034675339376,690.7860906750832,,,,,25848.0,25859.0,25891.0,25902.0,25975.0,25996.0,26004.0,26019.0,26189.0,26278.0,0.1592756847537524,-0.11322233146304427,0.06312165284635683,-0.08453603300025682,0.037543557805364516
28,28,26591.27398270043,223.098509766004,7.64389620259217,26657.72601729957,-133.23005648285843,7.64389620259217,26723.775463641738,2839.479983348922,9.38653104720079,26745.50111814375,-2042.4776865720885,8.923790570578046,26965.04626539525,861.5241474452007,39.81887226601187,0.9455946147119232,69.0,58.0,99.0,262.0,361.0,11.0,734.0,737.0,17.0,10.0,7.0,0.5882352941176471,33.00175617637237,243.3466281770376,6.0,2.0,4.0,0.3333333333333333,24.493954578964964,177.33613446711132,21.0,13.0,8.0,0.6190476190476191,186.6295432299378,2029.004555180813,15.0,6.0,9.0,0.4,173.98012148378317,3074.3496357250488,98.0,46.0,52.0,0.4693877551020408,29.766612914193455,854.6130073365573,,,,,26587.0,26598.0,26656.0,26662.0,26711.0,26731.0,26740.0,26755.0,26919.0,27017.0,0.14792459264289182,-0.18384706293445421,0.06572666274259992,-0.08518091660319473,0.03455110689870342
29,29,27378.25325834119,234.0809580128274,17.6497898140511,27426.238749631753,-164.8685071383856,2.451425988916168,27512.40359575534,3008.2915490029695,9.116377162014524,27535.59606883497,-2005.6098453031816,8.658179350691686,27760.410851195396,848.0101837212345,39.67043415608523,0.9497172299109514,57.0,37.0,122.0,260.0,382.0,20.0,785.0,789.0,33.0,19.0,14.0,0.5757575757575758,28.015371530830503,169.55878430078718,5.0,2.0,3.0,0.4,32.08799475466852,183.22065165648897,21.0,12.0,9.0,0.5714285714285714,189.3577892025196,2667.2723724638554,17.0,7.0,10.0,0.4117647058823529,171.192393392088,3005.9662513863977,100.0,54.0,46.0,0.54,25.013413205324117,924.8386393199968,,,,,27367.0,27387.0,27424.0,27429.0,27500.0,27521.0,27529.0,27546.0,27718.0,27806.0,0.1196824029116255,-0.1946277995210743,0.06294529174383978,-0.08535677753726294,0.02949659530686338
30,30,28084.32873009842,402.4329854455261,28.027619409504627,28177.151713591473,-52.59019149589921,0.6815265396082595,28223.866747866537,2910.336613824102,9.14599261362129,28247.130726897816,-2048.25552536613,7.234554150207049,28475.684833895823,948.8374896284369,46.86063042489341,0.923102512360934,98.0,65.0,78.0,263.0,341.0,33.0,714.0,712.0,139.0,107.0,32.0,0.7697841726618705,26.977629340971557,336.54684530673603,3.0,1.0,2.0,0.3333333333333333,26.661029997837257,80.90313587780699,21.0,12.0,9.0,0.5714285714285714,177.4167323335173,2542.6826415567975,14.0,6.0,8.0,0.4285714285714285,181.73086238125424,3034.318327557321,127.0,79.0,48.0,0.6220472440944882,34.08812501253792,801.5621215222893,,,,,28078.0,28111.0,28176.0,28179.0,28212.0,28233.0,28241.0,28254.0,28417.0,28517.0,0.06703632733063648,-0.5069582224266322,0.06096089761259492,-0.08872470262164653,0.03592619957068388
31,31,28782.69864360057,381.0131173074016,10.191861603456228,28856.538710529316,-135.29890231116318,1.405993708441793,28918.72000370369,2890.874781566609,9.041997188086436,28942.044183536174,-2066.457150582836,7.533450845754717,29166.83551209554,906.094890585905,42.200429248347184,0.9358131984141936,77.0,57.0,97.0,260.0,357.0,20.0,692.0,695.0,25.0,6.0,19.0,0.24,27.510908017919224,361.68922717272585,5.0,3.0,2.0,0.6,23.100823604515092,73.3511888317373,20.0,12.0,8.0,0.6,185.5265981141108,2554.264604614425,16.0,7.0,9.0,0.4375,172.03842528141027,3072.9106763002537,98.0,51.0,47.0,0.5204081632653061,28.04847596007794,936.8455115917808,,,,,28777.0,28797.0,28854.0,28859.0,28907.0,28927.0,28935.0,28951.0,29117.0,29211.0,0.07220462175249312,-0.1707391797709293,0.06417662892115,-0.08325283939852685,0.030955340606700753
32,32,29541.063312511706,232.72345385511468,10.191861603456228,29595.150678199716,-219.57610441899024,5.095930801728113,29679.180649353548,3612.782395749493,9.945240160483792,29695.45203459914,-2729.561563586824,10.70041829234371,29921.09055099432,793.6754147682399,37.470421100936576,0.954771871437612,47.0,29.0,125.0,262.0,387.0,18.0,759.0,757.0,19.0,5.0,14.0,0.2631578947368421,23.702919038138248,214.69190472671153,6.0,3.0,3.0,0.5,28.678665368012915,314.50541158916127,21.0,15.0,6.0,0.7142857142857143,211.9238202240025,1374.2122465626835,18.0,3.0,15.0,0.1666666666666666,213.91541069946476,3734.51899444584,90.0,38.0,52.0,0.4222222222222222,27.897221728992804,797.849867666882,,,,,29536.0,29554.0,29583.0,29598.0,29665.0,29684.0,29692.0,29708.0,29884.0,29970.0,0.10185015152316723,-0.13060922746533896,0.05865944776340111,-0.07836987945359467,0.035149408952196204
33,33,30332.795064584203,264.9835558953697,13.78071500670475,30413.72601729957,-144.82607499646056,7.64389620259217,30469.067915928557,3702.06971710152,10.020176373546509,30485.45203459914,-2829.226641775342,10.570830690978548,30718.684833895823,885.3842643088013,39.75442391615817,0.946964531653769,89.0,70.0,85.0,263.0,348.0,19.0,792.0,790.0,26.0,17.0,9.0,0.6538461538461539,27.105453031009755,231.1965641706186,6.0,2.0,4.0,0.3333333333333333,25.69176901895269,182.43766301855783,21.0,15.0,6.0,0.7142857142857143,225.82915142384664,1308.761868957018,18.0,3.0,15.0,0.1666666666666666,223.22523222139353,3814.164757526025,105.0,63.0,42.0,0.6,30.241776927494193,833.1469224877292,,,,,30323.0,30342.0,30412.0,30418.0,30455.0,30474.0,30482.0,30497.0,30658.0,30760.0,0.10229107591005572,-0.1773973990497262,0.06100078298921291,-0.07889973497539225,0.0341566686314481
34,34,31117.47271671413,203.12635646136,10.191861603456228,31163.27398270043,-196.97105259539325,7.64389620259217,31254.63430077757,3659.954428946753,9.924234506653036,31270.876695499283,-2743.2138146026505,12.544082029121874,31497.286787311696,785.9281627426674,36.26689514334027,0.9426218535807238,50.0,37.0,127.0,261.0,388.0,13.0,786.0,785.0,13.0,8.0,5.0,0.6153846153846154,24.964464788563905,254.17071340053815,10.0,4.0,6.0,0.4,31.448668135092536,287.34681294625204,22.0,16.0,6.0,0.7272727272727273,198.0137220961966,711.8972956020342,21.0,4.0,17.0,0.1904761904761904,195.80960437403212,3645.965957714436,86.0,35.0,51.0,0.4069767441860465,25.951954855844793,777.0433113567184,,,,,31109.0,31122.0,31159.0,31169.0,31240.0,31260.0,31268.0,31286.0,31462.0,31547.0,0.12290115976807178,-0.1596613701389544,0.05410278350191923,-0.07137963629801666,0.03302077223607791
35,35,31838.69864360057,348.95370078520045,10.191861603456228,31887.170612269176,-71.65685099648474,1.4820283017708278,31975.070386555493,2864.426840218706,9.509865238389011,31998.768586692684,-2238.9746655772224,7.375683674141779,32206.945647596272,970.603936682208,57.02613566877102,0.9382983869888823,52.0,24.0,123.0,263.0,386.0,28.0,719.0,724.0,59.0,25.0,34.0,0.423728813559322,26.54326988410874,292.8640879509169,5.0,2.0,3.0,0.4,28.508931598891333,144.73676806662294,22.0,12.0,10.0,0.5454545454545454,173.7574680319278,2621.002792636207,16.0,7.0,9.0,0.4375,181.7690439023701,3143.6831978988394,145.0,73.0,72.0,0.503448275862069,28.536380310945916,993.317626265592,,,,,31833.0,31861.0,31885.0,31890.0,31963.0,31985.0,31992.0,32008.0,32161.0,32271.0,0.07606530558174975,-0.39785353671611795,0.060660466377511324,-0.08118405567376479,0.029400643488518226
36,36,32572.876695499283,185.1278412810963,12.739827004320285,32651.665192108983,-236.25737647497752,10.191861603456228,32707.958596715176,3615.044621609567,9.53993623367629,32724.45203459914,-2553.6078538574266,11.562697096504548,32956.26017299569,835.8572079859782,35.990313330792034,0.9446224047002189,73.0,58.0,100.0,261.0,361.0,15.0,738.0,730.0,25.0,11.0,14.0,0.44,26.65981331166738,157.564703414491,18.0,14.0,4.0,0.7777777777777778,28.782476947958617,304.1362334212919,20.0,15.0,5.0,0.75,210.42224574408937,1391.4304938611224,20.0,3.0,17.0,0.15,208.6175827271583,3617.027032593789,98.0,55.0,43.0,0.5612244897959183,28.157386513123143,809.5586292186803,,,,,32565.0,32580.0,32638.0,32656.0,32694.0,32713.0,32721.0,32738.0,32902.0,32999.0,0.14400758485152637,-0.12182678643689682,0.05820737162862479,-0.08169523069567042,0.03368683818731332
37,37,33299.60271279886,333.77824287852553,20.383723206912453,33346.31776257587,-209.1581818490872,3.796141577985753,33435.93339598634,2979.189204861514,9.395784919765452,33457.929585471255,-2382.3668710509205,8.16512852077001,33681.986190295254,919.3053646331398,44.1427541742974,0.9593124120331288,51.0,31.0,125.0,262.0,387.0,20.0,728.0,730.0,30.0,19.0,11.0,0.6333333333333333,31.96458052021344,402.6627835177963,7.0,4.0,3.0,0.5714285714285714,32.48440077246289,220.43662743545332,20.0,12.0,8.0,0.6,202.24053186042292,2320.3548162825537,15.0,6.0,9.0,0.4,197.017401711394,3499.2820405013927,98.0,50.0,48.0,0.5102040816326531,29.294679947458977,1058.4250492202714,,,,,33291.0,33311.0,33342.0,33349.0,33424.0,33444.0,33452.0,33467.0,33639.0,33729.0,0.09576592004484412,-0.15531020821313693,0.06788442020748527,-0.08269817890159159,0.03186610355433897
38,38,34053.09315106305,230.1642028954562,12.739827004320285,34139.849321800284,-105.9017743971842,5.095930801579771,34188.1572196839,2849.1727489467617,9.187266533626689,34211.64971200623,-2238.964958114144,8.837981708303408,34429.16424219396,805.9546206141601,44.46189154947053,0.9565543116607758,87.0,73.0,84.0,268.0,352.0,14.0,752.0,753.0,19.0,3.0,16.0,0.1578947368421052,23.2273831741712,275.11172387607877,9.0,3.0,6.0,0.3333333333333333,26.943156736285857,97.30797815769098,20.0,12.0,8.0,0.6,183.35909913716253,2411.106693738178,18.0,8.0,10.0,0.4444444444444444,182.18289952160185,3111.1912715480503,109.0,49.0,60.0,0.4495412844036697,23.723173596513433,734.7274790500626,,,,,34050.0,34064.0,34137.0,34146.0,34176.0,34196.0,34204.0,34221.0,34385.0,34489.0,0.10091657556636383,-0.2544164806458828,0.06435520598213776,-0.08136925004625913,0.029434875103061888
39,39,34792.26938763897,231.6170035786637,22.797544617623153,34856.726017299574,-136.96497293039877,7.64389620259217,34930.926254817256,3527.032405069828,10.270829832819988,34947.452034599235,-2614.0232830341024,11.236703492101254,35179.56152939511,887.719898716369,44.33062364016174,0.9467051830281626,75.0,46.0,106.0,267.0,373.0,29.0,739.0,739.0,29.0,12.0,17.0,0.4137931034482758,22.74548408400525,383.73105673074406,11.0,2.0,9.0,0.1818181818181818,29.32464123202144,94.27151437378642,22.0,16.0,6.0,0.7272727272727273,199.31717273117223,1071.5568576018377,19.0,3.0,16.0,0.1578947368421052,198.69698443799507,3396.742521110202,118.0,70.0,48.0,0.5932203389830508,26.447981265017912,900.5282221550505,,,,,34780.0,34809.0,34855.0,34865.0,34916.0,34937.0,34944.0,34961.0,35111.0,35228.0,0.09820299776169168,-0.2141032163524267,0.05651129613798549,-0.07601194133487865,0.029793160323725237
40,40,35539.905986887665,182.066960215593,22.931688607764592,35639.273982700426,-182.61298030228448,7.64389620259217,35675.080013159895,3017.3397597186886,9.710352633503303,35695.49174743717,-2382.4036407991653,9.223787270589206,35917.13686849497,860.9951434229579,40.730617268519566,0.958022114312073,104.0,78.0,71.0,261.0,332.0,26.0,746.0,746.0,26.0,9.0,17.0,0.3461538461538461,27.866491911613572,314.8380638312009,11.0,4.0,7.0,0.3636363636363636,33.893455770946616,64.25688905676425,21.0,14.0,7.0,0.6666666666666666,198.0263969946438,1863.530109507035,16.0,5.0,11.0,0.3125,198.0563658748769,3621.28658632891,110.0,59.0,51.0,0.5363636363636364,28.56221864633405,873.7051743262462,,,,,35531.0,35557.0,35635.0,35646.0,35662.0,35682.0,35690.0,35706.0,35877.0,35967.0,0.15305628148355807,-0.18560266479875534,0.06562946594158363,-0.08313300168078987,0.03317349565153477
41,41,36328.354898049016,218.91003170562695,11.909816183924416,36394.30135639943,-236.80300194486648,10.191861603456228,36463.39728720065,3805.051473021396,9.772388369402506,36479.45203459914,-2808.3357467177993,11.41466156098164,36712.26017299569,855.2708890513685,36.16699588825103,0.9514722939098054,75.0,56.0,101.0,262.0,363.0,19.0,785.0,787.0,37.0,18.0,19.0,0.4864864864864865,26.11208940331123,127.36971958846158,39.0,28.0,11.0,0.717948717948718,24.55819402955047,192.14271025717537,20.0,14.0,6.0,0.7,222.9088350428009,1414.9804752688024,20.0,3.0,17.0,0.15,218.89466487545465,3793.5368355123055,97.0,54.0,43.0,0.5567010309278351,29.5832437243433,862.3022364213232,,,,,36317.0,36336.0,36392.0,36404.0,36449.0,36468.0,36476.0,36493.0,36668.0,36755.0,0.11928228779585909,-0.1037072749410002,0.05858234418726547,-0.07794462080657007,0.03458932614572656
42,42,37125.69864360057,274.7429983426807,10.191861603456228,37206.15067819971,-176.7240273581865,5.095930801728113,37261.13314920104,3044.7391680798546,9.142970718763406,37282.8914667729,-2342.7494044932505,9.076246411835228,37503.74704427593,864.0952437645655,39.849218426500165,0.9512995458414892,72.0,47.0,101.0,261.0,362.0,25.0,799.0,800.0,29.0,9.0,20.0,0.3103448275862069,29.405879990680766,244.6390019125695,18.0,14.0,4.0,0.7777777777777778,23.57872127861098,195.23529982432785,19.0,12.0,7.0,0.631578947368421,205.1348338880709,2239.1409636100934,17.0,7.0,10.0,0.4117647058823529,190.0230637981448,3427.356133874075,100.0,49.0,51.0,0.49,27.731777267219524,881.9301868325374,,,,,37120.0,37145.0,37192.0,37209.0,37249.0,37268.0,37277.0,37293.0,37467.0,37554.0,0.10703049820401056,-0.1334211404701712,0.06737353269490005,-0.08111113524719807,0.03209342658385865
43,43,37902.402864686985,223.3068997918705,17.8357578060484,37973.532320338694,-143.94740583928962,1.6177988393630445,38037.11160356248,2795.167152986817,8.93894810709484,38060.30066774849,-2322.637113421644,8.279555413447332,38275.57376150595,803.7297451682406,43.26454258336581,0.9619118480275592,75.0,56.0,99.0,263.0,362.0,19.0,779.0,777.0,29.0,7.0,22.0,0.2413793103448276,28.91495983247849,340.62989450914574,5.0,3.0,2.0,0.6,31.385609056620694,111.5040750098599,19.0,11.0,8.0,0.5789473684210527,187.1667590755222,2358.3463918083376,17.0,7.0,10.0,0.4117647058823529,181.98467459170377,3358.572784358246,107.0,49.0,58.0,0.4579439252336448,23.26176881193151,861.9382619712644,,,,,37896.0,37915.0,37971.0,37976.0,38026.0,38045.0,38053.0,38070.0,38235.0,38333.0,0.12948529516744983,-0.2180352530399973,0.06696084664400925,-0.07835260770616424,0.0289422768682802
44,44,38655.71077520621,178.76427082541724,20.383723206912453,38693.70332633973,-257.86211131317185,4.193620447229999,38785.420994252454,2530.2324881994564,9.906158777633784,38807.69864360057,-1946.1429836288148,9.04735715417238,39036.26017299569,841.2719156382781,37.367900027713006,0.9372324801221086,44.0,25.0,128.0,261.0,389.0,19.0,754.0,747.0,19.0,10.0,9.0,0.5263157894736842,30.44904541309543,226.8784939951481,9.0,4.0,5.0,0.4444444444444444,29.081520032277773,257.46677744369913,22.0,13.0,9.0,0.5909090909090909,148.78834662842485,1948.3853958557636,18.0,7.0,11.0,0.3888888888888889,155.60492031111352,2763.4218495774785,101.0,56.0,45.0,0.5544554455445545,28.33461118844872,882.6844970255711,,,,,38646.0,38665.0,38690.0,38699.0,38772.0,38793.0,38802.0,38818.0,38993.0,39079.0,0.17033071134685654,-0.11277934507004193,0.05880421950249497,-0.0799555436676958,0.033680681194440065
45,45,,,,,,,,,,,,,,,,,,,,,,,,,,,,,,,,,,,,,,,,,,,,,,,,,,,,,,,,,,,,39092.0,39389.0,39401.0,39468.0,39489.0,39497.0,39514.0,39685.0,39763.0,,,,,
46,46,40062.60650861384,292.0962820935897,20.383723206912453,40104.52042943383,-199.82882942842213,3.222978093872055,40196.38993660453,2972.3806129023646,9.132976464676329,40218.62409501861,-1857.3318341901015,7.7665706015915665,40435.87587684197,880.5080881072187,43.675134878819655,0.9538159044937606,48.0,18.0,126.0,263.0,389.0,30.0,1404.0,1411.0,48.0,19.0,29.0,0.3958333333333333,25.27975530850581,216.2070857110266,6.0,4.0,2.0,0.6666666666666666,29.55485580855757,181.83015382164675,20.0,11.0,9.0,0.55,186.63469397368195,2609.592388302265,15.0,7.0,8.0,0.4666666666666667,165.7491184537386,2860.10285287214,99.0,44.0,55.0,0.4444444444444444,27.94550781164208,911.0842699519676,,,,,40053.0,40083.0,40101.0,40107.0,40185.0,40205.0,40213.0,40227.0,40392.0,40490.0,0.08654596740264567,-0.1479008604168599,0.06278963507013442,-0.08924044449279268,0.031737934255340064
47,47,40857.34213524076,264.0368512782442,32.52835113673144,40902.575339099865,-127.19424463876275,1.8768292365823669,40989.66145590632,2863.8137327139793,9.406205983182836,41012.93744727486,-1996.090851134373,7.137274527427888,41242.10949479597,866.0055011884176,43.49914405231512,0.9350727537293628,57.0,26.0,120.0,260.0,380.0,31.0,799.0,794.0,32.0,13.0,19.0,0.40625,28.704398802506063,397.70260779581554,2.0,1.0,1.0,0.5,26.97359853317857,120.5172406890601,22.0,13.0,9.0,0.5909090909090909,172.41154177635366,2490.249027528854,15.0,6.0,9.0,0.4,178.4073073907485,2926.0463299609646,106.0,59.0,47.0,0.5566037735849056,29.002828308300177,819.2839712155061,,,,,40845.0,40876.0,40902.0,40904.0,40977.0,40999.0,41007.0,41022.0,41184.0,41282.0,0.10871360820864027,-0.21206618750545495,0.06020347615728579,-0.08937835033378372,0.03349035112190356
48,48,41713.84932180029,203.07488894840984,5.095930801728113,41785.39728720114,-192.5652122495616,20.383723206912453,41851.25288286597,3054.816540240817,9.114982707913793,41873.22529679627,-2303.830658676244,8.79925456128431,42094.6363833076,800.2386234777686,40.129223151545546,0.9474933569028922,63.0,54.0,109.0,258.0,367.0,9.0,853.0,862.0,11.0,4.0,7.0,0.3636363636363636,26.864047345863224,196.1306031006683,26.0,18.0,8.0,0.6923076923076923,24.875716147129733,185.3229128237638,20.0,12.0,8.0,0.6,192.14434104898584,2394.4383220027535,16.0,6.0,10.0,0.375,193.39690754035,3573.492855919357,97.0,45.0,52.0,0.4639175257731959,26.509337954445755,879.8974543809126,,,,,41711.0,41720.0,41774.0,41793.0,41839.0,41859.0,41867.0,41883.0,42050.0,42141.0,0.1322864066796949,-0.12918073756173146,0.06289881520473851,-0.0839457999276187,0.033126791405341624
49,49,42569.027373699,212.72550992590587,13.942867528741775,42638.726017299574,-167.99936119842224,7.64389620259217,42689.720742279715,2945.744126351759,8.855560675447425,42712.45526476457,-2457.740165716658,8.240498580448051,42938.68483389583,887.8314438607005,37.40003786064707,0.9504642010720528,64.0,47.0,96.0,258.0,354.0,17.0,859.0,838.0,18.0,8.0,10.0,0.4444444444444444,28.97614558165986,210.91439347940477,17.0,13.0,4.0,0.7647058823529411,27.157343420836963,176.34280657106584,20.0,12.0,8.0,0.6,197.8301998641222,2242.344629132409,16.0,6.0,10.0,0.375,201.7279120829299,3641.321995361466,85.0,38.0,47.0,0.4470588235294118,24.580459396698036,771.7866764308541,,,,,42562.0,42579.0,42626.0,42643.0,42678.0,42698.0,42706.0,42722.0,42902.0,42980.0,0.13621377892925254,-0.16165146835744046,0.06715797142541727,-0.08207861632277455,0.027685952740996497
50,50,43381.54149291021,175.2697137733851,5.095930801728113,43444.09593080172,-175.8510668554177,30.57558481036868,43503.02659871753,2887.4895292094707,9.352750587364024,43525.165648009606,-2562.568687997109,8.920719385043352,43744.52211322128,823.0713636504133,40.712994650735055,0.948259110638046,45.0,39.0,111.0,262.0,373.0,6.0,810.0,813.0,6.0,2.0,4.0,0.3333333333333333,27.518808893790005,145.88606198620386,32.0,20.0,12.0,0.625,25.800035195551523,113.7047951177903,21.0,13.0,8.0,0.6190476190476191,201.86777659540044,1987.781019028734,18.0,7.0,11.0,0.3888888888888889,194.1755448879715,3653.736582146738,99.0,46.0,53.0,0.4646464646464646,28.88375455902134,785.7553479596634,,,,,43380.0,43386.0,43425.0,43451.0,43491.0,43511.0,43518.0,43536.0,43700.0,43798.0,0.15700835187858206,-0.146715261140633,0.06991117181667054,-0.07577379127337194,0.03509264911236696
51,51,44168.30135639943,180.35448160667,10.191861603456228,44219.84932180029,-106.49595562176025,5.095930801728075,44285.049032637246,2737.5946287151028,9.405388425585562,44307.93445791085,-2254.022462962863,8.289077683208872,44526.53421591352,840.8284881137955,41.272412374840265,0.9399462022505682,56.0,42.0,101.0,260.0,361.0,14.0,788.0,782.0,18.0,9.0,9.0,0.5,29.60011551455018,167.42537211901717,7.0,5.0,2.0,0.7142857142857143,22.429574653013823,97.41380809340104,21.0,12.0,9.0,0.5714285714285714,176.35947988660763,2171.795751373668,17.0,7.0,10.0,0.4117647058823529,187.5112949787753,3265.081211601897,99.0,48.0,51.0,0.4848484848484848,30.04937084245299,870.7145361977441,,,,,44160.0,44174.0,44216.0,44221.0,44273.0,44293.0,44301.0,44317.0,44486.0,44577.0,0.1641218740497075,-0.21061433292994278,0.06442132740791591,-0.08318963012120822,0.03573781248761185
52,52,44925.66084101531,231.65731440775212,13.25814360580982,44995.726017299574,-131.95938551644068,7.64389620259217,45054.581196050225,2840.9003184855205,8.83105978106852,45078.384614335526,-2088.710271096917,8.080341561247696,45299.8159327732,861.6548037535601,39.67726596863139,0.95918202456,72.0,46.0,105.0,257.0,362.0,26.0,752.0,770.0,37.0,19.0,18.0,0.5135135135135135,26.2006932513076,188.6823030616812,17.0,13.0,4.0,0.7647058823529411,27.490987541397203,183.18768322924635,20.0,12.0,8.0,0.6,184.58687091828065,2385.8798355243916,17.0,7.0,10.0,0.4117647058823529,181.2888743549245,3161.2721633977926,88.0,42.0,46.0,0.4772727272727273,27.553121804152568,939.604928008725,,,,,44911.0,44937.0,44983.0,45000.0,45043.0,45063.0,45071.0,45088.0,45258.0,45345.0,0.11310108346154094,-0.20832915698877766,0.06497477919840694,-0.08679464876654146,0.03197698391992366
53,53,45721.12330450071,182.77361906723792,12.739827004320285,45772.54796540086,-199.075238836351,9.221532764844987,45856.390740322386,2925.4578842997744,8.841071439106395,45879.49425498001,-2254.4748658709073,8.047846317374315,46125.78076469755,754.9886299084349,35.36559382545832,0.910223088772585,53.0,40.0,125.0,261.0,386.0,13.0,797.0,802.0,15.0,11.0,4.0,0.7333333333333333,30.665793941709783,243.68356602809268,16.0,10.0,6.0,0.625,32.88525929878129,231.72032479954763,21.0,12.0,9.0,0.5714285714285714,182.0240416902341,2415.823162935085,16.0,6.0,10.0,0.375,187.8250729295769,3297.0154709970448,97.0,69.0,28.0,0.711340206185567,32.19145650678814,739.4957246666618,,,,,45711.0,45724.0,45764.0,45778.0,45844.0,45865.0,45873.0,45889.0,46057.0,46150.0,0.16778019770144503,-0.16519010345537996,0.06222070147278932,-0.08331211661435833,0.04263833285898932
54,54,46561.78196558806,146.21814861875066,5.095930801728113,46616.273982700426,-226.3186421413134,7.64389620259217,46701.62881107749,3687.593992492152,10.369418510445088,46717.45203459914,-2932.2210654920236,11.19760111143878,46956.2327992967,807.7895229684768,34.4312862628813,0.9344060488649296,50.0,44.0,124.0,258.0,382.0,6.0,842.0,842.0,8.0,6.0,2.0,0.75,28.28791652675054,129.37175322455005,12.0,10.0,2.0,0.8333333333333334,29.620457244734308,353.54067561018013,22.0,17.0,5.0,0.7727272727272727,203.46205752770845,793.0720512900457,19.0,3.0,16.0,0.1578947368421052,211.49531922496325,3672.1173452417647,111.0,73.0,38.0,0.6576576576576577,26.260366179165494,703.6865030555023,,,,,46557.0,46563.0,46607.0,46618.0,46686.0,46707.0,46714.0,46731.0,46904.0,46989.0,0.19346378540538411,-0.13087944044061245,0.05517474481788181,-0.07212802667368962,0.03250892148571513
55,55,47386.21647411692,198.65462393305265,10.232487806545146,47429.34477035551,-201.08346342347383,4.684164371911001,47516.84528894535,3003.228379690748,9.250327655414614,47538.93854947941,-2428.3123213724616,8.608958535204374,47764.986190295254,883.0337456957924,38.94210898372129,0.9437904167791528,46.0,28.0,127.0,263.0,390.0,18.0,825.0,818.0,18.0,10.0,8.0,0.5555555555555556,29.82760044930213,254.6537424932528,14.0,7.0,7.0,0.5,32.165662787156094,186.93908567060888,21.0,13.0,8.0,0.6190476190476191,201.13154480337528,2225.554729171962,17.0,7.0,10.0,0.4117647058823529,191.15382051718333,3521.3894698360327,98.0,50.0,48.0,0.5102040816326531,29.356839572702157,927.5717488574664,,,,,47376.0,47394.0,47422.0,47436.0,47504.0,47525.0,47532.0,47549.0,47715.0,47812.0,0.15014803007733735,-0.15996175040717533,0.06697177815830524,-0.07871879528624424,0.03324543338892472
56,56,48199.273982700426,156.5296869209537,7.64389620259217,48273.84932180029,-177.51832066635262,5.095930801728113,48342.26212470116,3722.008042056578,9.963240515441042,48358.45203459914,-3038.175879445018,11.036649700360542,48582.276217188024,868.2518720667244,39.0248050799076,0.9475465327536748,76.0,63.0,101.0,267.0,368.0,13.0,812.0,823.0,13.0,4.0,9.0,0.3076923076923077,24.156169171714694,159.4614808293575,6.0,3.0,3.0,0.5,24.33002611312242,220.88126271189415,21.0,15.0,6.0,0.7142857142857143,220.26408694699592,1035.990221113931,21.0,4.0,17.0,0.1904761904761904,223.0268488019705,3950.1162954628826,104.0,47.0,57.0,0.4519230769230769,30.71507847056576,907.8109885525732,,,,,48195.0,48208.0,48271.0,48276.0,48328.0,48347.0,48355.0,48372.0,48542.0,48639.0,0.15432324466293332,-0.13705642336968102,0.05917883154956593,-0.07340814279741786,0.03537576993350304
57,57,49045.273982700426,183.15319471045396,7.64389620259217,49083.69864360057,-222.42840316357413,5.2787000640229005,49172.62539870683,2835.4912181589825,9.441719908016816,49194.98718278789,-2419.8744686665627,9.218577720486088,49425.808138396555,852.1513776154089,33.92951856475206,0.9322254915031568,37.0,26.0,128.0,254.0,382.0,11.0,846.0,832.0,11.0,4.0,7.0,0.3636363636363636,30.704492055473555,165.43182011909596,12.0,7.0,5.0,0.5833333333333334,28.085960550575656,306.9438161828521,21.0,13.0,8.0,0.6190476190476191,181.61722306733287,1728.310763540594,18.0,7.0,11.0,0.3888888888888889,186.31046474860597,3406.067433551908,85.0,46.0,39.0,0.5411764705882353,27.889921356868008,845.7277284255458,,,,,49041.0,49052.0,49078.0,49089.0,49160.0,49181.0,49188.0,49206.0,49381.0,49460.0,0.16764377003641212,-0.12626966768232925,0.06405141440898295,-0.07699178910353548,0.03272883444126194
58,58,49834.03938226513,159.8514856948865,10.191861603456228,49880.84932180029,-195.08065008319744,2.357889657957368,49968.6832733296,2635.6208130605846,8.991763419431603,49993.123304467365,-1980.452764987931,8.768446118350793,50226.2327992967,805.9640496409974,35.37502217279326,0.92148835996406,54.0,39.0,124.0,257.0,381.0,15.0,791.0,797.0,15.0,10.0,5.0,0.6666666666666666,24.485072490103608,272.7006137734864,9.0,4.0,5.0,0.4444444444444444,33.426484141151306,192.14864905264463,22.0,13.0,9.0,0.5909090909090909,167.1813091962974,2227.6009254658065,17.0,7.0,10.0,0.4117647058823529,165.00646889762774,2868.881232984553,98.0,55.0,43.0,0.5612244897959183,29.701528542917167,752.467251985836,,,,,49824.0,49839.0,49878.0,49886.0,49957.0,49977.0,49986.0,50002.0,50173.0,50259.0,0.15317388126650902,-0.17134699995563718,0.06343147252740049,-0.08331754829741335,0.036852175424136095
59,59,50602.753390998565,298.310060244146,25.47965400864057,50637.575339099865,-169.7399276680511,2.547965400863187,50725.747602697855,2732.9790832044964,9.593638966076975,50749.38105545663,-1839.971887760017,7.375742017806043,50967.13686849497,950.7989014925936,52.08658284002368,0.9355875710050846,52.0,20.0,122.0,258.0,380.0,32.0,772.0,758.0,36.0,22.0,14.0,0.6111111111111112,33.652837198977686,246.05825673642727,3.0,1.0,2.0,0.3333333333333333,28.978753145105333,122.95205697970694,23.0,13.0,10.0,0.5652173913043478,162.8970909929834,2494.555428445725,16.0,6.0,10.0,0.375,162.46387604419778,2850.979801484187,99.0,48.0,51.0,0.4848484848484848,33.72746035500341,1228.3497443623896,,,,,50585.0,50617.0,50637.0,50640.0,50713.0,50736.0,50743.0,50759.0,50919.0,51017.0,0.11281160672702485,-0.170724434393404,0.059604221632747326,-0.08829693384173462,0.035472759068249864
60,60,51341.22573346821,205.79477191837404,20.383723206912453,51389.327860109464,-172.71625829033331,4.042088565071304,51475.89739809413,2886.659866267893,9.095386801573616,51498.91289385829,-2032.1153721151736,8.076708310486458,51719.56152939511,891.3625274667789,40.54355201853235,0.9570155535658388,56.0,38.0,121.0,260.0,381.0,18.0,734.0,749.0,18.0,10.0,8.0,0.5555555555555556,25.453611269167272,262.2547598025411,6.0,2.0,4.0,0.3333333333333333,24.602619347175885,323.3486608055625,20.0,12.0,8.0,0.6,182.86616673268176,2354.871590394817,16.0,7.0,9.0,0.4375,178.0852819568733,3042.9640504727968,89.0,41.0,48.0,0.4606741573033708,29.227315735087004,953.815474939332,,,,,51331.0,51349.0,51387.0,51393.0,51464.0,51484.0,51493.0,51508.0,51684.0,51768.0,0.12368444072652697,-0.14244530069554465,0.06334870584150461,-0.0876354189336746,0.03278948220781729
61,61,52191.726017299574,221.62827416560896,7.64389620259217,52256.15067819977,-134.48664341661888,5.095930801728113,52325.09341358797,3067.37826508272,9.556267578347953,52345.41950914952,-2182.6102579674603,9.43355788027602,52570.03368171876,813.4133212110461,38.407885505984574,0.9508388941158328,76.0,59.0,101.0,260.0,361.0,17.0,852.0,849.0,18.0,14.0,4.0,0.7777777777777778,26.84159080063603,243.2473622321232,6.0,2.0,4.0,0.3333333333333333,31.443185132402142,119.71003325055254,20.0,13.0,7.0,0.65,192.6756329138364,2116.4249401413736,17.0,5.0,12.0,0.2941176470588235,185.2459477438331,3344.5425886106705,94.0,42.0,52.0,0.4468085106382978,27.760488083483143,910.8747012856873,,,,,52179.0,52196.0,52255.0,52260.0,52312.0,52332.0,52340.0,52356.0,52529.0,52616.0,0.12111085962154354,-0.2338015458902934,0.0628144350852145,-0.08487358064391305,0.03412839126134803
62,62,53026.273982700426,247.02203274232093,7.64389620259217,53077.273982700426,-118.60435535034772,5.0367004672165745,53162.88243819317,2984.3178198725127,8.759873716066465,53186.195085814776,-2105.3876918435194,8.589569311222153,53407.4745765029,872.592212634784,40.589369315487104,0.9489398731404772,55.0,45.0,123.0,266.0,389.0,10.0,832.0,838.0,30.0,9.0,21.0,0.3,27.33806168518118,268.772109199665,6.0,4.0,2.0,0.6666666666666666,26.43417597533078,174.67854149373954,20.0,12.0,8.0,0.6,193.1679031095936,2511.577525359924,18.0,7.0,11.0,0.3888888888888889,176.31048835206147,3218.509687813311,109.0,50.0,59.0,0.4587155963302752,27.773047609974093,729.6121750322912,,,,,53018.0,53028.0,53073.0,53079.0,53151.0,53171.0,53179.0,53196.0,53358.0,53462.0,0.11067053971537293,-0.22287694155283214,0.06472765796702093,-0.08374252829305774,0.03182820933745631
63,63,53856.027373699,183.38253986246175,15.928367403395908,53927.84932180029,-176.64114101739872,5.095930801728113,53979.05886644395,3170.8113416984315,9.364727805055267,53999.654118379425,-2489.214783414908,9.743960119925584,54222.6025309577,869.4824622508962,38.80265540530827,0.9527811454530662,77.0,59.0,85.0,263.0,348.0,18.0,834.0,816.0,31.0,21.0,10.0,0.6774193548387096,25.473640023238747,133.17850910216663,13.0,4.0,9.0,0.3076923076923077,27.16170247338381,169.05250901194995,20.0,13.0,7.0,0.65,207.41650105981327,1907.7112148065175,16.0,6.0,10.0,0.375,198.04706559101257,3716.828581479398,88.0,37.0,51.0,0.4204545454545454,24.514935744727147,947.6570159898764,,,,,53848.0,53866.0,53925.0,53931.0,53967.0,53986.0,53994.0,54010.0,54187.0,54273.0,0.1389098441015386,-0.15376770279528734,0.06541433050025344,-0.07956206387273476,0.02819485936641372
64,64,54679.273982700426,120.52765576236207,7.64389620259217,54762.45591671825,-221.8751167856078,25.47965400864057,54817.53437517926,3020.0615793559145,9.025031775180771,54839.35310086558,-2552.1727057808994,9.204778275700823,55064.68483389583,791.3540936951271,35.46283658377535,0.9504552509491828,75.0,65.0,99.0,257.0,356.0,10.0,819.0,839.0,10.0,4.0,6.0,0.4,26.982601128079672,102.93231882889786,66.0,39.0,27.0,0.5909090909090909,24.50819525855177,105.40541379271193,19.0,12.0,7.0,0.631578947368421,213.78284904317056,1926.7461936602224,16.0,6.0,10.0,0.375,203.0162086779947,3856.551026712222,98.0,50.0,48.0,0.5102040816326531,27.41198866311581,710.2835417038207,,,,,54675.0,54685.0,54750.0,54776.0,54806.0,54824.0,54833.0,54849.0,55026.0,55106.0,0.2238706208745968,-0.11045941344667959,0.07078757946676167,-0.07954642262968523,0.03463934650937234
65,65,55498.69864360057,216.75368170386537,9.465057529226376,55567.12330450065,-218.7527588037968,12.739827004320285,55635.39728720114,3624.231503139293,10.173884720906145,55651.966307414026,-3015.9684856096496,10.912284868149325,55876.22800629351,883.2273199467405,39.29789949891259,0.95087593576603,64.0,52.0,108.0,260.0,368.0,12.0,819.0,815.0,12.0,6.0,6.0,0.5,29.95625663757675,281.3904125909582,47.0,18.0,29.0,0.3829787234042553,23.10685509805519,153.83109367869255,21.0,15.0,6.0,0.7142857142857143,211.1428029416094,1100.586820786183,18.0,4.0,14.0,0.2222222222222222,221.68295904354628,4010.094759983007,98.0,43.0,55.0,0.4387755102040816,29.587209445864776,942.5292959298666,,,,,55493.0,55505.0,55557.0,55570.0,55620.0,55640.0,55649.0,55665.0,55834.0,55925.0,0.1382041421492613,-0.10563000541986367,0.0582586412481428,-0.0735030754138451,0.03349897447425983
66,66,56274.726017299574,218.75722074523992,7.64389620259217,56342.726017299574,-253.3784383184881,7.64389620259217,56408.875233669205,3014.1012510513688,9.557533665651476,56429.315507936335,-2701.868773403878,9.483392033305012,56648.77754804716,761.5435236896474,39.058456482121535,0.949141101005659,58.0,48.0,109.0,263.0,372.0,10.0,779.0,775.0,11.0,3.0,8.0,0.2727272727272727,24.875590515536167,225.41638409050225,17.0,12.0,5.0,0.7058823529411765,29.54666185412645,326.2062167735335,21.0,14.0,7.0,0.6666666666666666,209.97788423609984,1485.7147558308145,17.0,6.0,11.0,0.3529411764705882,201.46722947230327,3875.4676686024086,104.0,50.0,54.0,0.4807692307692308,30.00615472162696,719.9631170108095,,,,,56273.0,56283.0,56331.0,56347.0,56395.0,56416.0,56423.0,56440.0,56600.0,56703.0,0.11371323164004611,-0.1166107978650784,0.06966517271536782,-0.07456588249417091,0.03940175943752809
67,67,57039.726017299574,170.81304252774828,7.64389620259217,57101.30135639943,-283.1700927501753,10.191861603456228,57170.14105971841,2947.306589788587,9.25853276954398,57191.49329212749,-2524.113941638443,9.170312751026856,57412.40446043199,876.5403913711226,40.17755443852053,0.9498468074213084,57.0,46.0,111.0,262.0,373.0,11.0,765.0,762.0,17.0,7.0,10.0,0.4117647058823529,26.26058491754136,178.40980852721202,18.0,12.0,6.0,0.6666666666666666,28.536258419521328,248.8755576249943,20.0,13.0,7.0,0.65,200.9235726535205,1869.92081674459,16.0,6.0,10.0,0.375,206.10570296162356,3793.0605589921784,99.0,48.0,51.0,0.4848484848484848,28.789071484699083,911.661951082762,,,,,57033.0,57044.0,57090.0,57107.0,57157.0,57177.0,57185.0,57201.0,57364.0,57463.0,0.15373875746798069,-0.10077426659847595,0.0681719280069648,-0.08165467475998212,0.03284397589444334
68,68,57798.726017299574,257.0785770819525,7.64389620259217,57869.90779010188,-164.5231632520493,6.319827825019243,57921.85858013229,2940.287476487707,9.19051986117776,57945.09010021199,-2373.7995911741677,8.294139316386843,58163.013563994245,933.0033937612386,44.72506306708611,0.9558664655354144,76.0,65.0,87.0,265.0,352.0,11.0,759.0,752.0,12.0,8.0,4.0,0.6666666666666666,35.341728245700786,270.94754595206405,7.0,3.0,4.0,0.4285714285714285,31.63047845915602,206.1377031168929,20.0,12.0,8.0,0.6,189.21804272827555,2272.9609387609344,17.0,7.0,10.0,0.4117647058823529,190.50485885802925,3305.665108111672,111.0,52.0,59.0,0.4684684684684684,25.775011674003505,827.5564290678514,,,,,57792.0,57803.0,57868.0,57874.0,57910.0,57930.0,57938.0,57955.0,58113.0,58220.0,0.13747441987137812,-0.1922554723233601,0.06435358591341014,-0.08025313491767795,0.027625849859019367
69,69,58548.69864360057,256.4571264985326,10.191861603456228,58620.726017299574,-209.10094799366692,7.64389620259217,58686.73796361777,2912.533753932643,9.230080994494658,58709.14332502179,-2575.8115036993445,8.004187976329792,58926.671027241624,887.0181016285765,42.871942940478824,0.9540272053392151,65.0,39.0,110.0,260.0,370.0,26.0,747.0,765.0,28.0,7.0,21.0,0.25,27.32851441076933,226.5790563995803,17.0,13.0,4.0,0.7647058823529411,30.39111812123009,235.64070187100992,21.0,13.0,8.0,0.6190476190476191,202.2403584511496,2058.9989177156563,16.0,7.0,9.0,0.4375,208.90675190166584,3666.510327362358,97.0,45.0,52.0,0.4639175257731959,28.562387825590008,905.49754714019,,,,,58543.0,58569.0,58608.0,58625.0,58674.0,58695.0,58702.0,58718.0,58883.0,58978.0,0.10656172742747197,-0.14534184762352464,0.06943794494332468,-0.08110327623028195,0.03220045653312949
70,70,59279.05474739799,253.6495315103248,35.671515612079226,59310.424660900135,-267.84872755884254,2.5479654008640567,59399.34380927854,2791.83417904347,9.166954436109442,59423.89433331985,-2089.579604772792,7.468621918137048,59644.835512095546,929.272801174406,48.82447708525631,0.9456543035887712,38.0,9.0,124.0,256.0,380.0,29.0,738.0,713.0,29.0,8.0,21.0,0.2758620689655172,29.354414577542716,300.1563904640167,3.0,1.0,2.0,0.3333333333333333,27.501607682659294,103.4526109317623,21.0,11.0,10.0,0.5238095238095238,163.78410912296945,2651.452317273057,17.0,7.0,10.0,0.4117647058823529,174.7230837804617,2843.9250055728135,105.0,56.0,49.0,0.5333333333333333,29.88286407182417,988.5904460594664,,,,,59271.0,59300.0,59309.0,59312.0,59388.0,59409.0,59417.0,59433.0,59590.0,59689.0,0.11572824283473138,-0.10267589446217393,0.058665414426255315,-0.08361638072145139,0.0321572567647073
71,71,59988.60271279886,267.4354141850537,20.383723206912453,60026.726017299574,-157.72744622803134,5.074080108174957,60113.496284255496,2750.4772168144345,9.696315896497072,60136.4773527102,-2052.6325303861063,7.802513898719985,60364.26017299569,887.25228913631,40.66630863345416,0.9520896354327008,44.0,25.0,120.0,262.0,382.0,19.0,707.0,714.0,40.0,20.0,20.0,0.5,30.186080232679593,184.6999530750951,6.0,2.0,4.0,0.3333333333333333,30.00752350796957,222.38198804950235,22.0,12.0,10.0,0.5454545454545454,168.96638325401668,2493.0743172039265,15.0,6.0,9.0,0.4,174.41422020872116,3057.590964571628,87.0,44.0,43.0,0.5057471264367817,24.063542707672564,913.0949182096113,,,,,59981.0,60000.0,60025.0,60031.0,60101.0,60123.0,60130.0,60145.0,60320.0,60407.0,0.11287241192294802,-0.19024921930573063,0.06143166073911757,-0.08497099097221913,0.02712142082056172
72,72,60776.15067819971,166.2837543242061,5.095930801728113,60825.30135639943,-173.28123201371974,10.191861603456228,60895.097801219,3020.633803232739,9.169385202976487,60917.25295100956,-1994.4748985248812,8.692472210622972,61140.44995339217,845.7328141564578,39.489631456320375,0.9579942180855038,48.0,38.0,110.0,265.0,375.0,10.0,785.0,781.0,10.0,7.0,3.0,0.7,23.50849941347834,232.27862079128175,16.0,8.0,8.0,0.5,23.698919983404085,152.17414626098306,20.0,12.0,8.0,0.6,190.75054844186863,2481.699291570936,16.0,6.0,10.0,0.375,175.40888321307392,3147.347160819159,104.0,51.0,53.0,0.4903846153846153,24.15425120453353,808.314252624721,,,,,60769.0,60779.0,60817.0,60831.0,60883.0,60903.0,60911.0,60927.0,61100.0,61192.0,0.14137580372189243,-0.13676564800467078,0.06314918022758131,-0.08794740076338228,0.02856014429169952
73,73,61609.15067819971,146.2821811169368,4.96415318003067,61685.87669549929,-252.13654678935623,12.739827004320285,61735.69853547199,3681.578735625154,9.602124100767886,61752.87669549929,-2414.540234624288,11.951889898748249,61983.68483389583,784.487032689994,35.05917272076902,0.9383894744253336,76.0,71.0,84.0,258.0,342.0,5.0,833.0,839.0,12.0,9.0,3.0,0.75,31.668857442495717,67.82693259527133,19.0,9.0,10.0,0.4736842105263157,29.24100506603524,265.5075407655152,21.0,15.0,6.0,0.7142857142857143,208.93721100046545,1439.8758898027374,19.0,4.0,15.0,0.2105263157894736,194.56985781913716,3657.224211123357,87.0,45.0,42.0,0.5172413793103449,32.50598351089029,725.3856777002137,,,,,61607.0,61612.0,61683.0,61695.0,61721.0,61742.0,61750.0,61767.0,61947.0,62025.0,0.21649155899022235,-0.11597289420507613,0.05675206915410073,-0.08058257014276383,0.04143597300700787
74,74,62365.60271279886,315.71750583881123,20.383723206912453,62398.575339099865,-147.9051896940551,1.4811187440724012,62488.74452420358,2706.0045857643063,9.123583516042835,62512.634071743945,-2074.933121084903,7.057193416268693,62752.65746019684,898.0049667778941,46.27776524032802,0.8906881093929508,39.0,20.0,124.0,263.0,387.0,19.0,759.0,756.0,51.0,39.0,12.0,0.7647058823529411,29.5125952857189,165.1444366359859,3.0,2.0,1.0,0.6666666666666666,24.270894329902458,93.70637997832114,20.0,11.0,9.0,0.55,170.36156489280745,2540.8211328079096,15.0,7.0,8.0,0.4666666666666667,172.34382212383352,2815.060860829317,106.0,74.0,32.0,0.6981132075471698,27.327111799828153,955.9710022162708,,,,,62358.0,62377.0,62397.0,62400.0,62478.0,62498.0,62506.0,62521.0,62679.0,62784.0,0.0934778551709023,-0.16409765188163644,0.06295686481428824,-0.08305994076267939,0.03043091387108891
75,75,63081.98061324943,172.4447680175317,7.64389620259217,63157.0171662439,-153.63317448045325,7.64389620259217,63221.41418705394,3222.9492995036567,10.14904905351858,63237.87669549929,-2210.7602043585525,11.707266570166375,63461.48367037509,734.0860656448763,37.82133752124522,0.9354286772310894,71.0,64.0,103.0,260.0,363.0,7.0,712.0,730.0,7.0,4.0,3.0,0.5714285714285714,28.576816523145048,172.4098881690284,11.0,8.0,3.0,0.7272727272727273,27.097895724773498,245.6932993475981,22.0,15.0,7.0,0.6818181818181818,169.88855952109037,1357.9259183385198,18.0,3.0,15.0,0.1666666666666666,172.15426606354205,3042.754235357726,89.0,36.0,53.0,0.4044943820224719,30.922922143574297,808.2807148190357,,,,,63078.0,63085.0,63149.0,63160.0,63206.0,63227.0,63235.0,63252.0,63426.0,63512.0,0.16571576425119358,-0.17638049735294095,0.05271214149948114,-0.0778710715545435,0.04212438239977935
76,76,63774.05474739799,287.1767919285422,35.6715156120968,63876.424660900135,-61.160681792682894,0.7444311905828245,63908.705528083,2791.7479855858783,9.296253651859503,63932.68984803161,-1814.5863543164423,7.184308404878026,64153.56152939511,865.2755695658976,45.40463665249482,0.9423764508627482,109.0,79.0,66.0,261.0,327.0,30.0,699.0,690.0,31.0,9.0,22.0,0.2903225806451613,25.4886399813043,358.6528826073212,3.0,1.0,2.0,0.3333333333333333,26.61059676996812,72.67638460060675,20.0,12.0,8.0,0.6,170.29280273670014,2573.5536138798034,16.0,7.0,9.0,0.4375,159.80829104347404,2563.616714103514,98.0,49.0,49.0,0.5,25.51289638070085,882.3375701317075,,,,,63766.0,63796.0,63875.0,63878.0,63897.0,63917.0,63926.0,63941.0,64106.0,64202.0,0.08875591864556591,-0.43509320023884596,0.06099863011129293,-0.08806871641205198,0.02948528454755805
77,77,,,,,,,,,,,,,,,,,,,,,,,,,,,,,,,,,,,,,,,,,,,,,,,,,,,,,,,,,,,,64175.0,64439.0,64551.0,64559.0,64574.0,64584.0,64605.0,64816.0,64835.0,,,,,
78,78,65157.30135639943,273.2771112280413,10.191861603456228,65215.17019257763,-129.912069790789,1.800677196145776,65295.046303513926,2941.9750190927357,9.359691691151363,65317.50842174984,-2059.5662701424453,8.299564174222443,65556.65746019685,814.2266196180494,37.693926610171914,0.9229546737354992,68.0,50.0,114.0,261.0,375.0,18.0,1379.0,1385.0,19.0,13.0,6.0,0.6842105263157895,25.29403956637117,280.9303817557039,4.0,2.0,2.0,0.5,28.47914809250938,204.5286302446106,20.0,12.0,8.0,0.6,179.46228047853313,2294.664308163604,16.0,7.0,9.0,0.4375,174.22122735914957,2960.4027533791946,110.0,73.0,37.0,0.6636363636363637,24.33628904083651,837.1820261925795,,,,,65145.0,65163.0,65213.0,65217.0,65283.0,65303.0,65311.0,65327.0,65496.0,65588.0,0.09255820750119126,-0.21921864641501235,0.06100061330020294,-0.08459122189212195,0.029888839856712826
79,79,66037.78540052223,165.26631739360593,7.64389620259217,66100.81615074846,-231.8133362271676,10.191861603456228,66172.57987431291,3583.55514470796,9.428461668561326,66190.45203459915,-2325.2088605862086,11.993362579461918,66415.71220759483,741.3749480042195,39.5421753320182,0.949760060694244,63.0,56.0,106.0,263.0,369.0,7.0,880.0,876.0,7.0,3.0,4.0,0.4285714285714285,29.361354874576925,216.32225006267032,19.0,9.0,10.0,0.4736842105263157,24.609136469788854,212.8080251904854,21.0,15.0,6.0,0.7142857142857143,206.45774221020585,1383.9086007461417,19.0,4.0,15.0,0.2105263157894736,197.5537563406526,3535.8473393465047,95.0,42.0,53.0,0.4421052631578947,25.703715327351087,793.1364276847028,,,,,66035.0,66042.0,66098.0,66111.0,66159.0,66179.0,66187.0,66204.0,66375.0,66467.0,0.17766085272323556,-0.1061592782810084,0.05761254783956478,-0.08496172524082302,0.03467033165410493
80,80,66870.15067819973,207.59582749135868,5.095930801728113,66971.30135639943,-323.4392656655761,10.191861603456228,67005.87110630902,3554.7288769373627,10.001453434413309,67022.45203459915,-2917.2107493655953,11.040785380169709,67250.53793919456,799.3672715812079,35.18168526505298,0.9416149407946872,82.0,72.0,90.0,257.0,347.0,10.0,832.0,833.0,10.0,7.0,3.0,0.7,27.22513352017378,276.9801597884204,70.0,63.0,7.0,0.9,34.60303917130434,17.84565175757085,20.0,15.0,5.0,0.75,213.58839503209344,952.5001566454516,18.0,3.0,15.0,0.1666666666666666,220.0519043125921,3926.549308631945,78.0,36.0,42.0,0.4615384615384615,27.400128422190996,899.1731988870949,,,,,66863.0,66873.0,66945.0,66977.0,66992.0,67011.0,67019.0,67035.0,67215.0,67292.0,0.13114489751152175,-0.10698465784634376,0.060085706231445185,-0.07543229585330669,0.03427727078191668
81,81,67702.72601729959,211.2436405087759,7.64389620259217,67759.79457440229,-242.97357585366885,28.007981015898064,67829.82194810128,3587.887088336489,10.124300421329307,67846.88806946269,-2933.123253530729,11.12666230947483,68071.40124007876,792.3739582449709,38.07940948877699,0.9433719326703454,36.0,26.0,125.0,258.0,383.0,10.0,833.0,823.0,10.0,2.0,8.0,0.2,30.885698755478423,124.78767873505664,44.0,28.0,16.0,0.6363636363636364,28.27218666007695,260.5827160038621,22.0,16.0,6.0,0.7272727272727273,211.6346018460618,957.4350924934364,19.0,4.0,15.0,0.2105263157894736,200.29330765148708,3993.024054025618,93.0,39.0,54.0,0.4193548387096774,27.112232512934664,810.4460253972366,,,,,67701.0,67711.0,67737.0,67770.0,67815.0,67835.0,67843.0,67862.0,68033.0,68120.0,0.14620889263738715,-0.11635910020562858,0.058985858984817,-0.06828669999134378,0.0342164608400124
82,82,68458.75339099858,261.24490395893787,25.47965400864056,68551.15067819973,-107.07446775621618,2.7952823383167607,68593.88008604829,2515.654625781868,9.606276014618812,68617.78936169611,-2174.096467540678,7.910605283685666,68835.3982510335,859.1680999658447,42.49286395527879,0.9402127458519346,97.0,71.0,77.0,259.0,336.0,26.0,759.0,769.0,26.0,6.0,20.0,0.2307692307692307,28.043970050928888,314.4263727185131,5.0,2.0,3.0,0.4,27.05686251353199,160.30779502225272,21.0,12.0,9.0,0.5714285714285714,157.0556853276965,2199.1057693707694,16.0,7.0,9.0,0.4375,166.1716848483599,2996.7182985642567,95.0,43.0,52.0,0.4526315789473684,29.573143146765535,958.981065783578,,,,,68453.0,68479.0,68550.0,68554.0,68582.0,68603.0,68611.0,68627.0,68792.0,68886.0,0.10734743386740589,-0.2526920103411974,0.06243133843497432,-0.07643252603060989,0.03442067174973231
83,83,69196.27398270041,132.6710839838957,7.64389620259217,69241.27398270041,-185.91100288382376,7.64389620259217,69329.41254232195,2954.986851402853,9.23043558104373,69351.46179152933,-2140.8423795846406,9.50624013503198,69573.42553457896,833.4795106996279,38.277353500166825,0.9534408260774052,45.0,38.0,125.0,263.0,388.0,7.0,732.0,733.0,7.0,4.0,3.0,0.5714285714285714,27.324810824826866,224.92004292123497,18.0,4.0,14.0,0.2222222222222222,25.491537683360423,278.0635600647623,20.0,12.0,8.0,0.6,188.59191259869627,2304.4982422114876,17.0,6.0,11.0,0.3529411764705882,184.0409077794392,3427.3901516091105,105.0,52.0,53.0,0.4952380952380952,23.563226831996086,878.1004423906827,,,,,69192.0,69199.0,69237.0,69248.0,69317.0,69337.0,69345.0,69362.0,69532.0,69625.0,0.20595905305291462,-0.13711688543410283,0.06382157420063103,-0.08596658471192364,0.028270913117248636
84,84,70000.72601729959,192.00012105367145,7.64389620259217,70031.27398270041,-174.39749783615818,7.64389620259217,70118.25507319029,2947.2661999760553,9.069350195775344,70140.49688696269,-2281.3143637703884,8.229744728066164,70370.10949479598,781.16305683379,37.71708423979715,0.9376586715587268,25.0,14.0,126.0,260.0,386.0,11.0,807.0,789.0,18.0,9.0,9.0,0.5,27.67750016154776,157.11557815667743,10.0,7.0,3.0,0.7,32.150164836688745,317.5600675255016,20.0,12.0,8.0,0.6,187.8521654198187,2345.026830281775,16.0,6.0,10.0,0.375,196.16924760823264,3470.70170138828,108.0,60.0,48.0,0.5555555555555556,27.235117755432704,656.7522530642859,,,,,69999.0,70010.0,70024.0,70033.0,70106.0,70126.0,70134.0,70150.0,70331.0,70410.0,0.14415355578765926,-0.18434992035776207,0.06373776668742881,-0.08598957281977507,0.03486483073818426
85,85,70795.69864360057,330.9943759849368,10.191861603456228,70879.27398264727,-187.28206188704283,7.64389620259217,70930.76119926949,3011.1058410464,9.35565350846049,70953.3007741496,-2234.5599463028266,8.751462590032782,71169.3857981678,856.0503623714907,47.446352662758066,0.9532052728810724,85.0,66.0,89.0,264.0,353.0,19.0,792.0,813.0,30.0,17.0,13.0,0.5666666666666667,28.55915217965724,270.2231763371684,13.0,5.0,8.0,0.3846153846153846,24.920281202351983,155.21979751343625,21.0,13.0,8.0,0.6190476190476191,185.52329991322273,2206.8663900443344,17.0,6.0,11.0,0.3529411764705882,181.76520099104337,3300.384274054599,111.0,51.0,60.0,0.4594594594594595,28.867546046665822,763.839835940368,,,,,70790.0,70809.0,70875.0,70887.0,70918.0,70939.0,70947.0,70964.0,71130.0,71228.0,0.08628289255572406,-0.13306283021052162,0.06161301186568416,-0.0813427275879448,0.033721784740204916
86,86,71610.72601729959,156.9628766875244,7.643896202483196,71697.84932180027,-184.55804108649332,5.095930801728113,71729.39546363198,2549.7230653996653,9.403353643016994,71752.98050445825,-2256.6534163078613,9.230047785575644,71973.29559392968,748.2010566239607,38.12830394863687,0.9373739339509014,86.0,79.0,68.0,260.0,328.0,7.0,818.0,799.0,7.0,2.0,5.0,0.2857142857142857,27.084181252995833,180.00604880275813,5.0,3.0,2.0,0.6,40.63136292277258,83.10999835380193,20.0,12.0,8.0,0.6,156.31661126854922,2002.9473530368773,18.0,7.0,11.0,0.3888888888888889,166.3142598381865,3129.272129295452,102.0,49.0,53.0,0.4803921568627451,33.31988935390736,738.6580592047786,,,,,71609.0,71616.0,71695.0,71700.0,71717.0,71737.0,71746.0,71763.0,71929.0,72023.0,0.172551509150243,-0.22015493166039105,0.06130728995230971,-0.07369951390687868,0.04453333640593032
87,87,72341.27398270041,308.99211789352137,7.64389620259217,72447.15067819973,-143.08712506743473,5.095930801728113,72480.33907691397,2966.425207093382,9.679244143713731,72500.81961938241,-2159.453217738552,9.514871486221988,72718.2470735071,897.5582850299348,46.98394813597216,0.941405065217434,109.0,98.0,65.0,264.0,329.0,11.0,728.0,750.0,11.0,4.0,7.0,0.3636363636363636,29.50010503184618,280.1613385791261,5.0,2.0,3.0,0.4,34.94445276270016,9.778893952875762,19.0,12.0,7.0,0.631578947368421,188.3906851467007,2083.4648500956628,15.0,5.0,10.0,0.3333333333333333,179.9047290850894,3372.605725363602,111.0,49.0,62.0,0.4414414414414414,27.533622832976608,957.3789614090376,,,,,72337.0,72348.0,72446.0,72450.0,72468.0,72487.0,72496.0,72511.0,72676.0,72775.0,0.0954720309144323,-0.24421800875677238,0.06350764708181979,-0.08331031559622826,0.030676139134583693
88,88,73110.37028533209,292.964557051103,20.19940689488732,73155.72573135504,-176.6261765367482,1.740511382395866,73242.43506206754,3031.4837555267486,9.058409052464578,73265.14787595911,-2088.826421345021,8.071200287642496,73500.80813839656,935.9989158024116,39.32902375585453,0.9360427634624264,56.0,27.0,122.0,260.0,382.0,29.0,771.0,763.0,29.0,13.0,16.0,0.4482758620689655,26.915653058746493,433.2566482542535,5.0,3.0,2.0,0.6,30.59951612236024,182.6070957954412,21.0,12.0,9.0,0.5714285714285714,195.23945864877584,2732.7617752814103,16.0,6.0,10.0,0.375,178.81337821290182,3171.165934853884,104.0,64.0,40.0,0.6153846153846154,29.34352624239308,915.1331835429506,,,,,73097.0,73126.0,73153.0,73158.0,73230.0,73251.0,73259.0,73275.0,73448.0,73535.0,0.09187341065988228,-0.17324451404853808,0.06440392705150787,-0.08560470912550104,0.03134995751275792
89,89,73942.96582381541,283.8857519631693,7.64389620259217,74004.72601729959,-231.80923820809895,7.64389620259217,74075.82089722004,3015.282081048893,9.104233982620723,74097.65161134438,-2332.849930845998,8.58182910828859,74319.33103880048,813.7614619749615,38.94494866491166,0.954814156556572,50.0,38.0,123.0,258.0,381.0,12.0,833.0,833.0,12.0,8.0,4.0,0.6666666666666666,29.05659390510991,313.5212725892093,25.0,20.0,5.0,0.8,27.49544040748796,203.9954912182809,21.0,13.0,8.0,0.6190476190476191,196.1198399737168,2179.056751503115,17.0,7.0,10.0,0.4117647058823529,192.8499400763557,3410.155822887431,90.0,43.0,47.0,0.4777777777777778,31.286581109655295,861.869993223882,,,,,73935.0,73947.0,73985.0,74009.0,74063.0,74083.0,74092.0,74108.0,74281.0,74366.0,0.10235312517156425,-0.11861235824779706,0.0650419545177328,-0.08266710066790257,0.038446869963249676
90,90,74762.15067819973,192.3844176189513,5.095930801728113,74828.39728720114,-217.33141362474103,20.383723206912453,74898.68998799074,3657.4604051316064,9.84138438053574,74915.45203459915,-2864.3255065245667,11.04649487039974,75145.10949479598,839.482139283378,37.27176032450014,0.946003192641677,62.0,52.0,111.0,257.0,368.0,10.0,819.0,821.0,10.0,7.0,3.0,0.7,28.047526848816695,234.37681671157105,66.0,25.0,41.0,0.3787878787878788,22.838608100996087,113.6585210100982,21.0,15.0,6.0,0.7142857142857143,223.09113043160707,1005.547323540162,19.0,4.0,15.0,0.2105263157894736,219.7562359853159,3888.3846847057503,107.0,59.0,48.0,0.5514018691588785,23.540878084361907,756.3035588685292,,,,,74755.0,74765.0,74817.0,74837.0,74885.0,74904.0,74912.0,74928.0,75107.0,75185.0,0.14578897395094334,-0.10508654832766494,0.06099618470745402,-0.07672180954459935,0.028042142867336667
91,91,75563.20374347872,162.43371791400082,7.64389620259217,75614.27398270041,-163.62391980252616,7.64389620259217,75702.6952471236,3829.8527112985257,9.786414831794035,75718.87669549929,-2860.208030889494,11.858670682254418,75959.2327992967,782.5383380804632,34.069864644024776,0.9227558530049076,55.0,45.0,124.0,258.0,382.0,10.0,799.0,803.0,10.0,8.0,2.0,0.8,30.708675903888228,185.49001222577093,8.0,6.0,2.0,0.75,31.10237902765898,208.7340527207536,23.0,16.0,7.0,0.6956521739130435,213.0592352320253,846.9161885051038,20.0,4.0,16.0,0.2,200.4864518236928,3869.567161398363,98.0,65.0,33.0,0.6632653061224489,26.60071739766781,745.4251603748041,,,,,75555.0,75565.0,75610.0,75616.0,75688.0,75709.0,75716.0,75734.0,75904.0,75992.0,0.18905358012027207,-0.19008454916124554,0.055631182526543366,-0.07009505940074703,0.033992861567547425
92,92,76307.5990413064,291.17888455598063,20.79433011455238,76383.6713631138,-107.09739302978969,1.0578748201942985,76444.25697936915,2701.188425958439,9.110415875549135,76467.88578908579,-2139.3510692171467,8.292851396789347,76685.28754669469,879.3487120240253,45.09429070466382,0.9444258651376568,84.0,52.0,96.0,260.0,356.0,32.0,746.0,745.0,32.0,10.0,22.0,0.3125,34.627945499584904,469.3019671090877,4.0,2.0,2.0,0.5,23.733834535219664,137.831448962914,20.0,11.0,9.0,0.55,165.84567732424455,2260.1885770886392,17.0,7.0,10.0,0.4117647058823529,168.74449058209387,3022.9628031394604,117.0,60.0,57.0,0.5128205128205128,24.30866496052539,881.8398811744527,,,,,76298.0,76330.0,76382.0,76386.0,76433.0,76453.0,76461.0,76478.0,76644.0,76738.0,0.11892327135049349,-0.2216098250740611,0.06139730043652878,-0.07887648409376895,0.02764394219054845
93,93,77034.24845028836,257.1001230721328,25.47965400860953,77078.29588568276,-202.74781038605525,4.904013307231792,77167.58445443003,2822.0654288012074,9.5959974840018,77190.64573440568,-2085.8847432485163,7.830146311090712,77413.56152939511,905.055680828063,45.49276831071795,0.9520068065671168,50.0,24.0,124.0,263.0,387.0,26.0,727.0,723.0,26.0,9.0,17.0,0.3461538461538461,30.584120933382493,397.6042068025731,10.0,3.0,7.0,0.3,30.702427662862444,196.256802006229,21.0,13.0,8.0,0.6190476190476191,182.93729033389695,2321.0828700435623,16.0,7.0,9.0,0.4375,176.0930664696052,3037.9766796750664,119.0,70.0,49.0,0.5882352941176471,28.4024123484454,882.0056682091695,,,,,77025.0,77051.0,77075.0,77085.0,77155.0,77176.0,77184.0,77199.0,77344.0,77462.0,0.11895801747555647,-0.1514316115394858,0.06482390112819154,-0.08442128312198174,0.03138195024913734
94,94,77782.23389303338,261.08999944785853,11.10342526893349,77870.46908395916,-193.3022024165249,7.64389620259217,77915.71714890141,3121.6610790293403,8.85186762847909,77937.34330328826,-2161.8281775343644,8.942076904991998,78162.10949479598,813.0142562746784,35.51527325406249,0.944070395970842,94.0,76.0,80.0,255.0,335.0,18.0,745.0,747.0,24.0,10.0,14.0,0.4166666666666667,26.915933269855923,191.88848203617297,12.0,3.0,9.0,0.25,27.529907782482816,196.0440718496571,19.0,12.0,7.0,0.631578947368421,213.6989861721981,2200.492057473709,16.0,6.0,10.0,0.375,186.5966823399141,3422.565930023184,98.0,51.0,47.0,0.5204081632653061,28.303078477680124,649.1788394300462,,,,,77773.0,77791.0,77867.0,77874.0,77904.0,77923.0,77931.0,77947.0,78122.0,78202.0,0.10309063283456485,-0.14241900732802698,0.0684568185853944,-0.08631429836978706,0.034812524207592586
95,95,78578.15067819973,219.58963121916983,5.095930801728113,78651.69864360057,-243.3909589529471,10.191861603456228,78715.02172248624,3697.32027165975,9.6591357419033,78731.87669549954,-2591.215559521898,10.9435711152441,78955.46719054799,830.7309354584623,39.61516097786764,0.9547465035796304,75.0,65.0,99.0,262.0,361.0,10.0,799.0,799.0,11.0,7.0,4.0,0.6363636363636364,29.74347491249261,219.86218896879956,27.0,13.0,14.0,0.4814814814814814,28.000640681431875,161.1582132053694,20.0,14.0,6.0,0.7,222.04599064346124,1490.840911586968,18.0,4.0,14.0,0.2222222222222222,211.15868439693705,3691.5709293201294,104.0,51.0,53.0,0.4903846153846153,28.015076150501898,867.5721044669538,,,,,78571.0,78581.0,78646.0,78664.0,78701.0,78720.0,78729.0,78745.0,78910.0,79007.0,0.13545027033997792,-0.11504388167041579,0.06005592546187064,-0.08149020393961269,0.03372340544299218
96,96,79379.27398198274,282.9562414038002,7.64389620259217,79462.27398270041,-209.08504718691856,7.64389620259217,79513.05546729614,3731.722405973803,10.201354487125702,79528.8766954997,-3016.567026608005,10.96378206186541,79752.73792293323,888.4162886060346,40.43065466479237,0.9513528170495488,87.0,77.0,85.0,263.0,348.0,10.0,799.0,797.0,19.0,9.0,10.0,0.4736842105263157,29.57660775399609,275.07270585178503,14.0,4.0,10.0,0.2857142857142857,26.38618172280729,170.1521700443626,22.0,16.0,6.0,0.7272727272727273,212.2360920426271,944.6323099630698,18.0,3.0,15.0,0.1666666666666666,216.35941873737056,3896.247093819039,96.0,43.0,53.0,0.4479166666666667,31.56522488888845,918.3410812876627,,,,,79371.0,79381.0,79458.0,79472.0,79498.0,79518.0,79526.0,79543.0,79710.0,79806.0,0.10452714386952859,-0.12619832014681798,0.05687349404738039,-0.07172372330166887,0.035529768300866835
97,97,80165.27398268924,290.42383851005707,7.64389620259217,80220.17587444274,-135.88939328282126,1.4794996455099358,80294.16225655454,2753.0435766888236,8.966280892028426,80317.81087956451,-2205.4032529048086,8.256579141727256,80529.91078242773,806.4669627403316,44.92598885877117,0.9469282737497944,57.0,50.0,110.0,259.0,369.0,7.0,786.0,784.0,8.0,5.0,3.0,0.625,35.552835922989956,287.8025797219297,4.0,2.0,2.0,0.5,30.75180560715688,108.45324932271328,20.0,12.0,8.0,0.6,182.01511380562448,2417.454664549323,17.0,7.0,10.0,0.4117647058823529,178.17912599444028,3094.7017868834737,108.0,50.0,58.0,0.4629629629629629,28.48592146261632,796.2048033115918,,,,,80161.0,80168.0,80218.0,80222.0,80282.0,80302.0,80311.0,80328.0,80489.0,80587.0,0.1224170719090568,-0.226300264238831,0.06611414194341961,-0.0807920845132312,0.03532187030429949
98,98,80925.69864360057,306.49119832031334,10.191861603456228,81007.99874025457,-166.3293029068102,2.1510515868591837,81054.17157401057,2957.388491254517,9.570924797088846,81076.92314197209,-2096.9098898899,8.984331286276317,81289.93651150267,893.1420128804396,46.39907801439905,0.9502562184136426,86.0,77.0,83.0,258.0,341.0,9.0,760.0,759.0,38.0,17.0,21.0,0.4473684210526316,30.66687495023596,238.9056602966008,6.0,3.0,3.0,0.5,32.00257343326272,172.8819218191536,22.0,13.0,9.0,0.5909090909090909,183.8953214903972,2422.4771237938376,19.0,7.0,12.0,0.3684210526315789,174.32124321085382,3114.46703419505,97.0,41.0,56.0,0.422680412371134,28.59103685398451,945.9005374367772,,,,,80919.0,80928.0,81005.0,81011.0,81041.0,81063.0,81070.0,81088.0,81249.0,81346.0,0.10005793027108749,-0.1924049032490258,0.06218165859311547,-0.0831324436263719,0.03201174778664437
99,99,81686.12330450071,258.1859332446057,12.739827004320285,81765.72601729959,-171.13567752184585,7.64389620259217,81816.96879045745,3046.153089695804,9.344234152513364,81838.79730096304,-2205.83049580458,8.88762206727579,82071.10949479598,898.8094530771042,39.5367790934635,0.9468048545017655,84.0,65.0,86.0,262.0,348.0,19.0,760.0,763.0,25.0,7.0,18.0,0.28,28.11750442769497,286.80034256062777,7.0,3.0,4.0,0.4285714285714285,27.238852038290368,169.3277599988307,21.0,13.0,8.0,0.6190476190476191,195.2595646932946,2176.8448462748265,16.0,6.0,10.0,0.375,190.0291327389785,3390.327383954656,102.0,60.0,42.0,0.5882352941176471,24.5513083633068,805.5353995388459,,,,,81679.0,81698.0,81763.0,81770.0,81804.0,81825.0,81833.0,81849.0,82019.0,82111.0,0.10890409122737299,-0.15916524498413412,0.06410037806497562,-0.08614856540446235,0.027315365096856264
100,100,82502.11607276574,261.8267420198887,7.64389620259217,82557.15067819973,-155.57011383598785,5.095930801728113,82634.95976883653,3614.020430961484,9.590953816556262,82652.45203459915,-2480.742049619308,10.781129216907653,82877.01976828421,812.7102856590838,37.709750869438814,0.9495352581911454,57.0,43.0,111.0,259.0,370.0,14.0,817.0,817.0,14.0,4.0,10.0,0.2857142857142857,31.712253582697137,279.8852206268898,5.0,2.0,3.0,0.4,32.137643736752935,192.47661614561147,20.0,14.0,6.0,0.7,216.46228121267376,1679.3165583906302,18.0,3.0,15.0,0.1666666666666666,202.20630957557623,3715.8964890305897,94.0,40.0,54.0,0.425531914893617,25.669561461596267,754.2662575931452,,,,,82498.0,82512.0,82555.0,82560.0,82621.0,82641.0,82649.0,82666.0,82845.0,82925.0,0.12111923074797393,-0.2065798047215838,0.05989514595939501,-0.08151041322760928,0.031585131767809506
101,101,83333.15067819973,218.09018726774084,5.095930801728113,83386.69864360057,-246.1894018652495,10.191861603456228,83473.32463733775,3766.307775185521,9.641253838070003,83489.87669549929,-2704.9523532734106,11.452243868480116,83714.55995086944,863.2363560021334,38.92084044472405,0.9482943527428908,54.0,45.0,123.0,260.0,383.0,9.0,833.0,837.0,10.0,6.0,4.0,0.6,29.72621955933445,311.0425705063129,14.0,7.0,7.0,0.5,31.32154768417115,293.3782878917308,20.0,14.0,6.0,0.7,217.8382191517695,1479.717240509321,20.0,4.0,16.0,0.2,209.14039280515195,3872.347629170736,99.0,49.0,50.0,0.494949494949495,27.41193823355243,879.3642508071621,,,,,83327.0,83336.0,83381.0,83393.0,83459.0,83479.0,83487.0,83504.0,83677.0,83764.0,0.13630241659080575,-0.12722541038267293,0.05783866644861205,-0.07731758844182957,0.031754846795962195
102,102,84138.30135639943,289.6138217453888,10.191861603456228,84204.84932180027,-157.28490798468184,5.095930801727811,84260.74313039999,2808.0102339974355,9.29120009494099,84283.94354490556,-2368.561736193778,8.177297101765085,84499.86230009723,882.0044744504229,41.729352921420855,0.9519147711796638,85.0,58.0,92.0,261.0,353.0,27.0,806.0,790.0,38.0,21.0,17.0,0.5526315789473685,27.807405611407084,254.37141157468935,11.0,3.0,8.0,0.2727272727272727,30.58789369856194,167.41866900473863,22.0,13.0,9.0,0.5909090909090909,188.94094775786397,2124.7199033597603,17.0,7.0,10.0,0.4117647058823529,191.7565080364957,3354.764562453389,99.0,44.0,55.0,0.4444444444444444,31.578372991593092,899.7937676669469,,,,,84117.0,84144.0,84202.0,84213.0,84248.0,84270.0,84277.0,84294.0,84457.0,84555.0,0.09601546446859051,-0.19447443553542296,0.0672864170757992,-0.080959050003334,0.03580296235035495
103,103,84888.75339099858,220.0757059893815,25.47965400864057,84985.27398270041,-98.01701033361957,7.64389620259217,85031.22363125856,2682.3369990066835,8.822508402013828,85055.7601914698,-2066.479399159346,7.460109585633563,85267.11319070288,844.2752899244076,44.19217390648065,0.9357709498692396,106.0,78.0,84.0,250.0,334.0,28.0,753.0,771.0,60.0,25.0,35.0,0.4166666666666667,23.792400022827973,179.8607821032187,10.0,4.0,6.0,0.4,28.816402012785993,103.90243581395416,22.0,12.0,10.0,0.5454545454545454,166.88869345728705,2603.6165738456853,17.0,8.0,9.0,0.4705882352941176,172.63390639226222,2902.48074965863,100.0,44.0,56.0,0.44,28.11450605448308,833.9184273229246,,,,,84875.0,84903.0,84981.0,84991.0,85019.0,85041.0,85049.0,85065.0,85225.0,85315.0,0.10811007019546237,-0.2939938885577501,0.062217645851020534,-0.08354010519654372,0.03330016451979818
104,104,85661.69864360057,269.3041370370013,10.191861603456228,85753.15067819973,-100.12064316006212,5.095930777807008,85799.93618386317,2890.6118695662835,9.57054029500803,85822.31116573799,-2168.812664599232,8.059459964874284,86046.2601729957,914.054451069478,38.77257153739293,0.9476694140820536,96.0,78.0,79.0,258.0,337.0,18.0,767.0,768.0,33.0,7.0,26.0,0.2121212121212121,30.0318332131538,293.0685111642503,5.0,1.0,4.0,0.2,30.711651916990824,117.90992007134426,21.0,13.0,8.0,0.6190476190476191,185.2026285529461,2275.126097428629,15.0,6.0,9.0,0.4,187.30747807470976,3317.607382591303,98.0,51.0,47.0,0.5204081632653061,29.773131215831963,900.6867859586343,,,,,85656.0,85674.0,85752.0,85756.0,85787.0,85808.0,85816.0,85831.0,85996.0,86089.0,0.11151641984997634,-0.306746450558576,0.06407038956106358,-0.0863640650629093,0.032572601316033505
105,105,86462.563488148,248.89346567955056,20.38372320572405,86507.15067819973,-159.5058617475645,3.196308630001398,86597.43299511627,3012.0481964568007,9.28408072965182,86619.62318009872,-2243.3355126868646,7.895806700086924,86833.86684326101,895.0526830278485,47.43750829865328,0.9595159597193096,51.0,32.0,124.0,263.0,387.0,19.0,805.0,798.0,39.0,20.0,19.0,0.5128205128205128,30.139629813463436,304.4245986492529,9.0,5.0,4.0,0.5555555555555556,29.853140112247655,163.53322850144937,21.0,12.0,9.0,0.5714285714285714,196.52830345418124,2596.2593987085006,16.0,7.0,9.0,0.4375,186.7421280544977,3277.372329578068,116.0,51.0,65.0,0.4396551724137931,24.85714986177179,848.5663945722539,,,,,86454.0,86473.0,86505.0,86510.0,86585.0,86606.0,86613.0,86629.0,86793.0,86892.0,0.12109450013552425,-0.18716014436819584,0.06524739666694768,-0.08324306685219585,0.027771717054333876
106,106,87289.15067819973,159.17853811415748,5.095930801728113,87390.87669549929,-366.3249985804374,12.739827004320285,87426.90939686108,3684.134272241691,9.654521021568028,87443.45203459915,-2708.0223472893367,11.99637811626517,87669.13686849497,698.1417169344815,36.5922085335936,0.9310616443619562,87.0,78.0,86.0,263.0,349.0,9.0,825.0,827.0,10.0,6.0,4.0,0.6,28.311845695394016,205.3751885791371,53.0,41.0,12.0,0.7735849056603774,29.85462716193756,171.4474379880282,20.0,14.0,6.0,0.7,220.80901651447263,1118.1312816034,19.0,3.0,16.0,0.1578947368421052,215.81279123801372,3813.8130742067624,98.0,47.0,51.0,0.4795918367346938,25.71418106422108,787.0498541309723,,,,,87283.0,87292.0,87370.0,87398.0,87413.0,87432.0,87440.0,87456.0,87633.0,87719.0,0.1778622044831805,-0.08149765175084578,0.0599351164202049,-0.07969387381682318,0.036832322779866596
107,107,88110.96879362213,275.4886222247594,8.881910143275519,88174.69864360057,-310.39491454325986,10.191861603456228,88245.65465523128,3618.386528242831,9.683549138451571,88262.45203459915,-2749.8477734607964,11.468456667984634,88488.81724895681,871.4095234193834,38.912309422039584,0.9465140491253128,67.0,50.0,106.0,264.0,370.0,17.0,819.0,819.0,24.0,10.0,14.0,0.4166666666666667,26.33732189624766,204.8599098683386,53.0,25.0,28.0,0.4716981132075472,25.38862677404249,233.8660122043975,20.0,15.0,5.0,0.75,220.52141526296433,978.6756025146638,18.0,3.0,15.0,0.1666666666666666,217.33317967670223,3753.782916475089,98.0,47.0,51.0,0.4795918367346938,24.888106508360742,912.6571405432552,,,,,88102.0,88119.0,88169.0,88184.0,88232.0,88250.0,88259.0,88275.0,88442.0,88539.0,0.09560221283752388,-0.08179459644627672,0.06094468170874338,-0.07903462212498386,0.028560746514108087
108,108,88924.75339099858,215.98523271585623,25.479654008274665,88970.82224074219,-241.61018245199716,7.64389620259217,89054.14454509031,2774.6341570833615,9.44297415490196,89076.69944686405,-2556.418111682088,8.284169501424502,89292.76627882199,847.3117206355314,44.093667854707526,0.9508732941605422,47.0,20.0,128.0,263.0,391.0,27.0,820.0,811.0,27.0,13.0,14.0,0.4814814814814814,29.628681048390888,190.33599676546385,15.0,12.0,3.0,0.8,27.79726903218797,334.4762328441319,21.0,12.0,9.0,0.5714285714285714,187.28150099791804,2133.8436857009046,17.0,7.0,10.0,0.4117647058823529,193.66544012539396,3506.8107557537155,99.0,42.0,57.0,0.4242424242424242,28.694601487598725,887.1588537793671,,,,,88912.0,88939.0,88959.0,88974.0,89042.0,89063.0,89070.0,89087.0,89252.0,89350.0,0.13717919820643248,-0.1150500726007717,0.067497727770635,-0.07575655924216747,0.033865460359826204
109,109,89680.72601729959,241.70773977869757,7.64389620259217,89758.58271287273,-150.9595901581012,7.64389620259217,89808.7806476298,3519.680404931417,10.044382505736996,89824.87669549978,-2596.104142091265,11.562551330516088,90049.38194230584,833.6801287527579,39.82332391314977,0.9466844035418251,76.0,65.0,85.0,257.0,342.0,11.0,753.0,751.0,11.0,2.0,9.0,0.1818181818181818,32.05462980794097,226.23173422386304,7.0,4.0,3.0,0.5714285714285714,25.866114588428804,208.2445314389892,23.0,16.0,7.0,0.6956521739130435,194.72337920829207,846.4226392051592,19.0,3.0,16.0,0.1578947368421052,184.64047381936828,3441.9870848067912,92.0,43.0,49.0,0.4673913043478261,26.858111422387104,897.8640226976273,,,,,89679.0,89690.0,89755.0,89762.0,89794.0,89815.0,89822.0,89840.0,90006.0,90097.0,0.13261730814780487,-0.1713446264748004,0.055324164925731764,-0.07112213675320167,0.03221632673741266
110,110,90405.7260172996,314.3560799759384,7.64389620259217,90468.7260172996,-149.34942686893132,7.64389620259217,90539.82194810128,3553.7790647146367,9.832888701099376,90556.6840593992,-2712.2788396459414,10.233330126505102,90779.13686849496,813.44855673197,40.33585309260391,0.953986409510223,71.0,52.0,106.0,261.0,367.0,19.0,725.0,731.0,19.0,15.0,4.0,0.7894736842105263,26.06362445441307,338.6322302299527,11.0,7.0,4.0,0.6363636363636364,25.628927845828738,238.63804337247385,21.0,15.0,6.0,0.7142857142857143,217.24343495791453,1357.4151976323783,17.0,4.0,13.0,0.2352941176470588,220.2629447644409,3781.397208304152,106.0,49.0,57.0,0.4622641509433962,30.99981802133061,799.7431812630603,,,,,90391.0,90410.0,90462.0,90473.0,90525.0,90545.0,90553.0,90568.0,90731.0,90829.0,0.08291115112648065,-0.17160379107661805,0.06113025908529822,-0.08120955026629705,0.03810913150534361
111,111,91155.17500637764,265.7046589025915,12.739827004320285,91259.2739827004,-225.70131994429912,7.64389620259217,91289.96950839311,3003.134805460756,9.283288979732342,91312.13039253897,-2319.383213869299,8.543314984876476,91530.53602729278,853.1713537860473,41.38387973726898,0.9596896930918788,105.0,86.0,68.0,260.0,328.0,19.0,747.0,753.0,23.0,10.0,13.0,0.4347826086956521,28.808379985443413,284.165574108913,16.0,12.0,4.0,0.75,44.477299424731534,138.47318341858198,20.0,12.0,8.0,0.6,191.5185774603384,2246.6894801147946,16.0,6.0,10.0,0.375,189.5610610175013,3387.132141172211,94.0,42.0,52.0,0.4468085106382978,25.91903631714093,968.559796475062,,,,,91149.0,91168.0,91254.0,91261.0,91278.0,91298.0,91306.0,91322.0,91490.0,91582.0,0.10842256249637192,-0.1970626464909824,0.06377288728833957,-0.08172908206111702,0.03037963734028596
112,112,91907.054747398,286.62595492988015,19.143509944310257,91977.38408631118,-170.82271336718495,7.64389620259217,92043.18373703049,3056.7885806012982,8.958457171519154,92065.51268485404,-2373.866702952454,8.75011558070718,92281.09109849967,820.9037648205257,41.64134835581653,0.9540385917747808,75.0,46.0,103.0,260.0,363.0,29.0,759.0,753.0,29.0,9.0,20.0,0.3103448275862069,28.878279252500647,327.21341340479717,7.0,4.0,3.0,0.5714285714285714,26.52865158738576,199.895551519463,20.0,12.0,8.0,0.6,205.78714600045063,2398.4204067557466,18.0,7.0,11.0,0.3888888888888889,192.59541975521503,3344.54843102713,99.0,44.0,55.0,0.4444444444444444,26.68126311301678,890.9169310498338,,,,,91898.0,91927.0,91973.0,91980.0,92031.0,92051.0,92059.0,92076.0,92237.0,92336.0,0.10075249207478575,-0.15529932211275785,0.0673213539550617,-0.08113152247161896,0.03250230326188126
113,113,92703.7260172996,271.24660335905486,7.64389620259217,92768.48177880768,-245.44234470959495,7.64389620259217,92841.473208217,3882.455074234897,9.818539144489543,92857.45203459916,-3029.1768284139685,11.081457441746904,93086.68483389584,802.6498985059422,35.981396701301975,0.9539099574656836,68.0,57.0,106.0,257.0,363.0,11.0,792.0,796.0,11.0,7.0,4.0,0.6363636363636364,26.56922508449887,329.2116176974139,7.0,3.0,4.0,0.4285714285714285,24.89940049426198,290.29478814730476,20.0,14.0,6.0,0.7,229.96457725471976,1218.775244875897,19.0,3.0,16.0,0.1578947368421052,225.98696174517852,4058.8036038845257,98.0,50.0,48.0,0.5102040816326531,26.60871791180661,692.9894907874752,,,,,92697.0,92708.0,92765.0,92772.0,92828.0,92847.0,92854.0,92871.0,93049.0,93128.0,0.09795228679538016,-0.1014470446153972,0.05923174199254273,-0.07460342348634097,0.03315108861452079
114,114,93480.2739827004,201.625941883076,4.033018255595451,93547.84932180028,-189.2677056807552,5.095930801728113,93616.32503329952,2739.1123714624605,8.701418256432323,93639.12330450072,-2340.1075713707964,8.609194871396673,93858.8728239165,833.6611818870659,37.95216207016032,0.9458435790346768,69.0,59.0,104.0,257.0,361.0,10.0,774.0,778.0,10.0,4.0,6.0,0.4,31.12834676165165,158.50060795142286,7.0,4.0,3.0,0.5714285714285714,29.6287401981287,197.96262899239508,19.0,11.0,8.0,0.5789473684210527,181.2023346674714,2198.7028571182555,17.0,7.0,10.0,0.4117647058823529,187.7126639001513,3356.141178130416,91.0,43.0,48.0,0.4725274725274725,25.370781860713382,849.8373173611424,,,,,93476.0,93486.0,93545.0,93551.0,93605.0,93624.0,93632.0,93649.0,93827.0,93906.0,0.15438661548672716,-0.15654408707264927,0.06615366954467965,-0.08021539958105102,0.03043296534844572
115,115,94229.7260172996,203.23147097301245,7.64389620259217,94316.2739827004,-174.32466596331275,7.64389620259217,94350.24140730267,2676.9427513396677,9.783230644786808,94372.64494235064,-2251.0902351059876,8.237065714811962,94589.39282985507,870.1951712822319,40.76955968676577,0.9466510279481586,85.0,78.0,70.0,258.0,328.0,7.0,752.0,734.0,7.0,3.0,4.0,0.4285714285714285,28.04544781669193,255.02713104325855,6.0,4.0,2.0,0.6666666666666666,32.62906343615305,4.349700752102308,22.0,13.0,9.0,0.5909090909090909,172.03656078483013,2231.278090180653,16.0,7.0,9.0,0.4375,178.93533377908005,3221.6795949051757,93.0,42.0,51.0,0.4516129032258064,26.650281647049937,973.8283140184384,,,,,94227.0,94234.0,94312.0,94318.0,94337.0,94359.0,94366.0,94382.0,94548.0,94640.0,0.13799756347980252,-0.18717410560258838,0.0642660589953726,-0.07948829904219956,0.030625637243861935
116,116,94964.18348178492,252.62816339993768,17.84244611118117,95032.7260172996,-151.07247964969488,7.64389620259217,95100.3513008774,2991.9722007725795,8.927549037062253,95123.33914463568,-2117.4828589337517,8.502186573214901,95342.68868856426,849.5350334523177,40.562355919559074,0.9558083938400124,76.0,46.0,102.0,260.0,362.0,30.0,739.0,750.0,38.0,17.0,21.0,0.4473684210526316,24.35252714267077,308.29782490119055,8.0,3.0,5.0,0.375,26.987256541421228,174.4454682517147,20.0,12.0,8.0,0.6,191.93057340719784,2578.9690981264584,16.0,6.0,10.0,0.375,180.51858678839756,3203.774277020695,86.0,36.0,50.0,0.4186046511627907,26.14756181636873,1001.9396668703308,,,,,94955.0,94985.0,95031.0,95038.0,95088.0,95108.0,95117.0,95133.0,95307.0,95393.0,0.09639672321141048,-0.17863780752125713,0.06414851493527848,-0.08525149850766528,0.030778673964875783
117,117,95769.4988367092,238.65282743548056,7.64389620259217,95825.15067819972,-189.47969769277,5.095930801728113,95902.04277194248,2911.670568203763,8.97475861198425,95924.86917685156,-2185.6001931865967,8.541578049662725,96148.83551209555,839.5625672369432,38.21055751683127,0.9499639907024467,57.0,49.0,112.0,258.0,370.0,8.0,799.0,802.0,8.0,3.0,5.0,0.375,29.24827662990355,329.89961158919203,5.0,2.0,3.0,0.4,27.77652418228905,198.52409645993103,20.0,12.0,8.0,0.6,190.1122419210504,2414.680202125218,17.0,7.0,10.0,0.4117647058823529,181.0771706757584,3281.903732207418,96.0,51.0,45.0,0.53125,24.007410668035956,825.2810362107211,,,,,95766.0,95774.0,95823.0,95828.0,95890.0,95910.0,95918.0,95935.0,96100.0,96193.0,0.12255575156682683,-0.14659366950926334,0.06529318391892543,-0.0828500890694691,0.028595141809437688
118,118,96581.2877831375,237.37833613897917,19.781228918943437,96631.7260172996,-124.99899570250004,7.64389620259217,96711.20348751366,3006.105220866448,8.970766115835827,96733.97369027816,-2384.61596504852,7.843723878774571,96973.082121097,864.2320853514459,41.05059863438091,0.9156918664318155,57.0,32.0,112.0,261.0,373.0,25.0,813.0,809.0,25.0,8.0,17.0,0.32,25.33666938789265,350.2296279010565,6.0,2.0,4.0,0.3333333333333333,31.00854534298078,192.00837736467793,19.0,11.0,8.0,0.5789473684210527,200.13751212578185,2558.1352537601497,14.0,6.0,8.0,0.4285714285714285,201.0010777728175,3448.1146265038014,111.0,80.0,31.0,0.7207207207207207,28.933232902591477,824.8141464058076,,,,,96573.0,96598.0,96630.0,96636.0,96700.0,96719.0,96728.0,96742.0,96904.0,97003.0,0.10673539043200073,-0.2480703558353517,0.06657701491503226,-0.08429075403289422,0.033478545165128396
119,119,97410.2739827004,320.24449780764166,7.64389620259217,97483.15067819972,-103.10895286315126,5.095930801728113,97546.0747650664,3044.360125397236,9.420440597777612,97568.44127483763,-2426.2332526559326,9.053864782799954,97794.4108511954,846.6057740693249,41.653599974948335,0.939262060078414,76.0,49.0,98.0,260.0,358.0,27.0,827.0,835.0,28.0,5.0,23.0,0.1785714285714285,28.82857936209258,362.30355630086206,5.0,2.0,3.0,0.4,29.09125861330483,174.105059457688,20.0,12.0,8.0,0.6,194.61819043898103,2285.4698107093695,18.0,6.0,12.0,0.3333333333333333,187.2958360412939,3537.1581408998927,98.0,50.0,48.0,0.5102040816326531,28.426365964821706,868.0677188347674,,,,,97406.0,97433.0,97482.0,97486.0,97534.0,97554.0,97562.0,97580.0,97745.0,97840.0,0.0900205298122211,-0.28214095677914086,0.06392745352805025,-0.0771961376080664,0.03357686285103696
120,120,98212.027373699,214.6044652876695,17.8357578060484,98241.7260172996,-207.07898909486332,7.64389620259217,98331.51964277789,2704.454948147738,9.287665791758824,98353.83463453843,-2245.445052169658,9.127429370684991,98573.56152939513,807.9529031488305,40.24225223218639,0.944900448253556,35.0,18.0,125.0,257.0,382.0,17.0,806.0,784.0,19.0,8.0,11.0,0.4210526315789473,30.8465714532887,141.66164920526688,11.0,7.0,4.0,0.6363636363636364,28.633045813070893,274.63816384723907,20.0,13.0,7.0,0.65,178.16358896784348,1742.90994093842,18.0,7.0,11.0,0.3888888888888889,181.1940558342379,3208.7526867364313,98.0,49.0,49.0,0.5,34.04144693931545,892.1140302270303,,,,,98205.0,98222.0,98240.0,98246.0,98319.0,98339.0,98347.0,98365.0,98532.0,98622.0,0.1437368575343481,-0.13827112995975674,0.06587781729914431,-0.08069405023256276,0.0421329594913836
121,121,98933.42191951993,285.52727869487194,25.47965400864057,99002.6464254334,-105.60396528579793,0.936736147924618,99071.33701804224,2759.14634082154,9.511632468764638,99094.49849892149,-1982.815546187612,7.735607009878911,99311.15530790278,913.3087499364397,43.439744919804546,0.9527171429372656,77.0,40.0,103.0,258.0,361.0,37.0,719.0,741.0,38.0,10.0,28.0,0.2631578947368421,29.67566668463825,387.2502951477609,3.0,2.0,1.0,0.6666666666666666,26.13392193321135,117.51346507372438,22.0,12.0,10.0,0.5454545454545454,164.3451161867657,2536.496398476991,16.0,6.0,10.0,0.375,172.64856651088286,3018.886007713278,98.0,46.0,52.0,0.4693877551020408,32.547599475192186,939.1113178308068,,,,,98924.0,98961.0,99001.0,99004.0,99059.0,99081.0,99088.0,99104.0,99267.0,99362.0,0.10393286000652527,-0.24747102878651048,0.05956375483071757,-0.0870724293254795,0.0356370170300649
122,122,99696.39728720114,287.3566772540855,20.383723206912453,99782.13232019838,-114.40965462989766,0.9865201470401446,99831.33058446832,3065.6854029239576,9.01807305593897,99854.29452035535,-2096.5216424845657,7.351116892154949,100067.18912465386,821.1498248322408,50.777917813324,0.955715593608202,96.0,79.0,83.0,265.0,348.0,17.0,759.0,760.0,19.0,13.0,6.0,0.6842105263157895,27.246466930882352,373.9972634952888,4.0,2.0,2.0,0.5,25.277427234105293,85.13271308465764,21.0,12.0,9.0,0.5714285714285714,186.4690433884439,2769.6305700419275,15.0,6.0,9.0,0.4,184.61013386754223,3229.602476608515,106.0,45.0,61.0,0.4245283018867924,28.625625028605175,925.4252986051016,,,,,99684.0,99701.0,99780.0,99784.0,99819.0,99840.0,99848.0,99863.0,100022.0,100128.0,0.09481758764488558,-0.22093788601910322,0.060824585331096075,-0.08805543912666826,0.03486041665350575
123,123,100586.2739827004,208.55478760934608,7.64389620259217,100648.7260172996,-145.2730637234424,7.64389620259217,100720.9583588975,2940.5973964134573,9.003397700455194,100744.16609852726,-2168.421382690286,8.107567693877533,100980.53415569612,792.634604416731,36.68400755304479,0.9406487650856794,64.0,51.0,107.0,266.0,373.0,13.0,892.0,889.0,13.0,4.0,9.0,0.3076923076923077,27.47272615307285,262.69649138193455,14.0,10.0,4.0,0.7142857142857143,27.89556723792714,163.97673591969732,20.0,12.0,8.0,0.6,181.11254384785664,2299.41327289107,17.0,7.0,10.0,0.4117647058823529,179.88530098679294,3116.146173781108,109.0,70.0,39.0,0.6422018348623854,25.296737458133713,692.3319306646605,,,,,100582.0,100595.0,100646.0,100653.0,100709.0,100729.0,100738.0,100753.0,100921.0,101019.0,0.13172906010929522,-0.19202160760533127,0.06159039114594647,-0.08295680093488814,0.0319147527967803
124,124,101505.2739827004,172.9144642611949,7.64389620259217,101550.2739827004,-189.68699713031853,7.64389620259217,101639.39405288611,2966.790602257481,9.112416246162065,101661.52902923958,-2358.0339657621307,8.793904979821361,101886.4352157924,825.0546378099945,36.20884454311237,0.9481466848696072,45.0,38.0,125.0,257.0,382.0,7.0,919.0,918.0,8.0,4.0,4.0,0.5,30.288724695031533,219.018639074595,17.0,4.0,13.0,0.2352941176470588,31.37073942683855,302.53873031616575,20.0,12.0,8.0,0.6,194.0567992754329,2272.2443254824257,16.0,7.0,9.0,0.4375,195.87341503396965,3412.7069176686605,86.0,43.0,43.0,0.5,28.450670436677363,877.3990072335575,,,,,101501.0,101508.0,101546.0,101563.0,101627.0,101647.0,101655.0,101671.0,101849.0,101928.0,0.17516594013372463,-0.16538160180418832,0.06540967169296404,-0.0830664095080845,0.03448337738237088
125,125,102386.2739827004,114.92237645069316,7.64389620259217,102436.12330450072,-222.88228652107185,5.759707766227317,102525.57663978986,3690.268007488467,10.323430973236489,102542.027373699,-2968.796516391042,11.23011711000274,102766.37820442764,817.2486815039941,37.226995806330706,0.9419888780489336,47.0,41.0,127.0,262.0,389.0,6.0,881.0,884.0,7.0,5.0,2.0,0.7142857142857143,29.67526459928238,178.42037722976153,16.0,8.0,8.0,0.5,29.255770173289687,267.4470315186807,23.0,17.0,6.0,0.7391304347826086,208.65920219058623,753.8341145128364,19.0,4.0,15.0,0.2105263157894736,206.90507084739664,3787.648046115992,96.0,44.0,52.0,0.4583333333333333,28.4423757724424,842.9496637889226,,,,,102382.0,102388.0,102429.0,102443.0,102510.0,102531.0,102538.0,102556.0,102722.0,102818.0,0.25822007441705136,-0.13126108238540424,0.05654310249747852,-0.06969324765272786,0.034802596096086075
126,126,103206.93218160936,211.20236207693983,20.383723206912453,103286.15067819972,-98.76545074603736,5.095930801728113,103339.78701134615,2847.169410705262,9.24069275482364,103363.2048759147,-2445.0015107163463,8.150460172221889,103580.33830978363,805.5861642782426,45.14555385391392,0.9543919352158324,85.0,67.0,88.0,264.0,352.0,18.0,825.0,818.0,52.0,27.0,25.0,0.5192307692307693,29.02197809985501,161.27071802035806,6.0,2.0,4.0,0.3333333333333333,27.557480648744527,58.70510965166323,20.0,12.0,8.0,0.6,180.9696416852672,2228.414523939303,17.0,7.0,10.0,0.4117647058823529,189.37826879603284,3416.413855800135,119.0,61.0,58.0,0.5126050420168067,27.206246606348664,776.8156140919292,,,,,103200.0,103218.0,103285.0,103290.0,103328.0,103348.0,103356.0,103373.0,103549.0,103637.0,0.13741313219443288,-0.27901943888865594,0.06356124823652129,-0.07745527680289574,0.03377198841383261
127,127,103954.47999570756,269.98460049957185,25.47965400864057,104006.7519658367,-140.17450269744066,1.1060611380632157,104093.84158702388,2737.1115795642554,9.23084431104501,104118.47908700742,-1800.3378596071457,8.19639954066275,104335.98809112326,912.976906574403,44.69618004397953,0.9438408736983112,66.0,39.0,123.0,263.0,386.0,27.0,746.0,754.0,38.0,26.0,12.0,0.6842105263157895,31.841109706224668,266.7437628957777,4.0,2.0,2.0,0.5,29.9620619771157,99.10373069299528,21.0,12.0,9.0,0.5714285714285714,164.2867957467679,2621.0086878689435,17.0,7.0,10.0,0.4117647058823529,158.544874470954,2848.279489724442,103.0,48.0,55.0,0.4660194174757281,27.833211002513547,933.8366284282848,,,,,103939.0,103966.0,104005.0,104009.0,104082.0,104103.0,104111.0,104128.0,104288.0,104391.0,0.11793676249425626,-0.2137483022985089,0.06002195780886731,-0.08806395623183212,0.030486215809058127
128,128,104718.17805189872,262.53790304858427,16.8702511272565,104778.21143870852,-106.61000010136694,5.095930801362876,104845.4286591074,2961.9146846199765,9.338418211908378,104868.5060099572,-2161.174213118966,7.532323823705928,105097.10949479598,848.7003830895666,38.30994802937039,0.9610839169792964,75.0,44.0,103.0,259.0,362.0,31.0,766.0,751.0,38.0,19.0,19.0,0.5,32.45879016829235,109.84125631135493,5.0,3.0,2.0,0.6,24.953549975521323,188.44284832434275,21.0,12.0,9.0,0.5714285714285714,179.05131095355517,2691.246782205493,17.0,7.0,10.0,0.4117647058823529,186.22427524590736,3028.2412056208404,106.0,59.0,47.0,0.5566037735849056,27.27166932476473,660.8541792036915,,,,,104700.0,104731.0,104775.0,104780.0,104833.0,104854.0,104862.0,104878.0,105057.0,105137.0,0.12363468204545555,-0.23406387723285793,0.06045120471676518,-0.08616809978365975,0.032133447643190996
129,129,105571.027373699,223.55558530501668,17.835757805269196,105643.7260172996,-121.65564911035264,7.64389620259217,105709.48888708226,2936.8766241712633,8.858142002995995,105732.31673259872,-2088.453427377311,7.895857714325284,105952.57441930185,800.0076342503485,42.80526574275223,0.9463752987094968,75.0,57.0,99.0,264.0,363.0,18.0,852.0,864.0,20.0,5.0,15.0,0.25,26.21065200336873,231.7756761010371,6.0,2.0,4.0,0.3333333333333333,28.91465485507482,112.11509010156462,19.0,11.0,8.0,0.5789473684210527,188.18627129062804,2614.280257324989,15.0,6.0,9.0,0.4,177.116744539194,3190.1086610539523,104.0,46.0,58.0,0.4423076923076923,32.87912873068849,874.8054549927881,,,,,105567.0,105585.0,105642.0,105648.0,105698.0,105717.0,105726.0,105741.0,105917.0,106005.0,0.11724445160968452,-0.23767622027026974,0.06407700948068631,-0.08480761036726492,0.04109851871788456
130,130,106446.493790498,159.23948782592743,17.397913016669033,106552.2739827004,-198.33929906482103,7.64389620259217,106585.1644251053,3559.8084105894227,10.305488531819158,106601.87669549928,-2940.830849340444,10.314948686091256,106836.10949479598,853.4027366316029,36.517010012044025,0.9498252988298328,110.0,93.0,66.0,262.0,328.0,17.0,874.0,873.0,19.0,9.0,10.0,0.4736842105263157,25.887783520510403,191.33965029193047,10.0,4.0,6.0,0.4,44.51057184088116,238.77085810155444,21.0,15.0,6.0,0.7142857142857143,217.02038105986924,1259.5230419275842,18.0,4.0,14.0,0.2222222222222222,220.51143081309425,3864.91624517008,106.0,59.0,47.0,0.5566037735849056,25.432233832847363,660.8326917775895,,,,,106438.0,106455.0,106548.0,106558.0,106571.0,106590.0,106599.0,106614.0,106784.0,106876.0,0.16257138147046554,-0.22441630100918258,0.06096406211477422,-0.07498269778506626,0.029800975250242202
131,131,107313.84932180028,191.1123300253007,5.095930801728113,107403.15067819972,-199.2912942865362,5.095930801728113,107451.39728720114,3738.2984592483,9.781541217541076,107468.34030596644,-2844.2395900276497,11.543763095674716,107698.83551209555,838.1564791534352,36.46276369937604,0.9467763725475068,94.0,85.0,82.0,261.0,343.0,9.0,865.0,866.0,19.0,9.0,10.0,0.4736842105263157,29.181931490831634,189.45028081039084,6.0,3.0,3.0,0.5,30.07164021285855,196.81170879645103,20.0,14.0,6.0,0.7,221.01703004521497,1378.9642927291973,20.0,4.0,16.0,0.2,215.1852518334359,4008.0063675155297,99.0,54.0,45.0,0.5454545454545454,32.578469683207786,789.7128189374944,,,,,107306.0,107315.0,107400.0,107406.0,107437.0,107456.0,107465.0,107482.0,107656.0,107743.0,0.1526951792538364,-0.1508928943460133,0.059122360735653315,-0.07565651381406445,0.03886919745118845
132,132,108119.15067819972,204.6924178364631,5.095930801728113,108215.84772315704,-98.86366801395768,5.095930801728113,108257.66613922588,2763.523239718759,9.6653525904619,108279.75153930912,-2368.0848068341825,8.85344065926688,108494.785797575,855.3779145260268,50.81798030220326,0.937386285443286,97.0,91.0,77.0,264.0,341.0,6.0,807.0,809.0,6.0,3.0,3.0,0.5,31.661854219374064,247.96023675865945,6.0,4.0,2.0,0.6666666666666666,19.7901216967112,74.26634539588194,21.0,13.0,8.0,0.6190476190476191,183.4647609993632,1839.560449867183,18.0,7.0,11.0,0.3888888888888889,179.0549203279432,3301.6661553443514,119.0,52.0,67.0,0.4369747899159664,28.547639500168454,744.8470179309782,,,,,108116.0,108122.0,108213.0,108217.0,108245.0,108266.0,108273.0,108290.0,108455.0,108554.0,0.15468015158563408,-0.20017587951437538,0.06638799282108958,-0.0756117009877345,0.03337430042952065
133,133,108718.67422927063,174.1056793949221,2.1070469540046974,108988.52059170186,-222.8903862259322,28.578720230237767,109057.55148642111,3533.75446517988,10.22497863738667,109073.87669549928,-2611.777113079135,11.887528115719922,109306.68483389584,763.7723337969128,32.73678736208571,0.9283149078253756,245.0,240.0,127.0,260.0,387.0,5.0,599.0,797.0,5.0,3.0,2.0,0.6,30.189550446271447,212.2787276355336,37.0,29.0,8.0,0.7837837837837838,21.791231545163168,182.09089985590575,22.0,16.0,6.0,0.7272727272727273,189.9639358075385,906.5209547189904,19.0,3.0,16.0,0.1578947368421052,191.08242605819427,3542.1171231737953,97.0,52.0,45.0,0.5360824742268041,27.49389716796209,645.0143597171568,,,,,108716.0,108721.0,108961.0,108996.0,109043.0,109063.0,109071.0,109088.0,109262.0,109348.0,0.173397849807029,-0.09776658345001273,0.053756970859000726,-0.07316184260184404,0.03599750338072958
134,134,109710.27388934516,288.73753225752483,5.095930801728113,109755.2739827004,-137.91298366119543,7.64389620259217,109842.19813453336,2877.786588939536,9.090420702995518,109864.77104702464,-2215.021674541403,7.79785209246779,110087.12000486314,791.7442314117587,39.97235664671823,0.9497872642535088,49.0,38.0,123.0,259.0,382.0,11.0,992.0,788.0,11.0,8.0,3.0,0.7272727272727273,32.736132662206586,353.52276222078063,7.0,4.0,3.0,0.5714285714285714,25.71648806864652,239.41455314124855,21.0,12.0,9.0,0.5714285714285714,179.53645524397442,2411.0733547885766,15.0,6.0,9.0,0.4,187.19117719200324,3245.19861872179,105.0,52.0,53.0,0.4952380952380952,32.15508444649492,800.3280631157011,,,,,109702.0,109713.0,109751.0,109757.0,109830.0,109851.0,109859.0,109874.0,110053.0,110133.0,0.1133767834276884,-0.1864689414002024,0.0623869942038105,-0.0845098625189567,0.040612969657081305
135,135,110524.74241867088,160.82268266511377,5.095930801728113,110601.95857034365,-270.02804324418514,28.027619409504627,110656.2711139546,3508.7302207615744,10.291296101659206,110673.45203459916,-2741.268086372516,11.061272348599184,110900.83517731068,823.4817871835436,36.36380936529438,0.9566195899197092,68.0,58.0,97.0,259.0,356.0,10.0,813.0,812.0,10.0,3.0,7.0,0.3,28.840318245535393,90.8407041837756,26.0,12.0,14.0,0.4615384615384615,32.305402492116556,272.6484452970274,21.0,15.0,6.0,0.7142857142857143,198.18339413056273,1420.8151444138691,19.0,4.0,15.0,0.2105263157894736,203.94910703217232,3751.158786845365,97.0,47.0,50.0,0.4845360824742268,28.203200072634097,777.784555400717,,,,,110522.0,110532.0,110590.0,110616.0,110642.0,110662.0,110670.0,110687.0,110862.0,110946.0,0.17932991644960003,-0.11963721287608238,0.05648293874458857,-0.07439954816752545,0.034248723543837116
136,136,111363.57701278984,158.72933794211949,18.796733454455353,111413.69864360055,-212.92358263523295,10.191861603456228,111501.77833413948,3571.615187818289,9.895102130934056,111518.45203459916,-2882.0191284815023,10.855818990586515,111759.2327992967,846.4298532621655,34.67857391916142,0.9441165444888334,53.0,34.0,125.0,261.0,386.0,19.0,839.0,844.0,19.0,11.0,8.0,0.5789473684210527,25.075826562965403,194.12058902935115,23.0,9.0,14.0,0.391304347826087,29.697890958561963,237.1822423453309,21.0,16.0,5.0,0.7619047619047619,213.10899538315672,1029.092073396852,19.0,4.0,15.0,0.2105263157894736,224.8018199281284,3877.573624773094,97.0,57.0,40.0,0.5876288659793815,27.30733804761038,723.1781176882207,,,,,111353.0,111372.0,111406.0,111416.0,111487.0,111507.0,111515.0,111531.0,111703.0,111792.0,0.15797852424804595,-0.1394767577691875,0.05966740093109912,-0.07800150169252121,0.032261785122969254
137,137,112174.7802886284,240.1459408554715,4.404396255099322,112278.7260172996,-228.0885789873978,7.64389620259217,112313.97164166522,2860.9454982848347,9.801944482641044,112335.73246973532,-2571.224783989389,9.362124623772516,112556.60110611122,776.910310554932,39.714020488955406,0.9450683959653664,98.0,90.0,78.0,263.0,341.0,8.0,812.0,815.0,8.0,4.0,4.0,0.5,32.26434019103467,377.27004309933824,14.0,10.0,4.0,0.7142857142857143,31.192369251992567,97.17171136252064,20.0,13.0,7.0,0.65,188.4374453611191,1873.6870562463544,18.0,7.0,11.0,0.3888888888888889,186.54313893688376,3519.0088871612556,97.0,44.0,53.0,0.4536082474226804,28.40481202323444,799.0465083379473,,,,,112171.0,112179.0,112269.0,112283.0,112301.0,112321.0,112329.0,112347.0,112513.0,112610.0,0.1343530524650946,-0.13675550696344155,0.06586544394994215,-0.07255030369124413,0.03656124991177609
138,138,112955.005240771,140.79060103188618,7.64389620259217,113040.69864360055,-313.97903609268525,10.191861603456228,113092.24660900142,3151.8167750480384,9.77124505334054,113109.86626542424,-2504.3549519007993,11.826859824375088,113334.09961791894,807.9942420302074,39.17943359918755,0.9418728654678296,84.0,77.0,88.0,266.0,354.0,7.0,779.0,775.0,7.0,4.0,3.0,0.5714285714285714,35.466919421723546,227.7295787545375,18.0,6.0,12.0,0.3333333333333333,31.255136319360453,273.37040725908065,21.0,15.0,6.0,0.7142857142857143,179.4090360346927,1005.5652655548888,18.0,4.0,14.0,0.2222222222222222,185.565845747051,3602.506212093286,99.0,44.0,55.0,0.4444444444444444,25.25630577919445,847.8056448121537,,,,,112951.0,112958.0,113035.0,113048.0,113078.0,113098.0,113106.0,113123.0,113291.0,113389.0,0.2519125507084881,-0.09954529674437905,0.05692241930273952,-0.07409726229351273,0.03125802693313033
139,139,113687.84932180028,139.1997396870404,5.095930801728113,113769.94392735236,-277.091064327523,7.64389620259217,113828.1086801075,3132.9700666060157,9.710945442838565,113845.45203459916,-2044.766958193072,12.792409414002334,114070.77415076084,778.9700029900073,35.679183576045936,0.9246192077745428,82.0,78.0,93.0,258.0,351.0,4.0,733.0,737.0,6.0,4.0,2.0,0.6666666666666666,25.63566753929117,167.43602605074852,6.0,3.0,3.0,0.5,31.201023600112812,281.05534697790847,22.0,15.0,7.0,0.6818181818181818,169.56369957187502,1133.7151812869292,19.0,3.0,16.0,0.1578947368421052,160.78733262922756,2994.9397490509855,103.0,51.0,52.0,0.4951456310679611,25.420675294005612,783.4861067959042,,,,,113685.0,113689.0,113767.0,113773.0,113814.0,113835.0,113842.0,113860.0,114030.0,114118.0,0.18416462269920372,-0.11260205620789362,0.054122349070371244,-0.07863357336882672,0.032633702448657334
140,140,,,,,,,,,,,,,,,,,,,,,,,,,,,,,,,,,,,,,,,,,,,,,,,,,,,,,,,,,,,,114129.0,114476.0,114484.0,114499.0,114521.0,114528.0,114545.0,114709.0,114796.0,,,,,
141,141,115088.18611430118,220.1844377475046,35.6715156041402,115129.84932180028,-168.90072548259673,5.095930801728113,115222.82646640053,2937.2350673564,9.227515980067864,115245.69864360055,-1829.4066228455,7.76924862008708,115463.89208409736,862.856417016828,43.90931908311104,0.9624382723409164,48.0,19.0,128.0,267.0,395.0,29.0,1406.0,1397.0,39.0,10.0,29.0,0.2564102564102564,27.5043848574079,244.45430894715184,5.0,3.0,2.0,0.6,25.27056883051606,152.00553180698793,21.0,12.0,9.0,0.5714285714285714,184.80611709063135,2524.4548995114787,15.0,6.0,9.0,0.4,162.6324807862362,2787.943701561264,117.0,55.0,62.0,0.4700854700854701,27.37247978976635,929.7336785786238,,,,,115079.0,115108.0,115127.0,115132.0,115211.0,115232.0,115240.0,115255.0,115419.0,115522.0,0.12491520808091085,-0.14961788209204524,0.06291839531146631,-0.08889903357476317,0.031723099289684614
142,142,115873.69864360055,183.66907931502377,10.191861603456228,115929.45227058468,-201.6057504860693,10.191861603456228,116006.99959105058,2919.169271510816,9.042366533782497,116029.7877713317,-1949.4389274955793,8.912642814218628,116246.10422307395,831.1567747113659,42.06938564378735,0.9488178675552404,47.0,39.0,124.0,263.0,387.0,8.0,779.0,784.0,19.0,16.0,3.0,0.8421052631578947,26.022305364503588,140.25937687048,26.0,15.0,11.0,0.5769230769230769,29.91057711977119,214.7829044738893,20.0,12.0,8.0,0.6,183.91408760061725,2293.083107270289,16.0,7.0,9.0,0.4375,168.35869533819638,2934.55454964755,116.0,56.0,60.0,0.4827586206896552,30.085032170318417,774.7544452578691,,,,,115868.0,115876.0,115915.0,115932.0,115995.0,116015.0,116023.0,116039.0,116208.0,116302.0,0.14168038224806964,-0.14836172603041883,0.06300220045322433,-0.08636264155988962,0.03619657937669579
