Unnamed: 0,cycle,p_center,p_height,p_width,q_center,q_height,q_width,r_center,r_height,r_width,s_center,s_height,s_width,t_center,t_height,t_width,r_squared,pr_interval,pr_segment,qrs_duration,st_segment,qt_interval,p_duration,pp_interval,rr_interval,fwhm_p,rise_time_p,decay_time_p,rise_decay_symmetry_p,sharpness_deriv_p,sharpness_diff_p,fwhm_q,rise_time_q,decay_time_q,rise_decay_symmetry_q,sharpness_deriv_q,sharpness_diff_q,fwhm_r,rise_time_r,decay_time_r,rise_decay_symmetry_r,sharpness_deriv_r,sharpness_diff_r,fwhm_s,rise_time_s,decay_time_s,rise_decay_symmetry_s,sharpness_deriv_s,sharpness_diff_s,fwhm_t,rise_time_t,decay_time_t,rise_decay_symmetry_t,sharpness_deriv_t,sharpness_diff_t,Average_Heart_Rate,SDNN,RMSSD,NN50,p_on,p_off,q_on,q_off,r_on,r_off,s_on,s_off,t_on,t_off,sharpness_deriv_p_norm,sharpness_deriv_q_norm,sharpness_deriv_r_norm,sharpness_deriv_s_norm,sharpness_deriv_t_norm
0,0,0.0,0.0,0.0,0.0,0.0,0.0,0.0,0.0,0.0,0.0,0.0,0.0,0.0,0.0,0.0,0.0,0.0,0.0,0.0,0.0,0.0,0.0,0.0,0.0,0.0,0.0,0.0,0.0,0.0,0.0,0.0,0.0,0.0,0.0,0.0,0.0,0.0,0.0,0.0,0.0,0.0,0.0,0.0,0.0,0.0,0.0,0.0,0.0,0.0,0.0,0.0,0.0,0.0,0.0,76.44869051195751,146.59643423107084,242.86728871781156,67.0,,,,,,,,,,,,,,,
1,1,1159.0709561401643,3211.718270809657,21.37488223980408,1263.972626301008,-4438.934438165625,12.695354284680215,1294.9305781386065,47139.474731768525,12.181138733819326,1365.945252602016,-2122.6647036484346,35.67151561069019,1533.9745052878586,7821.291576376988,34.086655396263005,0.9961387323783158,113.0,58.0,171.0,157.0,328.0,55.0,,,58.0,29.0,29.0,0.5,69.05606549567422,3045.593389837829,26.0,22.0,4.0,0.8461538461538461,710.8951959736144,7003.143033124473,29.0,14.0,15.0,0.4827586206896552,1724.9838078312434,47239.6319790592,71.0,20.0,51.0,0.2816901408450704,88.15507628084922,2568.084400536041,80.0,41.0,39.0,0.5125,73.29331981977245,8178.584434580374,0.0,0.0,0.0,0.0,1132.0,1187.0,1245.0,1268.0,1281.0,1310.0,1346.0,1416.0,1493.0,1573.0,0.021501283634777078,-0.16014996523971856,0.036593191113110386,-0.04153038213210421,0.009370999547075279
2,2,1911.5677384357675,4009.684652184097,31.6790513374806,2013.547965400864,-2836.9809723531775,8.82567400317839,2046.103034995622,48178.925384179296,12.13935383558697,2119.2466090014395,-637.9495286811732,9.283401243021313,2283.5618455226136,8693.754171174727,42.0573384814555,0.9960335189686436,124.0,59.0,132.0,191.0,323.0,65.0,756.0,751.0,67.0,34.0,33.0,0.5074626865671642,67.88283383759399,4110.649268945779,14.0,11.0,3.0,0.7857142857142857,641.9447179470467,7140.153272265765,30.0,15.0,15.0,0.5,1717.738753874595,48462.31827652534,30.0,14.0,16.0,0.4666666666666667,51.832895131168726,605.4784414248643,89.0,47.0,42.0,0.5280898876404494,75.91305425908347,9655.422227370116,0.0,0.0,0.0,0.0,1879.0,1944.0,2003.0,2017.0,2031.0,2061.0,2105.0,2135.0,2239.0,2326.0,0.016929718849739928,-0.22627741398440743,0.035653322281004124,-0.0812492098525762,0.008731907155919254
3,3,2663.83683132831,3416.414724386598,23.47786672434675,2768.12330450072,-3287.2230451755427,9.153290029923022,2799.529647939814,47295.71333730484,12.07436971385482,2885.5754936548656,-1820.7842411377535,24.642416296567344,3039.870046719177,7824.832279160688,35.492801670491794,0.99744334519218,118.0,64.0,165.0,157.0,322.0,54.0,742.0,754.0,56.0,27.0,29.0,0.4821428571428571,71.59641497356962,3376.620243088618,16.0,13.0,3.0,0.8125,671.5434713481357,7448.171810090362,29.0,15.0,14.0,0.5172413793103449,1700.7583325816754,46385.44192111816,68.0,33.0,35.0,0.4852941176470588,56.44893077498,1544.0421631563572,81.0,42.0,39.0,0.5185185185185185,81.56804980203233,8201.336490357387,0.0,0.0,0.0,0.0,2638.0,2692.0,2756.0,2771.0,2785.0,2814.0,2853.0,2921.0,2998.0,3078.0,0.02095659360747675,-0.20428898864460054,0.035960094743727855,-0.031002536983572943,0.010424255356791052
4,4,3408.162540077412,3346.617815497383,71.3430312241936,3521.2739827004316,-3483.5508822891848,7.64389620259217,3553.4847420480423,48188.8133399358,12.26538634920436,3620.972626301007,-809.97005952241,6.540846352484011,3793.7828647421175,8166.535070365553,49.11803591999352,0.9912755555889076,130.0,61.0,115.0,209.0,324.0,69.0,751.0,754.0,72.0,26.0,46.0,0.3611111111111111,81.55229512215071,5291.870973050743,9.0,7.0,2.0,0.7777777777777778,624.1141097695062,7523.405336356628,29.0,14.0,15.0,0.4827586206896552,1705.685206679232,49810.69847240602,22.0,11.0,11.0,0.5,82.33191351963775,826.4444545451024,97.0,51.0,46.0,0.5257731958762887,67.3692089645634,8912.180673158862,0.0,0.0,0.0,0.0,3385.0,3454.0,3515.0,3523.0,3539.0,3568.0,3611.0,3630.0,3744.0,3839.0,0.0243685713810826,-0.17916032544338065,0.03539587486097462,-0.10164809495326761,0.008249423823456108
5,5,4172.472468557402,3076.034237187766,18.334074602620166,4277.698643600575,-4126.428309494266,10.191861603379584,4307.988934447269,47272.82922859418,12.072187168096503,4395.097142071006,-1404.3194289757687,22.866064663122145,4547.298576664863,7953.0259169101555,36.31596605713953,0.9975230540004534,114.0,63.0,168.0,156.0,324.0,51.0,763.0,754.0,52.0,26.0,26.0,0.5,67.77746697031952,2924.1607047623907,25.0,22.0,3.0,0.88,792.3286151617326,8974.827997793875,29.0,14.0,15.0,0.4827586206896552,1713.0178568027238,47756.66912693864,68.0,32.0,36.0,0.4705882352941176,59.46410539750403,1160.2775717803504,83.0,43.0,40.0,0.5180722891566265,64.20348779183344,8533.958090291191,0.0,0.0,0.0,0.0,4147.0,4198.0,4261.0,4280.0,4294.0,4323.0,4365.0,4429.0,4505.0,4585.0,0.02203404180321621,-0.19201317840387738,0.03623683804747953,-0.042343717654660516,0.008072837742842067
6,6,4929.780057331344,3212.2247276965177,21.928100572935065,5034.972626301007,-3963.964791198509,11.686956411704056,5066.836705382706,47590.15627053689,12.131469342707206,5137.945252602015,-2041.317436868304,35.6715156120968,5308.2778828082055,7354.18550154938,32.75814331605999,0.9969570542556296,114.0,60.0,189.0,140.0,329.0,54.0,753.0,759.0,58.0,29.0,29.0,0.5,73.34957494001641,2944.3521537140473,23.0,19.0,4.0,0.8260869565217391,658.475031740308,6259.884262373779,30.0,15.0,15.0,0.5,1718.989719219013,47158.034666723805,88.0,20.0,68.0,0.2272727272727272,71.10647206030809,2453.887216289082,77.0,39.0,38.0,0.5064935064935064,76.3744949897964,7665.238461765011,0.0,0.0,0.0,0.0,4903.0,4957.0,5017.0,5039.0,5052.0,5082.0,5118.0,5206.0,5271.0,5346.0,0.02283450915111263,-0.1661152574317436,0.03612069919348513,-0.03483361812134246,0.010385173854222988
7,7,5688.826063077719,3856.3076447167705,32.09871881770797,5795.547965400863,-3551.6763047929235,9.126901188169755,5827.198238717366,49469.368881106566,11.964965637383187,5892.821948101295,-1058.3137553350266,9.811580074408056,6065.693896588378,8688.663719035883,42.04430224630864,0.9960550562328409,122.0,61.0,123.0,202.0,325.0,61.0,758.0,761.0,61.0,27.0,34.0,0.4426229508196721,71.27417536093971,4226.552702662087,16.0,13.0,3.0,0.8125,748.9065498061702,7770.768555277287,29.0,14.0,15.0,0.4827586206896552,1798.251247786371,50257.4606281346,33.0,13.0,20.0,0.3939393939393939,67.90768824156352,1104.4488985020594,93.0,49.0,44.0,0.5268817204301075,67.0233011569001,9456.031755634896,0.0,0.0,0.0,0.0,5662.0,5723.0,5784.0,5799.0,5813.0,5842.0,5880.0,5907.0,6020.0,6109.0,0.018482492043545063,-0.21086002370079004,0.036350802293601985,-0.06416593179407956,0.007713879064056721
8,8,6455.7783147637965,2933.7205017099736,17.22728015656174,6559.547965400863,-4824.623923908616,11.824963494754517,6589.886226124918,49472.37198802737,12.18093475154475,6673.342539803168,-2314.5480384231364,39.87096169984115,6828.348095898487,7368.117965817589,31.937462914190657,0.9969604286144844,111.0,61.0,186.0,138.0,324.0,50.0,764.0,763.0,51.0,25.0,26.0,0.4901960784313725,66.10092690928198,2455.6541316506364,24.0,21.0,3.0,0.875,862.7190397350568,8881.340539901717,29.0,14.0,15.0,0.4827586206896552,1793.6747429695174,49497.68839411602,91.0,32.0,59.0,0.3516483516483517,64.42613969334391,2060.7662500630877,79.0,40.0,39.0,0.5063291139240507,73.93235841760233,7589.066972510264,0.0,0.0,0.0,0.0,6432.0,6482.0,6543.0,6563.0,6576.0,6605.0,6642.0,6729.0,6788.0,6867.0,0.022531432994640704,-0.17881581100234945,0.03625608942711698,-0.027835300293545164,0.010034089948151172
9,9,7224.972886364816,3478.189345056414,30.69488908935757,7330.547965400863,-3351.6425671743923,9.667166334716152,7362.707716540803,49828.13610856041,12.159523669197435,7438.219235302448,-1536.2218576298203,25.546308004761222,7604.131156999683,8563.873157164868,37.27940933111009,0.9957306225148596,119.0,60.0,167.0,158.0,325.0,59.0,778.0,772.0,59.0,27.0,32.0,0.4576271186440678,60.90331556928101,3639.1462386334033,18.0,15.0,3.0,0.8333333333333334,702.7185029388778,7779.334480430839,30.0,15.0,15.0,0.5,1771.0814512145726,49189.12740321229,73.0,25.0,48.0,0.3424657534246575,60.44717779013866,1412.2416063946662,79.0,41.0,38.0,0.5189873417721519,99.9158474027468,9293.433163315516,0.0,0.0,0.0,0.0,7198.0,7257.0,7317.0,7334.0,7348.0,7378.0,7414.0,7484.0,7563.0,7642.0,0.01751006329078764,-0.20966391518630992,0.035543802950122855,-0.03934794801279574,0.011667133033042804
10,10,8006.463468144042,3284.295258243455,19.2833405607164,8110.123304500719,-4087.271740105151,11.352095166147093,8140.854297781416,48565.783645082425,12.037499508634342,8232.678384752995,-1882.318450676038,28.79706019753505,8379.249264340408,7823.066980898195,32.96693872764282,0.9981893830004704,111.0,61.0,177.0,146.0,323.0,50.0,778.0,778.0,51.0,25.0,26.0,0.4901960784313725,65.3819089029429,3107.531835187375,23.0,19.0,4.0,0.8260869565217391,741.7131233676865,7651.5619734810225,29.0,14.0,15.0,0.4827586206896552,1755.4690765673372,48672.3106285696,78.0,40.0,38.0,0.5128205128205128,66.00493715280703,1745.0717920719862,76.0,38.0,38.0,0.5,90.06936096346325,8370.576998012179,0.0,0.0,0.0,0.0,7982.0,8032.0,8093.0,8113.0,8127.0,8156.0,8194.0,8270.0,8341.0,8416.0,0.019907439423674476,-0.181469001948132,0.03614621127904087,-0.035065765375195276,0.011513305610624091
11,11,8799.080625980989,3974.911019317428,31.800331412531747,8898.698643600574,-3015.1144291356836,8.482407037437003,8930.529283835816,49371.82151103761,12.12766969617985,9001.671269901582,-1418.2961632350125,12.82735610835091,9169.527255696685,8515.281120308597,38.059540096521125,0.9945023050898684,121.0,61.0,145.0,178.0,323.0,60.0,798.0,790.0,60.0,32.0,28.0,0.5333333333333333,68.83538339832299,4164.617420048142,13.0,11.0,2.0,0.8461538461538461,706.0675047274389,8159.322031988715,29.0,15.0,14.0,0.5172413793103449,1759.4666713706204,48232.25088719208,50.0,16.0,34.0,0.32,74.53425949978175,1292.9312885642244,85.0,43.0,42.0,0.5058823529411764,57.398920628811354,8624.582285359236,0.0,0.0,0.0,0.0,8767.0,8827.0,8888.0,8901.0,8916.0,8945.0,8986.0,9033.0,9128.0,9211.0,0.017317465237283076,-0.23417602260947723,0.03563706214439085,-0.0525519714653782,0.006740695911015466
12,12,9580.3961178546,2471.7215642503684,17.802268484389135,9688.54796540086,-4675.737141213579,13.572196703678513,9718.92018837455,50574.02402311902,11.937569563187177,9785.945252602014,-2315.177592827726,35.6715156120968,9955.957476719272,8396.983542437789,32.75109630317424,0.9964132157431512,114.0,62.0,175.0,152.0,327.0,52.0,779.0,789.0,52.0,26.0,26.0,0.5,63.891069352675586,2316.732819581621,27.0,24.0,3.0,0.8888888888888888,831.5213036959819,8377.158747709327,28.0,14.0,14.0,0.5,1886.6659062097688,50434.45306124893,83.0,21.0,62.0,0.253012048192771,62.87363839089527,2536.248120500749,80.0,41.0,39.0,0.5125,69.37953754171637,8530.798723487545,0.0,0.0,0.0,0.0,9554.0,9606.0,9668.0,9692.0,9705.0,9733.0,9766.0,9843.0,9915.0,9995.0,0.025848813344011373,-0.1778374785799362,0.03730503836015329,-0.02715715571266491,0.008262435812941263
13,13,10374.50678199712,3041.6199366939504,23.601436231450865,10474.123304500716,-3753.539398464746,10.213899086526975,10505.514519310082,52553.4329555432,12.035077683939017,10593.339028607745,-2253.588621017866,28.585006571234484,10744.420242589413,8988.125254670296,34.27075176567788,0.9980716873859468,119.0,57.0,173.0,150.0,323.0,62.0,799.0,786.0,62.0,34.0,28.0,0.5483870967741935,61.57848802687081,2870.7543956584236,18.0,15.0,3.0,0.8333333333333334,754.8752412822412,8042.719816739201,29.0,15.0,14.0,0.5172413793103449,1896.535029033436,51450.23571111939,75.0,35.0,40.0,0.4666666666666667,57.60807149609897,1724.0928146194888,79.0,40.0,39.0,0.5063291139240507,75.02062852718318,9222.669022266076,0.0,0.0,0.0,0.0,10341.0,10403.0,10460.0,10477.0,10491.0,10520.0,10558.0,10633.0,10704.0,10783.0,0.0202452933990835,-0.20111024852729573,0.03608774769552699,-0.02556281610531005,0.008346638080972659
14,14,11159.539342359149,2703.2180695528305,19.21167762335638,11262.54796540086,-3668.384005786076,10.859141320001084,11294.822883213146,50865.45296810148,11.99755555861268,11374.068557102735,-1798.125568016077,28.37338740285776,11533.850369652711,8394.329266438039,33.79934995646239,0.9980409165120324,114.0,61.0,165.0,161.0,326.0,53.0,771.0,789.0,54.0,26.0,28.0,0.4814814814814814,66.91058844592581,2405.668744596754,20.0,16.0,4.0,0.8,703.7257211041426,7153.241292688905,30.0,15.0,15.0,0.5,1832.6003943993323,50538.008394185104,79.0,27.0,52.0,0.3417721518987341,55.20465304375251,1576.3173967100806,80.0,40.0,40.0,0.5,71.77762719243364,8430.154295685827,0.0,0.0,0.0,0.0,11134.0,11187.0,11248.0,11266.0,11280.0,11310.0,11347.0,11413.0,11494.0,11574.0,0.02475219783396692,-0.1918353476610324,0.036028390340858356,-0.030701222442802684,0.008550728106343511
15,15,11926.82797547528,3194.2220436640528,21.162328079783,12025.54796540086,-3002.555785698253,10.380293362543377,12057.869826879716,51730.50267940257,11.92789810348456,12129.095930801726,-1701.7990623574578,19.665916614508745,12293.57877587634,8920.968376690107,35.25485102441285,0.9976892561685208,117.0,59.0,156.0,165.0,321.0,58.0,780.0,764.0,58.0,31.0,27.0,0.5344827586206896,66.73344057248624,3112.0143523109127,18.0,15.0,3.0,0.8333333333333334,689.3773828191586,7779.878019202729,30.0,15.0,15.0,0.5,1882.12028214895,51589.35467623087,59.0,17.0,42.0,0.288135593220339,65.92754231067357,1943.0498107401943,84.0,44.0,40.0,0.5238095238095238,82.722738126811,9295.668717039462,0.0,0.0,0.0,0.0,11896.0,11954.0,12013.0,12029.0,12043.0,12073.0,12112.0,12169.0,12250.0,12334.0,0.020891922872067197,-0.22959686081530767,0.03638318177214137,-0.03873990988063295,0.009272842883622363
16,16,12658.631301794358,3645.2495901265943,30.851233944301487,12756.123304500716,-2945.824398043751,8.776126133736176,12787.996249037831,49143.4788075649,11.8811014139026,12859.095930801726,-1403.552214952425,18.97857524895488,13024.037072980143,8398.570148085913,36.0237558904975,0.9969284580499108,119.0,57.0,166.0,153.0,319.0,62.0,721.0,730.0,62.0,31.0,31.0,0.5,67.58273353629036,3682.811695526856,15.0,11.0,4.0,0.7333333333333333,644.8083347747263,7071.691419813993,29.0,14.0,15.0,0.4827586206896552,1798.1783497533168,49305.04232447277,74.0,18.0,56.0,0.2432432432432432,69.30190873700614,1482.5590270801902,84.0,42.0,42.0,0.5,74.97332785427746,8750.636370274959,0.0,0.0,0.0,0.0,12628.0,12690.0,12747.0,12759.0,12774.0,12803.0,12842.0,12913.0,12983.0,13066.0,0.018539946817178934,-0.21888892467688417,0.03659037563853771,-0.04937608162967789,0.008926915716881206
17,17,13390.44619942339,3936.4941423884097,29.232649462057505,13490.698643600574,-2847.942309175063,8.364508309839568,13522.275203831734,48925.30531938957,11.931780004134572,13608.917878903025,-1788.8857935016051,22.410939008374164,13759.71704832566,8018.139906340272,36.32484375453072,0.9979846410869032,123.0,59.0,163.0,156.0,319.0,64.0,731.0,733.0,64.0,32.0,32.0,0.5,58.77385080582211,3840.8446045239857,14.0,11.0,3.0,0.7857142857142857,702.5373789024154,8189.8456407365775,29.0,14.0,15.0,0.4827586206896552,1769.6545548947329,49722.2700701108,69.0,32.0,37.0,0.463768115942029,69.71333809576262,1540.7672065281376,82.0,42.0,40.0,0.5121951219512195,76.51493385515538,8329.049648263466,0.0,0.0,0.0,0.0,13358.0,13422.0,13481.0,13493.0,13508.0,13537.0,13579.0,13644.0,13718.0,13800.0,0.01493050635410369,-0.24668244740741002,0.036170536767062375,-0.03897025642945276,0.009542728706274118
18,18,14130.147791965966,3756.933071594414,26.729926548954932,14234.972626301009,-3585.022065773381,9.943612994466356,14266.40389630576,47793.752555657535,11.86847833973622,14336.52059170187,-1304.4016260156882,33.12355021097467,14504.541187162524,8317.264385944283,36.08689194562902,0.9973934018487752,119.0,60.0,167.0,156.0,323.0,59.0,747.0,745.0,59.0,28.0,31.0,0.4745762711864407,65.80404548917531,3932.906256816322,19.0,15.0,4.0,0.7894736842105263,673.9540748895372,6848.661643804537,29.0,14.0,15.0,0.4827586206896552,1772.2363027097454,48947.11520362872,71.0,20.0,51.0,0.2816901408450704,66.69497652753043,1476.8016561863528,85.0,45.0,40.0,0.5294117647058824,77.0469103158046,8794.119052430256,0.0,0.0,0.0,0.0,14102.0,14161.0,14221.0,14239.0,14252.0,14281.0,14318.0,14388.0,14461.0,14544.0,0.01751536272677026,-0.18799161135543752,0.03708091974251054,-0.051130706369365016,0.00926349178535308
19,19,14874.083885489616,3409.274874807652,22.55238575075309,14980.123304500716,-4298.683076358579,10.487271084400057,15009.925608863186,48732.75284844001,11.805523268390765,15092.586274637142,-1799.1128824076468,25.277968943362517,15247.351769327965,8278.857337887786,35.34933496693629,0.997397688277294,117.0,61.0,150.0,170.0,320.0,56.0,737.0,743.0,58.0,27.0,31.0,0.4655172413793103,74.9941890526929,3196.707893329236,20.0,17.0,3.0,0.85,813.0505108439472,8408.210607611043,28.0,14.0,14.0,0.5,1832.0677844866696,49149.236496256,57.0,32.0,25.0,0.5614035087719298,58.09271293918705,1508.4967351946536,82.0,42.0,40.0,0.5121951219512195,72.77006050279846,8707.894174218141,0.0,0.0,0.0,0.0,14849.0,14905.0,14966.0,14983.0,14996.0,15024.0,15062.0,15116.0,15205.0,15286.0,0.0219971084194037,-0.18913944024286705,0.037594177989173784,-0.032289643138703444,0.00878986767530947
20,20,15629.202256795485,3273.622233717308,37.250617373186216,15734.123304500716,-2797.7259099999364,8.270488123886297,15766.53835171205,53619.119464159376,12.057649837636536,15838.24660900144,-989.6671841634882,12.717045582068494,16001.177106373032,9333.757386327628,40.37834041589143,0.9958072966439264,126.0,63.0,137.0,183.0,320.0,63.0,761.0,757.0,63.0,29.0,34.0,0.4603174603174603,69.00849054289822,3740.489398485816,13.0,10.0,3.0,0.7692307692307693,675.5875290859474,7625.921249873279,29.0,15.0,14.0,0.5172413793103449,1904.2323947424352,52310.767294508725,42.0,14.0,28.0,0.3333333333333333,44.563804281466915,1059.127562300292,91.0,46.0,45.0,0.5054945054945055,73.09946823455734,10095.577169365084,0.0,0.0,0.0,0.0,15600.0,15663.0,15726.0,15737.0,15752.0,15781.0,15824.0,15863.0,15957.0,16046.0,0.021080163078113247,-0.24147738228079774,0.03551405569081158,-0.0450290814877673,0.007831730053497604
21,21,16388.794084424775,3311.2886707063044,30.800828765932273,16494.54796540086,-2853.8550328396996,9.92498514507321,16528.207148690664,55259.6615321075,12.058205475268831,16597.397287201147,-943.7738094761422,9.981563024264686,16764.413629041854,9696.783136224534,40.93368240951548,0.997238396263933,120.0,61.0,137.0,187.0,324.0,59.0,755.0,762.0,61.0,28.0,33.0,0.4590163934426229,74.83900677226681,3643.522291438054,17.0,14.0,3.0,0.8235294117647058,634.4770179521034,7081.141420686134,29.0,14.0,15.0,0.4827586206896552,1965.409705079055,55807.840410534,35.0,12.0,23.0,0.3428571428571428,70.93400102592813,1240.7161239833952,88.0,45.0,43.0,0.5113636363636364,79.16374461841703,10764.626717808029,0.0,0.0,0.0,0.0,16362.0,16421.0,16482.0,16498.0,16514.0,16543.0,16586.0,16619.0,16719.0,16806.0,0.022601172599157147,-0.22232279168040764,0.035566806791552524,-0.07515995921236812,0.00816391823002444
22,22,17158.808138396547,2302.480663348583,61.15116962073736,17275.69864360057,-2776.3459158521214,10.191861603456228,17308.55548031418,53157.613118860005,12.023112598912496,17399.38563974961,-1504.9566657716746,27.33200874547184,17548.81344394663,8627.562898853446,34.61695141633144,0.9941028199652364,119.0,61.0,179.0,144.0,323.0,58.0,783.0,780.0,69.0,21.0,48.0,0.3043478260869565,76.14757205496409,3581.016924727225,16.0,14.0,2.0,0.875,636.4676121641719,7996.383169831857,29.0,15.0,14.0,0.5172413793103449,1895.0435808594789,52025.27248941029,81.0,37.0,44.0,0.4567901234567901,59.95111190740154,1340.8671750120309,78.0,40.0,38.0,0.5128205128205128,81.29926410734866,9207.978972836238,0.0,0.0,0.0,0.0,17145.0,17203.0,17264.0,17278.0,17294.0,17323.0,17362.0,17443.0,17509.0,17587.0,0.03307197027410421,-0.22924651014490968,0.035649523552198935,-0.039835772863706535,0.009423201553031026
23,23,17952.36885936176,3630.1176154209425,44.50751758760859,18064.69864360057,-3078.449137462062,8.924431026346918,18096.315974198897,50715.75969399563,12.134306130218716,18172.67126990158,-505.03044569465663,10.810382010583794,18335.35865901103,8924.031985251959,41.60686127883075,0.994442050858913,127.0,61.0,146.0,176.0,322.0,66.0,792.0,788.0,69.0,26.0,43.0,0.3768115942028985,62.74420590834928,4736.627525089426,14.0,12.0,2.0,0.8571428571428571,735.4192725365303,8756.443640085896,29.0,14.0,15.0,0.4827586206896552,1823.734218777888,51772.417203228826,46.0,16.0,30.0,0.3478260869565217,49.92859875278393,439.0411246940605,86.0,44.0,42.0,0.5116279069767442,86.84855807142813,9930.252658824153,0.0,0.0,0.0,0.0,17928.0,17994.0,18055.0,18067.0,18082.0,18111.0,18157.0,18201.0,18291.0,18377.0,0.017284345179838907,-0.23889277999987532,0.035959911273769296,-0.09886255210635549,0.009731986417681589
24,24,18739.808138396547,2802.223344993242,61.15116962073736,18859.123304500717,-2698.0932474016977,11.307074919314914,18891.813921323155,48751.905690520915,12.127359145872331,18978.35024310003,-1163.1377623212495,19.296961865568647,19133.18616346336,9184.65143419031,40.095020472247455,0.9926634279985712,123.0,61.0,154.0,171.0,325.0,62.0,789.0,796.0,68.0,17.0,51.0,0.25,100.1694136685713,4486.1917809652205,13.0,10.0,3.0,0.7692307692307693,576.1994122859793,6693.186593078901,30.0,15.0,15.0,0.5,1740.2300937197022,48590.172368576496,59.0,31.0,28.0,0.5254237288135594,44.465226928921886,943.9578864287208,84.0,43.0,41.0,0.5119047619047619,75.8906612178768,9864.268768746038,0.0,0.0,0.0,0.0,18726.0,18788.0,18849.0,18862.0,18877.0,18907.0,18949.0,19003.0,19090.0,19174.0,0.03574640609840929,-0.21355800539542788,0.035695632182396186,-0.03822868482937358,0.008262769878818715
25,25,19551.388626406955,2730.63132038929,18.003455387042436,19655.972626301005,-4109.226874833179,11.83711245309178,19687.23974328503,46726.52341062247,12.055434449850669,19755.095930801723,-1888.9015848418096,30.575584810368593,19927.54343515318,8079.579613124752,31.165254716892345,0.9963354625730764,112.0,63.0,184.0,141.0,325.0,49.0,797.0,795.0,49.0,24.0,25.0,0.4897959183673469,61.65370428664116,2574.358573207225,23.0,19.0,4.0,0.8260869565217391,678.3028693502856,6661.326430026515,29.0,14.0,15.0,0.4827586206896552,1732.8670455413687,47695.682947796806,86.0,17.0,69.0,0.1976744186046511,61.87839683533912,2210.6743521638814,75.0,39.0,36.0,0.52,74.00139768477183,8175.499143787211,0.0,0.0,0.0,0.0,19527.0,19576.0,19639.0,19660.0,19673.0,19702.0,19738.0,19823.0,19889.0,19964.0,0.022578553108316194,-0.1650682451982704,0.0370852980075858,-0.0327589310803195,0.009159065350944915
26,26,20356.72364399284,4007.3764591933423,32.96996940545266,20458.54796540086,-2879.8379881037176,9.828932188938692,20491.619667191047,48105.38654340287,12.180507639817616,20575.8579486315,-581.156911529025,11.203581762874984,20728.76446850233,9480.589448338493,39.67026771736154,0.9956939203030436,122.0,59.0,138.0,184.0,322.0,63.0,812.0,804.0,64.0,31.0,33.0,0.484375,63.23623514955481,4196.677431636812,16.0,12.0,4.0,0.75,599.7913083147229,6503.312859084412,29.0,15.0,14.0,0.5172413793103449,1716.9096275886066,47382.71954783753,25.0,11.0,14.0,0.44,67.75606162268554,510.97566612443234,88.0,46.0,42.0,0.5227272727272727,71.6115419849486,10241.783298237184,0.0,0.0,0.0,0.0,20326.0,20389.0,20448.0,20462.0,20477.0,20506.0,20565.0,20586.0,20684.0,20770.0,0.015779958731973943,-0.2082725871359404,0.03569058999327513,-0.11658824024723237,0.007553490463348645
27,27,21140.3080798629,3559.4322999262354,28.33630846296624,21244.54796540086,-2586.20912904174,9.204042644903756,21277.44814596383,48841.509749612014,12.286746982287166,21347.246609001435,-633.9445204394486,9.818352338413632,21515.335543408695,9301.025864162457,37.325318730732064,0.9965239500588224,122.0,62.0,148.0,173.0,321.0,60.0,781.0,786.0,60.0,28.0,32.0,0.4666666666666667,50.01432570341618,3763.41815611341,15.0,12.0,3.0,0.8,629.5828472872703,7416.727580645093,29.0,14.0,15.0,0.4827586206896552,1721.7396147284076,50069.589284468064,55.0,15.0,40.0,0.2727272727272727,48.605483496903496,655.9991929537496,83.0,42.0,41.0,0.5060240963855421,77.65176755579729,10048.826278059749,0.0,0.0,0.0,0.0,21112.0,21172.0,21234.0,21248.0,21263.0,21292.0,21333.0,21382.0,21474.0,21555.0,0.01405120858864282,-0.24343849080779775,0.035251564162430186,-0.07667150977692859,0.008348731493694186
28,28,21935.25359348864,3708.720574534051,27.86198549991435,22036.27398270043,-2756.961233169788,7.64389620259217,22068.43064303943,48312.68229909335,12.281067689140936,22142.095930801723,-1016.0682344402924,11.619569297016398,22307.031325625616,9401.193828556645,37.652084311828595,0.996161579067099,124.0,63.0,136.0,183.0,319.0,61.0,800.0,791.0,62.0,32.0,30.0,0.5161290322580645,53.299161053674986,3663.2009608072494,13.0,10.0,3.0,0.7692307692307693,622.3402501580415,7492.166114520921,29.0,14.0,15.0,0.4827586206896552,1699.3344268061117,49477.69246604148,40.0,17.0,23.0,0.425,72.92190909219951,1021.79214730716,81.0,42.0,39.0,0.5185185185185185,81.65929859300935,10050.358741839693,0.0,0.0,0.0,0.0,21903.0,21964.0,22027.0,22038.0,22054.0,22083.0,22125.0,22163.0,22266.0,22346.0,0.014371306757282808,-0.2257341317210007,0.035173671713896994,-0.07176871259278075,0.008686056269254307
29,29,22712.327248938196,3742.7245938419273,30.700700586494676,22819.69864360057,-3521.1762193150767,9.04396164952474,22850.87619300364,47799.688354887374,12.241517734062032,22925.52059170187,-1552.0004214478145,20.140159987618855,23090.992968017377,9123.222347761564,35.86710531724438,0.99618203793667,124.0,62.0,160.0,161.0,321.0,62.0,772.0,782.0,62.0,29.0,33.0,0.4677419354838709,62.874997515571934,4046.977777826771,17.0,14.0,3.0,0.8235294117647058,741.0587303315115,8599.964571723434,30.0,15.0,15.0,0.5,1694.8414880018763,47807.37639252076,63.0,20.0,43.0,0.3174603174603174,77.28599060510851,1451.4530445319588,78.0,40.0,38.0,0.5128205128205128,84.37316188370563,9521.688322962324,0.0,0.0,0.0,0.0,22683.0,22745.0,22807.0,22822.0,22836.0,22866.0,22907.0,22967.0,23051.0,23128.0,0.016799258384927115,-0.21045772326488643,0.035457166068083454,-0.049797660836335814,0.009248175553279931
30,30,23489.50681185439,3881.404198659292,23.891043882044567,23595.54796540086,-3866.2866553764297,10.692800792851774,23626.890057306904,47564.99309199948,12.163984061636246,23714.247549575015,-1470.3784974824753,24.38076900017003,23865.979820104287,8953.002492035304,35.80708779776455,0.9949982264885716,119.0,61.0,161.0,165.0,326.0,58.0,782.0,776.0,58.0,29.0,29.0,0.5,56.74674114531017,3837.692531257469,21.0,18.0,3.0,0.8571428571428571,730.8921137501285,7955.441478126332,30.0,15.0,15.0,0.5,1704.3188919833678,47782.43242470023,64.0,34.0,30.0,0.53125,54.14717898259375,1263.5174390682423,82.0,42.0,40.0,0.5121951219512195,78.63505340956745,9487.060893786476,0.0,0.0,0.0,0.0,23461.0,23519.0,23580.0,23599.0,23612.0,23642.0,23680.0,23741.0,23824.0,23906.0,0.014620157613296634,-0.18904240137853082,0.03583137053519382,-0.03682533380031226,0.008783092988025203
31,31,24259.347840221533,4027.494429757441,30.16736638594473,24363.54796540086,-3047.8499598320072,9.098715867313157,24396.00777148268,50533.20524372901,12.102656630372294,24463.821948101293,-864.1764505663741,9.81067077557772,24632.01351055348,9587.95950564128,39.079121070640326,0.994847239400088,121.0,61.0,139.0,183.0,322.0,60.0,761.0,769.0,62.0,29.0,33.0,0.4677419354838709,75.01443145237286,4214.441128309238,15.0,12.0,3.0,0.8,682.1490196612805,7542.343433537086,30.0,15.0,15.0,0.5,1811.883343157455,50618.00950509237,41.0,13.0,28.0,0.3170731707317073,75.0338468000438,1030.5485562753663,87.0,44.0,43.0,0.5057471264367817,82.08656063751278,10374.049275112448,0.0,0.0,0.0,0.0,24231.0,24291.0,24352.0,24367.0,24381.0,24411.0,24451.0,24491.0,24590.0,24674.0,0.01862558291778709,-0.22381318918300017,0.035855302160598714,-0.08682699783229135,0.008561421289818277
32,32,25043.1205085183,2752.0933236808696,19.852104404433103,25148.54796540086,-4203.455245818285,15.287792405184334,25180.59327598357,54491.89862895219,12.22789483928835,25254.7945744023,-2301.192983445725,40.767446413824906,25419.248573702163,9224.657482420553,32.15400661947341,0.9963399530063416,110.0,53.0,190.0,141.0,331.0,57.0,786.0,785.0,57.0,27.0,30.0,0.4736842105263157,66.29202210254233,2647.636756681771,34.0,30.0,4.0,0.8823529411764706,765.6773534137745,7805.990742151808,30.0,15.0,15.0,0.5,1928.208768448803,52995.52277434146,88.0,24.0,64.0,0.2727272727272727,64.18648403486146,2487.1922182156222,78.0,40.0,38.0,0.5128205128205128,89.19296339969333,9505.98173646912,0.0,0.0,0.0,0.0,25016.0,25073.0,25126.0,25152.0,25166.0,25196.0,25232.0,25316.0,25380.0,25457.0,0.024087853973599298,-0.18215427752573118,0.03538523738323779,-0.027892699350556376,0.0096689729206389
33,33,25844.83418185517,3148.359042625537,25.85776270810983,25950.397287201147,-3019.9423168853195,10.96170390310352,25984.539049653355,55549.327548710346,12.147890451739917,26052.821948101293,-1363.3418215664333,12.231770801511312,26223.962311124946,9259.513353539682,37.41309024335487,0.9970424300104794,116.0,61.0,167.0,160.0,327.0,55.0,807.0,804.0,55.0,24.0,31.0,0.4363636363636363,76.23570403203674,3456.149541866613,18.0,13.0,5.0,0.7222222222222222,551.3170488396912,5214.3515169243,30.0,15.0,15.0,0.5,1949.0676209389417,54092.4182429595,69.0,14.0,55.0,0.2028985507246377,86.78649498581707,1523.6833911367255,84.0,44.0,40.0,0.5238095238095238,82.39565611046989,9798.08886647901,0.0,0.0,0.0,0.0,25821.0,25876.0,25937.0,25955.0,25970.0,26000.0,26040.0,26104.0,26181.0,26264.0,0.024214425038530826,-0.18255880112581208,0.03508715059115404,-0.06365717944902648,0.008898486666037592
34,34,26661.85979768815,1932.991692844156,22.65271964583923,26772.972626301005,-3838.5927627310007,11.82631891536355,26805.52679957493,54666.35156806617,12.146278109234588,26894.191861603453,-1989.2304192641088,28.262429229307664,27043.311471035107,8744.486147370304,34.01540837394459,0.9985297410855168,120.0,64.0,173.0,151.0,324.0,56.0,814.0,821.0,56.0,24.0,32.0,0.4285714285714285,56.28091601627773,2062.3513787907746,21.0,17.0,4.0,0.8095238095238095,704.4151639882715,7007.068437255689,30.0,15.0,15.0,0.5,1935.6194283116156,53571.202004557126,72.0,34.0,38.0,0.4722222222222222,76.74783703868466,1712.1728146723713,82.0,42.0,40.0,0.5121951219512195,71.92277018041686,9052.919320559957,0.0,0.0,0.0,0.0,26638.0,26694.0,26758.0,26777.0,26791.0,26821.0,26860.0,26931.0,27001.0,27082.0,0.029115963728466615,-0.18350869902831504,0.03540787656007255,-0.038581672739087,0.008224928139665008
35,35,27490.109494795972,2421.1744061226727,41.976004124965584,27602.123304500717,-3065.7809770436265,10.53253599561464,27634.793720030084,55077.639398534426,12.19823930324239,27711.369913502156,-1466.2157522181087,18.44509318090769,27871.074326473077,9041.517747918551,35.11960886081492,0.9956662026895972,117.0,58.0,164.0,159.0,323.0,59.0,840.0,829.0,62.0,20.0,42.0,0.3225806451612903,75.63373084293261,3293.454854900417,17.0,14.0,3.0,0.8235294117647058,671.6940937653914,7767.002893881213,30.0,15.0,15.0,0.5,1942.527970558156,54608.072653994015,64.0,22.0,42.0,0.34375,63.75488904943704,1341.0579885816987,85.0,44.0,41.0,0.5176470588235295,74.38811369332119,9194.751566712248,0.0,0.0,0.0,0.0,27471.0,27530.0,27588.0,27605.0,27620.0,27650.0,27690.0,27752.0,27829.0,27911.0,0.031238448024095172,-0.21909395967780937,0.03526890389223626,-0.0434826109001952,0.008227392321432547
36,36,28323.664867592295,3036.5339356049703,32.71939467290886,28434.69864360057,-3590.4094621003296,9.838757526103752,28466.618488230084,53091.30439330526,12.138418521207372,28561.68261875839,-1900.067570092069,28.021802431624725,28705.1766021569,8610.906405042833,33.785739310826386,0.9973329902049696,127.0,57.0,177.0,148.0,325.0,70.0,828.0,832.0,70.0,31.0,39.0,0.4428571428571428,68.38954586232153,3451.06072934587,19.0,16.0,3.0,0.8421052631578947,756.4507678170492,8527.248933725272,30.0,15.0,15.0,0.5,1880.185055283367,52263.39744643111,77.0,40.0,37.0,0.5194805194805194,69.6051267096717,1821.8850121417256,81.0,41.0,40.0,0.5061728395061729,72.87229916847524,9005.192286523374,0.0,0.0,0.0,0.0,28293.0,28363.0,28420.0,28437.0,28452.0,28482.0,28522.0,28597.0,28665.0,28745.0,0.02252223993297682,-0.21068649016275098,0.0354141808488031,-0.03663297442958775,0.008462790761004996
37,37,29164.343292766993,2443.757125856296,20.092447235667063,29270.821948101293,-3996.087105433404,22.41250827924164,29303.129041805303,52421.59368837075,12.069421866022171,29370.095930801723,-2487.165818043628,30.57558481036868,29543.813525482077,7745.70518850269,32.42713179445248,0.9955372854123514,100.0,48.0,209.0,133.0,342.0,52.0,836.0,837.0,54.0,26.0,28.0,0.4814814814814814,75.2072447356174,2441.495300825464,40.0,35.0,5.0,0.875,677.9290745110751,5769.174535281982,29.0,14.0,15.0,0.4827586206896552,1864.012647238148,51741.32290306499,97.0,17.0,80.0,0.1752577319587628,82.96539563558099,2968.0696311589186,80.0,42.0,38.0,0.525,86.71628891590687,8295.783709609961,0.0,0.0,0.0,0.0,29140.0,29192.0,29240.0,29276.0,29289.0,29318.0,29353.0,29449.0,29502.0,29582.0,0.03077525337517519,-0.16964822252981118,0.035558107186116746,-0.03335740425254014,0.011195402717447067
38,38,30007.738752245183,2875.039512103379,21.517658593432877,30110.123304500717,-3728.86684652516,10.242902526917666,30142.095066492937,50182.91366541173,12.268493526308063,30239.890087248743,-2208.740077061046,29.514996890598127,30382.386346556046,8311.12730614708,35.713118356216825,0.9978058570796732,116.0,60.0,182.0,143.0,325.0,56.0,842.0,838.0,56.0,28.0,28.0,0.5,59.25770057218697,2763.97557563304,19.0,15.0,4.0,0.7894736842105263,688.1848559859765,7215.7442715292,30.0,15.0,15.0,0.5,1775.028213769834,50612.400683325184,86.0,45.0,41.0,0.5232558139534884,62.58787797702004,1822.127965798916,83.0,43.0,40.0,0.5180722891566265,73.75853400079365,8881.162839655506,0.0,0.0,0.0,0.0,29980.0,30036.0,30096.0,30113.0,30127.0,30157.0,30197.0,30278.0,30341.0,30421.0,0.020611090846829452,-0.1845560284962385,0.035371166879719494,-0.02833646141844793,0.00887467262668932
39,39,30818.71886858593,3584.0690358051665,25.07805067272504,30923.54796540086,-3116.794370954764,9.037658806139785,30955.485984909043,49741.78656005217,12.108327155606856,31053.84294356552,-1548.3897131103918,27.231980240715956,31195.910614449745,9003.35048132079,35.41839203931438,0.9977912567335332,123.0,63.0,176.0,146.0,322.0,60.0,804.0,814.0,60.0,30.0,30.0,0.5,67.48489099994246,3347.4321250151643,15.0,12.0,3.0,0.8,708.9062393023671,8096.787978734343,29.0,14.0,15.0,0.4827586206896552,1785.596844936333,51171.47253710378,77.0,43.0,34.0,0.5584415584415584,61.068677279947146,1409.3974415265327,79.0,41.0,38.0,0.5189873417721519,84.4133083398891,9587.360317738428,0.0,0.0,0.0,0.0,30789.0,30849.0,30912.0,30927.0,30941.0,30970.0,31011.0,31088.0,31155.0,31234.0,0.018829126985491194,-0.2274472278019447,0.03589732030996959,-0.039440120767318274,0.009375766112295751
40,40,31624.867870408492,2615.637859650448,16.08718410649005,31732.54796540086,-4488.953929063614,15.287792405180252,31762.719584957787,49110.41228502701,12.212877394178212,31833.7945744023,-2987.2920472582405,40.767446413824906,32001.630234893335,8668.297290442548,31.41568832548616,0.9963530030364384,107.0,61.0,189.0,139.0,328.0,46.0,815.0,808.0,47.0,23.0,24.0,0.4893617021276595,65.41117946719548,2383.1001030200773,44.0,41.0,3.0,0.9318181818181818,836.5261082786095,8802.5577514394,28.0,14.0,14.0,0.5,1756.126816192823,47831.9529002491,88.0,23.0,65.0,0.2613636363636363,72.70735441547558,3161.7109922693194,77.0,40.0,37.0,0.5194805194805194,73.22496074593603,8849.146520733244,0.0,0.0,0.0,0.0,31602.0,31648.0,31709.0,31736.0,31749.0,31777.0,31811.0,31898.0,31963.0,32037.0,0.02500773538884966,-0.18635212601816722,0.03575874716751744,-0.024338883934099092,0.008447444554846091
41,41,32417.53107520577,3405.9893059874275,24.160343337435897,32523.27398270043,-2677.821903048318,7.643896202592163,32555.00671231811,48446.747357917746,12.114886369474432,32623.246609001435,-1565.8002856509788,25.47965400599216,32794.1469686543,9150.83748206525,33.51525345864796,0.994766473273664,124.0,69.0,163.0,155.0,318.0,55.0,789.0,792.0,56.0,28.0,28.0,0.5,70.0957460790287,3334.8942700653733,14.0,11.0,3.0,0.7857142857142857,651.3310746824123,7830.791422394264,30.0,15.0,15.0,0.5,1717.2412675264889,48409.750679288605,72.0,16.0,56.0,0.2222222222222222,78.82539061112841,2039.0129675023572,78.0,39.0,39.0,0.5,79.07331282311334,9462.474491117258,0.0,0.0,0.0,0.0,32390.0,32445.0,32514.0,32525.0,32540.0,32570.0,32609.0,32677.0,32756.0,32832.0,0.020580142737326446,-0.2432316629948261,0.035445955841777205,-0.05034191865558186,0.008641101208287146
42,42,33196.54916360878,4324.324383879584,26.78455146525964,33301.972626301,-3193.0463233615474,9.20960411543416,33334.088948854114,48125.7725052392,12.082397953717766,33407.94525260201,-1375.5298949581788,20.528232135380307,33573.175601265466,9365.999681728888,36.770436582294835,0.9938217447440548,124.0,64.0,166.0,157.0,323.0,60.0,787.0,778.0,62.0,31.0,31.0,0.5,52.43940534651886,4275.732181747575,16.0,12.0,4.0,0.75,647.3716407163826,6820.770617058672,30.0,15.0,15.0,0.5,1726.7654939496538,48531.333636568306,75.0,21.0,54.0,0.28,53.385519221931254,1203.852582912028,82.0,41.0,41.0,0.5,80.92178820349109,9766.404588069572,0.0,0.0,0.0,0.0,33167.0,33227.0,33291.0,33306.0,33319.0,33349.0,33388.0,33457.0,33532.0,33614.0,0.012126612319372915,-0.20274420573856514,0.035880265480656336,-0.03881087529802787,0.008639952055662849
43,43,33970.82818920492,3531.257043165296,25.117916757808196,34076.12330450071,-3048.837756725454,8.618247018292138,34107.957623664624,48092.620525492275,12.028282133122168,34177.67126990158,-1253.4081417465163,25.864049183356304,34347.1160539246,9452.12697040687,36.53008769613064,0.9958755806251736,122.0,65.0,160.0,161.0,321.0,57.0,767.0,774.0,57.0,28.0,29.0,0.4912280701754385,69.83776615662626,3483.901263648966,14.0,11.0,3.0,0.7857142857142857,647.302916636271,7054.478494766877,30.0,15.0,15.0,0.5,1727.9715131660332,48053.81691644063,68.0,18.0,50.0,0.2647058823529412,66.25279091647806,1500.8013894805738,82.0,42.0,40.0,0.5121951219512195,86.56187236913962,10181.113990221766,0.0,0.0,0.0,0.0,33943.0,34000.0,34065.0,34079.0,34093.0,34123.0,34162.0,34225.0,34305.0,34386.0,0.019777027076461732,-0.21231136855622465,0.0359300760550175,-0.052858114376184366,0.009157925262763744
44,44,34745.10473587934,4391.348465426463,45.97417381635437,34852.69864360057,-2730.581171961261,8.966306432267178,34884.39709484386,47547.38782989419,12.106211775074618,34957.52059170187,-1216.2426146883663,15.6613575301574,35124.717816864206,9162.9071424938,36.09500762315723,0.990992634656537,132.0,59.0,154.0,164.0,318.0,73.0,775.0,777.0,73.0,32.0,41.0,0.4383561643835616,73.91289525838535,5353.252169242152,12.0,10.0,2.0,0.8333333333333334,663.4132356504614,8231.669861259634,29.0,14.0,15.0,0.4827586206896552,1717.0476229471626,48833.55435680715,61.0,19.0,42.0,0.3114754098360656,52.680868091611984,1055.086373503504,78.0,40.0,38.0,0.5128205128205128,105.29522297451658,9789.551459349648,0.0,0.0,0.0,0.0,34713.0,34786.0,34845.0,34855.0,34870.0,34899.0,34939.0,34999.0,35085.0,35163.0,0.01683148031642425,-0.24295678973497048,0.03611234394390039,-0.043314440273177095,0.01149146459055561
45,45,35527.05044345143,3732.351797129706,22.535533549090022,35630.12330450071,-3456.5958967528813,10.48326085016815,35661.40164652212,48173.58188813744,11.973885317913169,35737.643896202586,-1671.4721765177646,24.663752403707825,35901.76680799161,8486.349545042165,33.305360458022484,0.9941768246759132,115.0,63.0,160.0,165.0,325.0,52.0,784.0,777.0,52.0,27.0,25.0,0.5192307692307693,69.16421073749626,3688.9429231535814,21.0,17.0,4.0,0.8095238095238095,674.6953025343838,7336.38525422259,29.0,14.0,15.0,0.4827586206896552,1774.5923487631128,49574.775039634435,67.0,26.0,41.0,0.3880597014925373,67.8604822237289,1506.1901859531326,77.0,39.0,38.0,0.5064935064935064,69.86630765202814,8737.110496840989,0.0,0.0,0.0,0.0,35500.0,35552.0,35615.0,35633.0,35647.0,35676.0,35712.0,35775.0,35863.0,35940.0,0.018530999888779424,-0.1951906796996985,0.036837459022329815,-0.040599229336323726,0.008232786934029242
46,46,36295.2327992967,2639.062527752931,58.60320421985654,36411.69864360057,-2812.6884238940634,10.191861603456228,36444.76180196123,52983.50176042888,12.137894569402423,36512.39728720114,-829.5729329340055,9.323017011281769,36681.14853474837,9941.321451682345,40.460723901970546,0.9916308241121874,121.0,64.0,136.0,187.0,323.0,57.0,776.0,783.0,63.0,16.0,47.0,0.2539682539682539,95.72535975016083,4356.848901282568,14.0,11.0,3.0,0.7857142857142857,623.1043071000025,7663.246257465835,30.0,15.0,15.0,0.5,1904.8676443395336,52656.53111026971,43.0,13.0,30.0,0.3023255813953488,61.327442802808655,955.4345843784824,92.0,46.0,46.0,0.5,76.13295180989807,10412.657286524543,0.0,0.0,0.0,0.0,36282.0,36339.0,36403.0,36414.0,36430.0,36459.0,36501.0,36539.0,36635.0,36726.0,0.03627248643921582,-0.22153335641682545,0.03595209038754396,-0.07392652335691309,0.007658232578025559
47,47,37105.06235102344,2782.036482310638,19.54330149981643,37206.12330450071,-3281.553435217677,11.257210930055123,37238.72316441423,54286.70240443214,12.196065112708778,37305.246609001435,-1202.8283991419144,16.145347931971568,37478.444447760354,9428.883974118931,35.39984087025317,0.9983093343013224,110.0,59.0,162.0,166.0,328.0,51.0,800.0,794.0,51.0,26.0,25.0,0.5098039215686274,82.67371382824632,2886.511659247324,22.0,19.0,3.0,0.8636363636363636,676.9967899592996,7424.102040685189,30.0,15.0,15.0,0.5,1913.1384258354449,53697.76660023974,60.0,14.0,46.0,0.2333333333333333,55.992473356512,1474.7641963558738,80.0,40.0,40.0,0.5,75.41366005437733,9833.66984471858,0.0,0.0,0.0,0.0,37079.0,37130.0,37189.0,37209.0,37224.0,37254.0,37291.0,37351.0,37439.0,37517.0,0.02971697688147538,-0.2063037531840136,0.0352413821635858,-0.04655067455711593,0.00799815336166805
48,48,37910.30635418454,2406.0978577434153,16.55064929929297,38017.39728720114,-3975.6953957511455,20.383723206890007,38050.10486312926,54276.49096815203,12.185953686732502,38144.76852222653,-2476.7170167040586,38.08347469712825,38288.30517986778,8274.573029153922,33.25427546028131,0.9977124015769367,101.0,59.0,197.0,137.0,334.0,42.0,805.0,812.0,42.0,19.0,23.0,0.4523809523809524,73.3323665338182,2525.751678623246,30.0,25.0,5.0,0.8333333333333334,628.2558754608547,5276.976308780253,29.0,14.0,15.0,0.4827586206896552,1902.81226990261,54154.60577573195,96.0,46.0,50.0,0.4791666666666667,52.352882624922465,2233.7853715858732,80.0,41.0,39.0,0.5125,65.91649738947714,8549.920532909468,0.0,0.0,0.0,0.0,37891.0,37933.0,37992.0,38022.0,38036.0,38065.0,38100.0,38189.0,38247.0,38326.0,0.030477715732889498,-0.15802414745663773,0.035057761398376484,-0.021138015474449368,0.007966150900745284
49,49,38732.71675106583,2807.0331590862233,41.294195875074955,38837.54796540086,-2068.2871278553735,10.587397434668222,38872.875463641874,53749.706105691024,12.248599309904922,38954.794574402295,-1090.4287037660606,15.815346591762506,39111.95477158361,9092.305760948111,36.645495259892776,0.995448861849634,119.0,63.0,148.0,176.0,324.0,56.0,823.0,822.0,56.0,23.0,33.0,0.4107142857142857,64.68101504877683,3754.800704135967,13.0,9.0,4.0,0.6923076923076923,482.15840258573166,5533.0720778536615,30.0,15.0,15.0,0.5,1892.2828897200131,53275.46702180403,73.0,23.0,50.0,0.3150684931506849,40.362690688914014,833.5385659490987,87.0,45.0,42.0,0.5172413793103449,65.3296662942935,9305.369220186663,0.0,0.0,0.0,0.0,38710.0,38766.0,38829.0,38842.0,38858.0,38888.0,38932.0,38977.0,39068.0,39153.0,0.023042483427531905,-0.23311966510456714,0.03520545556098693,-0.0370154330581281,0.00718515940971624
50,50,39554.07373619156,2619.302789396301,29.4060332499986,39670.972626301,-3267.3241835966583,12.750863415516122,39703.41343677585,50401.68915174324,12.025480322204656,39801.11043305012,-2071.0045284877783,32.129239212160506,39943.73086983645,8421.213500626962,35.65430588368049,0.9966683997408776,119.0,63.0,184.0,147.0,331.0,56.0,822.0,831.0,57.0,20.0,37.0,0.3508771929824561,80.39041530169433,3182.8735545675145,23.0,19.0,4.0,0.8260869565217391,620.3869428015265,6574.47205036187,29.0,14.0,15.0,0.4827586206896552,1836.1209417615548,51739.26369728841,81.0,44.0,37.0,0.5432098765432098,66.56540552625451,1955.2425608035087,84.0,43.0,41.0,0.5119047619047619,78.18363806893012,8775.50227294795,0.0,0.0,0.0,0.0,39535.0,39591.0,39654.0,39675.0,39689.0,39718.0,39757.0,39838.0,39901.0,39985.0,0.03069153197069774,-0.18987615184196596,0.036429750126698864,-0.03214160307744944,0.009284129664104744
51,51,40392.175219384255,2907.3501021217785,18.22515213810957,40496.972626301,-3710.320406710919,11.37777890389512,40529.22536118527,50161.42265421756,12.12606469302879,40601.36991350215,-1589.7832952127403,36.44499723525534,40768.8498051496,8141.535397467929,33.19247816678643,0.9974053572351262,113.0,65.0,165.0,164.0,329.0,48.0,840.0,826.0,50.0,27.0,23.0,0.54,57.839083474039384,2735.552467461399,21.0,17.0,4.0,0.8095238095238095,651.3478177397817,6519.3087473780315,29.0,14.0,15.0,0.4827586206896552,1836.4962185001016,50928.920838751976,67.0,21.0,46.0,0.3134328358208955,50.94505487391945,1870.168192950083,81.0,41.0,40.0,0.5061728395061729,69.98147863412214,8321.847723846779,0.0,0.0,0.0,0.0,40367.0,40415.0,40480.0,40501.0,40515.0,40544.0,40580.0,40645.0,40728.0,40809.0,0.019894089615085757,-0.17555028847688678,0.036611725133072745,-0.032045282540915196,0.008595611910732076
52,52,41197.191292490366,3267.889253233987,18.32340119128917,41301.39728720114,-3872.686263371482,11.056348281257728,41333.984140964225,51102.6798833251,12.21130961597754,41407.36991350215,-1624.2225971844678,38.2194810049872,41573.21806409152,8336.079542376568,32.72825901264874,0.9971564654834216,114.0,68.0,170.0,154.0,324.0,46.0,805.0,805.0,46.0,23.0,23.0,0.5,90.84634710793206,3284.9645634334897,18.0,13.0,5.0,0.7222222222222222,629.5052818635115,5623.594893451849,30.0,15.0,15.0,0.5,1835.3033521959155,51014.64873913031,77.0,22.0,55.0,0.2857142857142857,73.70922537677788,1779.09908043637,79.0,40.0,39.0,0.5063291139240507,63.93161771496301,8489.553355369218,0.0,0.0,0.0,0.0,41174.0,41220.0,41288.0,41306.0,41319.0,41349.0,41386.0,41458.0,41533.0,41612.0,0.027799701907899172,-0.16255003350451555,0.03591403340071757,-0.04538123376965091,0.007669266756628917
53,53,42002.34604902597,2739.1499370100128,21.215504720668655,42105.972626301,-3673.140560316653,11.819117219594284,42138.56460253814,50364.66098939377,12.307937420273738,42204.246609001435,-1450.6437881829763,25.47965400864057,42379.542084635665,8965.29599028571,34.85615403622085,0.9967883182709452,114.0,57.0,163.0,168.0,331.0,57.0,802.0,804.0,57.0,27.0,30.0,0.4736842105263157,62.55961210162147,2702.749042928731,22.0,18.0,4.0,0.8181818181818182,639.0695495427668,6608.792793156658,30.0,15.0,15.0,0.5,1783.2645473968478,49434.156406932285,65.0,14.0,51.0,0.2153846153846154,81.596268055727,2059.578630337598,84.0,44.0,40.0,0.5238095238095238,79.18092835310726,9296.757795852003,0.0,0.0,0.0,0.0,41975.0,42032.0,42089.0,42110.0,42124.0,42154.0,42190.0,42252.0,42337.0,42420.0,0.02283906085473728,-0.17398450700391221,0.03540705948109892,-0.05624831452105242,0.00883193688628945
54,54,42798.493597629255,4115.25330014726,35.23171709077034,42903.12330450071,-3055.4429172879795,8.439140880695604,42934.99886772293,49205.47194007507,12.225796088013327,43025.76440514069,-1380.4602032995745,23.58025300438673,43175.142439540345,8943.900498420904,38.06272841636657,0.9936948260156698,126.0,61.0,162.0,160.0,322.0,65.0,800.0,796.0,65.0,30.0,35.0,0.4615384615384615,59.38923441182878,4665.058122885934,14.0,11.0,3.0,0.7857142857142857,677.6963861529597,7646.393727618443,30.0,15.0,15.0,0.5,1733.1898953900322,49318.39041182035,67.0,37.0,30.0,0.5522388059701493,69.54941092886502,1218.561916935109,84.0,43.0,41.0,0.5119047619047619,67.66417912222101,9358.937792771863,0.0,0.0,0.0,0.0,42768.0,42833.0,42894.0,42906.0,42920.0,42950.0,42989.0,43056.0,43133.0,43216.0,0.014431489407882522,-0.22179972085830524,0.03522351939842787,-0.05038132266517216,0.007565399361740161
55,55,43566.835512095546,3103.856479219313,78.98692742678575,43683.12330450071,-3483.192317617457,11.787258397632195,43715.77313140671,48945.427648526515,12.415640364769022,43807.24100265974,-334.61300389250994,14.03602326728832,43956.74311471459,9222.284414551395,41.207995993837834,0.9911686281345556,131.0,65.0,142.0,180.0,322.0,66.0,778.0,781.0,69.0,24.0,45.0,0.3478260869565217,89.95729844082486,5222.620322775378,10.0,7.0,3.0,0.7,612.6508764784206,7026.0013472643295,30.0,15.0,15.0,0.5,1711.321450884481,49085.28739823553,19.0,8.0,11.0,0.4210526315789473,58.69123432842422,334.676122309761,85.0,44.0,41.0,0.5176470588235295,76.84983449459953,9867.6013646605,0.0,0.0,0.0,0.0,43545.0,43611.0,43676.0,43686.0,43701.0,43731.0,43801.0,43818.0,43913.0,43998.0,0.028982428486336156,-0.17588775485629252,0.034963867578670545,-0.1754003390354728,0.008333058387718114
56,56,44346.98176362499,3657.354313218574,23.743347232579943,44457.54796540086,-4647.14011131251,10.238658545542563,44488.14178385945,48937.30973658788,12.138866438237311,44562.36991350215,-1628.441715716505,30.99322172093199,44727.612194712616,8365.134755868794,33.48073260076131,0.996449114922879,123.0,66.0,174.0,147.0,321.0,57.0,769.0,772.0,58.0,27.0,31.0,0.4655172413793103,69.39144969758883,3518.7634919413968,21.0,18.0,3.0,0.8571428571428571,828.7000590002738,8675.135465727888,29.0,14.0,15.0,0.4827586206896552,1780.100475046203,49775.90369977209,78.0,21.0,57.0,0.2692307692307692,54.81212089933303,1847.3459848508617,75.0,38.0,37.0,0.5066666666666667,97.52049080241234,9022.917067409817,0.0,0.0,0.0,0.0,44320.0,44377.0,44443.0,44461.0,44474.0,44503.0,44541.0,44617.0,44690.0,44764.0,0.018973127500059573,-0.17832474148626878,0.0363751192010319,-0.03365924636437848,0.011657970092351963
57,57,45118.17906669895,4128.780632854052,32.387114724820165,45218.273982700426,-2541.4788605858057,7.64389620259217,45250.69581045416,51278.7908810841,12.392988452513324,45317.972626301,-514.1215761919169,7.040141650707003,45489.98882475645,8735.622287847786,38.971342037432024,0.9950317051793268,129.0,62.0,110.0,209.0,319.0,67.0,772.0,763.0,67.0,35.0,32.0,0.5223880597014925,62.90565297124793,4285.7938355484375,9.0,7.0,2.0,0.7777777777777778,648.8282894252635,7735.790182946458,30.0,15.0,15.0,0.5,1769.4819109174489,50452.39829310142,19.0,12.0,7.0,0.631578947368421,91.88424196949296,719.6991131090924,86.0,45.0,41.0,0.5232558139534884,88.08979516344752,9526.6449104998,0.0,0.0,0.0,0.0,45083.0,45150.0,45212.0,45220.0,45236.0,45266.0,45307.0,45322.0,45446.0,45531.0,0.015235891311513905,-0.25529556805981457,0.034507091148480676,-0.17872084391026105,0.010083974817225115
58,58,45878.16374777259,3675.9085899995225,26.245949950960632,45982.69864360057,-2930.8079104685,8.319604955919752,46014.42230392975,49727.95541066607,12.194658650740829,46092.794574402295,-1386.2958963157143,19.044466438635254,46255.65337957717,8871.669558839365,35.92307235700849,0.9974599668900048,122.0,65.0,156.0,166.0,322.0,57.0,757.0,764.0,57.0,28.0,29.0,0.4912280701754385,82.52515764207833,3947.7590334747256,14.0,12.0,2.0,0.8571428571428571,719.5893670196041,8756.0542594439,29.0,14.0,15.0,0.4827586206896552,1749.9618098889457,50927.50018283301,62.0,25.0,37.0,0.4032258064516129,56.50262139051439,1112.6401880447477,78.0,40.0,38.0,0.5128205128205128,96.28274615577423,9533.15682660734,0.0,0.0,0.0,0.0,45850.0,45907.0,45972.0,45985.0,46000.0,46029.0,46070.0,46128.0,46216.0,46294.0,0.022450274706664847,-0.24552593994622296,0.03519070501566608,-0.04075798070287767,0.010852832774845868
59,59,46646.5372876961,3942.532905986816,28.143366280134288,46753.12330450071,-3769.322027316616,8.79393193715324,46784.625057737314,49514.86375480104,12.097871134766118,46866.61914940857,-1420.807043205892,18.773521920118355,47024.01904507831,8709.289086119783,36.4281917134191,0.997066171250552,124.0,62.0,148.0,174.0,322.0,62.0,770.0,770.0,62.0,30.0,32.0,0.4838709677419355,66.7043272297751,4033.464369876124,15.0,12.0,3.0,0.8,712.8717187838142,7190.139012768929,30.0,15.0,15.0,0.5,1765.9547227039027,48727.91524992938,54.0,30.0,24.0,0.5555555555555556,66.47048208190886,1079.3092364609486,80.0,41.0,39.0,0.5125,90.01425920639419,9517.95673553631,0.0,0.0,0.0,0.0,46617.0,46679.0,46741.0,46756.0,46770.0,46800.0,46838.0,46889.0,46985.0,47063.0,0.01691915548212248,-0.1891246525549074,0.035665143530414604,-0.046783609639156676,0.010335431321237484
60,60,47413.8236690021,3967.377320432643,32.630039095227644,47520.54796540086,-3246.773255575683,9.83766530971387,47553.067560563155,51234.60682113134,12.177180369501798,47623.09593080172,-1012.4312108506082,14.598200717350542,47794.19317490037,9347.136626838304,39.28526526098545,0.9958869250614828,122.0,60.0,150.0,178.0,328.0,62.0,769.0,769.0,62.0,29.0,33.0,0.4677419354838709,75.28213213029659,4583.946563681642,18.0,15.0,3.0,0.8333333333333334,688.7565090893584,7677.007131916835,30.0,15.0,15.0,0.5,1811.7452771767723,51645.2224088354,60.0,17.0,43.0,0.2833333333333333,54.63306912397867,1039.6998812875952,85.0,44.0,41.0,0.5176470588235295,88.70952775252057,9918.68510508349,0.0,0.0,0.0,0.0,47385.0,47447.0,47507.0,47524.0,47538.0,47568.0,47606.0,47657.0,47750.0,47835.0,0.01897528922761676,-0.21213569746718744,0.03536174842722773,-0.053962252979220124,0.009490556444613224
61,61,48195.25165477826,3089.426538222436,22.33930841055622,48298.54796540086,-3690.129685865015,11.050073356128886,48330.83656517792,50359.85769902166,12.172675024531603,48398.246609001435,-1871.1613113034384,25.47965400864057,48572.75567446222,8623.19768472748,30.17656753408467,0.9968400468929732,116.0,59.0,182.0,143.0,325.0,57.0,783.0,777.0,59.0,28.0,31.0,0.4745762711864407,47.90277608780897,2890.8664607824994,21.0,18.0,3.0,0.8571428571428571,710.9067649254586,7374.980632341191,30.0,15.0,15.0,0.5,1788.6017892579496,50083.87360369568,82.0,14.0,68.0,0.1707317073170731,64.54802592245518,2382.2480953606646,72.0,36.0,36.0,0.5,99.3019316476398,8875.88293953184,0.0,0.0,0.0,0.0,48168.0,48225.0,48284.0,48302.0,48316.0,48346.0,48384.0,48466.0,48537.0,48609.0,0.015505394122551558,-0.19265088911334904,0.03551641865129211,-0.03449623799537169,0.011515673799698825
62,62,48976.9624794521,3861.095973604634,23.086801631026074,49081.12330450071,-2902.7840368777183,8.480277144379862,49113.00404771166,49985.44383430945,12.05851076259858,49203.15093493449,-1850.058719911568,24.231402434937024,49354.84374369379,9255.442470777944,35.88257684498122,0.9973588498618516,121.0,65.0,162.0,160.0,322.0,56.0,777.0,783.0,56.0,28.0,28.0,0.5,58.778916817305145,3893.4703154746594,14.0,11.0,3.0,0.7857142857142857,669.9552122525084,7659.519703850493,30.0,15.0,15.0,0.5,1769.1145621011783,50033.36820434184,67.0,34.0,33.0,0.5074626865671642,47.54140883924019,1478.7127065438583,78.0,41.0,37.0,0.5256410256410257,95.17287199680364,9847.91794422047,0.0,0.0,0.0,0.0,48949.0,49005.0,49070.0,49084.0,49098.0,49128.0,49169.0,49232.0,49314.0,49392.0,0.015223376269103833,-0.2307974702014426,0.03539259485152111,-0.025697243188860866,0.010282908925995853
63,63,49763.50061677093,4345.293612891487,26.109791829669497,49867.12330450071,-2685.5930753869766,9.000019515274428,49899.90396808547,48479.96128266771,12.124495768148089,49983.643896202586,-1362.1138100858493,22.30671223325352,50140.17765285452,8681.749772146557,34.897277440953964,0.9969619008928274,125.0,64.0,163.0,159.0,322.0,61.0,791.0,786.0,61.0,32.0,29.0,0.5245901639344263,70.26515927819297,4369.085875379798,15.0,11.0,4.0,0.7333333333333333,584.8672909675734,6434.282827617235,30.0,15.0,15.0,0.5,1709.5606012169378,48187.74779417977,65.0,27.0,38.0,0.4153846153846154,56.943763955525675,1300.5600946474162,80.0,41.0,39.0,0.5125,84.18140972141116,9109.22335209626,0.0,0.0,0.0,0.0,49732.0,49793.0,49857.0,49870.0,49885.0,49915.0,49958.0,50020.0,50100.0,50179.0,0.016170405394409344,-0.21777956471804566,0.03526324188357243,-0.04180543764690023,0.009696364434677475
64,64,50546.931479147504,3473.1927210714807,29.53064689769918,50651.12330450071,-3354.2623690637156,8.437431374766044,50682.36889560544,49757.02328246906,12.035085429355323,50759.28497647742,-882.3992178465868,12.85652754761528,50922.203498927614,8832.893605311374,37.74993658751525,0.9954566081265388,124.0,63.0,136.0,184.0,320.0,61.0,778.0,783.0,63.0,31.0,32.0,0.492063492063492,72.59229825399967,3474.8898248508294,14.0,11.0,3.0,0.7857142857142857,713.3852789603256,7939.829686440623,29.0,14.0,15.0,0.4827586206896552,1803.8940382958588,50971.65193893018,40.0,22.0,18.0,0.55,45.30380493087016,690.4207272833473,80.0,41.0,39.0,0.5125,96.50750916169608,9657.0474342791,0.0,0.0,0.0,0.0,50517.0,50578.0,50641.0,50654.0,50668.0,50697.0,50737.0,50777.0,50881.0,50961.0,0.02090074006362795,-0.21268022607290998,0.036254058609077336,-0.051341619546569725,0.010925922293874842
65,65,51323.62048940869,2980.26896780513,21.377412537275116,51427.54796540086,-3436.852986860845,9.603041534626414,51459.41601548601,50183.650372862874,11.958966853738056,51530.52059170187,-1391.469628277919,30.85064440468472,51699.70140297389,8278.014169306995,33.45107318923771,0.9964007244543412,118.0,64.0,168.0,154.0,322.0,54.0,780.0,777.0,57.0,29.0,28.0,0.5087719298245614,52.679903094354586,2848.7591851533125,17.0,14.0,3.0,0.8235294117647058,718.2314177366932,7674.251660028731,29.0,14.0,15.0,0.4827586206896552,1833.791730984412,51288.042444876395,73.0,19.0,54.0,0.2602739726027397,52.52373393909249,1647.4591580405192,73.0,36.0,37.0,0.4931506849315068,81.55051060468207,8813.34101689827,0.0,0.0,0.0,0.0,51297.0,51351.0,51415.0,51431.0,51445.0,51474.0,51512.0,51583.0,51664.0,51737.0,0.017676224415795465,-0.2089793833144757,0.036541616987991105,-0.03774694960758561,0.009851458204439048
66,66,52090.64787364155,2933.25383076413,68.79506582332952,52207.69864360057,-2859.103020840421,10.191861603456228,52240.298400276115,49914.3771359151,12.203995812348325,52324.00349547663,-1201.1415606056871,14.885230187145751,52482.8663643983,9328.427771158016,41.48538708884245,0.9893065223118376,127.0,63.0,140.0,182.0,322.0,64.0,776.0,781.0,69.0,18.0,51.0,0.2608695652173913,88.95559259138194,4818.848825407338,10.0,8.0,2.0,0.8,622.2063580536817,8033.635299774507,30.0,15.0,15.0,0.5,1774.5560318542884,51017.44443051831,46.0,26.0,20.0,0.5652173913043478,62.81745688192641,998.294685012096,88.0,45.0,43.0,0.5113636363636364,82.9483688603248,9864.48229702594,0.0,0.0,0.0,0.0,52075.0,52139.0,52202.0,52210.0,52225.0,52255.0,52299.0,52342.0,52438.0,52524.0,0.030326592147740753,-0.21762292352473078,0.035552001921655446,-0.05229812949795035,0.008891998833585622
67,67,52887.05207313781,3662.920122946083,32.931417498271756,52988.273982700426,-2385.90600094207,7.64389620259217,53020.19769028397,49358.26046829292,12.152527706569453,53094.10191518911,-781.1687180718886,8.787905708226365,53260.60047516357,9044.566320770837,38.05108333830664,0.9954667888782824,126.0,64.0,124.0,195.0,319.0,62.0,776.0,780.0,63.0,31.0,32.0,0.492063492063492,60.86746547938275,3717.8424277543527,8.0,6.0,2.0,0.75,635.3741574883747,7708.023773193187,30.0,15.0,15.0,0.5,1761.9889133824888,49976.80908862942,30.0,16.0,14.0,0.5333333333333333,74.2069039822099,649.078948024167,83.0,42.0,41.0,0.5060240963855421,78.32778777405123,9758.69132683102,0.0,0.0,0.0,0.0,52856.0,52918.0,52982.0,52990.0,53005.0,53035.0,53080.0,53106.0,53219.0,53301.0,0.016617197054907957,-0.26630309712012906,0.035697954033740036,-0.094994720430396,0.008660203816978107
68,68,53669.40738449818,3487.076173902072,31.03576125186772,53772.69864360057,-3553.298671715861,9.1192299199143,53803.5577626752,49508.843253495375,11.912448421188191,53891.25697068381,-1153.3070033906183,17.448823697882435,54043.62836054718,8913.158298464528,37.91289537714721,0.9962301149438638,123.0,55.0,152.0,173.0,325.0,68.0,794.0,783.0,71.0,33.0,38.0,0.4647887323943662,68.37939073075322,3532.871733941649,17.0,14.0,3.0,0.8235294117647058,770.1297132462795,8729.61134365057,29.0,15.0,14.0,0.5172413793103449,1824.255811313794,48724.366367999115,49.0,28.0,21.0,0.5714285714285714,42.08838430296931,1089.2992610483009,84.0,43.0,41.0,0.5119047619047619,71.08725781768814,9486.326161099718,0.0,0.0,0.0,0.0,53637.0,53705.0,53760.0,53775.0,53789.0,53818.0,53863.0,53912.0,54001.0,54085.0,0.01960937683051415,-0.21673655507106293,0.03684706996633374,-0.036493651889074864,0.007975540816989007
69,69,54439.22774632669,3067.345975749253,23.26112024788261,54544.54796540086,-3686.275636085789,9.01557927539531,54576.74489050746,53141.05597167414,11.92808517817224,54648.09593080172,-1373.889455291676,18.977710086172333,54814.81824758329,8792.613168785992,35.450370381376196,0.9962881731587172,118.0,64.0,142.0,178.0,320.0,54.0,775.0,773.0,56.0,26.0,30.0,0.4642857142857143,75.81863849763039,3311.5108406466675,16.0,13.0,3.0,0.8125,749.8432673524399,7560.613670221498,30.0,15.0,15.0,0.5,1916.8457041241088,52564.84671428424,50.0,18.0,32.0,0.36,75.28015272629688,1442.7828752897751,80.0,42.0,38.0,0.525,80.36479175609207,9405.566066383444,0.0,0.0,0.0,0.0,54415.0,54469.0,54533.0,54548.0,54562.0,54591.0,54631.0,54675.0,54773.0,54853.0,0.024717993697828743,-0.2034148667592987,0.03607089977936923,-0.05479345695270289,0.009140034960413043
70,70,55220.82652470667,2828.0160888133923,56.05523881863934,55327.54796540086,-2906.427208358502,9.89614534359405,55360.68877913222,54819.71394372915,12.03871600475557,55445.80253194772,-1078.8154782903364,17.689915880031176,55599.84589457173,9013.64196037941,39.72264941523066,0.9936937318017828,121.0,61.0,146.0,175.0,321.0,60.0,773.0,784.0,62.0,23.0,39.0,0.3709677419354839,78.57035888562697,4220.76978474049,13.0,10.0,3.0,0.7692307692307693,671.4572972326575,7813.573483720109,30.0,15.0,15.0,0.5,1949.645805581281,54013.66375132681,51.0,29.0,22.0,0.5686274509803921,45.95080941819318,922.7511387668142,85.0,44.0,41.0,0.5176470588235295,75.90412560101996,9736.4122410015,0.0,0.0,0.0,0.0,55198.0,55258.0,55319.0,55331.0,55346.0,55376.0,55419.0,55465.0,55556.0,55640.0,0.027782854275979145,-0.23102498328588267,0.03556468404017095,-0.042593761716335575,0.008421027364373472
71,71,0.0,0.0,0.0,0.0,0.0,0.0,0.0,0.0,0.0,0.0,0.0,0.0,0.0,0.0,0.0,0.0,0.0,0.0,0.0,0.0,0.0,0.0,0.0,0.0,0.0,0.0,0.0,0.0,0.0,0.0,0.0,0.0,0.0,0.0,0.0,0.0,0.0,0.0,0.0,0.0,0.0,0.0,0.0,0.0,0.0,0.0,0.0,0.0,0.0,0.0,0.0,0.0,0.0,0.0,0.0,0.0,0.0,0.0,55996.0,56067.0,55822.0,,56146.0,56177.0,55827.0,56551.0,56350.0,56442.0,,,,,
72,72,56827.2990269586,2762.172940924,19.202685409744426,56929.54796540086,-3425.7676718499933,10.670509020260532,56961.90815875114,50735.72237202046,12.090890693996773,57033.52059170187,-1629.3786179677109,20.13057777709177,57203.70155611637,8654.437884277726,34.71848526574901,0.9977623998453244,110.0,61.0,163.0,165.0,328.0,49.0,1603.0,1601.0,53.0,24.0,29.0,0.4528301886792453,65.25883532485369,2424.838124275345,18.0,15.0,3.0,0.8333333333333334,686.389388287318,7381.469673528458,30.0,15.0,15.0,0.5,1839.171259820473,50823.32749154794,69.0,19.0,50.0,0.2753623188405797,61.280198978737616,1606.2346661815654,81.0,42.0,39.0,0.5185185185185185,94.72221760533196,8999.993182258097,0.0,0.0,0.0,0.0,56805.0,56854.0,56915.0,56933.0,56947.0,56977.0,57015.0,57078.0,57162.0,57243.0,0.023625904938096798,-0.2003607524022935,0.03625002609275417,-0.0376095514590532,0.010944930089267975
73,73,57611.33936976667,3130.061714056703,17.779218410690994,57715.54796540086,-3739.1501494897184,14.846115477044656,57746.992631968074,47518.60278181781,12.035617489734094,57813.246609001435,-1623.1625237282542,25.47965400864057,57990.052411052864,8073.441320850177,32.05849374487385,0.995970617971609,104.0,55.0,182.0,152.0,334.0,49.0,790.0,786.0,49.0,24.0,25.0,0.4897959183673469,71.64980374371655,3166.216469770709,31.0,27.0,4.0,0.8709677419354839,688.1222816734752,7168.131197011918,29.0,14.0,15.0,0.4827586206896552,1745.9070498875556,47900.64679675412,74.0,14.0,60.0,0.1891891891891892,71.32986033010334,2260.160712987952,72.0,37.0,35.0,0.5138888888888888,89.57525325201847,8479.388811855439,0.0,0.0,0.0,0.0,57587.0,57636.0,57691.0,57719.0,57733.0,57762.0,57799.0,57873.0,57953.0,58025.0,0.022890859762268116,-0.18403173292395952,0.03674154852372043,-0.043944989665153956,0.011095052245030216
74,74,58409.48576388739,4013.10639417907,34.031155284098595,58508.69864360057,-2122.878955943276,7.674761735254379,58541.112427871965,48702.947873657315,12.129784580357825,58612.39728720114,-456.84683165876874,7.280018726709231,58780.922940429664,9350.22625185364,43.08157672616392,0.994665746914243,127.0,62.0,116.0,207.0,323.0,65.0,794.0,793.0,65.0,33.0,32.0,0.5076923076923077,64.76162389743055,4166.863816613803,8.0,6.0,2.0,0.75,632.9235869343534,7708.420124156626,30.0,15.0,15.0,0.5,1738.7836967096214,49019.16007652405,25.0,13.0,12.0,0.52,79.38439300180124,501.95371265626704,91.0,46.0,45.0,0.5054945054945055,80.28120419400979,10178.243747585726,0.0,0.0,0.0,0.0,58376.0,58441.0,58503.0,58511.0,58526.0,58556.0,58601.0,58619.0,58736.0,58826.0,0.016137529767804307,-0.2981439828033536,0.03570181626829416,-0.17376588278737498,0.008586017282533071
75,75,59165.4108511954,3012.291543426308,81.53489282764981,59285.69864360057,-3836.1022084351903,10.191861603456228,59317.876141522494,47648.87389778417,12.266979423808433,59381.69864360057,-734.2720594706834,6.369383023347411,59560.6365743486,8655.489599506662,43.42124793037924,0.9906927741340592,130.0,61.0,135.0,187.0,322.0,69.0,772.0,777.0,79.0,25.0,54.0,0.3164556962025316,77.46246796213566,4786.7624422477165,13.0,11.0,2.0,0.8461538461538461,640.8355290452115,7883.58457049569,30.0,15.0,15.0,0.5,1706.9183469795578,48160.726002180774,46.0,8.0,38.0,0.1739130434782608,74.71831081026863,1238.0223401082203,85.0,45.0,40.0,0.5294117647058824,65.34709083528092,9689.88127378519,0.0,0.0,0.0,0.0,59147.0,59216.0,59277.0,59288.0,59303.0,59333.0,59376.0,59412.0,59517.0,59599.0,0.025715461749106317,-0.16705382031690416,0.03582284757959275,-0.10175834671433776,0.007549785611088426
76,76,59949.794574402295,3036.5154132919,18.575406833147344,60056.54796540086,-4145.479919115071,14.281640504911572,60087.200003962855,47160.58479387967,12.03844446261722,60158.643896202586,-2442.42539639501,45.86337721555302,60328.5051188762,7797.009461684402,31.68287334522076,0.997325433955666,108.0,59.0,174.0,156.0,330.0,49.0,764.0,770.0,50.0,23.0,27.0,0.46,81.76588186213574,2790.136136478857,34.0,30.0,4.0,0.8823529411764706,751.7861560236704,7527.46543493142,29.0,14.0,15.0,0.4827586206896552,1731.0411256521695,47195.39706517235,79.0,26.0,53.0,0.3291139240506329,53.2193201849908,2613.273805772268,73.0,37.0,36.0,0.5068493150684932,91.906956102219,8100.219595072384,0.0,0.0,0.0,0.0,59927.0,59976.0,60035.0,60060.0,60073.0,60102.0,60133.0,60209.0,60292.0,60365.0,0.026927537236997912,-0.18135081358303937,0.03670525149800131,-0.021789537671669263,0.011787462430802819
77,77,60704.19761936921,3687.6934102187633,35.84765504116701,60813.54796540086,-2958.457064948692,9.254570275803577,60845.90957026095,49596.34917758011,12.03782658119388,60940.10805272875,-1308.9429243502395,26.677735969214165,61087.29306009217,8549.954576258193,34.75990727379723,0.9968686481178546,131.0,64.0,170.0,151.0,321.0,67.0,765.0,758.0,68.0,32.0,36.0,0.4705882352941176,57.978984419727325,4226.930986982768,14.0,11.0,3.0,0.7857142857142857,676.9339239763102,7356.217556150723,30.0,15.0,15.0,0.5,1797.5163438011691,49583.772594102746,77.0,41.0,36.0,0.5324675324675324,74.1569646917376,1009.4056614917326,78.0,40.0,38.0,0.5128205128205128,84.62498167389825,9108.29496837525,0.0,0.0,0.0,0.0,60673.0,60740.0,60804.0,60817.0,60831.0,60861.0,60900.0,60974.0,61047.0,61125.0,0.01572228978121255,-0.22881316480692282,0.036242916537367456,-0.056654085760499594,0.009897711259061867
78,78,61468.43447117473,3877.5725715622007,24.193004264049964,61570.54796540086,-3115.101679515037,9.502849223742391,61602.781110870135,49490.436009567646,12.102888323110594,61692.88807195864,-1740.3866270961785,24.074319027588544,61844.506013046615,8538.978496443578,35.032552994872766,0.9981119876671372,118.0,61.0,167.0,157.0,324.0,57.0,755.0,757.0,60.0,29.0,31.0,0.4833333333333333,67.09651894908038,3642.013829502992,17.0,14.0,3.0,0.8235294117647058,673.2733452684348,7764.959280146898,30.0,15.0,15.0,0.5,1769.6833204604782,49165.88735488815,68.0,36.0,32.0,0.5294117647058824,71.5830634754311,1589.5381101416167,79.0,42.0,37.0,0.5316455696202531,96.2080858072905,9173.905391468366,0.0,0.0,0.0,0.0,61440.0,61497.0,61558.0,61574.0,61588.0,61618.0,61657.0,61725.0,61803.0,61882.0,0.01730374292441636,-0.21613206069512658,0.03575808708006447,-0.04113055246515361,0.01126693150092373
79,79,62218.28790483373,3271.8665427128662,23.069458449866634,62322.54796540086,-3641.4063916013984,9.852106584659284,62353.522304980106,48113.959214501985,11.994613768838056,62448.48837159199,-2671.9753796299487,35.19976334840251,62594.847139347,7723.053734043841,33.42341106976214,0.9983382493095202,118.0,59.0,183.0,142.0,325.0,59.0,751.0,751.0,59.0,28.0,31.0,0.4745762711864407,53.94358417893991,3109.566786032445,21.0,18.0,3.0,0.8571428571428571,761.234524440494,8520.725643661312,29.0,15.0,14.0,0.5172413793103449,1740.1800713181187,47063.07205317179,85.0,42.0,43.0,0.4941176470588235,53.00569688453864,2557.4477590432734,78.0,40.0,38.0,0.5128205128205128,71.6295187439015,8011.284282207538,0.0,0.0,0.0,0.0,62190.0,62249.0,62308.0,62326.0,62339.0,62368.0,62406.0,62491.0,62555.0,62633.0,0.01648709795302733,-0.2090495930902462,0.03616788349426901,-0.019837644197110673,0.009274766330855996
80,80,62969.16528660552,3696.433732365066,24.117500484177388,63074.69864360057,-3365.0271187457397,8.555488903436773,63105.69799905316,48675.58199996518,12.111279984630231,63187.21923530245,-1179.9077306638508,19.004159143973517,63347.31767885056,7939.0215076855,34.76810655625521,0.997237533290161,121.0,65.0,162.0,161.0,323.0,56.0,752.0,752.0,58.0,28.0,30.0,0.4827586206896552,66.2495664572094,3511.5864496364225,15.0,13.0,2.0,0.8666666666666667,753.6975523131076,8899.866653035811,30.0,15.0,15.0,0.5,1749.3836955336358,48210.4539120464,66.0,25.0,41.0,0.3787878787878788,53.22871255320555,940.1469117240416,83.0,44.0,39.0,0.5301204819277109,88.23672667655926,8463.965616270976,0.0,0.0,0.0,0.0,62942.0,62998.0,63063.0,63077.0,63091.0,63120.0,63163.0,63225.0,63304.0,63386.0,0.017922563003671475,-0.2239796369290588,0.03593965646953923,-0.04511260598594223,0.011114307549254054
81,81,63725.03991205066,3859.6826276131137,33.25542066322798,63823.69864360057,-2377.6477423739443,8.535780936755785,63856.60506685071,51964.87770791234,12.323725862359638,63925.972626301,-533.7056757593832,6.358163430908853,64091.58220841164,8666.200575708071,40.58336584054314,0.9956211784050332,124.0,57.0,117.0,201.0,318.0,67.0,756.0,751.0,67.0,33.0,34.0,0.4925373134328358,51.032245666439806,3883.6248219252543,11.0,9.0,2.0,0.8181818181818182,654.6332398004062,8041.5404171088285,30.0,15.0,15.0,0.5,1819.5574045255516,50987.128287573345,19.0,10.0,9.0,0.5263157894736842,68.13991074832474,726.2327539032124,89.0,46.0,43.0,0.5168539325842697,87.80507006878415,9569.433381938024,0.0,0.0,0.0,0.0,63692.0,63759.0,63816.0,63826.0,63842.0,63872.0,63916.0,63933.0,64048.0,64134.0,0.013221876146329399,-0.2753281018603675,0.03501513877802314,-0.12767319862463866,0.010131899129464822
82,82,64481.84609287284,3402.1463491387913,66.72833279748063,64593.273982700426,-3711.5440670715816,7.64389620259217,64625.34877031228,51348.49819293647,12.31268334310682,64693.39728720114,-616.7348453812119,8.516974386646222,64864.887222294325,9312.65105810128,42.585871571874115,0.9935154158865508,127.0,57.0,142.0,181.0,323.0,70.0,767.0,769.0,74.0,27.0,47.0,0.3648648648648648,67.85510626243845,5095.270101758697,12.0,10.0,2.0,0.8333333333333334,676.7041426958785,8435.65934130112,30.0,15.0,15.0,0.5,1796.1875759329962,52564.707955021455,48.0,12.0,36.0,0.25,63.07136311742979,825.9158436670086,90.0,47.0,43.0,0.5222222222222223,71.16665161733393,10155.955337994292,0.0,0.0,0.0,0.0,64457.0,64527.0,64584.0,64595.0,64610.0,64640.0,64682.0,64726.0,64818.0,64907.0,0.019944793462402077,-0.1823241568649352,0.0349803331965818,-0.10226657953539912,0.007641932589692007
83,83,65259.20591351782,2110.1817220190464,15.286407255815638,65367.39728720114,-4536.041395992576,20.383723206912453,65398.66363475388,49822.35815548159,12.09692766607239,65489.90334414193,-3495.793187568457,41.30284440234818,65640.47366168599,8095.42411696575,29.70031118830697,0.9971653853344058,105.0,60.0,200.0,133.0,333.0,45.0,770.0,773.0,45.0,22.0,23.0,0.4888888888888889,63.587268979467495,1997.0152349628383,33.0,28.0,5.0,0.8484848484848485,690.0660741570248,5470.1676953472215,29.0,14.0,15.0,0.4827586206896552,1745.1519024498295,48071.12150327138,96.0,44.0,52.0,0.4583333333333333,46.93487033275648,3281.350140629989,68.0,33.0,35.0,0.4852941176470588,102.2297497434329,8548.007821250718,0.0,0.0,0.0,0.0,65237.0,65282.0,65342.0,65372.0,65385.0,65414.0,65447.0,65542.0,65607.0,65675.0,0.030133551208389037,-0.1521295803796395,0.035027484989845335,-0.013426100405385428,0.012628090667811693
84,84,66041.10949479598,2817.988337086049,71.3430312241936,66161.69864360057,-3462.4411391906647,10.191861603456228,66194.44440475688,49104.67989871447,12.375322586305677,66270.36991350215,-909.1019875959252,13.373833400918556,66434.32380878716,9547.65863048838,39.60559236503424,0.9931508696094662,128.0,62.0,138.0,184.0,322.0,66.0,794.0,796.0,71.0,18.0,53.0,0.2535211267605634,86.73778763612603,4728.723672326216,12.0,9.0,3.0,0.75,645.3371653970925,7456.279315363214,31.0,15.0,16.0,0.4838709677419355,1713.8022084117372,50585.37465810639,43.0,21.0,22.0,0.4883720930232558,48.22475352983612,651.6073362701557,85.0,43.0,42.0,0.5058823529411764,88.74559919015786,10270.337998070589,0.0,0.0,0.0,0.0,66025.0,66091.0,66153.0,66164.0,66179.0,66210.0,66249.0,66291.0,66392.0,66475.0,0.030780037835719913,-0.18638213314087937,0.03490099542338333,-0.05304658243830714,0.009295011753642722
85,85,66839.32352874713,3057.610885873029,17.935858047396543,66948.972626301,-3946.229381336523,17.83575780604688,66979.67737450452,47611.31250603285,12.195288085635488,67057.64389620257,-2455.812808920185,45.863377215553,67221.70841194701,8212.262381808601,32.87262746574298,0.9964782709055484,103.0,54.0,202.0,140.0,342.0,49.0,786.0,786.0,49.0,24.0,25.0,0.4897959183673469,63.71489199364281,3042.6738837865396,44.0,40.0,4.0,0.9090909090909092,715.7214808177404,7388.537173797733,29.0,14.0,15.0,0.4827586206896552,1681.524197230839,46088.07880365465,90.0,27.0,63.0,0.3,69.51408403020484,2393.6222805910224,79.0,41.0,38.0,0.5189873417721519,78.1512841869952,8471.893560775226,0.0,0.0,0.0,0.0,66815.0,66864.0,66918.0,66953.0,66966.0,66995.0,67032.0,67120.0,67181.0,67260.0,0.020838129628600703,-0.1813684435584779,0.03531774506358699,-0.028305937560758148,0.00951641345022196
86,86,67619.5934765402,3622.938209946213,27.129942590978104,67722.84932180027,-3605.537592981919,5.095930801680343,67755.34651090964,48714.516971112855,11.84266260033532,67790.013318284,1657.3996458743998,211.58621975977184,67994.15537121911,8927.00905979399,39.71915913578326,0.9923741991635606,133.0,56.0,412.0,-94.0,318.0,77.0,790.0,775.0,83.0,34.0,49.0,0.4096385542168674,64.47183321560517,4783.197609731713,5.0,4.0,1.0,0.8,640.1746481854311,8009.567790265483,30.0,15.0,15.0,0.5,1748.7208077378634,50929.03443075891,84.0,63.0,21.0,0.75,430.6973549103742,3190.5594538108335,92.0,49.0,43.0,0.532608695652174,80.16350261971692,10545.878298310325,0.0,0.0,0.0,0.0,67586.0,67663.0,67719.0,67724.0,67740.0,67770.0,67725.0,68131.0,67946.0,68037.0,0.017795454815819872,-0.17755317526892903,0.03589732417494429,0.25986330815411135,0.008979883641068788
87,87,67755.41090483937,43231.32212258933,9.79215040105692,68125.68458818532,-7716.434239079371,259.8924708881338,68298.47755898765,51850.25882230569,11.909725945552164,68378.86313150503,-581.5941997147485,89.17878903024199,68529.32873009844,4122.535125176265,16.66516398007205,0.9131698081815868,303.0,277.0,436.0,64.0,500.0,26.0,126.0,543.0,26.0,13.0,13.0,0.5,1748.7208077378634,39652.800366337506,236.0,90.0,146.0,0.3813559322033898,81.49487897044952,8570.647228326674,27.0,13.0,14.0,0.4814814814814814,1863.5133435353948,46167.40866418137,155.0,51.0,104.0,0.3290322580645161,58.69849893470961,5271.125901533031,31.0,15.0,16.0,0.4838709677419355,62.69167936955978,1278.3008703986263,0.0,0.0,0.0,0.0,67742.0,67768.0,68045.0,68271.0,68285.0,68312.0,68329.0,68481.0,68514.0,68545.0,0.04045031985788188,-0.010561209549058825,0.03594029009424581,-0.1009268987955849,0.01520706979225054
88,88,69160.12289536459,2783.259307839505,19.880621911512566,69253.972626301,-3671.051582591399,9.945596694063562,69286.90561278313,53125.10723083638,12.317285789613418,69378.91803695622,-1363.5408862864729,20.75821294089022,69533.67832449946,7240.793096365206,38.410039580850245,0.9976473162597052,106.0,57.0,165.0,165.0,330.0,49.0,1404.0,988.0,49.0,24.0,25.0,0.4897959183673469,69.53920666302068,2705.100215182028,16.0,12.0,4.0,0.75,670.5162405699385,6699.652429101114,30.0,15.0,15.0,0.5,1857.865359731485,53074.93667500105,67.0,34.0,33.0,0.5074626865671642,71.25500003634619,1023.3301298404684,81.0,42.0,39.0,0.5185185185185185,85.96764040971993,8238.538083466588,0.0,0.0,0.0,0.0,69136.0,69185.0,69242.0,69258.0,69272.0,69302.0,69345.0,69407.0,69492.0,69572.0,0.02498481060214265,-0.18264963743620852,0.03497151265330699,-0.05225732558002363,0.011872682904428618
89,89,69928.13010286505,2724.5398746592423,16.432913389943394,70030.54796540085,-3781.166267849797,10.432940312555868,70062.07947113573,50124.7428497241,12.17087955913578,70165.95881659626,-2059.2848909508493,38.95730982210637,70303.15603122194,7968.705660623921,33.95402116151194,0.997497283320776,111.0,63.0,187.0,137.0,324.0,48.0,764.0,776.0,48.0,23.0,25.0,0.4791666666666667,77.7813996355654,2545.3435196936553,21.0,18.0,3.0,0.8571428571428571,772.9634943358626,8437.92854888067,30.0,15.0,15.0,0.5,1777.096867878082,50541.78353554202,91.0,54.0,37.0,0.5934065934065934,75.98876647009256,1937.234679725352,75.0,38.0,37.0,0.5066666666666667,88.39950620154656,8549.658186785418,0.0,0.0,0.0,0.0,69905.0,69953.0,70016.0,70034.0,70047.0,70077.0,70113.0,70203.0,70265.0,70340.0,0.028548453395380573,-0.2044246244626045,0.03545348598008546,-0.03690056038579766,0.011093333091515542
90,90,70691.41594989102,2802.7627333210917,14.707220684944089,70796.972626301,-4587.846411428944,17.8357578060484,70828.19765986314,49436.909517822445,12.264127748730733,70906.91787890301,-2869.572544252124,52.00942716265226,71069.20837048821,7520.141532557279,29.790308254187885,0.9969251326915738,94.0,51.0,207.0,132.0,339.0,43.0,770.0,766.0,43.0,21.0,22.0,0.4883720930232558,79.5701380944138,2632.310302662372,39.0,34.0,5.0,0.8717948717948718,718.6589776686444,6248.333900065177,29.0,14.0,15.0,0.4827586206896552,1751.4456681144904,48806.877317298975,94.0,30.0,64.0,0.3191489361702128,63.003922269329784,2956.083587656792,69.0,34.0,35.0,0.4927536231884058,93.81527057072512,8032.4845238533235,0.0,0.0,0.0,0.0,70670.0,70713.0,70764.0,70801.0,70814.0,70843.0,70877.0,70971.0,71035.0,71103.0,0.028389894423966586,-0.15664407942654054,0.03542789557836496,-0.021955856246091192,0.012475200122838984
91,91,71459.22665422446,4219.983450608159,37.373069476485945,71559.69864360057,-2627.800934690847,8.409690007474877,71591.78404773754,48789.555834569706,12.162785554729767,71661.82194810128,-826.3431891995042,9.369207819019516,71830.6790237878,8227.093439385915,37.415956807907726,0.9942893905886004,126.0,59.0,135.0,185.0,320.0,67.0,757.0,763.0,69.0,35.0,34.0,0.5072463768115942,66.12765019262535,4318.1706026716,12.0,10.0,2.0,0.8333333333333334,664.0437764012843,8092.679640475816,30.0,15.0,15.0,0.5,1725.5694188611876,48215.036991403176,67.0,15.0,52.0,0.2238805970149253,64.22238519875428,805.8403437667109,85.0,44.0,41.0,0.5176470588235295,75.0634086200101,8979.66834357942,0.0,0.0,0.0,0.0,71425.0,71492.0,71551.0,71562.0,71577.0,71607.0,71649.0,71686.0,71788.0,71871.0,0.015670120740188077,-0.25269942164755604,0.03536759844078228,-0.07771878081426173,0.009123928052239669
92,92,72208.53011577466,3249.2830291474456,18.080747067349336,72315.972626301,-4026.6422372499464,10.481919743989453,72346.52912369234,47202.158395351915,11.75471953342273,72432.31944856803,-2167.9624076192376,28.07296774221699,72583.71058578217,8233.31440233843,36.032376270820905,0.9973999008276327,117.0,67.0,170.0,155.0,325.0,50.0,755.0,755.0,50.0,25.0,25.0,0.5,61.07404556832125,2994.2731187972063,20.0,16.0,4.0,0.8,730.0931805632489,7300.171116253596,29.0,15.0,14.0,0.5172413793103449,1757.598021196564,46482.72128107791,74.0,34.0,40.0,0.4594594594594595,62.29007925426789,1960.293832404267,87.0,44.0,43.0,0.5057471264367817,76.51517124378442,8452.232296007642,0.0,0.0,0.0,0.0,72184.0,72234.0,72301.0,72320.0,72333.0,72361.0,72398.0,72471.0,72540.0,72626.0,0.018796160574644064,-0.18131563162211217,0.037235543478232935,-0.028732084576444362,0.00929336200522751
93,93,72957.48363991012,3731.311329518313,28.076048718811172,73064.84932180027,-3824.129446160629,5.095930801728113,73096.56843109573,50926.7632935502,11.731489087312688,73122.23255358619,1177.1985799841957,244.60467848294945,73334.42573670065,9070.702297113075,38.1271429990661,0.9954614981403402,131.0,61.0,408.0,-87.0,321.0,70.0,749.0,750.0,70.0,31.0,39.0,0.4428571428571428,65.91814231349584,4844.842401208547,12.0,10.0,2.0,0.8333333333333334,713.4333959197348,9075.846367880587,29.0,15.0,14.0,0.5172413793103449,1853.4263957747976,50654.492118412,57.0,51.0,6.0,0.8947368421052632,1106.2356261371003,10071.264448612674,94.0,49.0,45.0,0.5212765957446809,85.69898415966945,10357.784802787388,0.0,0.0,0.0,0.0,72926.0,72996.0,73057.0,73066.0,73082.0,73111.0,73067.0,73465.0,73286.0,73378.0,0.017666213427976116,-0.18656099537530343,0.036393956260116996,0.9397187908194315,0.009447888526442412
94,94,73711.16347306005,4018.18523689456,34.08763985603327,73815.12330450071,-3123.557702478433,8.357515919988542,73847.06672851977,54247.562818058774,12.013811025163552,73933.10240840583,-1315.5779271201434,17.867268838259843,74083.75119102288,8367.513286637679,36.64716142170068,0.9926327427926596,123.0,60.0,149.0,171.0,320.0,63.0,756.0,751.0,64.0,30.0,34.0,0.46875,70.07351856067872,4405.320740312902,14.0,11.0,3.0,0.7857142857142857,719.9625952085581,8034.072174462006,30.0,15.0,15.0,0.5,1944.6731877547568,54518.639663486465,50.0,29.0,21.0,0.58,56.80357612600334,1113.8874016234631,86.0,45.0,41.0,0.5232558139534884,74.55118576047147,8926.378796877805,0.0,0.0,0.0,0.0,73682.0,73745.0,73805.0,73818.0,73832.0,73862.0,73904.0,73954.0,74041.0,74125.0,0.01743909611664264,-0.23049441175275653,0.035848120850645544,-0.04317765976079335,0.008909598731026145
95,95,74472.14604297781,3708.32085365389,26.719651579202413,74573.12330450071,-2961.546859563096,8.916276798654295,74605.5948263929,53757.78008138582,12.19601128533502,74673.39728720114,-1006.7339786077318,8.267395053719614,74843.99113447976,9567.5462906285,38.9027669612912,0.9969655130454084,120.0,60.0,127.0,196.0,323.0,60.0,761.0,758.0,62.0,30.0,32.0,0.4838709677419355,55.665062510560816,3741.32691243153,14.0,11.0,3.0,0.7857142857142857,684.8956606286037,7736.509321902176,30.0,15.0,15.0,0.5,1904.3145221915008,52684.094741717934,29.0,11.0,18.0,0.3793103448275862,84.35184828845851,1231.8709457742095,85.0,43.0,42.0,0.5058823529411764,83.94197424413409,10373.03141995523,0.0,0.0,0.0,0.0,74443.0,74503.0,74563.0,74576.0,74591.0,74620.0,74662.0,74690.0,74801.0,74886.0,0.015010853889763288,-0.23126281403146304,0.03542397992083176,-0.08378762421937258,0.008773615689359771
96,96,75218.71220759483,3373.204748462494,68.81939142247585,75339.27398270041,-3243.403870461261,7.64389620259217,75372.15002864065,51918.37322775927,11.955524523541689,75444.52059170186,-1237.2830986816812,16.62150372626365,75611.67440187246,9835.507938778324,40.55154090237256,0.9934077349461468,133.0,59.0,150.0,174.0,324.0,74.0,763.0,767.0,85.0,28.0,57.0,0.3294117647058823,87.81466469886803,4929.584853879998,12.0,9.0,3.0,0.75,582.6496162487537,7084.461101231356,30.0,15.0,15.0,0.5,1867.4057293143344,52443.080167648135,58.0,20.0,38.0,0.3448275862068966,39.31293821667999,1045.9035677825177,89.0,45.0,44.0,0.5056179775280899,77.45168684156191,10675.432862627757,0.0,0.0,0.0,0.0,75198.0,75272.0,75331.0,75341.0,75357.0,75387.0,75426.0,75481.0,75568.0,75655.0,0.02603300755428319,-0.17964140129298548,0.035968109422887036,-0.03177359996153485,0.007874701268471777
97,97,75998.91005420854,3744.395931055848,29.888304909564205,76106.12330450071,-3272.344788972519,9.433587537703522,76137.38426632952,48878.849211836416,11.996937416520415,76225.04118340374,-2199.8180717017635,37.0756047697575,76382.85996325669,8356.252375278289,35.612271250088874,0.9942413628732968,122.0,61.0,182.0,144.0,326.0,61.0,761.0,764.0,63.0,29.0,34.0,0.4603174603174603,66.5714380697559,3875.647714521896,17.0,14.0,3.0,0.8235294117647058,701.7841876538084,7708.749132932997,29.0,14.0,15.0,0.4827586206896552,1782.9603248102571,49836.07271361447,91.0,38.0,53.0,0.4175824175824176,78.11152537370808,2072.3815373031975,79.0,42.0,37.0,0.5316455696202531,82.78509884875511,8790.721790107516,0.0,0.0,0.0,0.0,75972.0,76033.0,76094.0,76109.0,76123.0,76152.0,76188.0,76276.0,76341.0,76420.0,0.017778952679019716,-0.21445912118391447,0.03647713384337409,-0.03550817514344791,0.009906964884602125
98,98,76748.56090111098,2919.5580603049793,58.603204219873035,76868.69864360057,-2696.1423679103955,10.191861603456228,76901.06444037333,48970.95846288159,12.088085657142011,76993.027373699,-410.2961586069481,10.369625493881887,77138.01874814389,8713.823444225809,40.82058996067014,0.991495716781846,128.0,65.0,143.0,177.0,320.0,63.0,760.0,765.0,64.0,17.0,47.0,0.265625,83.3592318574136,4766.361987164048,11.0,9.0,2.0,0.8181818181818182,619.3307778292645,7753.920304704512,30.0,15.0,15.0,0.5,1772.990261313534,49472.495116065606,41.0,31.0,10.0,0.7560975609756098,60.791642490742255,262.9599760576548,88.0,45.0,43.0,0.5113636363636364,90.49006790062953,9785.852848744576,0.0,0.0,0.0,0.0,76732.0,76795.0,76860.0,76871.0,76886.0,76916.0,76981.0,77003.0,77094.0,77180.0,0.028552003466136185,-0.2297099682867517,0.036204932820692155,-0.14816527334095492,0.010384657031419718
99,99,77527.33074507014,3884.4711590052048,48.37495906334805,77628.27398270041,-2965.5905050404876,7.64389620259217,77660.51856115383,50409.96637013205,12.262310478857769,77746.93988478738,-434.241350347735,11.00519721102964,77899.59794963282,8353.143877168559,41.598536876424994,0.9914648389989508,127.0,55.0,141.0,179.0,320.0,72.0,763.0,759.0,73.0,33.0,40.0,0.4520547945205479,78.35295246702987,4370.991638556085,9.0,7.0,2.0,0.7777777777777778,635.9125564576814,7721.62123565327,29.0,15.0,14.0,0.5172413793103449,1789.2926786932535,49168.69426918878,28.0,13.0,15.0,0.4642857142857143,38.65677413351829,345.0427677092239,86.0,45.0,41.0,0.5232558139534884,72.57029745643486,9346.227848204264,0.0,0.0,0.0,0.0,77494.0,77566.0,77621.0,77630.0,77646.0,77675.0,77734.0,77762.0,77855.0,77941.0,0.02017081586135285,-0.2144303319614923,0.03549481992420869,-0.08902140273505144,0.008687782531172418
100,100,78280.0746195294,4197.343666745419,30.93051894850025,78384.12330450071,-3009.401813505496,9.425045407901182,78416.51860104111,49237.36121926551,11.946552218766964,78507.59213606994,-2011.5025834947487,27.77711758388575,78659.46498084573,7868.126981403981,35.401238870813,0.9921484897319548,121.0,59.0,169.0,156.0,325.0,62.0,765.0,756.0,64.0,29.0,35.0,0.453125,66.48701974121536,4568.520472853572,16.0,12.0,4.0,0.75,619.7172989730454,6317.470446658021,29.0,15.0,14.0,0.5172413793103449,1785.8276263971138,48034.80139858232,76.0,40.0,36.0,0.5263157894736842,65.86892142655091,1789.9537005468171,80.0,41.0,39.0,0.5125,77.75992203317497,8287.820523694678,0.0,0.0,0.0,0.0,78252.0,78314.0,78373.0,78387.0,78402.0,78431.0,78469.0,78542.0,78618.0,78698.0,0.015840261131814536,-0.20592707035394814,0.03626976714784541,-0.032746128176535286,0.009882901256799439
101,101,79029.5515836746,4109.012186203904,50.60494928923955,79135.42466090013,-2162.4498098796353,2.5479654008640567,79170.68161179921,49322.58104483384,12.05909550763418,79255.57533909987,-62.17538632865505,2.464601834122546,79411.90685075521,8546.363218618435,46.50341515312269,0.9915615583058932,136.0,59.0,124.0,198.0,322.0,77.0,752.0,754.0,77.0,32.0,45.0,0.4155844155844156,55.945837020913466,5051.446273709495,6.0,1.0,5.0,0.1666666666666666,402.9487567697024,4068.709406697163,30.0,15.0,15.0,0.5,1726.1585156078368,47920.188304471056,3.0,1.0,2.0,0.3333333333333333,47.71091481542877,14.079848491494433,93.0,49.0,44.0,0.5268817204301075,96.21352010009826,9901.663930214374,0.0,0.0,0.0,0.0,78998.0,79075.0,79134.0,79140.0,79156.0,79185.0,79255.0,79258.0,79363.0,79456.0,0.01361539817495621,-0.1863390100101935,0.03499732737098191,-0.7673601666619646,0.011257831856536948
102,102,79778.24374224314,3064.858634256026,18.06761115955659,79883.39728720114,-4534.63873354135,16.053343392060047,79914.84882986634,47455.19195421965,12.031785573589907,79988.06855710273,-2253.7747059673684,40.848855507293074,80154.36364096656,7292.039161748028,31.871137718441663,0.9964054054022056,110.0,57.0,182.0,146.0,328.0,53.0,741.0,744.0,53.0,26.0,27.0,0.490566037735849,66.0098369788387,2768.5210972150417,28.0,23.0,5.0,0.8214285714285714,635.3996506989283,4877.014758220244,28.0,14.0,14.0,0.5,1744.7352586362094,46861.77852007654,88.0,29.0,59.0,0.3295454545454545,75.75585900515992,2124.319349283642,72.0,36.0,36.0,0.5,66.93530574839676,7577.011716313236,0.0,0.0,0.0,0.0,79752.0,79805.0,79862.0,79888.0,79901.0,79929.0,79961.0,80044.0,80119.0,80190.0,0.02153764491485662,-0.14012133888397094,0.036765950927337254,-0.03361288011822099,0.009179230152728802
103,103,80520.11343795109,3782.928884512645,53.76189900889003,80630.27398270041,-2604.8478310184423,7.64389620259217,80662.91449990672,51349.18423564199,12.198616561257383,80730.12330450071,-631.2175478404577,5.84846370070502,80899.56234464583,8748.693680039036,42.79222452755724,0.9931448539772496,135.0,64.0,115.0,204.0,319.0,71.0,748.0,748.0,72.0,31.0,41.0,0.4305555555555556,61.49880300730128,4970.438712231238,7.0,5.0,2.0,0.7142857142857143,597.167738327874,7544.481193189997,30.0,15.0,15.0,0.5,1826.2778689471793,51211.03492175795,17.0,7.0,10.0,0.4117647058823529,72.6952078896113,978.5945431279074,95.0,49.0,46.0,0.5157894736842106,67.87445959808164,9337.067170916063,0.0,0.0,0.0,0.0,80490.0,80561.0,80625.0,80632.0,80648.0,80678.0,80723.0,80740.0,80852.0,80944.0,0.016256928132875586,-0.22925244661773336,0.035565859441239994,-0.11516664601343633,0.007758239353258371
104,104,81286.21661091676,4120.506414172317,34.23166142479318,81384.27398270041,-2450.64067531589,7.64389620259217,81416.36756920333,51498.82079038703,12.23950016193023,81510.40854424004,-1240.2011696650486,24.017319362690586,81658.04335280163,8188.151636791775,39.39999453338567,0.9958388939467234,127.0,57.0,163.0,157.0,320.0,70.0,758.0,754.0,70.0,35.0,35.0,0.5,73.36952790616616,4310.081506702742,9.0,7.0,2.0,0.7777777777777778,646.9680027347814,8096.189435222922,30.0,15.0,15.0,0.5,1809.9683589138756,52414.30579841815,70.0,38.0,32.0,0.5428571428571428,46.04263865473204,1024.4652153371812,86.0,46.0,40.0,0.5348837209302325,78.3461934040158,8869.310007678534,0.0,0.0,0.0,0.0,81251.0,81321.0,81378.0,81386.0,81401.0,81431.0,81472.0,81541.0,81612.0,81698.0,0.017805949204159614,-0.2639995366319408,0.03514582142144372,-0.037125137260729364,0.009568239192345108
105,105,82048.5035202275,3566.3979581003505,22.204896623603133,82149.54796540085,-3555.5939569645175,9.807697236175082,82181.38846640282,49158.62219415394,12.19175356467326,82259.79457440229,-1219.7631842124345,20.327539297708068,82421.86712532821,8360.650856132816,34.48329522253012,0.9977729826857208,114.0,59.0,171.0,152.0,323.0,55.0,761.0,765.0,55.0,27.0,28.0,0.4909090909090909,69.76584138731232,3324.727250850381,18.0,15.0,3.0,0.8333333333333334,713.5067097172382,7997.707293295557,29.0,14.0,15.0,0.4827586206896552,1757.7834181693263,50488.099998918966,74.0,24.0,50.0,0.3243243243243243,50.03608697370627,874.5058280767848,80.0,42.0,38.0,0.525,61.15389642348491,8882.647968479518,0.0,0.0,0.0,0.0,82022.0,82077.0,82136.0,82153.0,82167.0,82196.0,82237.0,82307.0,82381.0,82459.0,0.019561990054658186,-0.20067159477522944,0.035757377642255526,-0.04102114871257826,0.007314489921394875
106,106,82814.30215910218,4102.950863658964,32.54177282763225,82917.69864360057,-3081.166703187324,8.809685161722912,82949.44809099527,48080.87555133399,12.21790395803234,83024.36991350215,-1583.042703778082,18.06655487456712,83190.89848615695,8496.692016021963,38.36845328549163,0.9955566528007028,123.0,60.0,148.0,176.0,324.0,63.0,772.0,768.0,64.0,31.0,33.0,0.484375,76.9895320373842,4395.442535891349,14.0,11.0,3.0,0.7857142857142857,688.5456567458054,8179.602469905925,29.0,14.0,15.0,0.4827586206896552,1706.6884507189106,49462.8604008294,56.0,22.0,34.0,0.3928571428571428,66.14678568228852,1301.053285786697,84.0,44.0,40.0,0.5238095238095238,83.26375488071608,8981.747670396442,0.0,0.0,0.0,0.0,82784.0,82847.0,82907.0,82920.0,82935.0,82964.0,83003.0,83055.0,83148.0,83231.0,0.018764429454737806,-0.22346913460850298,0.035496201580122,-0.041784587064153694,0.009799549603976236
107,107,83582.93478347851,3977.0916079346393,27.941284417037956,83686.69864360057,-2947.7484111046256,7.956098873425144,83718.36379063183,49477.62832889507,12.045834477844622,83786.54796540085,-338.7618623802534,5.810974960351687,83955.22340535048,9068.662817694109,41.41523227347518,0.9956281486177796,123.0,68.0,116.0,204.0,320.0,55.0,771.0,769.0,57.0,29.0,28.0,0.5087719298245614,61.11089414407728,4265.01472254544,13.0,10.0,3.0,0.7692307692307693,715.4153066889756,8131.764493615924,29.0,14.0,15.0,0.4827586206896552,1789.9729393953914,50590.45732970623,18.0,9.0,9.0,0.5,71.81275548983076,605.0406213548094,90.0,46.0,44.0,0.5111111111111111,86.57114174727324,10290.705359019068,0.0,0.0,0.0,0.0,83555.0,83610.0,83678.0,83689.0,83704.0,83733.0,83778.0,83794.0,83912.0,83998.0,0.015365724546589722,-0.2426989033371692,0.03617741997447445,-0.21198595079520016,0.009546185968934912
108,108,84346.83715149567,3720.1943979024786,28.849368810908047,84448.12330450071,-3062.8600393716865,8.951723543735929,84480.89750456809,52110.716749120416,12.111853715465005,84544.82194810128,-1188.154792882749,15.250233995813844,84719.05284194893,8368.5499980322,38.34320812495272,0.9974353177128492,124.0,58.0,150.0,173.0,323.0,66.0,754.0,762.0,67.0,34.0,33.0,0.5074626865671642,73.02579429068322,3503.2828880352263,13.0,10.0,3.0,0.7692307692307693,632.5433880652151,6591.639282037962,30.0,15.0,15.0,0.5,1846.0621425903032,51892.104675441624,58.0,13.0,45.0,0.2241379310344827,71.90520571641402,1535.9466802553736,88.0,45.0,43.0,0.5113636363636364,81.88522525986306,9100.708518819523,0.0,0.0,0.0,0.0,84314.0,84380.0,84438.0,84451.0,84466.0,84496.0,84532.0,84588.0,84674.0,84761.0,0.01962956407112936,-0.2065205004257964,0.03542576763006168,-0.06051838207204863,0.009784876146897341
109,109,85123.62194046703,3279.533851722727,27.291896416449283,85226.12330450071,-3410.300622496257,9.387473205508034,85258.53624933025,50692.522043461424,12.306992284373916,85347.19186160344,-2436.94507053537,31.860586582354394,85499.20416033169,8416.207371435243,31.75632293625271,0.9964285990392208,121.0,60.0,188.0,133.0,321.0,61.0,785.0,778.0,61.0,31.0,30.0,0.5081967213114754,76.94023887906064,3274.855093104232,16.0,12.0,4.0,0.75,658.2312314126641,6943.5966934864955,30.0,15.0,15.0,0.5,1771.4068891414788,49374.941378018775,95.0,35.0,60.0,0.3684210526315789,51.049939203752395,2136.4972766180313,75.0,38.0,37.0,0.5066666666666667,90.9691654330736,8683.915897680188,0.0,0.0,0.0,0.0,85093.0,85154.0,85214.0,85229.0,85244.0,85274.0,85313.0,85402.0,85461.0,85535.0,0.023460724102190383,-0.19301267080989912,0.03494414595554659,-0.020948333969849096,0.010808807508929088
110,110,85885.78227558783,3870.2100598686743,30.98062419465508,85990.12330450071,-2973.155663123591,8.138781121016988,86022.55238489252,49532.02951368113,12.185720478922365,86096.945252602,-1494.9421027159144,17.289578662071172,86264.84592068288,8516.651446823424,40.35420802955529,0.9958401397723562,126.0,63.0,144.0,182.0,326.0,63.0,756.0,764.0,64.0,31.0,33.0,0.484375,60.91688663369981,4038.813833050852,12.0,9.0,3.0,0.75,644.1778136573444,6907.23394719016,30.0,15.0,15.0,0.5,1727.6035965436674,48279.68452881994,53.0,21.0,32.0,0.3962264150943396,65.13608012191975,1330.8578346570453,88.0,46.0,42.0,0.5227272727272727,80.30911210219408,9284.960299663788,0.0,0.0,0.0,0.0,85855.0,85918.0,85981.0,85993.0,86008.0,86038.0,86077.0,86125.0,86219.0,86307.0,0.015739943230824754,-0.21666467775204631,0.03487851423625777,-0.04357097174772502,0.009429658194142501
111,111,86647.11033932061,3187.4618971222776,17.895898302847296,86752.12330450071,-4040.197172550424,10.541742154946666,86783.0925890634,48027.44226469603,12.265663995036954,86866.49321800287,-1480.8031717192443,23.656603071322323,87021.67781644402,8106.523783842158,34.65635858834047,0.9975274882552232,114.0,65.0,178.0,145.0,323.0,49.0,764.0,760.0,49.0,24.0,25.0,0.4897959183673469,65.22578979471986,2973.748255340234,21.0,18.0,3.0,0.8571428571428571,728.9105933885547,7848.755102059138,29.0,14.0,15.0,0.4827586206896552,1705.5429165518397,48750.77467317105,79.0,28.0,51.0,0.3544303797468354,55.82520941059591,1251.9149717651635,81.0,42.0,39.0,0.5185185185185185,68.89240091161088,8675.158056501925,0.0,0.0,0.0,0.0,86623.0,86672.0,86737.0,86755.0,86769.0,86798.0,86838.0,86915.0,86980.0,87060.0,0.020463237491123384,-0.18041460905444398,0.03551184148329191,-0.037699277308936095,0.008498390031116238
112,112,87399.55038428536,3647.3029913207424,28.75943012602331,87503.69864360057,-3418.5595707290745,7.826771930927563,87534.66230811799,49243.92218040154,12.134861212864308,87621.91787890301,-1510.974462372597,20.997813181886503,87773.4366535395,8209.069965615658,39.338657287407145,0.9961386796796928,123.0,65.0,150.0,170.0,320.0,58.0,756.0,752.0,58.0,29.0,29.0,0.5,69.47672900496795,3823.612497951472,13.0,11.0,2.0,0.8461538461538461,790.4350459250551,9024.438241907745,30.0,15.0,15.0,0.5,1757.191420086864,48508.83520892218,54.0,31.0,23.0,0.5740740740740741,86.80604713980179,1100.2049379758266,88.0,46.0,42.0,0.5227272727272727,70.44032967785175,8785.98511901751,0.0,0.0,0.0,0.0,87371.0,87429.0,87494.0,87506.0,87520.0,87549.0,87592.0,87644.0,87729.0,87814.0,0.019048795553946944,-0.23121874273979065,0.035683417207295565,-0.05745037345204049,0.008580792948884182
113,113,88155.61171292608,3340.3158657558647,23.539067361949723,88260.12330450071,-3830.892416594906,9.699651523163666,88291.5134549432,49766.44112045157,12.138081426002586,88366.79457440229,-2036.6817463481384,21.02575381845642,88530.73655238922,8361.170770619303,37.58836263097788,0.9980361141505067,119.0,58.0,156.0,170.0,326.0,61.0,751.0,757.0,61.0,29.0,32.0,0.4754098360655737,44.99170598316827,3019.247560697819,17.0,14.0,3.0,0.8235294117647058,723.412798062332,7623.450378531932,29.0,15.0,14.0,0.5172413793103449,1774.2386662575716,48787.6649380397,61.0,23.0,38.0,0.3770491803278688,71.81469281445203,1819.1035856850824,86.0,44.0,42.0,0.5116279069767442,87.05218315986822,8817.974229569565,0.0,0.0,0.0,0.0,88127.0,88188.0,88246.0,88263.0,88277.0,88306.0,88344.0,88402.0,88487.0,88572.0,0.013469296854352218,-0.18883662588085373,0.03565130691108323,-0.03526063556234006,0.01041148250024564
114,114,88907.43343367035,3352.6108750893222,20.882250675307763,89011.12330450071,-4062.1294496065566,9.347149904847006,89041.91828244682,49134.27011334943,12.25607179508422,89112.945252602,-2273.196034976424,35.67151561208526,89280.5273638598,7917.227075438717,34.51401450715113,0.9974942357289192,117.0,62.0,165.0,158.0,323.0,55.0,754.0,750.0,56.0,28.0,28.0,0.5,77.13200966169207,2886.1922582015827,17.0,14.0,3.0,0.8235294117647058,762.6514621772419,8318.741869803487,30.0,15.0,15.0,0.5,1750.8558313006822,48768.10848376077,69.0,20.0,49.0,0.2898550724637681,54.82101356592748,2766.8111055143377,83.0,43.0,40.0,0.5180722891566265,70.78211687497684,8044.004352622775,0.0,0.0,0.0,0.0,88880.0,88935.0,88997.0,89014.0,89027.0,89057.0,89093.0,89162.0,89238.0,89320.0,0.023006549980136622,-0.1877467155191496,0.03563410685172644,-0.024116271857959688,0.008940266105864418
115,115,89655.6930360664,4330.412802264344,38.133865071715064,89763.69864360057,-3354.93461905735,8.359767519262398,89794.26330422184,48107.935163303555,12.066753527097736,89859.972626301,-1281.2229591550483,17.8357578060484,90034.36445242049,8005.0366337436335,38.93242066864744,0.9943544097794836,129.0,62.0,159.0,162.0,321.0,67.0,755.0,753.0,67.0,32.0,35.0,0.4776119402985074,75.05181051669554,4945.616827489062,16.0,14.0,2.0,0.875,789.8340769895657,9494.785084000709,29.0,14.0,15.0,0.4827586206896552,1718.093932096354,48983.946004594014,65.0,11.0,54.0,0.1692307692307692,78.9240989307222,1960.5455569784135,88.0,46.0,42.0,0.5227272727272727,69.40081001256848,8629.159977335394,0.0,0.0,0.0,0.0,89624.0,89691.0,89753.0,89766.0,89780.0,89809.0,89850.0,89912.0,89989.0,90074.0,0.01733132935443278,-0.2354245810046482,0.0357133168626806,-0.06160059681007568,0.008669643024495757
116,116,90405.44451495528,3165.6836251451887,19.01879964105264,90512.12330450072,-4374.29756233327,10.879970256633673,90542.56845391257,48470.73951085866,11.980004168845367,90613.945252602,-1705.8492923777842,35.67151561205707,90781.11886389922,7788.134014790686,35.4811714723855,0.997970916688398,113.0,65.0,170.0,155.0,325.0,48.0,745.0,748.0,49.0,24.0,25.0,0.4897959183673469,85.32730958523904,2994.6403070095657,22.0,18.0,4.0,0.8181818181818182,760.0159454754903,7678.7190667496925,29.0,15.0,14.0,0.5172413793103449,1789.0132140335495,47555.14464961794,72.0,21.0,51.0,0.2916666666666667,48.32333242281776,1871.671834767318,80.0,41.0,39.0,0.5125,68.0244846575144,8055.305649112459,0.0,0.0,0.0,0.0,90382.0,90430.0,90495.0,90515.0,90528.0,90557.0,90594.0,90665.0,90740.0,90820.0,0.026953833575623226,-0.1737458265345109,0.03690913800959785,-0.028328019736995547,0.008734375208275436
117,117,91166.1360311271,2721.1805759648487,20.1125147747124,91267.972626301,-3481.3164685391,10.62071058369504,91300.64320096084,51553.37906679979,11.809282095694,91370.09593080172,-1921.0621387431056,30.57558481035285,91537.09638290013,8256.442436523846,33.93879366310329,0.9964947058177388,117.0,62.0,165.0,154.0,319.0,55.0,759.0,758.0,55.0,28.0,27.0,0.509090909090909,64.63144864162051,2611.569531737965,17.0,13.0,4.0,0.7647058823529411,630.3949430402154,5811.8320894104,29.0,15.0,14.0,0.5172413793103449,1907.378538713133,50445.508438446275,70.0,18.0,52.0,0.2571428571428571,57.90435350605016,2415.7930978553622,82.0,43.0,39.0,0.524390243902439,82.03142776560365,8720.435835918079,0.0,0.0,0.0,0.0,91138.0,91193.0,91255.0,91272.0,91286.0,91315.0,91353.0,91420.0,91496.0,91574.0,0.02375125311876965,-0.18107947057877058,0.036998128410587125,-0.03014184306601101,0.009935444762834292
118,118,91916.83551209555,2699.757776711681,78.98692742678575,92036.84932180028,-3498.8729056059556,5.095930801728113,92069.12823494773,53375.43449493435,11.883168781073728,92148.79457440229,-1643.5576618248238,19.22858315028383,92310.24847940826,8946.05921231793,38.172943244471064,0.991904981830378,131.0,65.0,148.0,171.0,319.0,66.0,765.0,768.0,75.0,23.0,52.0,0.3066666666666666,88.47631081902823,4511.039449942383,11.0,9.0,2.0,0.8181818181818182,710.1276093275371,8820.211220971792,30.0,15.0,15.0,0.5,1907.5511569579485,53595.53559387635,56.0,25.0,31.0,0.4464285714285714,63.79589562548041,1280.0450899853154,82.0,43.0,39.0,0.524390243902439,87.9936470640216,9796.887059318278,0.0,0.0,0.0,0.0,91899.0,91965.0,92030.0,92038.0,92054.0,92084.0,92126.0,92178.0,92267.0,92349.0,0.03277194405447471,-0.20295896092417595,0.03573837243683677,-0.03881573315453292,0.009836023323304428
119,119,0.0,0.0,0.0,0.0,0.0,0.0,0.0,0.0,0.0,0.0,0.0,0.0,0.0,0.0,0.0,0.0,0.0,0.0,0.0,0.0,0.0,0.0,0.0,0.0,0.0,0.0,0.0,0.0,0.0,0.0,0.0,0.0,0.0,0.0,0.0,0.0,0.0,0.0,0.0,0.0,0.0,0.0,0.0,0.0,0.0,0.0,0.0,0.0,0.0,0.0,0.0,0.0,0.0,0.0,0.0,0.0,0.0,0.0,92682.0,92750.0,92809.0,92821.0,92836.0,92866.0,92914.0,92955.0,93049.0,93136.0,,,,,
120,120,93496.84410797844,3694.922034938127,30.071656641018137,93603.12330450072,-2431.2757362479156,9.747687480397868,93636.08868426544,50012.53314615921,11.988045796488937,93707.09593080172,-1072.0150837455333,14.738403165477232,93877.76941192472,8698.38698174479,40.46127722762862,0.9961555669890584,123.0,64.0,149.0,179.0,328.0,59.0,1572.0,1568.0,59.0,27.0,32.0,0.4576271186440678,70.12915640278624,4197.2427076552685,15.0,11.0,4.0,0.7333333333333333,568.0171525700396,6386.039407525992,29.0,14.0,15.0,0.4827586206896552,1799.101613209369,50356.29336403185,67.0,17.0,50.0,0.2537313432835821,67.18938026141784,1001.176433211222,89.0,46.0,43.0,0.5168539325842697,92.29781703495992,9309.69422225165,0.0,0.0,0.0,0.0,93470.0,93529.0,93593.0,93606.0,93622.0,93651.0,93690.0,93742.0,93833.0,93921.0,0.01897987447087245,-0.23362926059823896,0.03597301516305086,-0.06267577880216352,0.010610911796481846
121,121,94285.04868273227,3700.77169860947,30.35489289651258,94391.69864360055,-2431.299128628225,7.931779170746658,94423.42015813464,48854.314274422606,11.988989770599442,94502.36991350216,-1171.273714875846,15.26678091036442,94663.54114352498,8200.446708747882,37.85100913692014,0.995657361269451,125.0,68.0,147.0,173.0,320.0,57.0,781.0,787.0,57.0,26.0,31.0,0.4561403508771929,67.03001648857064,3991.473005493889,10.0,8.0,2.0,0.8,672.9840588455263,8281.458801253091,29.0,14.0,15.0,0.4827586206896552,1771.203656104551,50019.420873082294,54.0,23.0,31.0,0.4259259259259259,60.955326538433425,965.3594789705536,84.0,44.0,40.0,0.5238095238095238,81.33406644377592,8707.13404419797,0.0,0.0,0.0,0.0,94259.0,94316.0,94384.0,94394.0,94409.0,94438.0,94481.0,94531.0,94620.0,94704.0,0.018112443011212103,-0.2768001892162212,0.0362548053822926,-0.05204191451090033,0.009918248277500817
122,122,95067.32589079149,3648.4724265759783,39.18042913617315,95175.54796540084,-2595.256251208564,9.656999357006834,95208.1621223162,48360.250129595974,12.130096708433427,95273.82194810128,-935.2114960121024,9.725836779578607,95446.86792299928,9070.897654134596,39.272864067654595,0.995150959039244,127.0,63.0,139.0,185.0,324.0,64.0,791.0,785.0,67.0,29.0,38.0,0.4328358208955223,75.07739277450119,4436.1467285427825,13.0,10.0,3.0,0.7692307692307693,628.560929971976,7290.941410869714,30.0,15.0,15.0,0.5,1739.3984562944563,49008.613338112555,44.0,13.0,31.0,0.2954545454545454,69.62334462469508,1146.3302465047354,86.0,43.0,43.0,0.5,80.2854749129218,9890.845440078485,0.0,0.0,0.0,0.0,95039.0,95103.0,95166.0,95179.0,95193.0,95223.0,95261.0,95305.0,95404.0,95490.0,0.020577760771227725,-0.24219609515602417,0.03596752398164216,-0.07444663043769309,0.008850885322945624
123,123,95869.34783462304,3286.8446669226732,26.062603936677657,95971.972626301,-3222.7947922100816,9.441255646137654,96004.5810749362,47282.00656877454,11.96025422234841,96089.917878903,-1865.3673736169064,27.06824073221711,96244.19068800291,7684.966330045461,33.514056156757626,0.9957347693289836,121.0,63.0,175.0,146.0,321.0,58.0,793.0,796.0,59.0,29.0,30.0,0.4915254237288136,56.85092122259254,3217.98513882645,15.0,11.0,4.0,0.7333333333333333,600.0004316515474,5663.490619600093,29.0,15.0,14.0,0.5172413793103449,1712.5043609787697,46265.86674183317,78.0,32.0,46.0,0.4102564102564102,63.259245146438616,1579.1176992119142,79.0,41.0,38.0,0.5189873417721519,85.51817280989674,8049.316335400741,0.0,0.0,0.0,0.0,95840.0,95898.0,95961.0,95976.0,95990.0,96019.0,96060.0,96136.0,96204.0,96282.0,0.017296503785139177,-0.1861739484939678,0.03621894427191512,-0.03391248610925382,0.011127982757133413
124,124,96658.9736464226,2592.7628538258055,17.77358129506204,96762.54796540084,-4068.659569349765,13.248019786458446,96793.35685011992,45913.579599424906,12.071684519323728,96872.06855710271,-2228.5772033544945,27.372357888288533,97034.31271020192,8377.005859110073,36.45496608418696,0.9959773167998884,109.0,58.0,172.0,160.0,332.0,51.0,791.0,789.0,51.0,26.0,25.0,0.5098039215686274,53.93218294516888,2372.432170921284,28.0,25.0,3.0,0.8928571428571429,730.0278258624284,7675.336465244813,29.0,14.0,15.0,0.4827586206896552,1687.7130287945718,47291.74408942416,70.0,27.0,43.0,0.3857142857142857,63.052776698447815,1941.4193538600675,84.0,42.0,42.0,0.5,81.79408871891407,8660.690360149383,0.0,0.0,0.0,0.0,96633.0,96684.0,96742.0,96766.0,96779.0,96808.0,96845.0,96914.0,96992.0,97074.0,0.020801047371373792,-0.17942710944948834,0.03675847197101816,-0.028292839307312145,0.009764119793465613
125,125,97422.18102715342,3103.072782934896,71.3430312241936,97534.2739827004,-3445.2825475504947,7.64389620259217,97566.29616327738,46372.56329600437,12.20345707800062,97648.3379816788,-624.2151419779997,12.312224254592476,97806.881887196,8181.708464272257,40.955558254993726,0.9910017726437126,133.0,67.0,135.0,187.0,322.0,66.0,765.0,773.0,66.0,27.0,39.0,0.4090909090909091,55.86433317537864,4805.967625980606,9.0,7.0,2.0,0.7777777777777778,614.0612071388786,7231.403569711854,30.0,15.0,15.0,0.5,1662.4411736086026,47583.660412951445,40.0,22.0,18.0,0.55,78.56365968313595,487.4878007251989,89.0,46.0,43.0,0.5168539325842697,89.4818033369876,8961.768894697747,0.0,0.0,0.0,0.0,97395.0,97461.0,97528.0,97536.0,97551.0,97581.0,97627.0,97663.0,97761.0,97850.0,0.01800290778953047,-0.17823246676109625,0.035849671776756076,-0.12585990694520016,0.010936811514090877
126,126,98197.14178418984,3418.0288045024004,29.161889419111944,98306.12330450072,-3083.919943951383,9.444831186841087,98337.8924880088,46243.06842269212,12.116153077572658,98417.44724756706,-824.6407785757375,13.837837863389442,98577.35771794774,7906.419980658229,40.129148784997206,0.9953291263037396,125.0,66.0,143.0,180.0,323.0,59.0,772.0,771.0,59.0,28.0,31.0,0.4745762711864407,63.31403037571399,3546.4013332596633,15.0,12.0,3.0,0.8,626.4138072381468,6850.923215302382,30.0,15.0,15.0,0.5,1659.123899102498,46276.69910608192,43.0,23.0,20.0,0.5348837209302325,54.3435971018395,610.5875876359282,84.0,44.0,40.0,0.5238095238095238,86.64922437489555,8801.372607508689,0.0,0.0,0.0,0.0,98169.0,98228.0,98294.0,98309.0,98323.0,98353.0,98394.0,98437.0,98535.0,98617.0,0.018523550852559682,-0.2031225902821367,0.035878326324218196,-0.06589972084050706,0.010959350070811922
127,127,98978.56697896557,3474.1177865368622,27.209574313126257,99088.54796540084,-3760.9055685524822,9.563539226730262,99119.53583573514,44512.68851824728,11.976305066574708,99191.09593080172,-1385.4527543136433,19.183800562482222,99360.5987675162,7841.219252602066,35.54102160468409,0.9915501490173084,126.0,64.0,162.0,164.0,326.0,62.0,791.0,781.0,62.0,29.0,33.0,0.4677419354838709,70.46451250281305,3559.442351909069,17.0,14.0,3.0,0.8235294117647058,710.5091325091879,7443.127167062337,29.0,15.0,14.0,0.5172413793103449,1629.7012084542123,43920.58381010219,68.0,19.0,49.0,0.2794117647058823,73.98977953124277,1431.5649483548389,82.0,41.0,41.0,0.5,88.56784295160702,8314.978764035992,0.0,0.0,0.0,0.0,98950.0,99012.0,99076.0,99092.0,99105.0,99134.0,99174.0,99238.0,99320.0,99402.0,0.020282706814340586,-0.18891969488684943,0.03661205967790828,-0.0534047655547067,0.01129516215507126
128,128,99756.5862263386,3359.108228047505,22.86380138027692,99864.12330450072,-3732.273951215397,9.059298107624798,99895.1037213124,49246.47511660674,12.013833983941058,99991.52020958888,-918.9569715275146,16.484627213517005,100132.29172095424,8884.713683590935,40.20137366123022,0.994375529015516,123.0,64.0,155.0,168.0,323.0,59.0,766.0,776.0,60.0,29.0,31.0,0.4833333333333333,66.32316423075481,3118.4043424282613,16.0,13.0,3.0,0.8125,723.4999405168553,7781.258680337945,29.0,14.0,15.0,0.4827586206896552,1810.026984885247,50016.84850578421,38.0,19.0,19.0,0.5,70.98247479269139,816.3714275176176,88.0,45.0,43.0,0.5113636363636364,69.4257609717754,9591.719177411724,0.0,0.0,0.0,0.0,99729.0,99788.0,99852.0,99867.0,99881.0,99910.0,99974.0,100007.0,100087.0,100175.0,0.019744277268882587,-0.1938496342909799,0.036754447513236845,-0.07724243570915235,0.007814068460078457
129,129,100529.3129972355,3016.067044099692,20.895196541763696,100633.12330450072,-3676.074459288496,9.35499620543914,100665.13755303089,52612.94469065849,12.252954245700364,100738.00902317892,-1371.6947456118216,11.447879530774282,100904.0091779418,8341.17857361707,36.837715155180014,0.9968987822101874,118.0,65.0,129.0,194.0,323.0,53.0,780.0,770.0,53.0,26.0,27.0,0.490566037735849,67.28394201246664,3002.721164383547,16.0,13.0,3.0,0.8125,714.1204884657553,7615.525673270117,30.0,15.0,15.0,0.5,1865.880921402921,53345.64417056962,30.0,17.0,13.0,0.5666666666666667,74.0186610589879,1251.447365746715,83.0,43.0,40.0,0.5180722891566265,86.95665252111606,9114.505949649796,0.0,0.0,0.0,0.0,100503.0,100556.0,100621.0,100636.0,100650.0,100680.0,100722.0,100750.0,100862.0,100944.0,0.02230850343466127,-0.19426170399278944,0.035464293670949214,-0.05396146722569321,0.010424983922075194
130,130,101306.10949479608,2394.9730979190845,71.34303122419357,101420.54796540084,-3696.995215864701,15.28779240518434,101453.631428492,52034.86324631887,12.18216163737344,101541.61652250358,-2135.3649737815404,31.46527451112957,101696.76623425468,8308.05098919191,35.152361638900345,0.9931871808968794,118.0,57.0,173.0,153.0,326.0,61.0,786.0,789.0,67.0,20.0,47.0,0.2985074626865671,85.93624141624113,4043.5257109755703,17.0,13.0,4.0,0.7647058823529411,640.9159843944118,6718.5786809966285,30.0,15.0,15.0,0.5,1845.0483254783276,51445.07831210769,78.0,37.0,41.0,0.4743589743589743,65.49697605607905,1827.714733499112,79.0,42.0,37.0,0.5316455696202531,90.689493376453,8691.244241336437,0.0,0.0,0.0,0.0,101290.0,101351.0,101408.0,101424.0,101439.0,101469.0,101506.0,101581.0,101655.0,101734.0,0.03588192347167005,-0.17336132371610496,0.03545792590526031,-0.030672497142298707,0.010915856618409367
131,131,102117.38325946972,2836.039120110617,19.635148092024384,102220.12330450072,-3891.472735039092,10.478344388697243,102251.38086588982,51519.892723453784,12.221089611993628,102335.8050837311,-1496.0010657479577,22.406867758518175,102493.45683844051,8634.986938266957,35.98157036319585,0.9981171630412656,113.0,61.0,161.0,166.0,327.0,52.0,797.0,798.0,53.0,25.0,28.0,0.4716981132075472,67.81041073108103,2646.493094339265,20.0,17.0,3.0,0.85,757.7404200802013,8268.723212519648,29.0,14.0,15.0,0.4827586206896552,1833.8994392996244,52860.24874288606,64.0,32.0,32.0,0.5,62.157232952584245,1130.9798770363018,79.0,40.0,39.0,0.5063291139240507,76.97371234310182,9204.870528901632,0.0,0.0,0.0,0.0,102092.0,102144.0,102205.0,102223.0,102237.0,102266.0,102306.0,102366.0,102454.0,102532.0,0.023910252242372507,-0.19471816242150525,0.035595948328998844,-0.04154892290902708,0.008914166621605853
132,132,102913.17654333732,3366.0291512843014,18.607258116673012,103020.12330450072,-4040.6826718140214,11.239887590871003,103051.21231326045,47942.21286267961,12.1854450801186,103133.917878903,-2158.8933528543175,28.792436388148055,103293.08569428086,7759.699005588208,32.607719377834144,0.995960570832699,111.0,65.0,177.0,148.0,325.0,46.0,795.0,800.0,46.0,21.0,25.0,0.4565217391304347,81.57313560245642,3453.2035900715264,22.0,18.0,4.0,0.8181818181818182,707.0921977347006,7350.313802776289,29.0,14.0,15.0,0.4827586206896552,1731.2440818255045,48961.41992293451,81.0,32.0,49.0,0.3950617283950617,66.04096904600186,1910.856225477444,73.0,38.0,35.0,0.5205479452054794,85.67312062074753,8188.342419580413,0.0,0.0,0.0,0.0,102892.0,102938.0,103003.0,103023.0,103037.0,103066.0,103104.0,103180.0,103255.0,103328.0,0.024234233257110195,-0.17499325118180067,0.03611105909492099,-0.03059019518434652,0.011040778844520819
133,133,103713.59302897922,3099.44012412146,23.181417213251496,103817.54796540084,-3910.125837581554,10.421071267570351,103849.04230706324,49118.511515314625,12.133484466170406,103938.61652250358,-1254.4266243354266,24.74344134505695,104086.86246621022,8184.921590138691,33.628892937451674,0.9971905645486728,118.0,61.0,176.0,147.0,323.0,57.0,805.0,798.0,57.0,29.0,28.0,0.5087719298245614,62.72134731266854,3050.995359167924,20.0,17.0,3.0,0.85,737.8857280308205,8000.791627110836,29.0,14.0,15.0,0.4827586206896552,1778.254139554735,49777.94942494493,81.0,38.0,43.0,0.4691358024691358,47.43685517492611,939.0575654054952,80.0,41.0,39.0,0.5125,76.17892661512226,8378.397381936193,0.0,0.0,0.0,0.0,103685.0,103742.0,103803.0,103821.0,103835.0,103864.0,103903.0,103979.0,104046.0,104126.0,0.020236347469511765,-0.18871150410013635,0.03620333932554724,-0.03781556788947885,0.009307227415214791
134,134,104507.45896245024,2790.45838209002,16.626373344230664,104609.972626301,-4503.089161452742,15.88198731596272,104641.19376617098,52721.49076676471,12.072946673547714,104715.36991350216,-1852.3406302534145,36.80950946659739,104879.82556956456,8863.75476652328,34.24308029679043,0.9978545242458612,101.0,56.0,176.0,157.0,333.0,45.0,791.0,792.0,47.0,22.0,25.0,0.4680851063829787,71.0551634709055,2622.669256806599,30.0,26.0,4.0,0.8666666666666667,763.7692684433857,7207.175154314063,29.0,14.0,15.0,0.4827586206896552,1904.1540125760744,53185.94516939563,70.0,22.0,48.0,0.3142857142857143,61.97026432367851,2125.6092531974373,82.0,42.0,40.0,0.5121951219512195,66.75414023597986,8934.679577675979,0.0,0.0,0.0,0.0,104486.0,104531.0,104587.0,104614.0,104627.0,104656.0,104694.0,104763.0,104839.0,104920.0,0.025463616991014223,-0.16961007012283677,0.03611722629392037,-0.03345511258110259,0.0075311357313378735
135,135,105295.93731344948,3163.8494109835665,22.27118901536174,105396.972626301,-3414.377687694495,10.99680918032899,105429.59184838829,54693.69601146684,12.083448097795902,105519.731659567,-1879.9849824917228,24.64780595950848,105666.45550461288,8941.449052802998,32.24670362159071,0.9976135086816232,112.0,58.0,171.0,152.0,323.0,54.0,788.0,788.0,56.0,27.0,29.0,0.4821428571428571,63.64427885613459,3099.742426677182,22.0,18.0,4.0,0.8181818181818182,682.1938124297045,7248.342753492721,30.0,15.0,15.0,0.5,1943.740075586788,53728.99630140172,73.0,36.0,37.0,0.4931506849315068,56.08626572604841,1630.3209012904272,78.0,39.0,39.0,0.5,92.11513435587736,9517.011929018125,0.0,0.0,0.0,0.0,105270.0,105324.0,105382.0,105401.0,105415.0,105445.0,105484.0,105553.0,105627.0,105705.0,0.020116089797190782,-0.19980033693646387,0.03553864919239087,-0.02983335837699722,0.010302036483337202
136,136,106097.90101309137,3293.6674215692447,20.55995942621736,106196.12330450072,-3446.855404883593,9.526589712138986,106229.00139874245,54345.49316432839,12.199147825447124,106300.09593080172,-1249.726264194617,30.57558480872075,106468.42314049124,9438.09436620961,35.58131101328447,0.9977728995284776,111.0,59.0,166.0,158.0,324.0,52.0,801.0,800.0,52.0,25.0,27.0,0.4807692307692308,57.85976595205411,3034.7577282711054,16.0,12.0,4.0,0.75,668.9538521240349,6797.416109928215,30.0,15.0,15.0,0.5,1920.7041798461817,54359.48504429151,75.0,17.0,58.0,0.2266666666666666,83.7906741122749,1656.9440238435902,84.0,44.0,40.0,0.5238095238095238,72.32260352829344,9717.210131673204,0.0,0.0,0.0,0.0,106073.0,106125.0,106184.0,106199.0,106214.0,106244.0,106283.0,106350.0,106425.0,106508.0,0.017566972783331972,-0.19407656357625097,0.03534247401230512,-0.06704722187004175,0.0076628396286462
