Unnamed: 0,cycle,p_center,p_height,p_width,q_center,q_height,q_width,r_center,r_height,r_width,s_center,s_height,s_width,t_center,t_height,t_width,r_squared,pr_interval,pr_segment,qrs_duration,st_segment,qt_interval,p_duration,pp_interval,rr_interval,fwhm_p,rise_time_p,decay_time_p,rise_decay_symmetry_p,sharpness_deriv_p,sharpness_diff_p,fwhm_q,rise_time_q,decay_time_q,rise_decay_symmetry_q,sharpness_deriv_q,sharpness_diff_q,fwhm_r,rise_time_r,decay_time_r,rise_decay_symmetry_r,sharpness_deriv_r,sharpness_diff_r,fwhm_s,rise_time_s,decay_time_s,rise_decay_symmetry_s,sharpness_deriv_s,sharpness_diff_s,fwhm_t,rise_time_t,decay_time_t,rise_decay_symmetry_t,sharpness_deriv_t,sharpness_diff_t,Average_Heart_Rate,SDNN,RMSSD,NN50,p_on,p_off,q_on,q_off,r_on,r_off,s_on,s_off,t_on,t_off,sharpness_deriv_p_norm,sharpness_deriv_q_norm,sharpness_deriv_r_norm,sharpness_deriv_s_norm,sharpness_deriv_t_norm
0,0,0.0,0.0,0.0,0.0,0.0,0.0,0.0,0.0,0.0,0.0,0.0,0.0,0.0,0.0,0.0,0.0,0.0,0.0,0.0,0.0,0.0,0.0,0.0,0.0,0.0,0.0,0.0,0.0,0.0,0.0,0.0,0.0,0.0,0.0,0.0,0.0,0.0,0.0,0.0,0.0,0.0,0.0,0.0,0.0,0.0,0.0,0.0,0.0,0.0,0.0,0.0,0.0,0.0,0.0,84.03194370950517,388.15228348671315,591.5297753819318,360.0,,,,,,,,,,,,,,,
1,1,1475.0934470301663,3879.5489066965592,21.256396462090724,1576.547965400864,-5240.452613096495,9.923468117589383,1604.853498686149,49284.4505579196,11.232731017711227,1634.027373698992,-7396.240282851349,8.932634347945594,1843.5688629517192,12511.152525348672,33.88364118722552,0.9923034924937454,110.0,60.0,82.0,239.0,321.0,50.0,,,50.0,21.0,29.0,0.42,73.88577790961041,4401.622051902752,18.0,15.0,3.0,0.8333333333333334,1017.4981844150932,9776.71759293123,27.0,14.0,13.0,0.5185185185185185,2030.92659363358,48314.388035876575,18.0,5.0,13.0,0.2777777777777778,1030.3241191340212,16932.656476053973,85.0,43.0,42.0,0.5058823529411764,66.7288113326919,12759.494630656476,0.0,0.0,0.0,0.0,1454.0,1504.0,1564.0,1580.0,1591.0,1618.0,1630.0,1646.0,1803.0,1885.0,0.019044940452245578,-0.19416227176107803,0.041208262862681484,-0.13930376512008308,0.005333546305785465
2,2,2172.8996010158785,2887.047393296048,15.448265609916165,2269.9726263010075,-5977.5734392031045,17.8357578060484,2298.6199589649423,51542.71610538347,11.357578066141194,2326.602712798848,-8360.420301248123,14.372316914006696,2537.614188467202,11166.88130243435,28.8059784802067,0.9823426809152904,99.0,58.0,89.0,233.0,322.0,41.0,699.0,693.0,41.0,19.0,22.0,0.4634146341463415,62.80701645149577,2931.933494002099,25.0,21.0,4.0,0.84,977.2614790856662,7361.949830724705,27.0,14.0,13.0,0.5185185185185185,2061.9567786315197,46132.94915769303,21.0,5.0,16.0,0.238095238095238,1086.7702763765346,19307.988999161094,76.0,38.0,38.0,0.5,72.63342021630827,11238.396847531343,0.0,0.0,0.0,0.0,2154.0,2195.0,2253.0,2274.0,2285.0,2312.0,2322.0,2342.0,2500.0,2575.0,0.021754757679883822,-0.16348799207993486,0.040004814150959245,-0.12998990926500326,0.006504360371456117
3,3,0.0,0.0,0.0,0.0,0.0,0.0,0.0,0.0,0.0,0.0,0.0,0.0,0.0,0.0,0.0,0.0,0.0,0.0,0.0,0.0,0.0,0.0,0.0,0.0,0.0,0.0,0.0,0.0,0.0,0.0,0.0,0.0,0.0,0.0,0.0,0.0,0.0,0.0,0.0,0.0,0.0,0.0,0.0,0.0,0.0,0.0,0.0,0.0,0.0,0.0,0.0,0.0,0.0,0.0,0.0,0.0,0.0,0.0,,2586.0,2899.0,2957.0,2968.0,2994.0,3004.0,3026.0,3183.0,3255.0,,,,,
4,4,4227.745541033617,4240.382358903862,31.863142227141505,4333.547965400863,-4490.087075471035,8.271578309442006,4362.536786138532,50261.84520495996,11.058507046072314,4391.452034599137,-6532.291291824183,8.274770667783555,4600.168910122468,13585.031155381455,37.718069584953135,0.9927563844081818,136.0,57.0,80.0,240.0,320.0,79.0,2060.0,2064.0,81.0,42.0,39.0,0.5185185185185185,71.78920447777037,5177.536944462241,15.0,12.0,3.0,0.8,956.401399614011,9428.878395699852,27.0,14.0,13.0,0.5185185185185185,2063.7925236097653,48158.25848436814,17.0,4.0,13.0,0.2352941176470588,1064.7655020363889,16914.153097832314,89.0,45.0,44.0,0.5056179775280899,96.18854096316404,14606.309381122002,0.0,0.0,0.0,0.0,4187.0,4266.0,4323.0,4337.0,4349.0,4376.0,4388.0,4403.0,4557.0,4643.0,0.016929889430142772,-0.2130028624252636,0.041060818901374224,-0.16300030945788496,0.0070804799682083
5,5,4937.681077271145,3715.4227418720097,23.29646658906609,5040.547965400863,-4941.849791178312,10.508414786034528,5069.531574600053,49657.261168317425,11.261923993148118,5098.027373698993,-7741.554985995029,9.185719113479765,5306.990441127858,12197.653813555238,33.50019659368384,0.98763793771447,116.0,59.0,83.0,238.0,321.0,57.0,709.0,707.0,70.0,39.0,31.0,0.5571428571428572,60.70891890648957,4253.1360160790555,18.0,15.0,3.0,0.8333333333333334,957.9215032967604,8962.848785156206,27.0,14.0,13.0,0.5185185185185185,2047.0919434520015,47341.57090643359,17.0,4.0,13.0,0.2352941176470588,1098.9750920750391,17968.06778448844,85.0,43.0,42.0,0.5058823529411764,71.9913093465372,12469.60021631628,0.0,0.0,0.0,0.0,4912.0,4969.0,5028.0,5044.0,5056.0,5083.0,5094.0,5111.0,5266.0,5349.0,0.016339706979319798,-0.1938386522809221,0.0412244230811122,-0.1419579262904101,0.005902062023315773
6,6,6371.268728396398,4191.842399017452,26.372728187657827,6474.123304500719,-4917.935260575119,8.42414149996104,6502.62028705831,49688.523985676904,11.160244608344504,6531.027373698993,-7393.923879292584,8.462863357014681,6740.61665767712,12719.311481975416,34.48890927383839,0.9904205952865808,120.0,59.0,80.0,240.0,320.0,61.0,1431.0,1433.0,74.0,40.0,34.0,0.5405405405405406,65.99724901501902,4860.893247597622,15.0,12.0,3.0,0.8,956.0273623050092,8912.61567166641,27.0,14.0,13.0,0.5185185185185185,2049.147734611468,47751.42731666978,17.0,4.0,13.0,0.2352941176470588,1101.536672185032,17581.925652317175,86.0,43.0,43.0,0.5,80.86183828504254,13277.904736648215,0.0,0.0,0.0,0.0,6343.0,6404.0,6463.0,6477.0,6489.0,6516.0,6527.0,6543.0,6699.0,6783.0,0.01574421047663635,-0.19439608527770824,0.041239859231925476,-0.14897863301920033,0.006357406876907776
7,7,7088.446685013629,3940.691435626133,29.406388907982137,7195.547965400863,-4621.602316326127,8.474794894366479,7224.577299650725,49853.01865282898,11.175687089357204,7252.669815670229,-7200.024499559854,8.612173288814637,7462.853204707234,12883.118940534034,34.33520763161302,0.99191794522707,136.0,58.0,80.0,240.0,320.0,78.0,718.0,722.0,79.0,39.0,40.0,0.4936708860759494,55.583158469473375,4327.466225385631,16.0,13.0,3.0,0.8125,955.9861207110376,9346.765447387836,27.0,14.0,13.0,0.5185185185185185,2049.965497066215,47622.21624596954,17.0,4.0,13.0,0.2352941176470588,1082.6418145505788,17327.858279867018,84.0,42.0,42.0,0.5,85.4103510099428,13471.43250169589,0.0,0.0,0.0,0.0,7049.0,7127.0,7185.0,7199.0,7211.0,7238.0,7249.0,7265.0,7422.0,7505.0,0.014104925335429572,-0.20685166210297912,0.04112018795375166,-0.15036640703330412,0.006629633041826311
8,8,8533.707326298509,3094.8624352138536,19.80652917472976,8634.547965400861,-5894.079616495674,12.629321859731176,8662.734776592752,49113.14459977798,11.44106846847644,8690.452034599139,-8918.482003507545,10.97396929944108,8900.27396107044,11565.239630055235,32.28352223570822,0.9897086529181144,105.0,59.0,84.0,237.0,321.0,46.0,1444.0,1439.0,47.0,20.0,27.0,0.425531914893617,59.40894370450371,3480.497004085441,21.0,18.0,3.0,0.8571428571428571,1039.2543819867378,9320.313808620716,27.0,14.0,13.0,0.5185185185185185,2044.603155138588,46485.339944483814,20.0,4.0,16.0,0.2,1206.460290382758,20304.432537041263,83.0,41.0,42.0,0.4939759036144578,74.02128730979426,11780.11313072662,0.0,0.0,0.0,0.0,8515.0,8561.0,8620.0,8638.0,8649.0,8676.0,8687.0,8704.0,8861.0,8941.0,0.019195988496464006,-0.17632174140949708,0.04163046719569715,-0.13527641698534235,0.006400324565470394
9,9,9250.719395506205,4142.529858082949,27.544726174445152,9353.54796540086,-4666.654668948978,8.799589669133024,9382.582532667058,50161.45857065101,11.248543334962584,9411.027373698991,-7058.367838247553,8.573325863060811,9622.040220372366,12927.57888202299,34.045169233576615,0.9915115205218998,131.0,57.0,81.0,241.0,322.0,74.0,719.0,720.0,76.0,41.0,35.0,0.5394736842105263,63.391135130900025,4819.734776667759,17.0,14.0,3.0,0.8235294117647058,963.7273775484288,9586.514216917323,27.0,14.0,13.0,0.5185185185185185,2042.787932620128,48061.01876941029,17.0,4.0,13.0,0.2352941176470588,1090.6254082129528,17373.25653002508,86.0,43.0,43.0,0.5,77.27495864354606,13275.161042089298,0.0,0.0,0.0,0.0,9211.0,9285.0,9342.0,9357.0,9369.0,9396.0,9407.0,9423.0,9581.0,9664.0,0.015302517375272637,-0.2065135404084826,0.0407242530586091,-0.1545152410877658,0.005977527528453462
10,10,9970.271315609549,3904.357462300993,25.794924581979014,10073.54796540086,-4986.237101030363,10.722906394998931,10103.09729767029,49835.66542697909,11.340221294513704,10131.263651992287,-8029.109135066998,10.14700613805579,10341.424310779536,12529.722552085876,33.61217638685727,0.9912248706316028,115.0,58.0,84.0,239.0,323.0,57.0,718.0,720.0,74.0,40.0,34.0,0.5405405405405406,68.81857022567164,4602.859503077461,18.0,14.0,4.0,0.7777777777777778,916.761942063364,8138.507592668742,26.0,13.0,13.0,0.5,2054.846239459241,48697.41276935585,19.0,4.0,15.0,0.2105263157894736,1143.002466318229,19017.00133862032,86.0,43.0,43.0,0.5,73.39965269898724,12938.738218409311,0.0,0.0,0.0,0.0,9946.0,10003.0,10061.0,10077.0,10090.0,10116.0,10127.0,10145.0,10299.0,10384.0,0.017626093637726017,-0.18385847353185894,0.041232443107839536,-0.14235732097925846,0.0058580429370136446
11,11,10699.127179449586,4350.641253258833,28.27378873118627,10799.123304500716,-4204.017336137588,7.1344597357423165,10828.165958493892,50775.96872185493,10.982229905003432,10857.027373698991,-6424.99479537309,7.328312582305264,11064.846871185218,13217.051924262008,39.25902412543686,0.9932849855058432,115.0,57.0,78.0,242.0,320.0,58.0,727.0,725.0,61.0,26.0,35.0,0.4262295081967213,68.01553703437449,5051.375634772719,13.0,10.0,3.0,0.7692307692307693,906.9124231239796,8610.335989357925,27.0,13.0,14.0,0.4814814814814814,2060.2672541629927,50436.76216386534,15.0,4.0,11.0,0.2666666666666666,1054.8199174660106,16137.930280145623,91.0,45.0,46.0,0.4945054945054945,77.228378855412,14086.371640924614,0.0,0.0,0.0,0.0,10675.0,10733.0,10790.0,10802.0,10815.0,10842.0,10853.0,10868.0,11021.0,11110.0,0.015633451042056774,-0.21572518631837972,0.040575636586057194,-0.1641744392113175,0.0058430865898050225
12,12,11418.718558633082,3240.0985393899055,20.032134805205555,11520.54796540086,-5259.26049074322,15.287792383720507,11548.792341450622,49680.08589732199,11.335361382792971,11576.60271279885,-9560.947676246917,12.16288546935774,11786.436076850205,10412.069072945678,31.44966098357887,0.9891939909206834,108.0,60.0,86.0,236.0,322.0,48.0,718.0,721.0,48.0,21.0,27.0,0.4375,60.680363971046106,3551.261794318627,21.0,18.0,3.0,0.8571428571428571,1011.2237966252728,9164.74472013699,27.0,14.0,13.0,0.5185185185185185,2057.1869585701106,45944.48745901946,20.0,5.0,15.0,0.25,1129.2553766571598,20065.568365508643,82.0,40.0,42.0,0.4878048780487805,62.23742645888663,10486.248737713928,0.0,0.0,0.0,0.0,11398.0,11446.0,11506.0,11524.0,11535.0,11562.0,11572.0,11592.0,11746.0,11828.0,0.01872793781835781,-0.19227490222344365,0.041408683608596654,-0.11811123906290857,0.005977431192864632
13,13,12128.914686320595,3837.640847462171,25.34546656040901,12231.54796540086,-4770.984508414939,9.029368153953914,12260.56459069482,49089.49065401452,11.105731572723776,12289.027373698991,-8351.143356068098,9.172574747036665,12497.569110940514,11662.30004488257,33.9489985794221,0.9906914876884276,122.0,57.0,81.0,239.0,320.0,65.0,708.0,711.0,69.0,35.0,34.0,0.5072463768115942,47.529017369132,4049.139804993614,16.0,13.0,3.0,0.8125,937.0428254027069,8744.99041737919,27.0,14.0,13.0,0.5185185185185185,2054.9015221997947,46600.92662026409,18.0,5.0,13.0,0.2777777777777778,1109.396182871414,18488.158851374443,84.0,42.0,42.0,0.5,66.81891102669087,11973.037636597644,0.0,0.0,0.0,0.0,12098.0,12163.0,12220.0,12235.0,12247.0,12274.0,12285.0,12301.0,12457.0,12540.0,0.012384957128169746,-0.19640449968973384,0.041860314597331146,-0.13284362818000314,0.005729479671208689
14,14,12841.918580183248,3980.9745735575393,25.459366924583843,12944.54796540086,-5017.981309698958,9.1032724866221,12973.357545790956,50124.85347658092,11.26696406559862,13002.027373698991,-6900.521510874168,9.004009060783813,13212.765277642166,13276.999705709644,33.87943377246182,0.9914959899400896,113.0,57.0,83.0,239.0,322.0,56.0,718.0,713.0,56.0,23.0,33.0,0.4107142857142857,68.62738128869513,4561.548764779017,17.0,14.0,3.0,0.8235294117647058,992.316794652705,9636.89304335866,27.0,13.0,14.0,0.4814814814814814,2047.4989670675268,50411.08924506548,17.0,4.0,13.0,0.2352941176470588,1058.6458897699451,17125.15746606821,84.0,42.0,42.0,0.5,85.74913652973137,13836.766174154374,0.0,0.0,0.0,0.0,12819.0,12875.0,12932.0,12948.0,12960.0,12987.0,12998.0,13015.0,13172.0,13254.0,0.0172388393898651,-0.19775219025521573,0.04084797909731843,-0.15341534521726813,0.006458472428289337
15,15,13561.985580366234,3920.927140671298,25.58452712063908,13664.123304500716,-5128.8847827113195,9.430456651005072,13693.181433476457,49836.559160550874,11.333672693660208,13721.45203459914,-7521.475197078776,9.260982350381443,13932.170299591016,12762.88250160722,33.43563946165449,0.9918860656557668,124.0,58.0,82.0,240.0,322.0,66.0,724.0,720.0,71.0,38.0,33.0,0.5352112676056338,66.41078794637525,4642.358064020822,17.0,13.0,4.0,0.7647058823529411,925.11142478152,8024.794726039086,27.0,13.0,14.0,0.4814814814814814,2037.634279953911,49369.83048809611,18.0,4.0,14.0,0.2222222222222222,1149.019541282532,18551.998201222148,84.0,42.0,42.0,0.5,81.36056903184975,13133.188987029269,0.0,0.0,0.0,0.0,13528.0,13594.0,13652.0,13667.0,13680.0,13707.0,13718.0,13734.0,13891.0,13974.0,0.01693752155134541,-0.18037282254807674,0.040886335539128495,-0.1527651838470189,0.006374780071947232
16,16,14289.1877646838,3104.6486072262896,20.002764791258883,14390.972626301009,-5545.952307120635,17.835757806047365,14419.590168059758,51271.839424408536,11.421490119455594,14447.027373698991,-8489.756948015545,12.723539278490026,14658.907109578297,12102.580150987586,32.14682742357371,0.9880390161712445,106.0,55.0,89.0,237.0,326.0,51.0,720.0,726.0,51.0,22.0,29.0,0.4313725490196078,57.51068974513965,3351.0823138350142,26.0,22.0,4.0,0.8461538461538461,965.0596245727456,8091.315761291424,27.0,14.0,13.0,0.5185185185185185,2064.043519431697,46375.986503826294,20.0,4.0,16.0,0.2,1182.5915480570668,20209.785385963016,84.0,43.0,41.0,0.5119047619047619,70.46833111511908,12246.436760560446,0.0,0.0,0.0,0.0,14267.0,14318.0,14373.0,14395.0,14406.0,14433.0,14443.0,14462.0,14618.0,14699.0,0.018524057637724103,-0.17401152608789533,0.04025686502772682,-0.13929627847985612,0.005822587434743722
17,17,15012.753308084248,4148.674386856059,26.627447623099755,15117.123304500716,-5191.376125831351,9.45796029226809,15145.599158391591,48946.499789110494,11.18209673112782,15173.627700078025,-8511.644021815953,9.869134915591545,15382.811387270644,11215.246527185102,34.485009068082874,0.9926653332788096,133.0,59.0,82.0,239.0,321.0,74.0,730.0,726.0,76.0,42.0,34.0,0.5526315789473685,70.0717926670213,4901.678286530243,18.0,14.0,4.0,0.7777777777777778,940.2835969466512,8345.471294133416,27.0,14.0,13.0,0.5185185185185185,2070.256481807561,46408.77328893902,18.0,5.0,13.0,0.2777777777777778,1096.5624437883278,18555.181571683697,88.0,45.0,43.0,0.5113636363636364,64.91725815651807,11495.471332539044,0.0,0.0,0.0,0.0,14972.0,15046.0,15105.0,15120.0,15132.0,15159.0,15169.0,15187.0,15339.0,15426.0,0.01689016445566917,-0.18112415169996443,0.042296313132244585,-0.1288308628718212,0.005788304162477609
18,18,15733.60039060531,3572.135592626946,24.332685470295196,15835.54796540086,-5359.497197635472,9.97364484721369,15864.41882350475,48649.732217822915,11.349468812198916,15892.322088825807,-8984.138217791848,9.950430425593211,16102.347426954228,11547.65336990084,33.45387182310537,0.9899653595509006,113.0,57.0,83.0,238.0,321.0,56.0,718.0,719.0,57.0,25.0,32.0,0.4385964912280701,58.60326146794032,4019.330659395275,18.0,15.0,3.0,0.8333333333333334,969.5819983821494,8808.365577134624,26.0,13.0,13.0,0.5,2027.4499048585683,48383.48277848952,19.0,4.0,15.0,0.2105263157894736,1189.8276446773482,19940.74318329483,84.0,42.0,42.0,0.5,68.69207636799807,11842.406470579945,0.0,0.0,0.0,0.0,15710.0,15766.0,15823.0,15839.0,15851.0,15877.0,15888.0,15906.0,16062.0,16144.0,0.016405665448114618,-0.18090913431392672,0.04167443092555828,-0.13243648036503475,0.005948574499737337
19,19,16458.84665231649,4253.492403331667,28.764483284833272,16560.123304500717,-4749.238490434749,8.428442188024302,16588.596510806598,50966.10330663159,11.279977290066494,16617.45203459914,-6409.429291915833,8.37628746706282,16827.748965116418,13431.618849671726,35.30788023470223,0.9922785681505698,114.0,55.0,81.0,240.0,321.0,59.0,728.0,725.0,60.0,26.0,34.0,0.4333333333333333,64.59258264482268,4948.361362737109,16.0,13.0,3.0,0.8125,978.961638519734,9755.790138552204,27.0,14.0,13.0,0.5185185185185185,2054.8328438010208,49190.504324631285,16.0,3.0,13.0,0.1875,1087.1101356385775,16990.05535033332,85.0,43.0,42.0,0.5058823529411764,87.13823514677206,14138.067212492251,0.0,0.0,0.0,0.0,16434.0,16493.0,16548.0,16563.0,16575.0,16602.0,16614.0,16629.0,16786.0,16869.0,0.015185775950658505,-0.2061302334029806,0.04031763683086305,-0.16961106615369664,0.006487545255864802
20,20,17178.517030591327,3835.3219334606024,25.304299988567145,17280.972626301005,-4829.289171998387,8.919374797098998,17310.438538895705,50154.19836133692,11.22211481714418,17338.601643570106,-7161.109555087806,8.393700645948666,17548.983626916404,12966.876841789976,33.98034743200882,0.9896404569447916,130.0,59.0,81.0,240.0,321.0,71.0,716.0,721.0,72.0,40.0,32.0,0.5555555555555556,67.45445447033879,4391.07954922463,16.0,12.0,4.0,0.75,894.0472591369529,7852.670571517996,27.0,13.0,14.0,0.4814814814814814,2044.315199424251,50506.62077835743,16.0,4.0,12.0,0.25,1084.2370832485672,17220.286050328607,85.0,42.0,43.0,0.4941176470588235,83.426134022403,13546.418206834896,0.0,0.0,0.0,0.0,17140.0,17211.0,17270.0,17285.0,17297.0,17324.0,17335.0,17351.0,17508.0,17591.0,0.01758769032707374,-0.1851301976947036,0.04076059963506826,-0.15140629743309,0.006433787799505828
21,21,17887.854522951133,3874.888824382831,25.781911787258156,17989.54796540086,-5051.285858318239,9.28561491592492,18018.704498807765,50209.96334000416,11.251326724861752,18047.14586417009,-7519.947619131483,8.758371804928524,18256.24031276272,13003.525463198775,36.0948956072751,0.9920961007455588,112.0,57.0,82.0,240.0,322.0,55.0,712.0,709.0,55.0,22.0,33.0,0.4,58.55490252411584,4427.357293223102,17.0,14.0,3.0,0.8235294117647058,963.0884343143084,8947.885493416481,27.0,14.0,13.0,0.5185185185185185,2057.773509623251,48524.57846307019,17.0,4.0,13.0,0.2352941176470588,1119.3745129401004,17997.053013558427,89.0,44.0,45.0,0.4943820224719101,75.27005394351151,13473.29476569216,0.0,0.0,0.0,0.0,17866.0,17921.0,17978.0,17993.0,18005.0,18032.0,18043.0,18060.0,18213.0,18300.0,0.015111376139531464,-0.1906620336539331,0.040983370087102726,-0.1488540305908916,0.005788434387007815
22,22,18572.611765735095,4241.432562388295,26.01988701000641,18674.54796540086,-4985.442672947526,9.594972218585786,18703.805523204916,50080.37842551435,11.244012996332586,18732.602712798853,-7582.252470137351,9.202549849516885,18941.26847500057,12916.354846837598,34.765008906015346,0.9918039186911194,113.0,57.0,82.0,237.0,319.0,56.0,685.0,685.0,75.0,42.0,33.0,0.56,71.47462390720247,4942.5612665443905,17.0,14.0,3.0,0.8235294117647058,949.3019620933682,8740.757705793936,27.0,14.0,13.0,0.5185185185185185,2056.99005079537,48592.32611964282,18.0,5.0,13.0,0.2777777777777778,1034.5198009606868,17078.308904924917,84.0,42.0,42.0,0.5,82.97149662318837,13610.2092416182,0.0,0.0,0.0,0.0,18550.0,18606.0,18663.0,18678.0,18690.0,18717.0,18728.0,18745.0,18900.0,18982.0,0.016851529018996367,-0.19041477845980637,0.04107377211325942,-0.1364396404676758,0.006423754813727719
23,23,19259.92316349588,2634.860790904598,13.681075181065484,19352.789706990756,-5594.662671092176,17.8357578060484,19386.474629523163,52503.99312715325,11.063988661056898,19414.602712798853,-7614.5268837883295,20.383723206912453,19624.851618218418,10719.362219367818,28.100833320796035,0.9730685780435367,89.0,52.0,99.0,231.0,330.0,37.0,684.0,682.0,37.0,17.0,20.0,0.4594594594594595,67.93814121730767,2620.86836558918,34.0,25.0,9.0,0.7352941176470589,561.2945965227876,327.4096518011879,26.0,13.0,13.0,0.5,2065.8882707143234,47882.6614315987,21.0,5.0,16.0,0.238095238095238,1053.582446462202,19406.217757533923,76.0,38.0,38.0,0.5,76.53010041338118,10699.239016631353,0.0,0.0,0.0,0.0,19243.0,19280.0,19332.0,19362.0,19373.0,19399.0,19410.0,19431.0,19588.0,19662.0,0.025784338000636158,-0.10032679886546458,0.03934726004003527,-0.1383647943650086,0.007139426660581173
24,24,20633.873710012496,2659.8183939856926,15.590652176618663,20729.234507012323,-5584.688124706707,15.28779240518434,20760.34117429193,49578.748922550585,11.262692543134206,20787.602712798853,-9553.876469184972,13.83570734481718,20998.05042562565,10103.686825522977,29.750351578437463,0.9823682396030134,81.0,39.0,107.0,234.0,341.0,42.0,1373.0,1374.0,43.0,19.0,24.0,0.4418604651162791,55.40822465965768,2728.8760614992225,40.0,33.0,7.0,0.825,692.9925987329739,3555.3712710164955,26.0,13.0,13.0,0.5,2050.94237209628,46246.88987001513,21.0,5.0,16.0,0.238095238095238,1151.919462141357,20778.2410400562,80.0,40.0,40.0,0.5,59.39276953906622,9982.406631753842,0.0,0.0,0.0,0.0,20615.0,20657.0,20696.0,20736.0,20747.0,20773.0,20783.0,20803.0,20959.0,21037.0,0.020831581879779917,-0.12408796753880827,0.04136736841222352,-0.12057089767245291,0.005878326452976931
25,25,21318.260172995684,4361.681704248986,41.77197559847314,21427.54796540086,-3868.219023347857,8.589106598632833,21457.238893071553,51160.30895399993,11.142991975958369,21486.45203459914,-5673.102447387767,7.306297271514011,21694.957552333137,14065.15521151946,39.04783632131209,0.9913800365267116,140.0,56.0,80.0,242.0,322.0,84.0,696.0,697.0,88.0,43.0,45.0,0.4886363636363636,70.42510808130821,5464.287084572747,15.0,12.0,3.0,0.8,889.2378315831951,9308.93514751374,27.0,13.0,14.0,0.4814814814814814,2042.1094535777652,51231.51060658847,15.0,3.0,12.0,0.2,1039.2430209357703,15684.049285294095,91.0,46.0,45.0,0.5054945054945055,85.73104747626458,14963.760297924124,0.0,0.0,0.0,0.0,21277.0,21361.0,21417.0,21431.0,21444.0,21471.0,21483.0,21497.0,21651.0,21739.0,0.016146319895993952,-0.22988300978200032,0.03991589369434612,-0.18318777610199857,0.006095279162369303
26,26,22030.327607171235,4345.033955379331,32.675226893749176,22132.123304500717,-3881.816703755566,6.896682281146442,22161.906852783548,50738.88874418071,11.074573681723631,22190.45203459914,-6867.990322357615,7.541823166275445,22399.084704455017,13590.586739214592,38.96103493152955,0.9945236766137528,136.0,57.0,78.0,242.0,320.0,79.0,703.0,705.0,79.0,42.0,37.0,0.5316455696202531,74.91425859401987,5359.322553555621,13.0,9.0,4.0,0.6923076923076923,843.4290243268208,7856.714235555828,27.0,14.0,13.0,0.5185185185185185,2038.2374614506364,49364.00341085517,16.0,4.0,12.0,0.25,1141.141886758081,17478.425239284155,92.0,46.0,46.0,0.5,75.77844322072802,14347.578823586817,0.0,0.0,0.0,0.0,21988.0,22067.0,22124.0,22135.0,22148.0,22175.0,22187.0,22202.0,22355.0,22444.0,0.01724135170480611,-0.21727688056749903,0.040171109614307504,-0.16615368298398456,0.005575803655487158
27,27,22748.025674628498,3735.7119246351945,22.903935601586205,22851.54796540086,-5349.267277221006,12.204203950905075,22880.153701069194,49218.67540499417,11.303602002927578,22908.268355896605,-8008.8975020084035,9.08805859614088,23118.684833895823,11525.398678693267,33.60361849463328,0.9900896507322264,110.0,58.0,84.0,239.0,323.0,52.0,716.0,718.0,53.0,22.0,31.0,0.4150943396226415,64.15184997533274,4270.474731645314,20.0,17.0,3.0,0.85,981.0810739477556,8914.870652138843,26.0,13.0,13.0,0.5,2036.2869065688872,48752.71629837981,18.0,4.0,14.0,0.2222222222222222,1158.625887451567,18822.065620957062,86.0,44.0,42.0,0.5116279069767442,57.57821186177589,11655.622063729006,0.0,0.0,0.0,0.0,22727.0,22779.0,22837.0,22855.0,22867.0,22893.0,22904.0,22921.0,23076.0,23160.0,0.01717259019687322,-0.18340475865274697,0.041372241122162895,-0.14466733868937848,0.004995767475551138
28,28,24179.239601011486,3768.4242497337696,23.584216272870716,24282.123304500717,-5127.971566065832,9.764082392778707,24310.84549212265,49540.162291001776,11.3664468699908,24339.027373705092,-7683.605749286473,10.039347982860937,24549.81435526835,12489.900399614946,33.42865889622033,0.9905209321454652,113.0,59.0,84.0,238.0,322.0,54.0,1434.0,1431.0,57.0,26.0,31.0,0.4561403508771929,69.26372639546867,4271.40726145426,18.0,14.0,4.0,0.7777777777777778,938.470658521902,8532.180597268092,27.0,14.0,13.0,0.5185185185185185,2038.0208592282895,47854.39456375118,19.0,4.0,15.0,0.2105263157894736,1101.2444997595337,18324.331057690524,84.0,42.0,42.0,0.5,80.50617997960902,12882.078012238078,0.0,0.0,0.0,0.0,24156.0,24210.0,24269.0,24285.0,24297.0,24324.0,24335.0,24353.0,24509.0,24591.0,0.01838002353380514,-0.18301011353732885,0.04113876024985218,-0.1433239205254381,0.006445702319779184
29,29,24892.00394857139,3740.708686657901,24.143892507632636,24994.972626301005,-5125.435077131595,12.548090252486304,25024.21855522321,49842.67592671131,11.290733019631,25053.027373698995,-7988.127748081651,9.624879616636855,25264.020055576868,12566.279403853883,31.74975722799386,0.9911827924148626,110.0,57.0,85.0,238.0,323.0,53.0,711.0,713.0,57.0,24.0,33.0,0.4210526315789473,70.29522125615568,4330.82318742373,19.0,15.0,4.0,0.7894736842105263,896.46066375444,7391.779299724882,27.0,13.0,14.0,0.4814814814814814,2052.3863901352547,49392.73808135862,18.0,5.0,13.0,0.2777777777777778,1081.0130433900042,18125.72969008903,81.0,41.0,40.0,0.5061728395061729,81.43939610853316,12885.680815050158,0.0,0.0,0.0,0.0,24871.0,24924.0,24981.0,24999.0,25011.0,25038.0,25049.0,25066.0,25224.0,25304.0,0.018791952847565966,-0.1749043057347897,0.041177291386864635,-0.13532746063676931,0.0064807882660604344
30,30,25609.48608333335,4032.7576231972394,23.462655428787492,25710.54796540086,-4925.328576680214,9.828860185915426,25739.89387037096,49746.88479376666,11.240114729166269,25768.111081040995,-7953.565330783568,9.568281403714767,25978.05332077584,11688.46246172542,33.04430471387102,0.9917810998282396,112.0,59.0,82.0,239.0,321.0,53.0,717.0,716.0,56.0,24.0,32.0,0.4285714285714285,65.96941791167697,4583.095808351806,17.0,13.0,4.0,0.7647058823529411,932.8719859412846,8444.646932459002,27.0,14.0,13.0,0.5185185185185185,2058.625603204701,48148.1922585774,18.0,4.0,14.0,0.2222222222222222,1125.251111865035,18554.285300295192,84.0,42.0,42.0,0.5,81.4933337307523,12114.691753945091,0.0,0.0,0.0,0.0,25587.0,25640.0,25699.0,25714.0,25726.0,25753.0,25764.0,25781.0,25937.0,26020.0,0.016358388992238834,-0.18940299543833927,0.041382000335077246,-0.14147757201538919,0.006972117504556923
31,31,26326.861936861475,3615.0728205268583,26.522883135293448,26431.123304500717,-5034.303055263705,9.350314476983304,26459.39664679016,48885.20126798864,11.215692085392185,26487.49378002919,-8532.424839136533,9.469973487173185,26696.630328803418,11681.180125377008,36.77420839699813,0.9924650624351607,134.0,58.0,81.0,240.0,321.0,76.0,718.0,719.0,77.0,43.0,34.0,0.5584415584415584,60.237319419706594,4196.652487371959,17.0,14.0,3.0,0.8235294117647058,950.383248808061,8937.081211617964,26.0,13.0,13.0,0.5,2051.175534329455,48822.14809669521,19.0,4.0,15.0,0.2105263157894736,1178.6849188829951,19530.91446056484,90.0,46.0,44.0,0.5111111111111111,70.64122856223511,12236.809339086898,0.0,0.0,0.0,0.0,26285.0,26361.0,26419.0,26434.0,26446.0,26472.0,26483.0,26500.0,26653.0,26740.0,0.016662823243191998,-0.18878149336170197,0.04195902811333254,-0.138141846087715,0.006047439368627592
32,32,27043.12843345679,3916.842731058367,27.316826324501125,27146.54796540086,-4827.175663206887,8.441290280467394,27175.71005745986,50208.845078667495,11.18713483526107,27204.45203459914,-6874.874485441004,8.752902638894426,27413.748436399117,12921.88777502285,34.54715955647483,0.9903581886794344,115.0,58.0,82.0,239.0,321.0,57.0,714.0,717.0,58.0,23.0,35.0,0.396551724137931,75.70403206297804,4636.8099751497375,16.0,13.0,3.0,0.8125,960.8885649160328,9091.897949426835,27.0,14.0,13.0,0.5185185185185185,2049.402060522949,48544.12908387262,18.0,4.0,14.0,0.2222222222222222,1091.701756254793,17432.663848786506,85.0,42.0,43.0,0.4941176470588235,67.65787847986854,13261.96234500356,0.0,0.0,0.0,0.0,27020.0,27077.0,27135.0,27150.0,27162.0,27189.0,27201.0,27217.0,27374.0,27456.0,0.01932782020137993,-0.19905813087350457,0.040817550320305804,-0.15879588181089002,0.00523591286798255
33,33,27753.19845148605,4235.13454953136,29.87033629134076,27858.123304500717,-4881.3255090027305,8.943753811409952,27887.2598341753,50500.731349462934,11.26064242495526,27915.480558327137,-7213.80725657701,9.066535804744117,28126.36922762873,13289.026667992266,36.34138575217027,0.9937148079273128,135.0,58.0,81.0,241.0,322.0,77.0,717.0,711.0,79.0,42.0,37.0,0.5316455696202531,75.31782331491249,5114.817401933545,16.0,12.0,4.0,0.75,913.0942960942684,8214.72486843508,27.0,13.0,14.0,0.4814814814814814,2066.176352228548,50234.60143033888,18.0,3.0,15.0,0.1666666666666666,1148.347951173055,18361.380382958952,88.0,44.0,44.0,0.5,82.18604756976286,13892.10777998392,0.0,0.0,0.0,0.0,27712.0,27789.0,27847.0,27861.0,27874.0,27901.0,27912.0,27928.0,28084.0,28169.0,0.017784044977566724,-0.18705867789604064,0.04091379069207324,-0.15918750118061128,0.006184504676156219
34,34,28458.09064563039,3433.5374125978797,18.55740496653502,28558.972626301005,-5178.344665915123,17.8357578060484,28587.453140295,50612.76749178861,11.273477292221529,28616.471509064108,-7928.464572343045,10.670401250640513,28825.446298852297,11856.509480108309,31.749668313507875,0.9855122985857968,105.0,58.0,87.0,236.0,323.0,47.0,697.0,701.0,47.0,20.0,27.0,0.425531914893617,62.06687274951902,3714.7121865449826,24.0,20.0,4.0,0.8333333333333334,954.4477603051084,8050.918074144563,27.0,13.0,14.0,0.4814814814814814,2047.8081868724776,49746.28301008264,19.0,4.0,15.0,0.2105263157894736,1094.6670632244538,18610.166868521133,83.0,41.0,42.0,0.4939759036144578,75.10072340803406,12004.643056149413,0.0,0.0,0.0,0.0,28438.0,28485.0,28543.0,28563.0,28574.0,28601.0,28612.0,28630.0,28785.0,28866.0,0.01807665544047707,-0.18431522462911173,0.04046030850229071,-0.1380679768744876,0.00633413430268248
35,35,29127.37449512262,4240.0211111941135,28.74312412448447,29231.972626301005,-4691.110467635371,8.859149447478014,29261.42022967153,50295.66088370224,11.181739796365155,29290.126406496005,-7008.563153514518,8.44922014362174,29497.671776726875,12865.738236164449,36.525710345142194,0.9921453087675578,134.0,56.0,82.0,239.0,321.0,78.0,675.0,673.0,81.0,43.0,38.0,0.5308641975308642,77.91122206356094,5096.204485063486,16.0,12.0,4.0,0.75,886.8184683001408,7957.485672912256,27.0,13.0,14.0,0.4814814814814814,2048.820132060236,50706.01209918709,17.0,4.0,13.0,0.2352941176470588,1081.002891220946,17220.902011387287,89.0,45.0,44.0,0.5056179775280899,70.52812173491499,13374.87663758562,0.0,0.0,0.0,0.0,29086.0,29164.0,29220.0,29236.0,29248.0,29275.0,29286.0,29302.0,29455.0,29541.0,0.01837519673141884,-0.18904233324250747,0.04073552461707753,-0.15424030112061782,0.005481855797179729
36,36,0.0,0.0,0.0,0.0,0.0,0.0,0.0,0.0,0.0,0.0,0.0,0.0,0.0,0.0,0.0,0.0,0.0,0.0,0.0,0.0,0.0,0.0,0.0,0.0,0.0,0.0,0.0,0.0,0.0,0.0,0.0,0.0,0.0,0.0,0.0,0.0,0.0,0.0,0.0,0.0,0.0,0.0,0.0,0.0,0.0,0.0,0.0,0.0,0.0,0.0,0.0,0.0,0.0,0.0,0.0,0.0,0.0,0.0,,29551.0,29860.0,29918.0,29929.0,29955.0,29965.0,29988.0,30143.0,30216.0,,,,,
37,37,31175.935429236382,3846.3168770474585,31.301428902557657,31282.123304500717,-4848.508809727521,8.21817562584681,31310.86636128611,50290.05800147621,11.11236457787449,31340.027373698995,-6838.781796789142,8.522027437831017,31548.376686188665,12862.62131480806,36.791366454327154,0.9934123324295384,116.0,57.0,81.0,240.0,321.0,59.0,2048.0,2050.0,78.0,40.0,38.0,0.5128205128205128,75.86371109753196,4852.219844752204,14.0,11.0,3.0,0.7857142857142857,941.3066291913126,8591.473329472668,27.0,14.0,13.0,0.5185185185185185,2061.925042366891,49201.49978006806,16.0,4.0,12.0,0.25,1022.1502107975664,16489.739530562067,89.0,44.0,45.0,0.4943820224719101,80.60701284493783,13559.751884070773,0.0,0.0,0.0,0.0,31155.0,31214.0,31271.0,31285.0,31297.0,31324.0,31336.0,31352.0,31505.0,31592.0,0.01972372883530259,-0.19414353281214572,0.04100064951816849,-0.14946378480411135,0.006266764050041589
38,38,31870.33640067387,3815.4708773334432,28.84749153231872,31977.123304500717,-5063.655966286437,8.572941855555523,32006.11848917824,50388.56754408692,11.140150143283869,32035.027373698995,-7081.129067550135,8.416461128022304,32243.22422386009,13131.837524756333,36.80511151403919,0.9937626986204724,137.0,58.0,81.0,240.0,321.0,79.0,695.0,695.0,81.0,42.0,39.0,0.5185185185185185,73.03617608632666,4550.045182852971,16.0,12.0,4.0,0.75,934.3992160535486,8020.083040632366,27.0,13.0,14.0,0.4814814814814814,2062.3138151023622,49971.86716811658,16.0,4.0,12.0,0.25,1057.6342873511564,16997.69588061418,90.0,45.0,45.0,0.5,80.90939248827333,13813.30247397494,0.0,0.0,0.0,0.0,31829.0,31908.0,31966.0,31980.0,31993.0,32020.0,32031.0,32047.0,32200.0,32287.0,0.019142113368028166,-0.1845305491278892,0.04092820883026618,-0.1493595551305305,0.006161315378426039
39,39,32579.69746889258,3376.8124918582357,20.810483709543725,32681.397287201147,-5332.165784328269,20.38372320678633,32710.273135652904,51269.50182563922,11.2699664930357,32738.75564876384,-8009.20859579537,11.582587693478322,32949.506903083384,11926.521137326912,31.264104689437342,0.9871492280151984,105.0,55.0,90.0,237.0,327.0,50.0,708.0,704.0,50.0,22.0,28.0,0.44,60.97244301672061,3814.176873400739,28.0,23.0,5.0,0.8214285714285714,887.3624127768703,6374.04754263385,26.0,13.0,13.0,0.5,2062.735939378733,48840.40482195651,19.0,5.0,14.0,0.2631578947368421,1063.0691974936624,18427.0184964663,81.0,41.0,40.0,0.5061728395061729,64.92306846601932,11893.030807775318,0.0,0.0,0.0,0.0,32558.0,32608.0,32663.0,32686.0,32697.0,32723.0,32734.0,32753.0,32910.0,32990.0,0.01805621223083308,-0.16641688362070642,0.0402331964604186,-0.1327308665742264,0.005443588094002281
40,40,33287.005886619285,3623.71345064892,23.22754186760233,33390.54796540086,-5441.488409375354,12.216305482710702,33418.890329367445,49763.20894808956,11.394377418182346,33447.027373699,-8368.514496368512,9.955925824355228,33656.99021253425,11615.914704960342,32.58742999565806,0.9903085428381272,112.0,58.0,83.0,239.0,322.0,54.0,705.0,709.0,58.0,25.0,33.0,0.4310344827586206,59.34666163876186,3990.998669869655,20.0,17.0,3.0,0.85,1021.454446320112,9651.060552907298,26.0,13.0,13.0,0.5,2054.664982952296,48167.1628361839,18.0,4.0,14.0,0.2222222222222222,1142.5644790612107,19065.85092413515,84.0,42.0,42.0,0.5,66.3949889409975,11691.522665972669,0.0,0.0,0.0,0.0,33265.0,33319.0,33377.0,33394.0,33406.0,33432.0,33443.0,33460.0,33616.0,33699.0,0.016377305338018462,-0.18771600148227974,0.04128883619815631,-0.13653133773706463,0.005715864021680949
41,41,34005.04280181995,3925.0050125264097,21.60867512370722,34106.54796540086,-5653.755150143731,10.49376305552504,34134.533910628765,48761.84448562613,11.264398208883197,34162.62681702908,-8593.963023515982,9.780634776579694,34371.063898334134,11456.884512050596,35.585453685903246,0.9903832385379744,110.0,59.0,83.0,239.0,322.0,51.0,719.0,715.0,51.0,22.0,29.0,0.4313725490196078,59.94453597361446,4311.513070281697,19.0,16.0,3.0,0.8421052631578947,1045.902019631878,9734.47014550282,27.0,14.0,13.0,0.5185185185185185,2058.013307955573,46332.27005485505,18.0,5.0,13.0,0.2777777777777778,1100.205467484065,18521.977210895293,91.0,46.0,45.0,0.5054945054945055,56.31875769761767,11526.051435036576,0.0,0.0,0.0,0.0,33983.0,34034.0,34093.0,34110.0,34121.0,34148.0,34158.0,34176.0,34326.0,34415.0,0.01527247373756344,-0.1849924504787387,0.04220540321361773,-0.12802073554116206,0.0049157131363574795
42,42,34716.822024541456,3508.6099996345756,20.378437059892633,34817.54796540086,-5533.436472965134,10.482958522178365,34846.07788753973,49051.97112214476,11.308799548194534,34874.02737370227,-9165.400592236583,10.219404601863875,35082.93810318728,10874.592327891503,31.944355075341036,0.9900995158284264,106.0,61.0,83.0,236.0,319.0,45.0,712.0,712.0,46.0,19.0,27.0,0.4130434782608695,72.32992887027513,3967.598320479812,18.0,15.0,3.0,0.8333333333333334,1003.6322763933877,9116.040142775211,26.0,13.0,13.0,0.5,2066.410856193544,47737.58332368866,19.0,5.0,14.0,0.2631578947368421,1165.8732829077271,19839.024624672893,82.0,41.0,41.0,0.5,80.16200178867918,11203.262839844108,0.0,0.0,0.0,0.0,34699.0,34744.0,34805.0,34821.0,34833.0,34859.0,34870.0,34888.0,35044.0,35124.0,0.020614981111553677,-0.1813759462671817,0.0421269687827214,-0.12720374534368556,0.007371494891176482
43,43,35425.018722163695,3724.3415188400822,23.87683194774341,35526.54796540086,-5045.014964799012,9.446900469320182,35555.21216324694,50006.827063913515,11.251202121484017,35583.46830144481,-7614.470117674359,9.142528995748576,35793.64945382083,12292.413797399062,33.261459586278306,0.989511789181142,111.0,58.0,82.0,239.0,321.0,53.0,707.0,709.0,54.0,23.0,31.0,0.4259259259259259,49.294012557419336,4039.853358260966,17.0,14.0,3.0,0.8235294117647058,997.462669276894,9609.896071453288,26.0,13.0,13.0,0.5,2064.587097344944,49688.18063418079,18.0,4.0,14.0,0.2222222222222222,1158.4938159357528,18649.854458567912,85.0,43.0,42.0,0.5058823529411764,70.30805119660745,12527.784089011097,0.0,0.0,0.0,0.0,35403.0,35456.0,35514.0,35530.0,35542.0,35568.0,35580.0,35596.0,35752.0,35835.0,0.01323563167020504,-0.19771252934561548,0.04128610468938979,-0.15214372084102215,0.005719629387312348
44,44,36146.45977011653,3751.3035136648577,23.809245748515764,36249.54796540086,-4895.071689263399,10.772441956818646,36278.90514457278,50283.06508326943,11.29774872745312,36307.45203459914,-7182.6854765334265,9.22962783172003,36518.57704919126,13046.80118567782,33.18746438698234,0.9901409934913862,113.0,59.0,83.0,239.0,322.0,54.0,721.0,724.0,70.0,38.0,32.0,0.5428571428571428,72.27753553766664,4368.235503587692,19.0,16.0,3.0,0.8421052631578947,937.7624114562252,8682.769748277085,27.0,14.0,13.0,0.5185185185185185,2051.420753797458,49073.51293760362,18.0,4.0,14.0,0.2222222222222222,1116.6691952335848,18091.543086690675,83.0,42.0,41.0,0.5060240963855421,84.57660339693363,13451.479091694511,0.0,0.0,0.0,0.0,36124.0,36178.0,36237.0,36253.0,36265.0,36292.0,36304.0,36320.0,36478.0,36559.0,0.019267312088819676,-0.1915727635844569,0.04079744841330332,-0.1554668095772616,0.00648255478053716
45,45,36872.28423810625,3381.0676876636016,23.24529692035997,36976.54796540086,-5265.37059814185,11.32999708519997,37005.60545115066,49952.662364867254,11.275500777824863,37034.027373699,-7942.020905951959,9.614984278878005,37244.55351362776,12744.476388650004,33.203114234122864,0.989196784201258,111.0,59.0,84.0,239.0,323.0,52.0,729.0,727.0,53.0,21.0,32.0,0.3962264150943396,64.66833605552549,3903.6235166737015,19.0,15.0,4.0,0.7894736842105263,961.7759819398202,8450.70727084888,27.0,14.0,13.0,0.5185185185185185,2071.0814681060274,47744.78116676475,18.0,4.0,14.0,0.2222222222222222,1107.06249248513,18360.96206733753,84.0,42.0,42.0,0.5,72.32761947549794,12990.716039728452,0.0,0.0,0.0,0.0,36852.0,36904.0,36963.0,36980.0,36992.0,37019.0,37030.0,37047.0,37203.0,37286.0,0.019126602017309167,-0.18266064354126016,0.04146088256474317,-0.13939304688249665,0.005675213109572049
46,46,38307.58126771832,3592.3958016458064,24.330602530422095,38410.54796540086,-5031.5968808299185,9.90659810417282,38438.9741814401,49439.54563847744,11.240175803755411,38467.60271279886,-8102.912075212214,9.738939171896837,38676.227187592835,12070.03200490924,33.4081441642598,0.990312095816058,130.0,57.0,83.0,237.0,320.0,73.0,1434.0,1433.0,73.0,40.0,33.0,0.547945205479452,55.82296722813327,4015.083158418726,18.0,15.0,3.0,0.8333333333333334,1004.6123068777106,9810.14210321002,26.0,13.0,13.0,0.5,2058.7628772320836,48303.60490428066,18.0,5.0,13.0,0.2777777777777778,1044.463959214346,17670.950480662825,85.0,42.0,43.0,0.4941176470588235,74.73570442243467,12409.977632417493,0.0,0.0,0.0,0.0,38268.0,38341.0,38398.0,38414.0,38426.0,38452.0,38463.0,38481.0,38635.0,38718.0,0.015539202891440512,-0.19966073011636187,0.041642026653857536,-0.1288998263241048,0.006191839788994547
47,47,39014.22241439297,3693.9961380175114,21.189342080951153,39114.54796540086,-5449.358963066945,10.136853155226012,39143.47769652779,49405.06947730663,11.32858736907685,39171.45203459914,-7943.483406569761,10.24114117765104,39382.54995914819,12162.87687573538,32.50381779299879,0.9918174078878096,107.0,58.0,84.0,238.0,322.0,49.0,709.0,704.0,50.0,21.0,29.0,0.42,65.07319276271723,4126.568901466855,19.0,15.0,4.0,0.7894736842105263,980.8873861196864,8778.485948229127,27.0,13.0,14.0,0.4814814814814814,2052.2946771530565,49459.21859378514,19.0,4.0,15.0,0.2105263157894736,1160.0427787118815,19151.20704277478,82.0,41.0,41.0,0.5,69.38834668674244,12365.169648778206,0.0,0.0,0.0,0.0,38994.0,39043.0,39101.0,39118.0,39130.0,39157.0,39168.0,39185.0,39343.0,39423.0,0.0176159341621945,-0.1800005088245526,0.041540163769949616,-0.14603703681843824,0.005704928808838834
48,48,39700.25768223271,3642.545165095588,27.783145696104675,39804.54796540086,-4765.2257342097655,11.281325104716869,39833.56646049594,49446.954867304594,11.227050653368693,39862.60271279886,-8034.26349886677,9.729264017711738,40071.61609703523,13007.461543108664,34.546513530263056,0.991926749354885,113.0,58.0,83.0,238.0,321.0,55.0,689.0,690.0,78.0,42.0,36.0,0.5384615384615384,68.10261280146756,4416.480431074323,19.0,16.0,3.0,0.8421052631578947,936.2998544732442,8862.554131843997,27.0,14.0,13.0,0.5185185185185185,2044.4168005552835,47056.29281664235,18.0,5.0,13.0,0.2777777777777778,1014.5627625531546,17254.0939604486,86.0,44.0,42.0,0.5116279069767442,74.82586913039837,13336.472278558953,0.0,0.0,0.0,0.0,39679.0,39734.0,39792.0,39808.0,39820.0,39847.0,39858.0,39875.0,40029.0,40113.0,0.01869643606730142,-0.19648593932319014,0.0413456562904968,-0.1262794981389717,0.005752534334421386
49,49,0.0,0.0,0.0,0.0,0.0,0.0,0.0,0.0,0.0,0.0,0.0,0.0,0.0,0.0,0.0,0.0,0.0,0.0,0.0,0.0,0.0,0.0,0.0,0.0,0.0,0.0,0.0,0.0,0.0,0.0,0.0,0.0,0.0,0.0,0.0,0.0,0.0,0.0,0.0,0.0,0.0,0.0,0.0,0.0,0.0,0.0,0.0,0.0,0.0,0.0,0.0,0.0,0.0,0.0,0.0,0.0,0.0,0.0,,40127.0,40444.0,40497.0,40508.0,40535.0,40545.0,40565.0,40723.0,40798.0,,,,,
50,50,41100.08084656343,3969.063883061592,24.261983978274102,41201.54796540086,-4827.781068519147,9.080143579248563,41230.37713830931,50101.48619881723,11.255742313108158,41259.027373699,-7294.198237431273,9.01250310162135,41468.127988781154,12593.481015873356,32.8808820385969,0.9913347355203856,115.0,58.0,83.0,237.0,320.0,57.0,1393.0,1397.0,59.0,28.0,31.0,0.4745762711864407,63.9076835585278,4459.617994254685,18.0,15.0,3.0,0.8333333333333334,978.9911145094007,9785.109553944154,27.0,13.0,14.0,0.4814814814814814,2050.3404634788367,50336.11889593689,17.0,4.0,13.0,0.2352941176470588,1074.9203763153782,17460.024219405746,82.0,41.0,41.0,0.5,85.60170898349752,13082.81784995245,0.0,0.0,0.0,0.0,41074.0,41131.0,41189.0,41205.0,41217.0,41244.0,41255.0,41272.0,41429.0,41509.0,0.016101449974453858,-0.20278283141155204,0.040923745362412826,-0.14736648790257206,0.006797303213908966
51,51,41821.1425160049,4036.5635552133895,23.652779729634467,41921.12330450071,-4819.446402604867,8.108750755376931,41949.48607197448,48925.332775660485,11.059765194687447,41977.58762378442,-8329.047941710589,9.100152910458494,42184.82583129623,11451.211873655424,36.860922892737726,0.9904470828280546,110.0,60.0,80.0,239.0,319.0,50.0,722.0,719.0,50.0,21.0,29.0,0.42,64.2260183993298,4632.702586401929,15.0,12.0,3.0,0.8,944.8743714461764,8804.0140318942,26.0,13.0,13.0,0.5,2061.7825500038625,49104.629509926584,17.0,5.0,12.0,0.2941176470588235,1090.7288871229223,18205.62139101216,91.0,46.0,45.0,0.5054945054945055,75.94414624907871,12079.078777295686,0.0,0.0,0.0,0.0,41800.0,41850.0,41910.0,41924.0,41936.0,41962.0,41973.0,41990.0,42141.0,42229.0,0.01591106333910666,-0.19605454496505664,0.04214141086086928,-0.13095480957201844,0.0066319745968368
52,52,42531.06330233224,2947.065500715514,17.634144731721005,42631.54796540086,-5464.806454532082,15.287792404546584,42659.86577923719,49973.45855937178,11.285394102033656,42688.507574184434,-8340.112843471863,10.735359380093634,42898.17573937834,11584.62031974294,31.01159196811294,0.9858623385654048,104.0,61.0,85.0,236.0,321.0,43.0,706.0,711.0,44.0,19.0,25.0,0.4318181818181818,62.1095755808349,3134.8832896622553,22.0,18.0,4.0,0.8181818181818182,1013.163105659214,8821.332362968766,26.0,13.0,13.0,0.5,2059.486917236292,47755.871130830696,19.0,5.0,14.0,0.2631578947368421,1039.4139872365145,18041.37297710313,82.0,41.0,41.0,0.5,70.51142716261917,11815.517511733611,0.0,0.0,0.0,0.0,42513.0,42556.0,42617.0,42635.0,42647.0,42673.0,42684.0,42702.0,42858.0,42938.0,0.021075057736502766,-0.1853978021159333,0.04121161465719818,-0.12462828821915821,0.006086641186025836
53,53,43247.43924672225,4222.607779145235,34.418815194112604,43354.12330450071,-4274.502670601862,7.746701327385097,43383.6550335001,50684.5857441654,11.101573470580814,43412.45203459914,-6402.500222349081,7.63145481026266,43622.28115405253,13262.37413847762,34.77212292447792,0.992470890350211,135.0,57.0,79.0,242.0,321.0,78.0,723.0,723.0,82.0,41.0,41.0,0.5,67.23328227955095,5080.135005070852,13.0,10.0,3.0,0.7692307692307693,867.3135142382417,7963.137816488168,27.0,14.0,13.0,0.5185185185185185,2040.2520992010457,48826.2962507254,16.0,4.0,12.0,0.25,1094.9012607594036,16779.72080365299,85.0,42.0,43.0,0.4941176470588235,87.22574727453168,13945.610935257797,0.0,0.0,0.0,0.0,43209.0,43287.0,43344.0,43357.0,43370.0,43397.0,43409.0,43423.0,43581.0,43665.0,0.015922218163762464,-0.20290395891041088,0.040253897101958876,-0.17101151467944561,0.006576933086321774
54,54,43989.062240185536,3924.3110725629062,24.22162944125004,44092.12330450071,-4972.474675238362,9.012853196069582,44121.14349745205,49168.39413122191,11.276383942169756,44149.60271279886,-7885.959895007966,9.844918856368103,44360.77109859152,12635.68432538404,32.55012718597219,0.991143653574786,113.0,58.0,83.0,239.0,322.0,55.0,737.0,738.0,55.0,22.0,33.0,0.4,63.16111708790597,4468.966784383125,17.0,13.0,4.0,0.7647058823529411,913.0721981113531,8053.578439886683,26.0,13.0,13.0,0.5,2028.1539114485524,48234.81618413946,18.0,5.0,13.0,0.2777777777777778,1044.412091277644,17524.83079160306,82.0,41.0,41.0,0.5,77.11470173941143,12928.70914920092,0.0,0.0,0.0,0.0,43967.0,44022.0,44080.0,44095.0,44108.0,44134.0,44145.0,44163.0,44320.0,44402.0,0.016094829364955626,-0.18362530887451606,0.04124913874623933,-0.13243943732693672,0.0061029303798366035
55,55,44733.609401194415,3703.9756902377967,24.47858714429168,44836.54796540086,-4961.1658405994185,10.509278511900437,44864.99264180579,48725.257817509126,11.318073269537075,44893.08666458586,-8666.890652040269,9.555403151652104,45103.01629823123,11598.421555785231,34.69902158011283,0.991818073900522,114.0,56.0,83.0,240.0,323.0,58.0,748.0,744.0,60.0,27.0,33.0,0.45,58.253286122903134,4135.681888343463,19.0,16.0,3.0,0.8421052631578947,982.6223479224752,9749.287754054489,26.0,13.0,13.0,0.5,2035.1870004622645,47517.69835385651,18.0,4.0,14.0,0.2222222222222222,1149.545506584679,19135.7194431327,87.0,43.0,44.0,0.4942528735632184,59.90355148281445,11830.528016138684,0.0,0.0,0.0,0.0,44709.0,44767.0,44823.0,44840.0,44852.0,44878.0,44889.0,44906.0,45060.0,45146.0,0.015727232302424548,-0.19806278997594498,0.04176862456191935,-0.13263643822644341,0.0051648020547188055
56,56,45473.13862085423,3620.284524630793,22.719393517783473,45574.54796540086,-4959.721521939675,9.086534390800974,45603.692470280606,48749.30652985923,11.175601631560015,45632.04779967566,-8671.30289122276,9.35436860182006,45841.917066907954,12264.379395801632,35.339916579408765,0.9935345317340364,109.0,59.0,82.0,239.0,321.0,50.0,736.0,738.0,51.0,20.0,31.0,0.392156862745098,66.94462122353357,4096.395605164729,17.0,13.0,4.0,0.7647058823529411,937.4131035273714,8449.326242326253,27.0,14.0,13.0,0.5185185185185185,2034.874742416492,46506.85808734198,18.0,5.0,13.0,0.2777777777777778,1129.8388338559632,18869.403462175636,85.0,42.0,43.0,0.4941176470588235,67.79238859173226,12659.72825390306,0.0,0.0,0.0,0.0,45454.0,45504.0,45563.0,45578.0,45590.0,45617.0,45628.0,45645.0,45801.0,45884.0,0.01849153589119098,-0.1890051889769736,0.041741614132913246,-0.13029631740803396,0.005527584103842963
57,57,46205.07546176713,3934.176143752805,26.358289331514086,46309.54796540086,-4727.120467377873,9.36975429463972,46338.53650034065,50230.86238359384,11.26330032192045,46367.45203459914,-6855.972420982872,8.350893687467275,46579.07343765792,13590.274993985158,34.396643563683405,0.990307500102343,130.0,58.0,83.0,240.0,323.0,72.0,736.0,735.0,73.0,39.0,34.0,0.5342465753424658,67.61306467561393,4659.86822832613,18.0,15.0,3.0,0.8333333333333334,964.3549319220284,9640.548658352174,27.0,14.0,13.0,0.5185185185185185,2033.7894986392732,48264.32223304089,17.0,4.0,13.0,0.2352941176470588,1087.8973344499088,17257.02509752444,83.0,41.0,42.0,0.4939759036144578,75.61233020846508,14074.690485293384,0.0,0.0,0.0,0.0,46167.0,46239.0,46297.0,46313.0,46325.0,46352.0,46364.0,46380.0,46539.0,46620.0,0.017186079678455354,-0.20400472942822095,0.040488842956905705,-0.15867877926701868,0.005563708625611322
58,58,46956.473797935745,3104.0085073411456,19.83006719467615,47059.54796540086,-5356.905759123967,15.28779240518434,47087.86184066372,50221.325714038474,11.50691073685649,47116.027373699,-8210.18691377113,10.53949306578546,47328.51409661544,12787.791419723557,32.593652406566335,0.9872100820979126,106.0,59.0,87.0,240.0,327.0,47.0,750.0,750.0,47.0,19.0,28.0,0.4042553191489361,65.72828407089166,3512.942165115038,54.0,51.0,3.0,0.9444444444444444,1013.2387782741326,9908.9545843349,26.0,13.0,13.0,0.5,2032.6965582597,48040.4616620613,19.0,4.0,15.0,0.2105263157894736,1136.65345259058,19022.182789716742,82.0,41.0,41.0,0.5,65.72613889184558,12930.683137993869,0.0,0.0,0.0,0.0,46937.0,46984.0,47043.0,47063.0,47075.0,47101.0,47112.0,47130.0,47288.0,47370.0,0.021175291213100984,-0.18914627656989638,0.040474769022106796,-0.13844428446373686,0.005139756877053162
59,59,47705.744038266595,4115.899837063488,24.462059768012512,47807.12330450071,-4801.66873079407,9.25687428677346,47836.1027990277,49819.27350535143,11.17872544994087,47865.027373699,-7408.37254532792,9.287255662552198,48075.8396285445,12615.211997441582,34.13428839602308,0.9912922486928986,115.0,57.0,82.0,241.0,323.0,58.0,747.0,748.0,59.0,27.0,32.0,0.4576271186440678,62.77499544848435,4586.092109620813,17.0,13.0,4.0,0.7647058823529411,902.3794909985752,8197.285851970866,26.0,13.0,13.0,0.5,2055.452730639164,49202.65916429512,18.0,5.0,13.0,0.2777777777777778,1048.5458676574417,17318.634426250243,85.0,43.0,42.0,0.5058823529411764,82.10837804935709,13189.103573490887,0.0,0.0,0.0,0.0,47680.0,47738.0,47795.0,47810.0,47823.0,47849.0,47861.0,47877.0,48034.0,48118.0,0.015251827773649498,-0.18793039286767815,0.041258183550556465,-0.1415352509936485,0.006508680002049035
60,60,48448.33759032905,3596.484519881504,22.52311480870137,48549.54796540086,-4827.516353181397,10.689254017030208,48578.07062222261,48541.70242482002,11.233861787352993,48606.47295307228,-8654.753955033422,9.660293622427128,48815.40489497232,11143.614957286827,33.36363768843286,0.9905896732943272,113.0,57.0,84.0,238.0,322.0,56.0,744.0,742.0,56.0,25.0,31.0,0.4464285714285714,47.18618976086021,3939.8135788994578,19.0,16.0,3.0,0.8421052631578947,962.64831320071,9456.711297076376,26.0,13.0,13.0,0.5,2036.4355597242916,47602.788715777184,19.0,4.0,15.0,0.2105263157894736,1149.9307322841476,19289.595139321693,86.0,42.0,44.0,0.4883720930232558,52.712807630031485,11116.471058194404,0.0,0.0,0.0,0.0,48423.0,48479.0,48536.0,48553.0,48565.0,48591.0,48602.0,48620.0,48774.0,48858.0,0.013120086990507854,-0.19940860740250255,0.04195228963957875,-0.13286694668140994,0.00473031487825793
61,61,49173.93419442346,4016.799400214065,26.604268177819524,49277.54796540086,-4750.765487217524,8.713267911970322,49306.1417379812,48868.91229451918,11.22143083129824,49334.22431846202,-8481.715859784283,9.4115617167977,49543.950035358,11891.505839399875,35.160241908113704,0.990765417003931,117.0,59.0,81.0,241.0,322.0,58.0,725.0,728.0,60.0,26.0,34.0,0.4333333333333333,77.92812360914759,4752.154627108741,17.0,14.0,3.0,0.8235294117647058,982.08872458623,9864.989184075384,26.0,13.0,13.0,0.5,2036.6697150738512,47921.18459594371,18.0,4.0,14.0,0.2222222222222222,1155.1865161135838,19193.691944537662,88.0,44.0,44.0,0.5,63.349826894316,12200.076110650863,0.0,0.0,0.0,0.0,49149.0,49207.0,49266.0,49281.0,49293.0,49319.0,49330.0,49347.0,49502.0,49588.0,0.019400551495052158,-0.20672220660620938,0.04167618265778899,-0.13619726659211193,0.005327317477692385
62,62,49905.2533540718,4318.484005550075,25.538486095469317,50008.12330450071,-4928.903330716351,9.225849221971524,50036.68409074909,50623.506887167365,11.304446513630356,50065.45203459914,-6682.392918178308,9.098713259083524,50276.584311385115,13716.535451929887,34.38778562896224,0.9912471659972564,125.0,57.0,82.0,241.0,323.0,68.0,731.0,731.0,70.0,35.0,35.0,0.5,67.50707696796167,4737.582437294708,17.0,14.0,3.0,0.8235294117647058,964.8083468223336,9330.753319338934,27.0,14.0,13.0,0.5185185185185185,2059.8835388353555,48961.73902081741,18.0,4.0,14.0,0.2222222222222222,1082.7318546607898,17438.273316474075,85.0,43.0,42.0,0.5058823529411764,71.18722369312793,14068.58073285196,0.0,0.0,0.0,0.0,49871.0,49939.0,49996.0,50011.0,50023.0,50050.0,50062.0,50078.0,50234.0,50319.0,0.01563212388449331,-0.19574503334438728,0.04069025765888848,-0.16202756526264758,0.005189883694946601
63,63,50645.89807927124,3555.971530192329,23.546482536244262,50748.54796540086,-4912.933975412032,10.648482972248193,50777.77399350845,50119.66186937286,11.385039518874208,50805.45203459914,-7426.329957658488,10.015113771544785,51019.17419110579,13201.20534768746,32.21214870411898,0.9904150374834744,128.0,57.0,84.0,240.0,324.0,71.0,740.0,741.0,71.0,39.0,32.0,0.5492957746478874,57.40284110733284,3905.358751077885,19.0,16.0,3.0,0.8421052631578947,948.5429863245394,9061.788834226072,27.0,14.0,13.0,0.5185185185185185,2057.590790349032,48075.950544331085,19.0,3.0,16.0,0.1578947368421052,1174.3750939902247,19025.913408489258,81.0,40.0,41.0,0.4938271604938271,71.2134682572785,13445.749797808818,0.0,0.0,0.0,0.0,50607.0,50678.0,50735.0,50752.0,50764.0,50791.0,50802.0,50819.0,50979.0,51059.0,0.016142660485312755,-0.19307057474652672,0.04105356488061994,-0.15813667056082487,0.005394467124909426
64,64,51406.34509195245,2924.785147754583,20.16556675253228,51507.54796540086,-5006.089292656104,15.28779240518434,51536.548703154425,49953.91959251667,11.400355635383834,51564.45203459914,-8132.544499074549,11.455328304519355,51777.59037074342,12653.480592341666,31.877148775363526,0.9870423310650456,104.0,51.0,92.0,239.0,331.0,53.0,761.0,758.0,53.0,23.0,30.0,0.4339622641509434,43.30796532679993,3115.4527885382827,44.0,41.0,3.0,0.9318181818181818,929.6679486835671,8808.064733425359,27.0,14.0,13.0,0.5185185185185185,2044.3953053437604,46253.26753881617,20.0,4.0,16.0,0.2,1164.4454528302488,19579.97358773298,83.0,42.0,41.0,0.5060240963855421,72.30291916118307,12753.4285860155,0.0,0.0,0.0,0.0,51383.0,51436.0,51487.0,51511.0,51523.0,51550.0,51561.0,51579.0,51737.0,51818.0,0.014807229638747426,-0.1857074243656387,0.0409256234950184,-0.1431834099355691,0.005714073581062222
65,65,52163.76453316852,3885.956420544954,23.234756530523647,52264.12330450069,-4524.5887516918965,9.328732901837489,52293.11116504985,48527.3464192813,11.256699693163648,52321.02737370022,-8119.418314327331,10.235707034332258,52531.50458195827,11666.923846008363,35.066233144989035,0.9915257109905092,110.0,58.0,83.0,240.0,323.0,52.0,758.0,757.0,53.0,23.0,30.0,0.4339622641509434,70.17540981247261,4351.063183988592,16.0,13.0,3.0,0.8125,874.4413360416927,8298.781737595953,26.0,13.0,13.0,0.5,2023.321413858337,47225.64948129993,19.0,4.0,15.0,0.2105263157894736,1105.257828727684,18758.53960214853,89.0,45.0,44.0,0.5056179775280899,72.01912317354302,11999.504246788363,0.0,0.0,0.0,0.0,52142.0,52194.0,52252.0,52267.0,52280.0,52306.0,52317.0,52335.0,52488.0,52575.0,0.01805872280024989,-0.1932642686508712,0.04169445813864683,-0.13612524763964587,0.006172931624832978
66,66,53647.03468808771,3892.076199369138,27.991294632390467,53750.54796540086,-4594.289464438471,8.900688280280141,53779.52969094153,49910.086807247666,11.187895755733589,53808.027373699,-7023.858855648373,8.784082023395534,54018.27587705638,13301.363448080772,36.07348576164164,0.9878833753958328,119.0,58.0,82.0,241.0,323.0,61.0,1487.0,1486.0,76.0,41.0,35.0,0.5394736842105263,60.27695133877933,4645.42821984444,16.0,13.0,3.0,0.8125,953.7045761040484,9468.43151581352,27.0,14.0,13.0,0.5185185185185185,2051.529513705335,47637.195690411514,17.0,4.0,13.0,0.2352941176470588,1073.033930338784,17213.256005660805,89.0,44.0,45.0,0.4943820224719101,82.04973252005487,13874.627709777713,0.0,0.0,0.0,0.0,53620.0,53681.0,53739.0,53754.0,53766.0,53793.0,53804.0,53821.0,53976.0,54062.0,0.015487094355590866,-0.20758478182232107,0.04110450702336633,-0.15276985947345495,0.006168520455840463
67,67,54385.34897447016,3664.4648763090545,22.30871004795374,54488.972626301,-5109.350088324543,13.063145224658422,54517.86241307565,49729.25765752403,11.381922935797444,54546.2210630653,-8142.209059155802,10.332558443993968,54757.95304646361,12676.053965211757,33.1810216979477,0.9887772413821072,109.0,60.0,86.0,239.0,325.0,49.0,740.0,739.0,69.0,39.0,30.0,0.5652173913043478,67.55870135980896,4170.793268513049,20.0,16.0,4.0,0.8,923.0184785516526,8101.746695028436,27.0,14.0,13.0,0.5185185185185185,2047.5705690874768,47903.85918409989,19.0,4.0,15.0,0.2105263157894736,1126.4029546505255,18892.88449658503,84.0,42.0,42.0,0.5,81.16008570170852,13053.852531611315,0.0,0.0,0.0,0.0,54365.0,54414.0,54474.0,54493.0,54504.0,54531.0,54542.0,54560.0,54718.0,54799.0,0.0184361710755039,-0.18065281544532577,0.04117436425833474,-0.13834119788215227,0.006402630181635766
68,68,55126.85841004122,4152.266563649633,26.17071617053671,55230.54796540086,-4885.499309907418,9.032715093491923,55259.310253090414,49829.89271062926,11.223975228580716,55287.45203459914,-7467.005217545359,8.738793444645285,55498.60143652287,12603.565361831064,35.598077828547346,0.990245113501971,128.0,58.0,82.0,242.0,324.0,70.0,740.0,741.0,74.0,40.0,34.0,0.5405405405405406,68.77682599202568,4813.296092076593,17.0,14.0,3.0,0.8235294117647058,987.755426214265,9632.32745220805,27.0,13.0,14.0,0.4814814814814814,2051.992864969197,49811.79353621487,18.0,4.0,14.0,0.2222222222222222,1161.097321903763,18460.01856785351,87.0,44.0,43.0,0.5057471264367817,76.32433972748416,13066.064400054454,0.0,0.0,0.0,0.0,55090.0,55160.0,55218.0,55234.0,55246.0,55273.0,55284.0,55300.0,55456.0,55542.0,0.01656368273514076,-0.20218105940802666,0.041179957518381015,-0.1554970551213104,0.006055773706591517
69,69,55860.300249752014,3362.5585250651807,20.448527154634107,55960.972626301,-5141.6925244113345,17.83575780601681,55989.29444460169,50161.0936236898,11.280970028310524,56016.60271279886,-9502.019392896122,12.311422526549816,56228.85092407762,10902.02308867746,30.5354037065072,0.9864752079087036,106.0,57.0,87.0,236.0,323.0,49.0,731.0,730.0,49.0,21.0,28.0,0.4285714285714285,56.99168926648138,3719.6834472358128,24.0,20.0,4.0,0.8333333333333334,960.7484726626556,8213.314179543931,26.0,13.0,13.0,0.5,2065.442370154899,47116.85963071618,20.0,5.0,15.0,0.25,1160.9167326482482,20547.15146420838,80.0,40.0,40.0,0.5,73.03269763422334,11049.490817451246,0.0,0.0,0.0,0.0,55839.0,55888.0,55945.0,55965.0,55976.0,56002.0,56012.0,56032.0,56190.0,56268.0,0.016948906269334492,-0.18685451689327734,0.041176182992538335,-0.12217579070783313,0.006699004124296258
70,70,57295.32593363034,4312.445681653433,29.156747061739495,57399.54796540086,-4560.276665193317,8.961611715906674,57429.2137770779,50310.47695263899,11.209775751455991,57458.027373699,-6786.3190778676635,8.935581659544098,57669.89610485587,13723.535389903724,34.276529183383964,0.9910396120882938,132.0,58.0,82.0,241.0,323.0,74.0,1438.0,1440.0,76.0,40.0,36.0,0.5263157894736842,67.34853977230885,5121.099504605127,16.0,13.0,3.0,0.8125,906.3622797398292,8536.075181288554,27.0,13.0,14.0,0.4814814814814814,2046.7152852393435,50038.34037363375,17.0,4.0,13.0,0.2352941176470588,1043.029188751073,16953.897050367497,84.0,42.0,42.0,0.5,72.72798192267341,14068.43561212638,0.0,0.0,0.0,0.0,57256.0,57330.0,57388.0,57403.0,57416.0,57443.0,57454.0,57470.0,57630.0,57711.0,0.01561724940880572,-0.19875159914259438,0.040681691154827844,-0.15369586616590453,0.00529950773298393
71,71,58028.57729024283,4092.006738904781,28.002441127024905,58133.54796540086,-4742.802257239667,8.342449329242525,58163.094108991514,50160.46080017893,11.203953155200043,58191.464184297285,-7314.418954999286,9.167317026378829,58403.416787085174,13577.228811210596,32.75283815904235,0.9908128446722706,131.0,59.0,81.0,240.0,321.0,72.0,733.0,734.0,73.0,38.0,35.0,0.5205479452054794,59.40640179101092,4650.794989113342,15.0,12.0,3.0,0.8,928.3012288800586,8599.311668992104,27.0,14.0,13.0,0.5185185185185185,2054.13648230017,49235.183683115174,18.0,4.0,14.0,0.2222222222222222,1131.29178322676,18311.96977981612,82.0,40.0,42.0,0.4878048780487805,87.38803846788997,13965.898305020426,0.0,0.0,0.0,0.0,57992.0,58064.0,58123.0,58137.0,58149.0,58176.0,58188.0,58204.0,58364.0,58444.0,0.01451766958890956,-0.19572842773764182,0.04095130805283277,-0.15466598101460136,0.006436367809882857
72,72,58771.06655274406,4137.921316701294,30.50697045272845,58875.12330450071,-4451.627189239795,8.279439302084317,58904.206952869994,49653.69145624538,11.192792230738393,58932.50347111757,-7596.907856194565,8.709873671158352,59143.45310323977,12956.24768524213,35.77051828496662,0.9914145526511088,133.0,56.0,81.0,242.0,323.0,77.0,743.0,741.0,79.0,42.0,37.0,0.5316455696202531,62.77049713828449,4958.4035312624765,15.0,12.0,3.0,0.8,897.5162651908952,8496.090951161439,26.0,13.0,13.0,0.5,2037.970690917605,49144.04539198663,16.0,4.0,12.0,0.25,1064.726294280476,17220.14703606568,87.0,43.0,44.0,0.4942528735632184,79.6021238550018,13592.64870340282,0.0,0.0,0.0,0.0,58731.0,58808.0,58864.0,58878.0,58891.0,58917.0,58929.0,58945.0,59101.0,59187.0,0.015169572433611292,-0.2016153255960691,0.041043689424651454,-0.1401525876626622,0.006143918037756638
73,73,60250.039541951344,3550.0427762245367,22.71273520151342,60353.54796540086,-5470.838931321046,11.017236595838206,60382.15675002216,49399.86157304351,11.359726179532917,60411.027373699,-7893.132563787737,10.695737198883126,60623.09420228201,12792.200118754685,33.3371770679207,0.9896874093401926,117.0,58.0,85.0,239.0,324.0,59.0,1478.0,1478.0,62.0,30.0,32.0,0.4838709677419355,51.00461295920787,3909.4523231776857,19.0,16.0,3.0,0.8421052631578947,1002.9454987829048,9197.156812568406,26.0,13.0,13.0,0.5,2038.4349538676304,48628.13422443658,19.0,5.0,14.0,0.2631578947368421,1052.3401451171028,17952.693612531457,85.0,43.0,42.0,0.5058823529411764,78.41001525677808,13054.17416269116,0.0,0.0,0.0,0.0,60223.0,60282.0,60340.0,60357.0,60369.0,60395.0,60407.0,60425.0,60581.0,60664.0,0.014367323487141518,-0.18332572232038333,0.04126398109139566,-0.13332351086374108,0.006129517559830925
74,74,60996.6605185393,4260.525783447826,24.90776490743769,61098.12330450071,-4474.975093429341,8.973037393062233,61127.48701776951,50241.71457109531,11.292231077252996,61156.02737370247,-7213.886636691045,9.372103488112575,61368.733896900645,13467.870536338614,33.3479064978495,0.9918243626748297,119.0,58.0,83.0,241.0,324.0,61.0,744.0,745.0,64.0,32.0,32.0,0.5,70.64315301921197,4741.2485328156135,17.0,13.0,4.0,0.7647058823529411,880.844605611558,8308.40932103421,27.0,13.0,14.0,0.4814814814814814,2041.308094691538,50537.51449444398,18.0,4.0,14.0,0.2222222222222222,1079.7005348142022,17579.267824586466,83.0,42.0,41.0,0.5060240963855421,87.14911994728875,13884.962630865328,0.0,0.0,0.0,0.0,60967.0,61028.0,61086.0,61101.0,61114.0,61141.0,61152.0,61169.0,61328.0,61410.0,0.016580853305397453,-0.19683787892024532,0.04062974586193617,-0.14966973965499583,0.006470890829559547
75,75,61744.48816336993,3565.64078687175,22.166958765774226,61847.54796540086,-5071.796088832374,15.287792405182149,61876.29696520841,50377.45906748209,11.342357936217288,61904.60271279886,-8184.232960941182,11.322766834406291,62117.63366666624,12595.623062782586,32.32564532932522,0.9892607263513062,111.0,57.0,86.0,239.0,325.0,54.0,745.0,749.0,56.0,24.0,32.0,0.4285714285714285,63.502330631303735,3933.4815126430058,23.0,20.0,3.0,0.8695652173913043,974.6244611895838,8832.058121179594,26.0,13.0,13.0,0.5,2058.7910493542277,49036.2629018023,19.0,5.0,14.0,0.2631578947368421,1067.460418044824,18434.782696993818,84.0,43.0,41.0,0.5119047619047619,77.80844364719948,12913.10550487674,0.0,0.0,0.0,0.0,61722.0,61776.0,61833.0,61851.0,61863.0,61889.0,61900.0,61919.0,62076.0,62158.0,0.017809514313699655,-0.1921655453253763,0.04086730628070019,-0.13042888968816288,0.006177419192315071
76,76,62493.056223135936,3740.9020313318306,19.97884936393848,62592.54796540086,-5349.2392508604,11.302360061857184,62621.07856256477,48084.155730983584,11.317550130613691,62649.12826831675,-9222.843376184152,10.146362756947614,62859.30441551067,11624.500273545544,33.19125118867007,0.988718256631092,108.0,58.0,84.0,238.0,322.0,50.0,752.0,745.0,50.0,22.0,28.0,0.44,55.97661600367555,4054.119773075043,19.0,16.0,3.0,0.8421052631578947,976.5602663726708,8910.26394070511,26.0,13.0,13.0,0.5,2026.6501429132593,46814.674162200594,18.0,4.0,14.0,0.2222222222222222,1156.6527183045837,19784.413632639975,85.0,42.0,43.0,0.4941176470588235,67.80441040990239,11881.294265799605,0.0,0.0,0.0,0.0,62471.0,62521.0,62579.0,62596.0,62608.0,62634.0,62645.0,62663.0,62817.0,62901.0,0.014963400681131132,-0.1825605886324108,0.04214798226367451,-0.1254117272869851,0.0058328881942743185
77,77,63960.331358824114,3892.8649627380305,26.018243468548505,64062.54796540086,-4829.4470347880015,10.42082372251414,64091.74656561845,50247.626723494715,11.35023258110684,64120.45203459914,-7182.483013825026,9.268886041207358,64332.92316140613,13663.21717989104,34.072237316449645,0.9893064274532564,129.0,54.0,84.0,242.0,326.0,75.0,1466.0,1471.0,77.0,41.0,36.0,0.5324675324675324,58.83668253085411,4304.530647048391,19.0,16.0,3.0,0.8421052631578947,947.6315111193647,9175.697005901144,27.0,14.0,13.0,0.5185185185185185,2045.6304367104935,48647.42866737346,18.0,4.0,14.0,0.2222222222222222,1102.5339800670167,17936.898769408122,86.0,44.0,42.0,0.5116279069767442,88.99655891480252,14261.59365497111,0.0,0.0,0.0,0.0,63920.0,63995.0,64049.0,64066.0,64078.0,64105.0,64117.0,64133.0,64291.0,64375.0,0.015113979830800905,-0.1962194645252928,0.040710986171890194,-0.1535031796030469,0.006513587374266727
78,78,64705.50905807371,3647.56527036647,19.471441674116416,64805.12330450071,-5245.070320721435,11.759827992167828,64833.9182009698,49704.31353059532,11.430818084946344,64862.027373699,-8188.739582746165,10.62538867801177,65074.90550425329,13065.959183608897,33.108864677787544,0.9883713441575888,107.0,58.0,85.0,241.0,326.0,49.0,743.0,742.0,49.0,22.0,27.0,0.4489795918367347,62.04306841490246,3871.510326547811,20.0,16.0,4.0,0.8,926.902427097248,8242.58630893764,27.0,14.0,13.0,0.5185185185185185,2047.7701866913017,47963.753894695605,19.0,4.0,15.0,0.2105263157894736,1127.7834069325788,18930.21616571364,83.0,41.0,42.0,0.4939759036144578,69.13344512448614,13289.52417910289,0.0,0.0,0.0,0.0,64684.0,64733.0,64791.0,64808.0,64820.0,64847.0,64858.0,64876.0,65035.0,65117.0,0.01700944707390226,-0.17671877981032616,0.04119904372949047,-0.1377236869650661,0.005291111364499997
79,79,65446.29222512712,4165.424708314343,23.56098202536623,65548.54796540085,-4907.226507315437,10.242827269683984,65577.40575593653,49699.24780424493,11.25361025967801,65606.027373699,-7989.889145392229,9.273224801896715,65817.80193164693,13131.745895023954,34.917048997609704,0.9888980412296644,117.0,59.0,83.0,242.0,325.0,58.0,743.0,743.0,58.0,27.0,31.0,0.4655172413793103,60.75413358010103,4645.801873629889,18.0,15.0,3.0,0.8333333333333334,966.316210212212,9271.425106824325,27.0,13.0,14.0,0.4814814814814814,2050.90901307366,49861.10924588598,17.0,4.0,13.0,0.2352941176470588,1098.8124672812137,18149.24894400339,87.0,43.0,44.0,0.4942528735632184,78.46948909564647,13561.155471016868,0.0,0.0,0.0,0.0,65419.0,65477.0,65536.0,65552.0,65564.0,65591.0,65602.0,65619.0,65776.0,65861.0,0.0145853395114389,-0.1969169771910219,0.04126639946648221,-0.13752537078876734,0.00597555646621072
80,80,66913.36724756466,2497.4454634885155,15.235131461473715,67009.13136256128,-5498.889475509609,17.8357578060484,67040.58394102562,50191.97754937696,11.2004512815886,67068.60271279886,-9186.139324827458,14.566927877704124,67281.90343569689,11604.951873292624,29.67907791015423,0.9831901877872532,84.0,42.0,106.0,236.0,342.0,42.0,1467.0,1463.0,43.0,19.0,24.0,0.4418604651162791,44.57525276959724,2531.4497815277778,38.0,31.0,7.0,0.8157894736842105,682.8367511626699,2887.880712600422,26.0,14.0,12.0,0.5384615384615384,2048.2993408187526,44228.29396146263,20.0,5.0,15.0,0.25,1088.4783228040665,19930.968307306415,79.0,40.0,39.0,0.5063291139240507,72.55203321791275,11686.922132092965,0.0,0.0,0.0,0.0,66894.0,66936.0,66978.0,67016.0,67027.0,67053.0,67064.0,67084.0,67243.0,67320.0,0.017848338801093593,-0.1241772096354761,0.040809297438095825,-0.1184913797096705,0.00625181681148393
81,81,67631.34297603117,4029.2424672070506,29.26660288096114,67736.54796540085,-4787.848020328469,8.939657940216563,67766.12645956854,50246.86883168108,11.215545805828103,67794.45203459915,-6788.326333683335,8.852888804627316,68007.88578503883,14018.409411044138,35.13255231750991,0.9922867600077492,132.0,59.0,82.0,242.0,324.0,73.0,722.0,726.0,77.0,41.0,36.0,0.5324675324675324,78.61513514396908,4953.262484192634,17.0,13.0,4.0,0.7647058823529411,926.899107785343,8478.74640935657,26.0,13.0,13.0,0.5,2052.4724241077247,49710.17682671685,17.0,3.0,14.0,0.1764705882352941,1120.731255643443,17807.662789841594,84.0,42.0,42.0,0.5,82.47986922976166,14582.443638050194,0.0,0.0,0.0,0.0,67593.0,67666.0,67725.0,67740.0,67753.0,67779.0,67791.0,67807.0,67967.0,68049.0,0.019511145279490397,-0.19359409568763908,0.04084776766853228,-0.16509684428139978,0.005883682435810546
82,82,68350.72355477234,4223.238988437937,27.87443049110068,68454.54796540085,-4751.819897930468,8.96663062301195,68483.8445225203,50343.45508687911,11.148506589866978,68512.45203459915,-7161.721936486126,8.188619048793294,68722.51469219725,13581.378829796762,35.35906207556578,0.9886151214960656,133.0,57.0,81.0,242.0,323.0,76.0,715.0,718.0,76.0,41.0,35.0,0.5394736842105263,69.14292904031358,4895.08221328201,17.0,14.0,3.0,0.8235294117647058,944.4880015257374,8850.980863955656,27.0,14.0,13.0,0.5185185185185185,2059.943138124513,49109.46097541283,17.0,4.0,13.0,0.2352941176470588,1127.9267603741862,17791.43910246617,87.0,44.0,43.0,0.5057471264367817,83.23911896509726,14160.92246295192,0.0,0.0,0.0,0.0,68310.0,68386.0,68443.0,68458.0,68470.0,68497.0,68509.0,68524.0,68681.0,68766.0,0.016372014283256957,-0.19876342576390252,0.0409177942707669,-0.15749379414297668,0.006128915186613853
83,83,69764.35593190156,3505.0372946861507,21.279942342883256,69866.54796540085,-5383.1288296667635,10.236748592763025,69895.15715582977,48802.52344301553,11.270747672761756,69923.14079961038,-8324.129200312182,10.457880319082063,70134.58884003758,12168.11651269524,32.77120958849209,0.988926934773676,111.0,61.0,83.0,239.0,322.0,50.0,1414.0,1411.0,51.0,21.0,30.0,0.4117647058823529,63.70671166166529,3976.395772146683,18.0,15.0,3.0,0.8333333333333334,989.4213021402288,8976.407851032465,26.0,13.0,13.0,0.5,2051.328457341732,47783.50664720588,19.0,4.0,15.0,0.2105263157894736,1127.341295497264,19062.41945652509,83.0,42.0,41.0,0.5060240963855421,65.12092400054304,12304.359825707854,0.0,0.0,0.0,0.0,69743.0,69793.0,69854.0,69870.0,69882.0,69908.0,69919.0,69937.0,70095.0,70176.0,0.018175758574166537,-0.18380041300283684,0.04203324567298193,-0.13543053794203302,0.005351766966777568
84,84,70443.55434986645,3276.381213949853,21.26366052230294,70546.54796540085,-5670.3585033379595,11.87934952711144,70574.58830594052,49308.82033286596,11.440742164464703,70603.027373699,-8293.493457991892,10.48703141822968,70813.89848505631,13194.553782062325,32.044474979767514,0.988884698514412,108.0,59.0,85.0,237.0,322.0,49.0,681.0,679.0,50.0,21.0,29.0,0.42,59.698037614141896,3677.838666007484,22.0,19.0,3.0,0.8636363636363636,1048.8850403581027,10035.9112479709,27.0,14.0,13.0,0.5185185185185185,2039.320935258202,46812.61770367727,19.0,4.0,15.0,0.2105263157894736,1099.0259815787065,18680.22834755997,82.0,41.0,41.0,0.5,89.20984946261511,13567.364417694082,0.0,0.0,0.0,0.0,70424.0,70473.0,70532.0,70550.0,70561.0,70588.0,70599.0,70617.0,70774.0,70854.0,0.018220723937729062,-0.18497684753806262,0.041358136769273454,-0.13251665141420566,0.006761111511318687
85,85,71118.48998991669,4276.975763784863,32.27338972101683,71227.54796540085,-4850.719518333905,9.636134086406932,71256.56144955386,50417.136958298186,11.33963725305444,71284.52970368949,-7674.123778052817,9.180578067014643,71495.48955935793,13627.271291464016,35.86148674094197,0.9937869038560476,137.0,57.0,82.0,241.0,323.0,80.0,679.0,682.0,85.0,43.0,42.0,0.5058823529411764,67.84480314221486,4934.986787438478,18.0,15.0,3.0,0.8333333333333334,970.4055880989822,9646.982945476935,27.0,14.0,13.0,0.5185185185185185,2065.506719798158,48014.06040312007,17.0,4.0,13.0,0.2352941176470588,1103.2268818970813,17907.08744820785,88.0,44.0,44.0,0.5,86.45906526965409,14309.795362642912,0.0,0.0,0.0,0.0,71078.0,71158.0,71215.0,71231.0,71243.0,71270.0,71281.0,71297.0,71453.0,71538.0,0.01586279812868903,-0.20005394754968042,0.040968346169807546,-0.1437593285962097,0.006344561829029644
86,86,71820.92142897856,3138.9233371664823,16.354588518076792,71916.5421771706,-5679.103219783272,17.8357578060484,71948.89626728585,52604.25585943537,11.09770752906442,71976.60271279886,-8344.713408002879,20.38372320691171,72187.94104475493,10975.871294068502,29.43695676762578,0.9775865219793096,93.0,50.0,99.0,234.0,333.0,43.0,696.0,693.0,43.0,20.0,23.0,0.4651162790697674,56.32844287261212,3192.4966822857377,30.0,23.0,7.0,0.7666666666666667,676.7797995695273,2147.2644094136795,26.0,13.0,13.0,0.5,2070.0666692944815,45705.25914719344,22.0,5.0,17.0,0.2272727272727272,1103.688244188796,20469.84630278672,79.0,40.0,39.0,0.5063291139240507,70.11035454200392,10975.381108219735,0.0,0.0,0.0,0.0,71801.0,71844.0,71894.0,71924.0,71936.0,71962.0,71972.0,71993.0,72149.0,72227.0,0.017945147689863626,-0.11917018821069339,0.039351695703593606,-0.1322619711697132,0.006387680090590387
87,87,73224.92757745078,3425.2411166153593,20.527498185154755,73325.54796540085,-5198.019050105844,11.556069362519969,73354.59348223919,49250.42179262681,11.304144579657244,73383.027373699,-7905.795322792722,9.782765471431194,73595.02317244191,12869.60334582654,32.87380006746667,0.9876453367831884,108.0,59.0,84.0,240.0,324.0,49.0,1406.0,1406.0,49.0,21.0,28.0,0.4285714285714285,58.6170573645141,3742.5131755519087,20.0,16.0,4.0,0.8,943.9723703704868,8378.271146804114,27.0,14.0,13.0,0.5185185185185185,2038.8738258698495,46950.819707862225,18.0,4.0,14.0,0.2222222222222222,1092.207642206974,18223.00512301906,83.0,41.0,42.0,0.4939759036144578,78.8493328700013,13224.696613207703,0.0,0.0,0.0,0.0,73204.0,73253.0,73312.0,73329.0,73341.0,73368.0,73379.0,73396.0,73555.0,73636.0,0.017113264546595293,-0.18160232990128525,0.041398098770701,-0.13815278509147536,0.006126788118576414
88,88,73942.9186836075,3907.804769173172,21.165599880880347,74043.54796540085,-5049.6265374953855,11.591738199651882,74072.85179366916,49250.54252722488,11.332721648506332,74101.027373699,-8171.190166569409,9.97857428023688,74313.11276263694,12949.702999637577,33.069650396185324,0.9878338450340666,108.0,60.0,84.0,240.0,324.0,48.0,717.0,718.0,49.0,21.0,28.0,0.4285714285714285,73.67299149484228,4355.103276132886,19.0,15.0,4.0,0.7894736842105263,929.2758213016496,8206.221433041124,27.0,14.0,13.0,0.5185185185185185,2037.1698252597205,47435.172136165194,18.0,4.0,14.0,0.2222222222222222,1115.0355942980166,18780.8547102274,83.0,41.0,42.0,0.4939759036144578,81.82060650793501,13305.756702592938,0.0,0.0,0.0,0.0,73922.0,73970.0,74030.0,74047.0,74059.0,74086.0,74097.0,74114.0,74273.0,74354.0,0.018852782021254937,-0.1840286235826403,0.04136339866984423,-0.13645938615649095,0.006318338459980505
89,89,74673.59847872508,3350.9465375390346,20.38006793618565,74775.54796540085,-5293.171633799553,13.266907593553617,74803.6975224625,49089.49131838817,11.330389027941456,74832.027373699,-8515.441284434926,10.397040860257963,75044.41971278154,12001.873698769285,32.086229714929644,0.9875520055406812,110.0,59.0,85.0,239.0,324.0,51.0,729.0,731.0,51.0,23.0,28.0,0.4509803921568627,57.58974081955345,3622.172341227101,20.0,17.0,3.0,0.85,1013.7309097808284,9527.118361435389,27.0,14.0,13.0,0.5185185185185185,2039.636404092392,46716.35817900908,19.0,5.0,14.0,0.2631578947368421,1111.8624081477926,18942.138380983317,84.0,42.0,42.0,0.5,79.29851290265894,12344.690599206864,0.0,0.0,0.0,0.0,74651.0,74702.0,74761.0,74779.0,74790.0,74817.0,74828.0,74846.0,75004.0,75085.0,0.01718611149846869,-0.19151672757173574,0.041549348940358145,-0.13057014557544147,0.006607177753486149
90,90,76840.12953750971,3899.9178857603138,25.201660820278686,76944.54796540085,-4897.6614628882035,15.287792403661728,76973.61847696263,50332.036625975416,11.373250199328016,77002.027373699,-7680.674475598133,10.697697139255984,77215.26085238463,13322.716326581858,33.59008430949892,0.989921533440815,112.0,57.0,86.0,241.0,327.0,55.0,2172.0,2170.0,74.0,41.0,33.0,0.5540540540540541,68.59818515186524,4574.853694689542,21.0,17.0,4.0,0.8095238095238095,949.8723779814288,8470.171610155157,27.0,14.0,13.0,0.5185185185185185,2042.3117471027515,47417.8679651949,19.0,4.0,15.0,0.2105263157894736,1088.8638157664473,18368.69070407139,86.0,43.0,43.0,0.5,74.20224662358396,13621.251522526283,0.0,0.0,0.0,0.0,76818.0,76873.0,76930.0,76948.0,76960.0,76987.0,76998.0,77016.0,77174.0,77257.0,0.017589648592945074,-0.193944065995382,0.04057677542992077,-0.1417666923947655,0.005569603435564679
91,91,77566.761420638,3321.250562611371,19.13222154589216,77668.54796540085,-5452.04392479926,15.287792404910537,77696.93896977337,49955.94880433138,11.431149323572376,77725.027373699,-8411.267430146012,11.593956412159372,77937.36784894076,12300.948515982687,31.677468229409836,0.9844434813897052,108.0,59.0,86.0,239.0,325.0,49.0,719.0,723.0,50.0,22.0,28.0,0.44,54.7115916841452,3462.8973247981867,24.0,21.0,3.0,0.875,1011.4017888059814,9206.628787674748,26.0,13.0,13.0,0.5,2037.6648061590424,47411.17682690288,19.0,4.0,15.0,0.2105263157894736,1124.1871554813886,19294.94428211534,83.0,41.0,42.0,0.4939759036144578,74.01070509217286,12499.435040075648,0.0,0.0,0.0,0.0,77545.0,77594.0,77653.0,77672.0,77684.0,77710.0,77721.0,77739.0,77897.0,77978.0,0.016473190038732755,-0.18550873814598265,0.04078923241234422,-0.133652527971266,0.006016666519334696
92,92,78285.05011941135,3783.9269801445007,21.66443451978105,78387.54796540085,-5404.036622120163,11.226105103296142,78415.9628794304,49470.76514173302,11.3836547374539,78444.027373699,-8430.556340962617,10.879647192382668,78654.64904810881,12224.117417688412,33.466706576943565,0.9892375584308136,110.0,60.0,84.0,239.0,323.0,50.0,721.0,719.0,52.0,22.0,30.0,0.4230769230769231,63.820689067461835,4190.024640442947,19.0,16.0,3.0,0.8421052631578947,1013.3821786985072,9616.02987536214,26.0,13.0,13.0,0.5,2055.303419712997,47696.31391980534,19.0,4.0,15.0,0.2105263157894736,1123.6281468826376,19244.60412920469,84.0,42.0,42.0,0.5,75.7043489429942,12621.850797483166,0.0,0.0,0.0,0.0,78264.0,78314.0,78374.0,78391.0,78403.0,78429.0,78440.0,78458.0,78613.0,78697.0,0.016866258097037762,-0.18752318860136213,0.04154581829944579,-0.13328042675227997,0.006193031885758009
93,93,80415.50369852332,3813.949352341707,24.98175629913295,80518.54796540085,-4856.071160490579,12.565680933761524,80547.58496353842,50073.52538431552,11.372740075317326,80576.027373699,-7406.8503558262355,9.847238012102482,80787.73475749652,13434.659968067434,33.91574958347092,0.9885973042126768,128.0,56.0,84.0,240.0,324.0,72.0,2134.0,2131.0,73.0,40.0,33.0,0.547945205479452,54.93229419959516,4276.42362889703,20.0,17.0,3.0,0.85,951.500402266866,8968.877970546126,27.0,14.0,13.0,0.5185185185185185,2041.4275258508908,47716.329455056744,18.0,4.0,14.0,0.2222222222222222,1083.470714534961,17965.89874947922,85.0,43.0,42.0,0.5058823529411764,87.32792071875313,13977.860632359909,0.0,0.0,0.0,0.0,80377.0,80449.0,80505.0,80522.0,80534.0,80561.0,80572.0,80589.0,80746.0,80829.0,0.01440299519600793,-0.19594037459919383,0.04076859997739095,-0.14627954697136575,0.006500195831254462
94,94,81127.83517745543,3260.812931538617,18.483641202615903,81227.54796540085,-5738.124463370524,15.2877924051744,81256.22612972214,50488.63061252157,11.446549545247748,81284.027373699,-8556.30958834239,12.677918835729816,81496.3262340538,12456.03285929009,31.01073975642438,0.984665370735854,103.0,57.0,88.0,237.0,325.0,46.0,708.0,709.0,47.0,20.0,27.0,0.425531914893617,54.93901976674457,3452.7777860012516,26.0,22.0,4.0,0.8461538461538461,999.4085279280868,8714.894744362147,26.0,13.0,13.0,0.5,2056.2770717333483,48172.03165459967,20.0,4.0,16.0,0.2,1152.093292348402,19865.749771774674,81.0,40.0,41.0,0.4938271604938271,83.05511835479713,12756.359274789877,0.0,0.0,0.0,0.0,81108.0,81154.0,81211.0,81231.0,81243.0,81269.0,81280.0,81299.0,81457.0,81536.0,0.016848258676655074,-0.1741698937183811,0.04072752710435715,-0.13464838788887212,0.006667862817401938
95,95,81838.12707653186,4226.446746638311,23.707397827333025,81939.54796540085,-5204.905633974912,9.406821080700643,81968.09116369579,49952.87726348479,11.296702771529825,81996.45203459915,-7482.647336215592,9.241510879636236,82205.52579821827,13139.765722725067,35.26588409480308,0.9896343380290868,111.0,59.0,82.0,240.0,322.0,52.0,709.0,712.0,52.0,22.0,30.0,0.4230769230769231,70.61868273067314,4813.330136902296,18.0,15.0,3.0,0.8333333333333334,1016.1694020459936,9942.891153303755,26.0,13.0,13.0,0.5,2061.4676157030776,49409.53135146574,18.0,4.0,14.0,0.2222222222222222,1134.1724980798824,18411.99705393253,88.0,44.0,44.0,0.5,72.60084167972983,13500.510465208532,0.0,0.0,0.0,0.0,81816.0,81868.0,81927.0,81943.0,81955.0,81981.0,81993.0,82009.0,82163.0,82249.0,0.01670875961866615,-0.19523301160600667,0.041268245767496485,-0.1515736940575231,0.005525276721956126
96,96,83253.68097004635,3988.118018922638,32.23300571445468,83358.54796540085,-4488.599770456802,7.961874270836451,83387.79664802486,49568.06444250317,11.08419006905926,83416.22821500836,-7665.348518459064,8.706936365735533,83625.67731359351,12812.127298479614,37.736543793424985,0.9924993773716284,133.0,59.0,81.0,241.0,322.0,74.0,1425.0,1420.0,79.0,43.0,36.0,0.5443037974683544,68.23280913726039,5017.865160295221,14.0,11.0,3.0,0.7857142857142857,931.7547929601348,8853.213398764696,27.0,14.0,13.0,0.5185185185185185,2046.4374690409084,47826.28818462519,17.0,4.0,13.0,0.2352941176470588,1116.1854409730886,18111.418257881796,90.0,46.0,44.0,0.5111111111111111,79.37289774237372,13609.907612849967,0.0,0.0,0.0,0.0,83215.0,83289.0,83348.0,83362.0,83374.0,83401.0,83412.0,83429.0,83581.0,83670.0,0.017109024560836093,-0.20758250693073282,0.04128540204378341,-0.14561444118100858,0.00619513808232242
97,97,83967.21076948439,3760.619424850478,24.28964014382568,84071.12330450071,-5294.353749704038,11.554753705615434,84099.34700935833,50181.35251714268,11.351830221629296,84128.027373699,-7339.224648761196,9.7844091196001,84339.51229801502,13092.601904809264,32.85926831593514,0.9892657344889546,111.0,58.0,84.0,239.0,323.0,53.0,706.0,711.0,54.0,22.0,32.0,0.4074074074074074,66.3906033914873,4398.222935410395,19.0,16.0,3.0,0.8421052631578947,980.116723499734,9042.580122458436,27.0,13.0,14.0,0.4814814814814814,2062.027615134373,50345.12070464429,18.0,4.0,14.0,0.2222222222222222,1065.542981619204,17612.119587280555,83.0,42.0,41.0,0.5060240963855421,74.50410452576138,13335.90616938995,0.0,0.0,0.0,0.0,83946.0,83999.0,84057.0,84074.0,84086.0,84113.0,84124.0,84141.0,84299.0,84380.0,0.01765416701109738,-0.1851249028372016,0.04109151132245697,-0.14518467993741813,0.005690549905011166
98,98,84682.09888275767,3847.269539471827,26.265373836206063,84787.54796540085,-5199.132195856487,10.59070671989456,84816.24176924898,49815.201393939955,11.270879033231449,84845.027373699,-7450.178994256508,9.383525376862082,85055.52186719069,13519.83201182712,32.69062675347972,0.9877390392651734,134.0,57.0,84.0,238.0,322.0,77.0,719.0,717.0,77.0,42.0,35.0,0.5454545454545454,63.553408173447984,4487.943559707353,18.0,15.0,3.0,0.8333333333333334,990.6936660897634,9249.049206636902,27.0,13.0,14.0,0.4814814814814814,2054.452064447524,49728.95560372004,17.0,4.0,13.0,0.2352941176470588,1059.1342345461062,17512.8857655169,82.0,41.0,41.0,0.5,86.73676738532001,13908.621191939725,0.0,0.0,0.0,0.0,84640.0,84717.0,84774.0,84791.0,84803.0,84830.0,84841.0,84858.0,85016.0,85096.0,0.01651909426189383,-0.19054981269360857,0.04124146860715993,-0.14216225346567027,0.006415521088534448
99,99,85402.21099971847,3485.0080437853017,19.021879140137393,85504.54796540085,-5709.2973878281755,15.28779240518434,85533.48566870754,50257.44862049586,11.436246027688776,85561.60271279886,-8428.69820777895,12.768935428832606,85772.98630266495,12775.883351445564,31.446024205428895,0.9877926037214588,105.0,60.0,88.0,237.0,325.0,45.0,718.0,717.0,46.0,20.0,26.0,0.4347826086956521,67.98292828622738,3846.7431025223273,24.0,20.0,4.0,0.8333333333333334,978.5129532832818,8153.013672128605,27.0,13.0,14.0,0.4814814814814814,2038.8902543436177,48719.181699121975,20.0,5.0,15.0,0.25,1082.9916773587456,18953.14648210442,82.0,41.0,41.0,0.5,75.72797112972464,12927.388334438589,0.0,0.0,0.0,0.0,85383.0,85428.0,85488.0,85508.0,85520.0,85547.0,85557.0,85576.0,85733.0,85813.0,0.0195072514703256,-0.17138938240796553,0.040568916853294515,-0.12848860531739517,0.005927415666420919
100,100,86125.20119745276,3918.7838977256865,25.257955352913392,86229.54796540085,-5002.404008430317,10.253393949730318,86258.16143017402,49789.34279301662,11.268630792401952,86287.027373699,-7888.521236652581,9.236519252132371,86497.39665726718,13193.237580809067,33.72742860213123,0.990150014441228,129.0,57.0,84.0,239.0,323.0,72.0,727.0,725.0,74.0,39.0,35.0,0.527027027027027,53.98622346016685,4343.328090387339,19.0,16.0,3.0,0.8421052631578947,990.555743862704,9683.58261352228,27.0,13.0,14.0,0.4814814814814814,2051.021434169312,49393.35967194666,18.0,5.0,13.0,0.2777777777777778,1076.3562064394168,17827.637391285312,84.0,41.0,43.0,0.4880952380952381,72.73905430816806,13542.854589862744,0.0,0.0,0.0,0.0,86087.0,86159.0,86216.0,86233.0,86245.0,86272.0,86283.0,86300.0,86457.0,86539.0,0.013776269595141085,-0.19801594237358017,0.041193984879370316,-0.13644587802316147,0.005513358935791058
101,101,87555.39535995244,3870.221364763336,29.621812193642807,87661.12330450071,-4938.795477515446,8.680551020141776,87689.73459398303,49164.97925715215,11.16876689020737,87718.027373699,-8245.88002515625,9.09496543930264,87928.24781407132,13128.472989773823,36.02013134267188,0.99213996215032,112.0,58.0,82.0,240.0,322.0,54.0,1427.0,1431.0,79.0,42.0,37.0,0.5316455696202531,77.21427332236719,4824.168788144234,15.0,12.0,3.0,0.8,933.1319648723958,8452.694498198665,27.0,14.0,13.0,0.5185185185185185,2047.9061449428152,47242.17460455367,17.0,4.0,13.0,0.2352941176470588,1124.7128592866695,18586.00849670949,86.0,43.0,43.0,0.5,70.58915101881284,13670.135198121348,0.0,0.0,0.0,0.0,87537.0,87591.0,87649.0,87664.0,87676.0,87703.0,87714.0,87731.0,87886.0,87971.0,0.019950867416879355,-0.18893917942555205,0.04165375793675132,-0.1363969468213743,0.005376798282160989
102,102,88274.73897007838,4224.330663443351,28.47203006577379,88379.12330450071,-4368.950614388032,7.587337254933637,88408.21142788569,50927.091157793606,11.094007590721008,88437.027373699,-6472.706108560319,7.927849128276656,88648.11551503609,13848.999715378022,34.369237847380475,0.9907060016814732,118.0,60.0,80.0,240.0,320.0,58.0,720.0,719.0,76.0,41.0,35.0,0.5394736842105263,71.23368558908598,5108.5333271135,14.0,11.0,3.0,0.7857142857142857,912.061791913039,8723.89165146822,27.0,13.0,14.0,0.4814814814814814,2064.372998338191,50701.76167254925,16.0,4.0,12.0,0.25,1053.5701282771686,16386.025698489826,84.0,42.0,42.0,0.5,87.44035609021758,14428.82519219341,0.0,0.0,0.0,0.0,88251.0,88309.0,88369.0,88382.0,88395.0,88422.0,88433.0,88449.0,88607.0,88689.0,0.016862715365899346,-0.20875992255655043,0.04053585137902129,-0.1627711981058116,0.0063138391138186836
103,103,88998.56480832565,3149.99058503651,20.33874015069355,89099.972626301,-5225.688422999314,17.8357578060484,89128.68597579685,50830.59202929185,11.339326379430467,89157.027373699,-8081.206010736269,10.763656360216666,89369.80380913062,12956.716501294535,30.213985681261978,0.987585173636878,105.0,56.0,88.0,237.0,325.0,49.0,722.0,721.0,49.0,21.0,28.0,0.4285714285714285,61.0748014052134,3504.0713013828654,24.0,20.0,4.0,0.8333333333333334,940.7354294043804,7882.715710520437,27.0,14.0,13.0,0.5185185185185185,2058.5923417805943,47556.870667041774,19.0,4.0,15.0,0.2105263157894736,1109.1482384608282,18870.437773843776,77.0,39.0,38.0,0.5064935064935064,83.89408050652479,13196.259088477818,0.0,0.0,0.0,0.0,88978.0,89027.0,89083.0,89104.0,89115.0,89142.0,89153.0,89171.0,89332.0,89408.0,0.019388883793919502,-0.18002133943998902,0.04049908253270592,-0.13725033577751536,0.006474949150746853
104,104,89726.25984708832,3887.2992611766817,25.24625480763264,89828.12330450071,-5042.825317283394,9.202983714496373,89857.17363484611,49272.55805240055,11.283204185042072,89885.02737370542,-8053.988588872349,10.284450773527674,90096.90983066388,12563.927015484824,32.90782709903784,0.990808725253009,116.0,56.0,83.0,239.0,322.0,60.0,728.0,728.0,74.0,40.0,34.0,0.5405405405405406,54.88581748618303,4361.353959897695,17.0,13.0,4.0,0.7647058823529411,909.9120265426874,7917.043892853411,26.0,13.0,13.0,0.5,2051.0625317449285,48209.98856598283,19.0,4.0,15.0,0.2105263157894736,1124.8552126062966,18859.487657482285,83.0,41.0,42.0,0.4939759036144578,67.8429799849051,12717.017964493563,0.0,0.0,0.0,0.0,89700.0,89760.0,89816.0,89831.0,89844.0,89870.0,89881.0,89899.0,90057.0,90138.0,0.014119267336667346,-0.18043695137012272,0.04162687331077184,-0.13966436631912205,0.005399822834157648
105,105,90443.7804005944,4112.421977798344,30.432242236429012,90547.12330450072,-4339.559304391247,7.507513911885267,90575.869608436,49451.11238406266,11.024516732800455,90604.14754485695,-7951.009540551452,8.198270022408446,90813.03127064262,12359.196698033396,37.08194911984769,0.9889474627894425,117.0,57.0,79.0,241.0,320.0,60.0,719.0,719.0,80.0,43.0,37.0,0.5375,72.93053619298368,4997.521176750535,13.0,10.0,3.0,0.7692307692307693,908.8620618425954,8652.695046509474,27.0,14.0,13.0,0.5185185185185185,2051.474371806434,47979.22960456213,16.0,4.0,12.0,0.25,1144.0664802886183,18263.527867503955,88.0,43.0,45.0,0.4886363636363636,76.87266112561223,13095.056578257443,0.0,0.0,0.0,0.0,90420.0,90480.0,90537.0,90550.0,90562.0,90589.0,90600.0,90616.0,90771.0,90857.0,0.01773420543580216,-0.20943648838325774,0.041484898375462896,-0.1438894613889836,0.006219875207410871
106,106,91145.56152939513,3385.874483558725,64.98113315567973,91259.54796540084,-4153.735667233735,15.28779240518434,91288.99708179584,50256.19163304334,11.25207353662383,91317.64628729582,-7788.0480045961,8.471482570299779,91529.02329339,13455.283083794107,37.08134151790784,0.9907589068796346,132.0,56.0,80.0,242.0,322.0,76.0,711.0,713.0,92.0,39.0,53.0,0.4239130434782608,84.06598776146383,4905.877394709367,14.0,11.0,3.0,0.7857142857142857,880.5354598412453,8713.787751319396,27.0,13.0,14.0,0.4814814814814814,2030.7397452109792,49340.50049316347,16.0,4.0,12.0,0.25,1085.3101322254556,17411.448844844123,86.0,43.0,43.0,0.5,83.6962830853104,14318.076272000626,0.0,0.0,0.0,0.0,91118.0,91194.0,91250.0,91263.0,91276.0,91303.0,91314.0,91330.0,91487.0,91572.0,0.02482844186034511,-0.21198639739818972,0.04040775234301224,-0.13935586061936986,0.006220328666746252
107,107,91876.2908014934,4137.249817408139,31.15228542803745,91981.12330450072,-4730.862482829194,8.724479462239076,92010.52762782756,50309.04608883295,11.22241666582098,92039.027373699,-6809.700408063717,8.828102647902755,92251.28374233047,13804.512251639522,34.07251096469043,0.9897842521071092,135.0,57.0,81.0,241.0,322.0,78.0,724.0,721.0,81.0,43.0,38.0,0.5308641975308642,70.44777775523875,4954.101230084667,16.0,12.0,4.0,0.75,888.2389613548447,7829.273011343756,27.0,14.0,13.0,0.5185185185185185,2049.5258658173875,47940.274792640994,17.0,4.0,13.0,0.2352941176470588,1068.0440291412656,17164.402211552722,83.0,41.0,42.0,0.4939759036144578,89.92791836944544,14548.002265744815,0.0,0.0,0.0,0.0,91835.0,91913.0,91970.0,91984.0,91997.0,92024.0,92035.0,92051.0,92211.0,92292.0,0.017027682848354594,-0.18775412825435836,0.04073871450868791,-0.15684155912006637,0.006514385784167416
108,108,92599.88277500447,3895.7756475768297,26.227630498935653,92702.12330450072,-4942.087811621592,9.340102421838896,92731.09901046364,50109.33292652774,11.302589586243847,92759.4520346006,-6962.726896690099,9.05046670153515,92971.40368941583,12963.504866231366,32.48128335377708,0.9908943082561972,129.0,56.0,82.0,239.0,321.0,73.0,719.0,721.0,75.0,41.0,34.0,0.5466666666666666,67.65464632478346,4536.460747291199,16.0,13.0,3.0,0.8125,926.910663087046,8408.49209288241,26.0,13.0,13.0,0.5,2044.7764056460328,49537.529325576834,17.0,3.0,14.0,0.1764705882352941,1116.7697827459676,17911.518891012012,82.0,41.0,41.0,0.5,87.81743499990026,13369.490969863658,0.0,0.0,0.0,0.0,92561.0,92634.0,92690.0,92705.0,92718.0,92744.0,92756.0,92772.0,92931.0,93011.0,0.017366155663215515,-0.18755447058374086,0.040806298671829534,-0.16039258746122173,0.006774204654225563
109,109,93317.83977534225,4154.924046141988,29.797334231386017,93421.12330450072,-4509.394039655631,8.528159140144213,93449.96658353106,49964.74148208712,11.20175306337225,93478.1142922044,-7479.672776122834,8.765364704900358,93689.57088884249,12444.027441081158,33.43530069380669,0.991088551889508,134.0,55.0,82.0,240.0,322.0,79.0,719.0,719.0,79.0,43.0,36.0,0.5443037974683544,58.32179013906463,4857.050184439378,15.0,12.0,3.0,0.8,910.4271545340392,8811.07972158573,27.0,14.0,13.0,0.5185185185185185,2057.099454729427,48846.02421950025,17.0,4.0,13.0,0.2352941176470588,1130.4424986568245,18074.18540804828,84.0,42.0,42.0,0.5,81.61872736758444,12916.480996380244,0.0,0.0,0.0,0.0,93275.0,93354.0,93409.0,93424.0,93436.0,93463.0,93474.0,93491.0,93649.0,93731.0,0.014036788516800623,-0.20189567523435276,0.04117102167869554,-0.1511352879320479,0.006558867517290951
110,110,94026.79343975116,3715.575864960569,24.7574902323857,94130.12330450072,-5101.8292829455595,8.780158443704517,94158.63747219877,49005.10069630287,11.162000496655194,94187.17749941075,-8583.281634242061,9.461335039631704,94396.25868608528,11521.42916164048,33.08049126518511,0.9908269248818276,129.0,58.0,82.0,237.0,319.0,71.0,713.0,708.0,73.0,40.0,33.0,0.547945205479452,56.71509484246778,4199.293243582859,16.0,12.0,4.0,0.75,939.9463669209237,8449.539767508995,27.0,14.0,13.0,0.5185185185185185,2055.9194045878676,46746.8894792984,19.0,5.0,14.0,0.2631578947368421,1120.0110857813872,18842.78442312636,84.0,42.0,42.0,0.5,62.52597231527871,11755.50800599367,0.0,0.0,0.0,0.0,93989.0,94060.0,94118.0,94133.0,94145.0,94172.0,94183.0,94200.0,94355.0,94437.0,0.015264146636680142,-0.18423712648774523,0.04195317171836714,-0.1304875143923072,0.005426928503232314
111,111,94729.94305035118,3199.7944476721427,18.434426420847725,94829.54796540084,-5299.641316436475,15.28779239996144,94858.55460830232,50025.84466198792,11.45214585807467,94886.027373699,-9198.95893410446,12.283043854334656,95099.0994915636,11788.725080632024,30.562930455476025,0.9864192756544728,105.0,58.0,86.0,237.0,323.0,47.0,699.0,700.0,47.0,20.0,27.0,0.425531914893617,47.65694089530123,3352.3597000510144,23.0,19.0,4.0,0.8260869565217391,961.0021846018616,8244.65619273362,26.0,14.0,12.0,0.5384615384615384,2045.0956931828168,45408.44407619492,20.0,4.0,16.0,0.2,1187.1407430003503,20678.011975790432,78.0,39.0,39.0,0.5,79.43211710960695,12071.282295179906,0.0,0.0,0.0,0.0,94710.0,94757.0,94815.0,94833.0,94845.0,94871.0,94882.0,94901.0,95061.0,95138.0,0.01489375073138581,-0.18133343885394262,0.040880782863358237,-0.1290516406806768,0.006737973493003739
112,112,95432.70676368206,3865.003592254058,29.498600029214487,95538.12330450072,-4839.208671987088,9.554058460363006,95566.86979723636,50056.45051346733,11.33395371327622,95595.45203459916,-6898.4843225900995,9.337716090353195,95807.5561954606,13144.628295482456,32.34415364921526,0.9913489179882512,132.0,55.0,83.0,239.0,322.0,77.0,707.0,709.0,78.0,41.0,37.0,0.5256410256410257,56.56429983885989,4452.342468305247,18.0,15.0,3.0,0.8333333333333334,935.1990836645308,8928.1513432685,27.0,14.0,13.0,0.5185185185185185,2039.8049827311356,48835.98897164904,18.0,4.0,14.0,0.2222222222222222,1092.4027027174998,17682.305266852734,81.0,41.0,40.0,0.5061728395061729,82.58736536228601,13497.345288935345,0.0,0.0,0.0,0.0,95393.0,95470.0,95525.0,95541.0,95553.0,95580.0,95592.0,95608.0,95768.0,95847.0,0.014634992824384872,-0.19325454781029666,0.040750092381846785,-0.15835401685849554,0.006282974573778523
113,113,96145.1029443626,3846.163619655999,26.64439806749143,96250.54796540084,-5039.229058907012,11.226950041866248,96279.73827374078,49622.24308474528,11.339167985829986,96308.027373699,-7924.8306088764975,9.6197690620072,96521.16383024586,13101.904037886094,32.15144634739406,0.9892734022755236,132.0,57.0,83.0,240.0,323.0,75.0,713.0,713.0,77.0,40.0,37.0,0.5194805194805194,60.49327351887077,4400.52929883532,18.0,15.0,3.0,0.8333333333333334,943.7104685612538,8498.74037003126,27.0,14.0,13.0,0.5185185185185185,2046.4080528014315,47720.61983485706,18.0,4.0,14.0,0.2222222222222222,1114.9830236387045,18387.62186248032,80.0,40.0,40.0,0.5,80.44022692360873,13528.268828367622,0.0,0.0,0.0,0.0,96106.0,96181.0,96238.0,96254.0,96266.0,96293.0,96304.0,96321.0,96482.0,96561.0,0.01572821114778297,-0.1872727866762105,0.04123973294207114,-0.14069487143230883,0.006139582971376062
114,114,96866.0746599379,3635.6314728217462,24.35469287807243,96969.54796540084,-5546.021232874658,10.909408012796495,96998.43846185654,49019.65487581177,11.444204024269805,97026.027373699,-8635.596535953531,11.142150260846703,97238.04864146531,11680.525950100684,31.963349144903376,0.9897959864530482,129.0,57.0,85.0,237.0,322.0,72.0,717.0,718.0,73.0,40.0,33.0,0.547945205479452,61.37980336962111,4088.996847203144,19.0,16.0,3.0,0.8421052631578947,975.832411984984,8819.143149552747,26.0,13.0,13.0,0.5,2033.3333835453832,48301.07630469011,19.0,4.0,15.0,0.2105263157894736,1158.3621533276194,19635.052877683673,82.0,41.0,41.0,0.5,75.98427214675878,11946.320916339671,0.0,0.0,0.0,0.0,96827.0,96899.0,96956.0,96973.0,96985.0,97011.0,97022.0,97041.0,97198.0,97278.0,0.016882845202674517,-0.1759517987779471,0.04147996122569011,-0.13413805850063543,0.006505209822859373
115,115,97579.8333876627,3974.203837984425,28.356833727210336,97684.54796540084,-4642.051290755332,8.666786907458174,97713.84660250969,48937.90082250424,11.044116015607484,97742.44880286504,-8455.793063262196,9.267479418165584,97952.153018266,11658.12646328965,34.45704410874699,0.9899953711801392,134.0,59.0,81.0,239.0,320.0,75.0,718.0,716.0,78.0,42.0,36.0,0.5384615384615384,65.91699176446738,4750.236893248577,16.0,12.0,4.0,0.75,910.0744692421428,8280.073997003374,27.0,14.0,13.0,0.5185185185185185,2055.6144673691306,47178.93708881408,18.0,4.0,14.0,0.2222222222222222,1131.188287368373,18973.94997418471,85.0,42.0,43.0,0.4941176470588235,69.15748893098474,12095.765534972168,0.0,0.0,0.0,0.0,97540.0,97615.0,97674.0,97688.0,97700.0,97727.0,97738.0,97755.0,97911.0,97994.0,0.01658621310121278,-0.1960500675756342,0.04200454929247496,-0.13377672311814678,0.005932127186023862
116,116,98296.3462979334,3875.976750405245,24.790932357736743,98400.54796540084,-5306.485491236251,10.841389065674424,98429.66575274237,49475.30444705995,11.35043268929,98458.02737369902,-7937.007083292204,10.472032358938256,98670.851028828,12642.620088064365,31.75513324407835,0.989675097437492,126.0,57.0,85.0,238.0,323.0,69.0,710.0,716.0,70.0,36.0,34.0,0.5142857142857142,61.095103598883576,4421.815394006285,19.0,15.0,4.0,0.7894736842105263,955.7940235373244,8486.69166160359,27.0,14.0,13.0,0.5185185185185185,2042.4560562336665,47105.03571379163,19.0,4.0,15.0,0.2105263157894736,1092.967722941799,18377.70021819587,80.0,40.0,40.0,0.5,81.94751837864115,13044.31952453468,0.0,0.0,0.0,0.0,98261.0,98330.0,98387.0,98404.0,98416.0,98443.0,98454.0,98472.0,98632.0,98710.0,0.01576250517820983,-0.18011808853823008,0.0412823342687897,-0.13770527246253195,0.006481846152761175
117,117,99020.35778616792,4215.740408377505,28.881509395700327,99124.54796540084,-4407.00428600781,8.455564130274162,99154.18589425155,50420.49357779164,11.14915666093269,99183.027373699,-6720.453596451806,8.21868260764911,99394.54856105526,13510.097785799317,34.99912791145137,0.9896839597674294,134.0,57.0,81.0,241.0,322.0,77.0,729.0,724.0,79.0,41.0,38.0,0.5189873417721519,61.04124325885268,4788.87094075077,15.0,12.0,3.0,0.8,910.6434430467024,8696.308169121754,27.0,13.0,14.0,0.4814814814814814,2043.8559523917552,50072.08022991101,16.0,4.0,12.0,0.25,1051.6452280631956,16674.204174714236,85.0,43.0,42.0,0.5058823529411764,84.22203296930475,14191.001108766251,0.0,0.0,0.0,0.0,98980.0,99057.0,99114.0,99128.0,99141.0,99168.0,99179.0,99195.0,99353.0,99436.0,0.014479364796170022,-0.20663547932957207,0.040536214688941447,-0.1564842629995142,0.006234006171134594
118,118,99752.16877273422,3539.491809306073,24.412921090187552,99855.972626301,-5270.850788948458,11.499678810145912,99884.7505912752,49276.32551325059,11.347331747319286,99913.10682363996,-8148.328272656024,9.561901492383743,100124.69701601834,12171.050916900236,33.18359991407256,0.9891477184560126,130.0,58.0,83.0,240.0,323.0,72.0,730.0,731.0,74.0,40.0,34.0,0.5405405405405406,58.18485309062921,4057.586517262499,19.0,15.0,4.0,0.7894736842105263,940.2467862470742,8107.798730409157,27.0,14.0,13.0,0.5185185185185185,2041.363312277864,47575.22823250126,18.0,4.0,14.0,0.2222222222222222,1121.2700972932623,18573.88846354209,85.0,43.0,42.0,0.5058823529411764,74.9898338587001,12585.949671213926,0.0,0.0,0.0,0.0,99713.0,99785.0,99843.0,99860.0,99871.0,99898.0,99909.0,99926.0,100083.0,100166.0,0.016438759072036534,-0.17838615128671753,0.0414268574414895,-0.13760737905663364,0.0061613277580305085
119,119,100485.31211601711,3789.691257738996,22.563398709508704,100586.12330450072,-5089.758339752877,9.489261315782214,100614.78404873348,49052.26881450928,11.190115857607198,100642.95733018775,-8625.314327817723,9.64961982259148,100853.26362287757,11139.91490970114,33.281214980798005,0.9891408356092348,112.0,59.0,82.0,240.0,322.0,53.0,732.0,730.0,53.0,23.0,30.0,0.4339622641509434,67.18158687844041,4394.703165367044,17.0,13.0,4.0,0.7647058823529411,921.6764043189658,8204.028326204862,27.0,14.0,13.0,0.5185185185185185,2063.898607390223,47100.34600494581,19.0,5.0,14.0,0.2631578947368421,1124.9497231666353,18958.724967718525,86.0,42.0,44.0,0.4883720930232558,63.35114188289608,11303.246634711188,0.0,0.0,0.0,0.0,100462.0,100515.0,100574.0,100589.0,100601.0,100628.0,100639.0,100656.0,100812.0,100896.0,0.017727456489033955,-0.18108451183631558,0.04207549736781467,-0.13042420025650903,0.005686860482904322
120,120,101208.68374004314,3454.3734498893464,24.47271616456448,101313.54796540084,-5336.832532972989,15.287792404944136,101341.5831626558,50218.194563116966,11.358369629263876,101370.15644751876,-8302.131755474535,10.362156508725908,101582.84062223906,12508.69354836855,33.28086752526208,0.9889859675731978,110.0,55.0,87.0,240.0,327.0,55.0,723.0,727.0,57.0,24.0,33.0,0.4210526315789473,59.02458898717699,3988.1228716570113,27.0,24.0,3.0,0.8888888888888888,1032.3391813387798,9870.455583456198,27.0,14.0,13.0,0.5185185185185185,2055.925985571284,47375.609753239725,19.0,4.0,15.0,0.2105263157894736,1116.2425253029955,18885.739102796415,83.0,42.0,41.0,0.5060240963855421,77.282590140567,12905.511243158482,0.0,0.0,0.0,0.0,101187.0,101242.0,101297.0,101317.0,101328.0,101355.0,101366.0,101384.0,101542.0,101624.0,0.01708691600471504,-0.19343668270656691,0.04093986260273225,-0.13445251872411332,0.006178310296093759
121,121,101941.45752475086,3838.1456812449032,28.2750008520855,102047.54796540084,-4962.466746052395,9.446456167283586,102076.6476608308,49585.06567253026,11.34643302278142,102105.027373699,-7688.71974112089,9.774239671115044,102319.15242119457,13199.39001510281,33.085346450899564,0.9905907066356116,131.0,57.0,83.0,241.0,324.0,74.0,735.0,734.0,78.0,40.0,38.0,0.5128205128205128,69.65634551886164,4636.762850775125,17.0,14.0,3.0,0.8235294117647058,963.1361269982428,9165.52674117314,27.0,14.0,13.0,0.5185185185185185,2029.8154100189872,47271.003926897014,18.0,4.0,14.0,0.2222222222222222,1095.9094603450856,18108.686686565423,83.0,42.0,41.0,0.5060240963855421,91.58407013554668,13860.232233318073,0.0,0.0,0.0,0.0,101904.0,101978.0,102035.0,102051.0,102063.0,102090.0,102101.0,102118.0,102278.0,102359.0,0.01814843711098235,-0.1940841473173418,0.04093602342738227,-0.14253471283182964,0.006938507766704046
122,122,102671.11528357156,4320.363044548704,30.010465616479248,102773.12330450072,-3927.435989785082,8.231742880628907,102802.66498841847,49542.70372258515,11.149372291210431,102831.027373699,-7229.360074574406,8.200339843924514,103041.59641903674,12647.71435326478,37.95773256852336,0.9935920705670296,133.0,56.0,81.0,243.0,324.0,77.0,728.0,727.0,79.0,43.0,36.0,0.5443037974683544,77.38762767088065,5188.22363405776,15.0,12.0,3.0,0.8,830.1913503286469,8134.19443143192,27.0,14.0,13.0,0.5185185185185185,2017.236713507756,47526.99935089633,17.0,4.0,13.0,0.2352941176470588,1099.9836510821408,17445.683424965606,89.0,44.0,45.0,0.4943820224719101,67.47018915598079,13191.539942089425,0.0,0.0,0.0,0.0,102629.0,102706.0,102762.0,102776.0,102789.0,102816.0,102827.0,102843.0,102998.0,103086.0,0.01791229738633328,-0.21138252857281498,0.04071713011068779,-0.1521550510329086,0.005334575660982142
123,123,103380.6948339047,3400.435872460744,20.13049459968807,103480.54796540084,-4909.585845884187,10.950583006675853,103509.65221143662,48557.67287857756,11.221424177429917,103538.027373699,-8652.652900367993,9.85887373705023,103748.2125165384,11807.45987443537,33.322271267479806,0.9904569392172228,108.0,60.0,83.0,238.0,321.0,48.0,704.0,706.0,48.0,21.0,27.0,0.4375,58.60315389504463,3695.341794485438,19.0,15.0,4.0,0.7894736842105263,919.2841039218924,8328.75760239847,27.0,14.0,13.0,0.5185185185185185,2038.9167482858204,46189.7795541404,19.0,5.0,14.0,0.2631578947368421,1108.7259587644032,18796.0956352167,83.0,41.0,42.0,0.4939759036144578,69.22605237764843,12187.964407166235,0.0,0.0,0.0,0.0,103360.0,103408.0,103468.0,103484.0,103496.0,103523.0,103534.0,103551.0,103707.0,103789.0,0.017234012371665792,-0.18724269883019734,0.041989589439022305,-0.12813711257471677,0.005862908120275006
124,124,104078.97786276872,2867.279811002699,17.55309682216216,104177.0815440676,-5785.172908914445,17.8357578060484,104207.03936801596,52037.67466264093,11.281879921925372,104235.027373699,-7988.703196626891,17.835757803960135,104449.01850884124,11501.653405094004,29.030153363539956,0.9806613666129678,97.0,53.0,93.0,237.0,330.0,44.0,698.0,698.0,45.0,20.0,25.0,0.4444444444444444,55.145184072513025,2993.6850003697787,26.0,21.0,5.0,0.8076923076923077,837.6920490066782,5166.896589080776,26.0,13.0,13.0,0.5,2040.8909728369135,46690.98615007236,21.0,5.0,16.0,0.238095238095238,1125.6711026732105,19996.85448266308,77.0,39.0,38.0,0.5064935064935064,72.74740388428133,11546.258610123135,0.0,0.0,0.0,0.0,104060.0,104104.0,104157.0,104182.0,104194.0,104220.0,104231.0,104250.0,104411.0,104487.0,0.019232578509046364,-0.14479982918330206,0.03921948830473236,-0.14090786388815998,0.0063249518414510725
125,125,0.0,0.0,0.0,0.0,0.0,0.0,0.0,0.0,0.0,0.0,0.0,0.0,0.0,0.0,0.0,0.0,0.0,0.0,0.0,0.0,0.0,0.0,0.0,0.0,0.0,0.0,0.0,0.0,0.0,0.0,0.0,0.0,0.0,0.0,0.0,0.0,0.0,0.0,0.0,0.0,0.0,0.0,0.0,0.0,0.0,0.0,0.0,0.0,0.0,0.0,0.0,0.0,0.0,0.0,0.0,0.0,0.0,0.0,,104484.0,104785.0,104857.0,104867.0,104892.0,104902.0,105004.0,105097.0,105149.0,,,,,
126,126,105429.72623019206,4053.526374382561,29.849450231452245,105535.54796540084,-4826.8194400747025,8.945522506154543,105564.4221710713,50188.37829450501,11.28787841652553,105592.5097192438,-7088.040501918522,8.877263445480539,105803.83795130238,13001.84766275425,35.194137663202696,0.9940694892762244,135.0,57.0,81.0,241.0,322.0,78.0,1359.0,1357.0,81.0,43.0,38.0,0.5308641975308642,64.06751627983718,4802.911919489143,17.0,14.0,3.0,0.8235294117647058,984.6362002326538,9799.365835629533,27.0,13.0,14.0,0.4814814814814814,2050.008304957865,50494.52155449435,17.0,4.0,13.0,0.2352941176470588,1065.228424665434,17110.971668203136,85.0,43.0,42.0,0.5058823529411764,75.43661082569943,13533.656744015188,0.0,0.0,0.0,0.0,105389.0,105467.0,105524.0,105539.0,105551.0,105578.0,105589.0,105605.0,105762.0,105846.0,0.01580537792592901,-0.20399275598703875,0.040846275066479185,-0.15028531854143728,0.00580199159245643
127,127,106134.1012201149,3636.756227919204,23.432154799954624,106235.54796540084,-5211.556327544355,10.043823174311411,106264.44164278176,49208.92396324985,11.326386435904377,106292.5693089204,-8276.331525768917,9.64458220590263,106503.58211525356,11371.782180737331,32.17346237869572,0.9900475201406518,113.0,58.0,83.0,240.0,323.0,55.0,700.0,700.0,56.0,25.0,31.0,0.4464285714285714,57.710482731356706,4101.763539687046,18.0,15.0,3.0,0.8333333333333334,970.5468061795152,9029.09938529276,27.0,13.0,14.0,0.4814814814814814,2037.8454937936249,49254.60197247659,18.0,5.0,13.0,0.2777777777777778,1090.559584401671,18243.94171579404,84.0,42.0,42.0,0.5,66.96643307219566,11394.810908732306,0.0,0.0,0.0,0.0,106110.0,106165.0,106223.0,106239.0,106251.0,106278.0,106289.0,106306.0,106463.0,106546.0,0.01586866952706813,-0.18622974504754694,0.04141211247202898,-0.13176847507934403,0.005888824812845091
128,128,107543.47772694191,3390.802871680041,22.059695190552077,107645.54796540084,-5452.4355364943485,15.287792400596636,107674.1913206206,50193.127253971164,11.446264312329577,107702.027373699,-8271.571428182831,11.48339587952155,107915.08608869296,12134.503038438535,30.97068165642459,0.9895746669976686,106.0,56.0,88.0,237.0,325.0,50.0,1412.0,1410.0,50.0,20.0,30.0,0.4,62.65076522083944,3859.147688439351,25.0,22.0,3.0,0.88,993.5393872370054,8949.029605348576,26.0,13.0,13.0,0.5,2045.3560252555365,48426.10622195583,20.0,4.0,16.0,0.2,1140.1343258310003,19391.30961300876,80.0,40.0,40.0,0.5,74.54908227310304,12339.840862674617,0.0,0.0,0.0,0.0,107523.0,107573.0,107629.0,107649.0,107661.0,107687.0,107698.0,107717.0,107876.0,107954.0,0.018476675758445926,-0.18221937345008998,0.04074972286357616,-0.13783769332467394,0.006143562866724206
129,129,108248.63258533976,4009.790999889636,30.636717829826956,108356.54796540084,-4747.229540378461,8.956526775645225,108385.94972904264,49425.323295980095,11.214322500888413,108414.02737370212,-7599.79754369575,9.19839371321702,108626.17937919036,12671.803346485089,33.6598629707285,0.9911261861485816,137.0,59.0,81.0,241.0,322.0,78.0,707.0,712.0,80.0,41.0,39.0,0.5125,65.92612907434474,4793.342724719186,16.0,13.0,3.0,0.8125,922.750494403798,8462.279132045456,27.0,14.0,13.0,0.5185185185185185,2040.6329492622308,48082.02902347836,18.0,4.0,14.0,0.2222222222222222,1117.407657037277,18143.95494032208,84.0,42.0,42.0,0.5,79.38242125211079,13210.074971500097,0.0,0.0,0.0,0.0,108209.0,108287.0,108346.0,108360.0,108372.0,108399.0,108410.0,108427.0,108586.0,108668.0,0.016441288106078165,-0.19437663305622127,0.04128719476536437,-0.14703124005773005,0.006264492833542112
130,130,108962.27214981023,3794.699557822033,25.64527952882057,109069.12330450072,-5119.880158008314,10.363548397540086,109097.03571730836,49124.60231837256,11.32976412791948,109125.027373699,-8250.300421326418,9.834989456847,109337.19615010652,11756.385775958146,33.568516053828034,0.989136179576821,133.0,59.0,82.0,241.0,323.0,74.0,715.0,711.0,76.0,40.0,36.0,0.5263157894736842,56.21971304928359,4187.479513096623,19.0,16.0,3.0,0.8421052631578947,983.3867566075044,9661.304902228852,26.0,13.0,13.0,0.5,2053.08067811089,48060.21516805913,18.0,4.0,14.0,0.2222222222222222,1134.9455429892114,18799.45816033834,86.0,43.0,43.0,0.5,66.30076487456542,12062.207656175222,0.0,0.0,0.0,0.0,108923.0,108997.0,109056.0,109072.0,109084.0,109110.0,109121.0,109138.0,109296.0,109379.0,0.014815326534454517,-0.19207222166505789,0.04179332923257151,-0.1375641473679505,0.005639553357474091
131,131,110393.19793444547,2421.2813743785023,14.286715713995251,110488.82654123667,-5730.073707121672,15.28779240518434,110520.30188127838,51989.35786487008,11.162641003748424,110547.60271279886,-8334.999211316552,20.383723169440703,110761.6414905261,10780.393666020713,29.31081173015783,0.98364019319271,95.0,57.0,93.0,236.0,329.0,38.0,1422.0,1423.0,38.0,17.0,21.0,0.4473684210526316,57.572958552296534,2490.698197119971,24.0,18.0,6.0,0.75,729.2145151540501,3167.148797120407,26.0,13.0,13.0,0.5,2044.5415016686025,46530.02361862749,22.0,5.0,17.0,0.2272727272727272,1152.6661377734267,20858.52215741906,78.0,40.0,38.0,0.5128205128205128,58.48749379746326,10689.323072610792,0.0,0.0,0.0,0.0,110376.0,110414.0,110471.0,110495.0,110507.0,110533.0,110543.0,110564.0,110723.0,110800.0,0.023777888502146693,-0.12726093108501196,0.03932615415221597,-0.13829229116283956,0.005425357886680247
132,132,111098.70141298509,3988.4002158155063,26.436570789962936,111202.54796540084,-4986.813596665583,10.94762231613624,111231.91253897305,50063.24334208785,11.303752011635602,111260.45203459916,-7255.834604312232,9.50507803646114,111472.88761252852,12716.450673163145,32.8864611897014,0.9913461159149104,126.0,57.0,84.0,240.0,324.0,69.0,712.0,712.0,72.0,39.0,33.0,0.5416666666666666,67.55116903604512,4680.1905878145735,19.0,15.0,4.0,0.7894736842105263,934.2886422654014,8412.024514966448,27.0,14.0,13.0,0.5185185185185185,2051.1091013833643,48881.85213855859,18.0,4.0,14.0,0.2222222222222222,1112.2401656093502,18147.356159459418,83.0,42.0,41.0,0.5060240963855421,80.08029849237592,13030.553525272726,0.0,0.0,0.0,0.0,111063.0,111132.0,111189.0,111206.0,111218.0,111245.0,111257.0,111273.0,111433.0,111513.0,0.016936908379499967,-0.18735182780645954,0.04097035997783647,-0.15328907372672637,0.0062973781403782535
133,133,111805.15795695096,4050.2053167298895,29.571697492322613,111911.12330450072,-4764.338637179956,8.645350017035224,111940.11946031947,49830.850103256365,11.199332180546095,111968.45203459916,-6934.950022275841,8.501378681493861,112179.23751155048,12139.224350343491,33.974255637084845,0.9914090112615158,136.0,58.0,81.0,240.0,321.0,78.0,707.0,708.0,79.0,42.0,37.0,0.5316455696202531,61.8049753600758,4786.837112260227,15.0,12.0,3.0,0.8,908.8020270556882,8304.274924606683,27.0,13.0,14.0,0.4814814814814814,2040.4317470426831,49394.98155553399,17.0,3.0,14.0,0.1764705882352941,1128.043715184641,17720.473934018162,87.0,44.0,43.0,0.5057471264367817,71.2469701788552,12437.889838983723,0.0,0.0,0.0,0.0,111764.0,111842.0,111900.0,111914.0,111927.0,111954.0,111965.0,111981.0,112137.0,112221.0,0.015259714144560146,-0.19075093024739614,0.040947159095512685,-0.1626606841521911,0.005869153425510188
134,134,112519.04690291426,4122.155376829362,25.894460604274652,112620.972626301,-4560.105478249134,8.428187300381946,112650.23461605472,48689.02980056328,11.007799857387514,112678.60271279886,-8130.325236474671,8.999004353843455,112886.20174300217,10910.821873454584,35.538812482807494,0.9905899705566454,130.0,58.0,81.0,239.0,320.0,72.0,715.0,710.0,74.0,40.0,34.0,0.5405405405405406,61.98236578940887,4661.156510124288,15.0,11.0,4.0,0.7333333333333333,868.6588312409621,7538.151747861462,26.0,13.0,13.0,0.5,2041.952063947105,48059.52664774716,18.0,5.0,13.0,0.2777777777777778,1060.695872858499,17634.5221172694,90.0,44.0,46.0,0.4888888888888889,58.91338341666123,11001.628529873142,0.0,0.0,0.0,0.0,112480.0,112552.0,112610.0,112625.0,112637.0,112663.0,112674.0,112691.0,112843.0,112930.0,0.015036397254167513,-0.19049095144494033,0.04193864762372985,-0.13046167797813943,0.005399536726009081
135,135,113924.0588663484,3151.0555324410543,22.78199536718771,114025.972626301,-4705.588374562597,16.926163320194963,114055.09976086533,51088.58147201222,11.25978713489206,114084.24539432397,-7351.894463237792,9.043445057127004,114295.21572723315,12210.635685453097,32.92721625258623,0.9880069515112516,107.0,56.0,86.0,239.0,325.0,51.0,1402.0,1405.0,53.0,22.0,31.0,0.4150943396226415,57.77592398362105,3598.232362200204,20.0,16.0,4.0,0.8,907.590570350025,7573.621250520472,27.0,13.0,14.0,0.4814814814814814,2048.955428885,50052.88325934312,17.0,4.0,13.0,0.2352941176470588,1072.6637568465642,17693.03097198415,84.0,42.0,42.0,0.5,76.22963685406854,12599.635990606284,0.0,0.0,0.0,0.0,113904.0,113955.0,114011.0,114030.0,114042.0,114069.0,114080.0,114097.0,114255.0,114336.0,0.018335419159961074,-0.19287504518165363,0.04010593697943005,-0.14590304066663118,0.006242888479989886
136,136,114631.15392024913,3184.5442510032,19.633045162586637,114733.972626301,-5725.294193095927,17.8357578060484,114762.3506336941,50685.316405613514,11.38120772448424,114791.027373699,-8127.044498974115,12.102473745878216,115004.251862073,11835.795466027315,30.178021052606542,0.9862916731065032,105.0,58.0,89.0,237.0,326.0,47.0,705.0,707.0,49.0,21.0,28.0,0.4285714285714285,62.01665518408051,3504.5259004251207,29.0,25.0,4.0,0.8620689655172413,975.4448472086482,8082.7278054485905,27.0,13.0,14.0,0.4814814814814814,2037.8249837238725,48782.26692090499,20.0,5.0,15.0,0.25,1076.1926130453217,18624.756461643217,79.0,40.0,39.0,0.5063291139240507,77.57807449413158,12036.798471517144,0.0,0.0,0.0,0.0,114611.0,114658.0,114716.0,114738.0,114749.0,114776.0,114787.0,114805.0,114965.0,115042.0,0.019474263912188983,-0.17037462430924982,0.04020543084738796,-0.13242115423155004,0.006554529834247859
137,137,115334.39571470598,4192.225736912444,29.49284033496608,115438.12330450072,-4680.698104652152,8.188159870395909,115467.00149970272,50195.105646550255,11.150041585829934,115496.027373699,-6995.682047164986,8.39165995391614,115706.58115185474,12367.519385289266,33.93869274271847,0.9920424912292992,133.0,57.0,81.0,241.0,322.0,76.0,704.0,705.0,78.0,41.0,37.0,0.5256410256410257,60.33625364826124,4924.674711075802,15.0,12.0,3.0,0.8,924.356393756548,8651.342320213227,27.0,14.0,13.0,0.5185185185185185,2049.1026683332966,49460.783642351336,16.0,4.0,12.0,0.25,1047.0916595353724,16720.613410516504,86.0,44.0,42.0,0.5116279069767442,76.90295425852722,12769.969081050263,0.0,0.0,0.0,0.0,115294.0,115370.0,115427.0,115441.0,115453.0,115480.0,115492.0,115508.0,115664.0,115749.0,0.014392415254980672,-0.1974825919317097,0.04082275835341577,-0.1496768510169367,0.006218138970536048
138,138,116045.62758838618,3733.56157482802,22.20117598076486,116145.972626301,-5116.5907827518995,9.51479099392036,116175.38614834024,49301.80810731773,11.272357221745002,116203.54411922896,-8190.467511400876,10.379549719245366,116412.9767237844,11540.756749314609,34.362239227774126,0.9898225033971316,108.0,59.0,83.0,240.0,323.0,49.0,711.0,708.0,50.0,21.0,29.0,0.42,69.98561998071037,4197.258822912201,17.0,13.0,4.0,0.7647058823529411,892.4864601840173,7490.673840243971,26.0,13.0,13.0,0.5,2044.323863339985,48756.61705888019,19.0,5.0,14.0,0.2631578947368421,1068.1832156772489,18207.415322639856,88.0,44.0,44.0,0.5,65.27634448991654,11787.884066261806,0.0,0.0,0.0,0.0,116026.0,116075.0,116134.0,116150.0,116162.0,116188.0,116199.0,116217.0,116370.0,116457.0,0.018745002212514503,-0.17442990813191508,0.04146549471147189,-0.13041785639102665,0.005656158075924546
