Unnamed: 0,cycle,p_center,p_height,p_width,q_center,q_height,q_width,r_center,r_height,r_width,s_center,s_height,s_width,t_center,t_height,t_width,r_squared,pr_interval,pr_segment,qrs_duration,st_segment,qt_interval,p_duration,pp_interval,rr_interval,fwhm_p,rise_time_p,decay_time_p,rise_decay_symmetry_p,sharpness_deriv_p,sharpness_diff_p,fwhm_q,rise_time_q,decay_time_q,rise_decay_symmetry_q,sharpness_deriv_q,sharpness_diff_q,fwhm_r,rise_time_r,decay_time_r,rise_decay_symmetry_r,sharpness_deriv_r,sharpness_diff_r,fwhm_s,rise_time_s,decay_time_s,rise_decay_symmetry_s,sharpness_deriv_s,sharpness_diff_s,fwhm_t,rise_time_t,decay_time_t,rise_decay_symmetry_t,sharpness_deriv_t,sharpness_diff_t,Average_Heart_Rate,SDNN,RMSSD,NN50,p_on,p_off,q_on,q_off,r_on,r_off,s_on,s_off,t_on,t_off,sharpness_deriv_p_norm,sharpness_deriv_q_norm,sharpness_deriv_r_norm,sharpness_deriv_s_norm,sharpness_deriv_t_norm
0,0,,,,,,,,,,,,,,,,,,,,,,,,,,,,,,,,,,,,,,,,,,,,,,,,,,,,,,,59.31754087415795,601.282522563784,809.7966553347496,102.0,,,,,,,,,,,,,,,
1,1,1649.942072510311,675.8174499997131,3.4583333294043195,1780.1233045007198,-6106.886062960741,12.739826735202712,1800.4107466990424,43756.86426993163,8.067440539040179,1836.4657119849892,-9823.489901598732,8.870226418387773,2072.5341556961503,18261.69145285191,31.36188487128036,0.9262340735840684,123.0,112.0,79.0,265.0,344.0,11.0,,,13.0,7.0,6.0,0.5384615384615384,158.5117024840106,518.5714672520171,17.0,14.0,3.0,0.8235294117647058,1358.6683559674732,11895.62348058329,18.0,8.0,10.0,0.4444444444444444,2582.215038098997,49069.39217258651,24.0,12.0,12.0,0.5,610.8826978502437,10055.425519187023,79.0,40.0,39.0,0.5063291139240507,238.7968761861844,20257.61525456997,,,,,1644.0,1655.0,1767.0,1783.0,1792.0,1810.0,1825.0,1846.0,2037.0,2111.0,0.23454810538567467,-0.22248136643780178,0.05901279904724378,-0.06218591396432597,0.013076383247560113
2,2,2656.0273736989925,1064.5510188473804,14.225541693394629,2789.12330450072,-5890.830630485126,10.682037329233117,2809.8518240235167,44511.13736036099,7.926256281771547,2847.2335355919913,-9576.46402000577,9.191685779847864,3081.642689814678,18085.466222961662,32.062171714183286,0.9378422183223472,127.0,112.0,80.0,263.0,343.0,15.0,1008.0,1009.0,15.0,5.0,10.0,0.3333333333333333,139.1287078760262,1050.9506094529993,17.0,13.0,4.0,0.7647058823529411,1347.306596660683,11672.8084202695,18.0,9.0,9.0,0.5,2698.930221162512,49543.53804559556,25.0,13.0,12.0,0.52,550.8136146064454,9828.015811963016,80.0,40.0,40.0,0.5,191.91250183011635,20192.488839891375,,,,,2651.0,2666.0,2778.0,2792.0,2801.0,2819.0,2835.0,2858.0,3047.0,3121.0,0.13069238149493745,-0.22871249933555274,0.06063494175203937,-0.05751743163820852,0.010611421318321365
3,3,3698.69870871065,1189.1431761490398,4.053758414542982,3829.12330450072,-6161.418907335138,10.711879044949413,3849.7877080356575,42926.21905912091,8.112710274940204,3885.6059113315146,-9797.55054733266,8.902211284531843,4122.686393275661,18444.06654499179,31.655877766108027,0.9274699110954108,124.0,113.0,79.0,266.0,345.0,11.0,1041.0,1040.0,11.0,6.0,5.0,0.5454545454545454,168.48653327306016,686.0425260099671,17.0,13.0,4.0,0.7647058823529411,1316.7976566290224,11450.493768034408,19.0,9.0,10.0,0.4736842105263157,2616.8105166777837,47215.55696118181,22.0,12.0,10.0,0.5454545454545454,575.2381772406569,10208.49141784096,78.0,38.0,40.0,0.4871794871794871,176.73922146761626,19767.76958905244,,,,,3693.0,3704.0,3817.0,3832.0,3841.0,3859.0,3874.0,3896.0,4087.0,4162.0,0.14168733980267412,-0.21371662541259473,0.06096065700717164,-0.05871244802072116,0.009582443277163687
4,4,4751.954222846208,830.1872073302292,2.9269432760323335,4880.972626301007,-6267.739851107879,13.793018767093312,4902.070074073867,43800.69013536589,7.948402453305389,4938.725319232152,-10247.689155939936,9.241890534201794,5176.958816596257,17871.218922347067,31.154408271198,0.9223014923681944,123.0,114.0,79.0,265.0,344.0,9.0,1053.0,1052.0,9.0,5.0,4.0,0.5555555555555556,127.86917334720675,521.2185584296606,17.0,13.0,4.0,0.7647058823529411,1278.8047128898718,9779.926007518898,18.0,8.0,10.0,0.4444444444444444,2653.9931914179356,48282.7618279694,24.0,13.0,11.0,0.5416666666666666,515.1785162098159,10016.215642945746,78.0,40.0,38.0,0.5128205128205128,187.7571914867552,18928.05779874254,,,,,4747.0,4756.0,4870.0,4885.0,4894.0,4912.0,4926.0,4949.0,5139.0,5214.0,0.15402450461555156,-0.20402964118937253,0.06059249713225472,-0.0502726525336885,0.01050612117184543
5,5,5527.2766029705335,545.2190661147134,0.8234787157171966,5892.972626301007,-6160.134489478138,17.835757805975145,5913.820731305424,45146.80432070029,7.938122603852132,5950.753768001196,-10765.42222992667,9.873970808804788,6187.253308917179,18030.44097114667,30.64955985267409,0.9253859434666782,355.0,352.0,80.0,263.0,343.0,3.0,774.0,1012.0,3.0,1.0,2.0,0.3333333333333333,119.97733313213718,394.0479855575187,23.0,19.0,4.0,0.8260869565217391,1332.2758316262373,10876.92679291293,17.0,8.0,9.0,0.4705882352941176,2626.3019079344335,47262.01406162859,25.0,14.0,11.0,0.56,529.1034867818713,10563.966580407248,76.0,37.0,39.0,0.4868421052631579,191.44129768074788,19660.973487787654,,,,,5526.0,5529.0,5881.0,5897.0,5906.0,5923.0,5938.0,5961.0,6152.0,6224.0,0.22005344381499323,-0.21627382225206943,0.05817248745400671,-0.04914841940068294,0.010617671413977233
6,6,6578.4243173985615,686.7982665129546,0.2863918326214823,6923.489260635744,-5549.3756039952295,22.93168860777651,6949.57927628263,44082.993241354525,7.866552307615955,6986.309832547886,-10724.829882445623,9.88624885870425,7226.808138396545,17852.79366025544,29.36842327694773,0.9198491939030824,338.0,336.0,82.0,264.0,346.0,2.0,1051.0,1036.0,2.0,1.0,1.0,0.5,87.51353163250825,3.2232899878130183,19.0,9.0,10.0,0.4736842105263157,741.5844918965779,117.5496990587801,18.0,9.0,9.0,0.5,2566.2664368050955,44938.2629377658,24.0,13.0,11.0,0.5416666666666666,549.7761433001535,10899.92174900702,76.0,41.0,35.0,0.5394736842105263,174.56390653612937,18535.865664363293,,,,,6577.0,6579.0,6915.0,6933.0,6941.0,6959.0,6973.0,6997.0,7189.0,7261.0,0.1274224701772126,-0.13363386168394872,0.05821443255349697,-0.05126199196875149,0.009777960237380107
7,7,7819.217547659508,1156.5182934924271,1.6535382030626664,7946.972626301007,-5706.051231256588,15.453703430570526,7968.964650211477,45222.63532298209,7.829525645151404,8006.591756013277,-10169.372657342248,9.620442116867851,8245.383477496402,18061.276304490697,31.038917687764368,0.921839513853827,120.0,115.0,80.0,264.0,344.0,5.0,1242.0,1019.0,5.0,2.0,3.0,0.4,166.36385330282607,1009.2543743688518,16.0,11.0,5.0,0.6875,1192.9676297585745,7992.380018041242,17.0,8.0,9.0,0.4705882352941176,2706.40908900638,49299.28579004934,24.0,14.0,10.0,0.5833333333333334,481.3284723604954,10144.93376140999,78.0,41.0,37.0,0.5256410256410257,190.5581077031776,19258.33219636237,,,,,7817.0,7822.0,7937.0,7952.0,7961.0,7978.0,7993.0,8017.0,8208.0,8281.0,0.143848873155689,-0.20907061318057232,0.059846337341401816,-0.04733118635523481,0.010550644621709146
8,8,8849.216137643114,798.7222006523835,2.6406783111800465,8976.972626301007,-6248.587329225936,13.67019119288863,8998.429395074048,44043.628908388935,8.024923264428114,9034.895776934773,-10192.124480388586,9.099189986405412,9272.534155696114,18001.315946922216,31.709838480953625,0.9262173144101792,121.0,114.0,78.0,266.0,344.0,7.0,1030.0,1030.0,9.0,5.0,4.0,0.5555555555555556,131.66379572738484,488.9457861509724,16.0,11.0,5.0,0.6875,1266.8441484007828,9392.378978826906,18.0,8.0,10.0,0.4444444444444444,2658.176637011614,49693.99442323022,24.0,13.0,11.0,0.5416666666666666,533.2163594253094,10042.380488394814,79.0,40.0,39.0,0.5063291139240507,183.4135564417283,19622.63719212263,,,,,8846.0,8853.0,8967.0,8981.0,8990.0,9008.0,9022.0,9045.0,9235.0,9311.0,0.16484304007055764,-0.20274088872463872,0.06035326113887301,-0.052316507755700015,0.010188897132994743
9,9,9635.49858233781,459.1897995683707,1.5523794952969725,10003.251542000073,-6297.046086399426,17.8357578060484,10029.747253686464,43826.78288959581,7.574126831777504,10067.569656057156,-11171.138213510296,10.605043026591416,10304.995221325044,17012.308510213305,29.72780977077194,0.922302489663667,364.0,359.0,82.0,262.0,344.0,5.0,785.0,1031.0,5.0,2.0,3.0,0.4,120.12572092876016,2490.591185917568,24.0,14.0,10.0,0.5833333333333334,713.3944672031098,213.3872655560424,17.0,8.0,9.0,0.4705882352941176,2679.7348333110485,46490.28953353729,25.0,14.0,11.0,0.56,488.7561485528189,10626.165935718547,75.0,37.0,38.0,0.4933333333333333,181.7103121248693,18170.872381914007,,,,,9633.0,9638.0,9997.0,10013.0,10022.0,10039.0,10054.0,10079.0,10269.0,10341.0,0.261603635450256,-0.11329033604246973,0.061143772292426235,-0.04375168753723955,0.01068110844661557
10,10,10892.72601729957,890.0032925037237,2.813388305278051,11017.972626301009,-5574.138978468586,17.83575780604787,11040.438904832085,44365.77666837621,7.98478288117087,11076.979556991071,-10451.270310809114,9.561970404486637,11314.726719915034,17850.985001504858,31.36382002069498,0.9270786483548606,120.0,111.0,80.0,265.0,345.0,9.0,1259.0,1011.0,10.0,6.0,4.0,0.6,143.3495095086449,371.00795542805406,15.0,10.0,5.0,0.6666666666666666,1125.9688634399297,6930.9639738553215,18.0,8.0,10.0,0.4444444444444444,2604.562497371053,48792.36618695852,25.0,13.0,12.0,0.52,560.5998397679674,10441.209679673682,77.0,38.0,39.0,0.4935064935064935,179.14524980310918,19445.274679808503,,,,,10888.0,10897.0,11008.0,11023.0,11032.0,11050.0,11064.0,11088.0,11280.0,11353.0,0.1610662687610733,-0.2019987064888851,0.058706568282114104,-0.05363939723080103,0.010035594662591843
11,11,11894.849321800286,844.9500574365827,1.8228574488596736,12050.54796540086,-6337.247908835847,10.561978388458837,12071.46226003312,43242.71632247174,8.011030982711226,12108.45778423849,-9613.49720694075,8.892364879386324,12345.183842279284,17860.64380334513,32.77034350504606,0.9209080541289206,148.0,141.0,79.0,266.0,345.0,7.0,1000.0,1031.0,7.0,3.0,4.0,0.4285714285714285,170.70797112405464,1403.097961676398,17.0,14.0,3.0,0.8235294117647058,1374.8873599081269,11665.803627046627,18.0,8.0,10.0,0.4444444444444444,2635.692204881739,49588.200145499264,24.0,12.0,12.0,0.5,568.1448419699105,9671.030737909274,81.0,40.0,41.0,0.4938271604938271,193.97801888087616,19372.11240904167,,,,,11892.0,11899.0,12040.0,12054.0,12063.0,12081.0,12096.0,12119.0,12310.0,12385.0,0.20203320849749398,-0.2169533809764898,0.0609511249299587,-0.05909866406989971,0.010860639796452685
12,12,12893.003196603077,493.40352413236127,0.777372590743311,13041.972626300038,-6320.177222781786,17.835757805232134,13063.306832254191,45253.35053729751,7.85694839983399,13100.905210838406,-10659.928632736692,9.769691966470075,13337.20184623246,17356.07418245284,31.13543826644115,0.922658967777291,139.0,135.0,82.0,263.0,345.0,4.0,999.0,992.0,4.0,2.0,2.0,0.5,159.89513372094171,917.4753342726132,19.0,14.0,5.0,0.7368421052631579,1295.9197104695015,8836.119881344297,18.0,8.0,10.0,0.4444444444444444,2690.419443026971,49036.88995485286,25.0,14.0,11.0,0.56,533.9284818760397,10360.213731441809,79.0,39.0,40.0,0.4936708860759494,160.4861615803357,18713.02540356235,,,,,12891.0,12895.0,13030.0,13046.0,13055.0,13073.0,13088.0,13112.0,13301.0,13375.0,0.32406564992034387,-0.20504483731851914,0.05945238111837807,-0.050087434941763376,0.009246685621025333
13,13,13927.150678199714,813.5384443853403,2.69282819974969,14052.39728720115,-5481.827319980175,20.38372303205117,14073.911954415133,44880.62753167645,7.934709185759995,14110.793884918416,-10196.268067386152,8.940439004699662,14348.534155696114,17797.293241634234,32.05247395041118,0.9234590033685196,118.0,111.0,80.0,266.0,346.0,7.0,1035.0,1010.0,7.0,4.0,3.0,0.5714285714285714,154.0229699397059,366.0950340599657,19.0,14.0,5.0,0.7368421052631579,1192.6299145465514,8326.96244552333,18.0,9.0,9.0,0.5,2626.557398170963,47270.14729642093,23.0,13.0,10.0,0.5652173913043478,523.7196932179772,10216.1603662709,81.0,42.0,39.0,0.5185185185185185,159.58659295295033,19101.74214014989,,,,,13923.0,13930.0,14041.0,14057.0,14066.0,14083.0,14098.0,14121.0,14310.0,14387.0,0.1893247590236208,-0.21756064993139268,0.058523187901442696,-0.0513638607534408,0.008966902482655071
14,14,14925.540269533103,879.9700805166921,1.7620500403961636,15051.39728720115,-5395.8477384306925,20.38372320442811,15072.895436764977,46348.15965721144,7.727184812214843,15111.027373698991,-10367.815444760428,9.271770348563791,15349.383477496402,17780.054755842477,31.27869209494176,0.9204017869090928,117.0,112.0,81.0,264.0,345.0,5.0,998.0,999.0,5.0,3.0,2.0,0.6,135.4864153441695,598.2194779522315,16.0,11.0,5.0,0.6875,1225.0585794565752,8448.166008653825,17.0,8.0,9.0,0.4705882352941176,2757.341620457184,48797.754851629434,24.0,13.0,11.0,0.5416666666666666,522.235723607663,9961.252081922788,79.0,42.0,37.0,0.5316455696202531,165.33063192069136,18817.206941836903,,,,,14923.0,14928.0,15040.0,15056.0,15065.0,15082.0,15098.0,15121.0,15309.0,15385.0,0.15396707040836655,-0.22703727733667786,0.05949193324719553,-0.05037085453441252,0.009298657073390854
15,15,15910.575339099858,736.6437675777009,1.1067159529911772,16034.39728720115,-6043.2842554677045,11.544459151620828,16056.176689810209,42822.55121575343,8.0552617452919,16092.630563735132,-9892.004983346817,8.829462727207549,16328.967851880843,17992.288839496487,32.07495604674546,0.9222098526160442,118.0,111.0,80.0,265.0,345.0,7.0,985.0,983.0,7.0,6.0,1.0,0.8571428571428571,139.91370990196302,617.6380949182997,16.0,11.0,5.0,0.6875,1144.4827813172224,7896.662909927322,18.0,8.0,10.0,0.4444444444444444,2563.168796829305,48318.52048703413,23.0,13.0,10.0,0.5652173913043478,564.8708896553907,9981.234705021723,81.0,41.0,40.0,0.5061728395061729,215.18457994506664,20016.412986186275,,,,,15905.0,15912.0,16023.0,16039.0,16048.0,16066.0,16081.0,16103.0,16294.0,16368.0,0.18993401703789609,-0.1893809281404798,0.059855583660003285,-0.05710378134729516,0.011959822447530726
16,16,16908.657191059283,603.9845220621262,1.286983729051011,17032.972626301005,-5383.652596188013,17.83575778425464,17054.36931504259,44848.22360555536,7.773502391813242,17092.027373698995,-10285.639219812509,9.39957060757056,17327.118707730893,17743.134487598527,32.04552556993794,0.9189336220187968,116.0,112.0,79.0,264.0,343.0,4.0,998.0,999.0,4.0,2.0,2.0,0.5,120.28115334731886,563.2332998930126,19.0,14.0,5.0,0.7368421052631579,1236.5166968940446,9206.75674823847,18.0,8.0,10.0,0.4444444444444444,2665.638400040197,48944.77073881126,24.0,13.0,11.0,0.5416666666666666,515.5250268169895,9962.170401172523,80.0,39.0,41.0,0.4875,177.76949158012854,19487.734288825606,,,,,16907.0,16911.0,17023.0,17037.0,17046.0,17064.0,17079.0,17102.0,17293.0,17366.0,0.19914608562592714,-0.22967988271932355,0.059436878113272786,-0.0501208545040127,0.010019057889933687
17,17,17877.039529711292,844.4933445128693,1.6052593872107983,18002.972626301005,-5727.958409456915,15.705248470729495,18023.90359189296,45068.393312136104,7.83086270025963,18061.107906535883,-10268.050100625282,9.302153590981543,18296.53415569611,17941.492447479763,31.98051085340903,0.9224440031591126,116.0,111.0,81.0,263.0,344.0,5.0,968.0,969.0,5.0,2.0,3.0,0.4,133.77385330053275,717.0795141545566,18.0,14.0,4.0,0.7777777777777778,1304.4718395272855,10648.67137784406,17.0,8.0,9.0,0.4705882352941176,2685.5609116750948,48451.28825622348,23.0,12.0,11.0,0.5217391304347826,519.7140886646756,10159.82365595192,80.0,41.0,39.0,0.5125,172.7230200599021,19539.095168390937,,,,,17875.0,17880.0,17991.0,18007.0,18016.0,18033.0,18049.0,18072.0,18260.0,18335.0,0.1584072321821527,-0.22773765908872343,0.059588565606840074,-0.050614681811206506,0.009627015175326981
18,18,18869.00140193328,789.6140041663792,3.205053045696416,18994.54796540086,-6054.340940425112,11.7781316715233,19015.263626853324,42947.993473576105,8.14756728328302,19051.551782922277,-9505.75244680786,8.681863696636363,19287.65138792869,18204.99438655461,32.62221166368858,0.9260333445757516,117.0,109.0,80.0,266.0,346.0,8.0,993.0,992.0,8.0,4.0,4.0,0.5,104.79232822775124,737.3155630343767,18.0,15.0,3.0,0.8333333333333334,1373.3064425410985,12850.594847578675,18.0,8.0,10.0,0.4444444444444444,2558.6789076289033,48424.564249413546,22.0,12.0,10.0,0.5454545454545454,535.9541274923072,9941.95651618964,82.0,41.0,41.0,0.5,219.71068400943415,20389.28854952791,,,,,18865.0,18873.0,18982.0,18998.0,19007.0,19025.0,19040.0,19062.0,19249.0,19328.0,0.13271336080010873,-0.2268300474080454,0.05957621534061047,-0.056382083426997576,0.01206870374932401
19,19,19828.788279618035,499.29239271320154,1.7532356075611184,19979.972626301005,-6181.511073706182,16.750631203425993,20000.27477288675,45911.78957867096,7.791382772400592,20038.35475423431,-10402.535254032991,9.86277831407152,20276.808138396547,17943.83145405306,30.370752751328467,0.920684363641836,142.0,137.0,81.0,262.0,343.0,5.0,958.0,985.0,5.0,3.0,2.0,0.6,109.000882446126,597.6563119864829,21.0,17.0,4.0,0.8095238095238095,1410.5613387793992,12009.60546903032,18.0,8.0,10.0,0.4444444444444444,2743.2229502322166,50101.953596325446,26.0,14.0,12.0,0.5384615384615384,533.3030294166451,10441.794608326005,76.0,42.0,34.0,0.5526315789473685,175.02373246232256,18745.015914570708,,,,,19826.0,19831.0,19968.0,19984.0,19992.0,20010.0,20025.0,20049.0,20237.0,20311.0,0.2183107214067593,-0.228190376424204,0.05974985892309072,-0.051266639948169095,0.009753977733823905
20,20,20815.18338910855,619.1727965746584,1.9435536275457912,20966.972626301005,-5500.243044579997,16.06053668386291,20989.101198022006,43959.82309175806,7.937650419322554,21025.339743518824,-10320.897750275182,9.131684793001556,21261.07271672941,18207.323492467072,31.424381799483985,0.9253282012062858,144.0,140.0,79.0,263.0,342.0,4.0,987.0,988.0,4.0,2.0,2.0,0.5,121.45135744369443,775.2697325071313,16.0,11.0,5.0,0.6875,1164.0556641561425,8095.694572633844,18.0,8.0,10.0,0.4444444444444444,2616.087454946026,47585.06788044698,24.0,12.0,12.0,0.5,563.2139256282022,10419.281776163514,79.0,39.0,40.0,0.4936708860759494,186.40893776599404,19202.535084305244,,,,,20813.0,20817.0,20957.0,20972.0,20981.0,20999.0,21013.0,21036.0,21226.0,21299.0,0.19615099066945219,-0.2116371321633171,0.05951087313261984,-0.054570245656506526,0.01023812960994059
21,21,21862.602712798853,2445.15138402065,20.383723206912453,21996.54796540086,-5156.3121677213,6.883011411292286,22018.09352048955,44037.3866900694,7.975124073031219,22055.45203459914,-8720.722833451304,7.963222342572644,22287.895313077675,19230.61059069844,36.650857241926694,0.9302827121414262,130.0,114.0,76.0,266.0,342.0,16.0,1051.0,1029.0,51.0,33.0,18.0,0.6470588235294118,168.619591446853,1942.9460674542088,14.0,10.0,4.0,0.7142857142857143,1320.0382959077328,12808.884733043447,19.0,9.0,10.0,0.4736842105263157,2680.3739535980126,49739.93912352604,22.0,12.0,10.0,0.5454545454545454,541.0066741721421,8356.435678176254,89.0,45.0,44.0,0.5056179775280899,184.30162500772545,20980.478880254697,,,,,21858.0,21874.0,21988.0,22000.0,22009.0,22027.0,22043.0,22064.0,22250.0,22330.0,0.0689607983165385,-0.2560043404996346,0.06086587227489699,-0.06203690731884365,0.009583763559586058
22,22,22892.424660900146,622.8348931618324,1.0757270815050506,23025.397287201147,-5901.991592080277,20.38372320566619,23046.45859474166,45117.705882235896,7.964266640924659,23083.331865146112,-10511.114557227636,9.613238671646156,23321.3834774964,18516.352725173863,29.69186711404146,0.9172397225769612,122.0,118.0,81.0,263.0,344.0,4.0,1026.0,1029.0,4.0,1.0,3.0,0.25,162.32791039705037,160.41443012110352,22.0,17.0,5.0,0.7727272727272727,1232.1254732057157,9436.61110622742,18.0,8.0,10.0,0.4444444444444444,2659.4818808234636,48893.79490418536,24.0,13.0,11.0,0.5416666666666666,528.4515502756701,10611.826487971364,76.0,39.0,37.0,0.5131578947368421,175.87473422319866,19548.048277043017,,,,,22891.0,22895.0,23013.0,23030.0,23038.0,23056.0,23070.0,23094.0,23284.0,23357.0,0.26062751489883595,-0.20876435589286024,0.05894541463976731,-0.05027550098503085,0.009498346506657792
23,23,23971.588828674023,896.0788748718342,2.9142416727229525,24103.972626301005,-6399.298551805569,10.955068039460262,24125.110291448123,42266.613796258454,8.187579752714155,24160.814530317115,-9964.327127507508,8.889225902593598,24399.95881659626,18738.723303594987,31.23944939441641,0.9187724963118982,126.0,118.0,77.0,266.0,343.0,8.0,1080.0,1078.0,8.0,4.0,4.0,0.5,149.24227835117824,431.0438242810276,16.0,11.0,5.0,0.6875,1297.6024661766253,10783.89884211591,18.0,8.0,10.0,0.4444444444444444,2567.048160714117,47485.46638298097,22.0,12.0,10.0,0.5454545454545454,556.5285656988402,10449.099928714695,78.0,40.0,38.0,0.5128205128205128,183.31255446610007,19663.551207829423,,,,,23968.0,23976.0,24094.0,24108.0,24117.0,24135.0,24149.0,24171.0,24362.0,24437.0,0.1665503813740998,-0.2027726094777224,0.06073465390646833,-0.05585209704351117,0.009782553031824315
24,24,25013.744405585898,982.9366094060348,2.2412114078046246,25148.54796540086,-5988.494266289504,13.749945289996177,25169.76393398846,44551.58978749503,7.919645386376321,25207.05759250105,-10399.963700501004,9.626032036632584,25443.27507151513,18576.52723759168,31.241604124094685,0.9216300863699128,128.0,121.0,80.0,264.0,344.0,7.0,1041.0,1045.0,8.0,4.0,4.0,0.5,189.50641791137875,491.58685642426246,18.0,14.0,4.0,0.7777777777777778,1338.2357021752437,11317.104686637162,18.0,9.0,9.0,0.5,2678.505013195683,48259.77001822985,24.0,13.0,11.0,0.5416666666666666,563.7209836906788,10491.784858838002,76.0,36.0,40.0,0.4736842105263157,221.23872861057868,20428.959902188344,,,,,25010.0,25017.0,25138.0,25152.0,25161.0,25179.0,25194.0,25218.0,25408.0,25482.0,0.19279617433914986,-0.22346781054938208,0.06012142385876204,-0.054204129930138345,0.011909584917619983
25,25,26095.328959992166,1185.6361036041023,4.19430875233046,26226.54796540086,-6200.98874114357,9.712136189089422,26248.090476122463,42160.02552384082,8.211970599438763,26283.645739208732,-9519.46299444419,8.8023106720797,26522.360135145187,18692.368944721493,31.762649615450226,0.9221748938980534,127.0,113.0,78.0,267.0,345.0,14.0,1082.0,1078.0,14.0,6.0,8.0,0.4285714285714285,128.993829836581,840.8974659071904,15.0,11.0,4.0,0.7333333333333333,1289.0236904605267,11044.747199946249,19.0,9.0,10.0,0.4736842105263157,2546.1176058664664,47856.8380805576,22.0,12.0,10.0,0.5454545454545454,568.7481506016294,9984.018824265684,81.0,40.0,41.0,0.4938271604938271,208.96372728582313,20371.14725548717,,,,,26089.0,26103.0,26216.0,26230.0,26240.0,26258.0,26272.0,26294.0,26487.0,26561.0,0.10879715069781101,-0.20787389628816005,0.06039174725894503,-0.059745822945429364,0.011179092810750028
26,26,27178.419926854112,928.6918493950632,2.5076258141935495,27307.972626300856,-5974.199116581228,17.835757737407327,27329.957555617893,45651.201142263926,7.838126402851215,27367.553772667015,-10633.52721832312,9.823241720391716,27604.772930088628,18076.251746288825,31.116271331109154,0.924081878896026,123.0,116.0,81.0,265.0,346.0,7.0,1084.0,1082.0,9.0,4.0,5.0,0.4444444444444444,136.6262686770524,433.0405465482272,19.0,14.0,5.0,0.7368421052631579,1219.216655733267,8220.270088458868,17.0,8.0,9.0,0.4705882352941176,2736.1147230778347,48569.4120166588,25.0,14.0,11.0,0.56,497.42579487274145,10124.238553738624,78.0,38.0,40.0,0.4871794871794871,167.38176121035667,19123.604326117376,,,,,27175.0,27182.0,27298.0,27313.0,27322.0,27339.0,27354.0,27379.0,27570.0,27644.0,0.14711690294907706,-0.2040803515151285,0.05993521867149158,-0.04677900236297925,0.009259760461386652
27,27,28214.150678200414,308.5977483636543,2.1489040990197847,28343.54796540086,-6590.235792442459,15.287792404614065,28364.206933101857,43785.249088727905,8.1155129628129,28400.394149618132,-10744.402292701534,9.792390442352255,28641.3834774964,18618.727550334537,30.095956145841615,0.922097823663459,119.0,115.0,79.0,266.0,345.0,4.0,1036.0,1034.0,7.0,4.0,3.0,0.5714285714285714,129.0515555589228,38.63488304297766,19.0,15.0,4.0,0.7894736842105263,1381.7749134531757,11709.109054193634,18.0,8.0,10.0,0.4444444444444444,2560.0971480765106,47693.748576098515,25.0,13.0,12.0,0.52,566.3111289343001,10986.0904230809,74.0,37.0,37.0,0.5,172.86025077809433,19918.580980792467,,,,,28213.0,28217.0,28332.0,28347.0,28356.0,28374.0,28388.0,28411.0,28605.0,28677.0,0.41818696423814244,-0.20967002653194375,0.05846939783050322,-0.052707550732625154,0.009284213988887142
28,28,29280.80976749144,759.379700075227,1.5083082566808688,29406.54796540086,-5096.75330712159,15.28779238979333,29429.95768974664,43619.72292715734,7.948499139983121,29466.426209922472,-9676.960148527169,8.767499464168658,29708.3834774964,19218.26988705707,31.958310960390858,0.9001196304921254,120.0,115.0,79.0,267.0,346.0,5.0,1066.0,1066.0,5.0,3.0,2.0,0.6,141.20463211736146,607.9491500239614,15.0,10.0,5.0,0.6666666666666666,1042.271944467898,6912.409878546543,19.0,9.0,10.0,0.4736842105263157,2601.91963544115,47557.65330673626,24.0,12.0,12.0,0.5,542.9311717652306,9915.58418611816,80.0,43.0,37.0,0.5375,178.416701086121,20201.122914968724,,,,,29278.0,29283.0,29398.0,29412.0,29422.0,29440.0,29454.0,29477.0,29666.0,29744.0,0.18594733583656925,-0.20449723219123683,0.05965007250931466,-0.05610555003141814,0.009283702546308776
29,29,30325.45203459914,1695.640520071717,15.28779240518434,30452.123304500717,-5009.069304102418,7.464831481826084,30476.320170346906,44264.83713134221,7.789271261184033,30513.16462577162,-8982.892838910064,8.264591277687376,30750.49982351032,18716.860469146777,33.90957704005036,0.9238154029053558,126.0,111.0,78.0,268.0,346.0,15.0,1047.0,1046.0,25.0,10.0,15.0,0.4,139.68907738009796,1464.3136346463516,13.0,7.0,6.0,0.5384615384615384,966.0543462581408,5840.74563684997,18.0,8.0,10.0,0.4444444444444444,2677.7481499435594,50322.78094150119,23.0,12.0,11.0,0.5217391304347826,556.9727222161185,8898.40941965473,83.0,41.0,42.0,0.4939759036144578,207.06419865411868,20799.01805093456,,,,,30319.0,30334.0,30445.0,30458.0,30468.0,30486.0,30501.0,30523.0,30714.0,30791.0,0.08238130413054166,-0.19286104615620794,0.060493798768493603,-0.062003714416312534,0.011062977094660035
30,30,31377.887543096833,1017.1874052814718,1.872197182834672,31503.54796540086,-5804.375857945143,12.191088611865228,31524.731308698523,42964.1456315518,8.072048458116411,31560.96862347176,-9726.260398929518,8.764989993414424,31800.11815987334,18371.121645116145,32.30311991363413,0.9170377615449758,117.0,111.0,79.0,269.0,348.0,6.0,1050.0,1049.0,6.0,3.0,3.0,0.5,155.47255224773963,848.8938728250776,18.0,14.0,4.0,0.7777777777777778,1314.3669587146694,11729.578474949953,18.0,9.0,9.0,0.5,2548.0742365273672,46904.416625116035,22.0,12.0,10.0,0.5454545454545454,578.0482750615018,10280.280636717522,84.0,43.0,41.0,0.5119047619047619,180.59179533557216,19407.98814256752,,,,,31375.0,31381.0,31492.0,31507.0,31516.0,31534.0,31549.0,31571.0,31763.0,31840.0,0.1528455341075698,-0.22644415022082662,0.05930699188991029,-0.05943170873001944,0.009830199746327489
31,31,32396.358313537155,718.3081166452457,1.564694200426871,32523.54796540086,-6112.921581244791,15.28779240518434,32544.10336142791,45745.142972312926,7.789893035717516,32581.92050512832,-10081.81049316483,9.849086029425868,32819.65592602135,18018.264092668614,31.85408448745959,0.9226222902709652,118.0,113.0,81.0,266.0,347.0,5.0,1019.0,1020.0,6.0,3.0,3.0,0.5,157.88044927677095,229.39008159361896,20.0,16.0,4.0,0.8,1434.732894486962,12647.05331652742,17.0,8.0,9.0,0.4705882352941176,2753.997628221017,49936.41131545728,26.0,14.0,12.0,0.5384615384615384,528.7157587477474,9577.283987986935,79.0,39.0,40.0,0.4936708860759494,180.3563190730087,19213.819432517543,,,,,32394.0,32399.0,32512.0,32527.0,32536.0,32553.0,32569.0,32593.0,32783.0,32859.0,0.21979488414265563,-0.23470494025130345,0.060203060899555245,-0.05244254086170346,0.010009639005479624
32,32,33427.74113323907,1007.0618613242984,2.956737354234533,33554.54796540086,-6017.020127815815,13.693967032684746,33575.528902913444,43483.89067675303,8.025989223888612,33611.79071841754,-10242.56974624946,9.050669075534437,33852.95881659626,18504.945173590753,31.83396349214873,0.9222375575786552,121.0,112.0,78.0,268.0,346.0,9.0,1031.0,1031.0,9.0,5.0,4.0,0.5555555555555556,116.14510177690752,801.679047340163,20.0,16.0,4.0,0.8,1343.0447590450358,12056.430997057992,18.0,9.0,9.0,0.5,2597.1976412545637,46620.05842614337,24.0,13.0,11.0,0.5416666666666666,569.5013579061357,10454.72392151652,81.0,42.0,39.0,0.5185185185185185,181.7565789138658,19580.275512733795,,,,,33423.0,33432.0,33544.0,33558.0,33567.0,33585.0,33599.0,33622.0,33815.0,33890.0,0.1153306527010916,-0.22320762279593082,0.059727811859371045,-0.05560141370915936,0.009822054440521059
33,33,34223.575339099865,406.27305389474134,0.5178868043173976,34588.4230601118,-6651.371412105388,20.383723206912453,34613.20664861198,44661.44367913142,7.632758053817395,34651.5379543218,-11528.05733798709,10.873270755823654,34890.95881659626,16919.05988889424,29.57628529303201,0.9216782427135404,356.0,353.0,85.0,265.0,350.0,3.0,796.0,1038.0,3.0,2.0,1.0,0.6666666666666666,112.2529665175309,2631.4192570307664,19.0,10.0,9.0,0.5263157894736842,886.9076005163554,465.3809468886411,17.0,8.0,9.0,0.4705882352941176,2706.7154104578126,47972.99074808971,26.0,15.0,11.0,0.5769230769230769,516.3705139800406,11312.098383781844,76.0,38.0,38.0,0.5,173.71512998196414,18063.528396424674,,,,,34222.0,34225.0,34578.0,34597.0,34605.0,34622.0,34637.0,34663.0,34856.0,34928.0,0.27629931505773403,-0.13334206520210223,0.06060519292444093,-0.04479250049169203,0.010267422133542517
34,34,35466.41052414309,1308.5174981565915,4.129388792210043,35591.54796540086,-5851.30601219917,10.9654209294561,35614.354862168,43189.556912597865,7.935479302824991,35650.59805716879,-10071.950958929365,8.672289057058357,35890.53415569612,18309.950876982788,32.00668135276196,0.9268683556501516,122.0,111.0,78.0,268.0,346.0,11.0,1243.0,1001.0,11.0,5.0,6.0,0.4545454545454545,115.37695040113788,1213.5004044566028,14.0,9.0,5.0,0.6428571428571429,1152.1044635300975,7621.518615268098,18.0,8.0,10.0,0.4444444444444444,2667.1265310327717,50027.272500521605,23.0,13.0,10.0,0.5652173913043478,566.2751494365963,10328.715496772606,79.0,40.0,39.0,0.5063291139240507,169.07904861400493,19687.80595374655,,,,,35461.0,35472.0,35583.0,35597.0,35606.0,35624.0,35639.0,35661.0,35853.0,35929.0,0.08817379252755748,-0.19689697669684644,0.06175396835930038,-0.056222985173945944,0.00923427101197481
35,35,36463.273982700426,929.537029998173,3.139939068198668,36613.972626301,-6090.332138478754,12.562204174633504,36635.496352363305,43029.15933518587,7.961109581294523,36672.13609243297,-10288.22577443113,8.988690508142406,36911.34703826485,17960.87957330268,32.26038754414892,0.9255704881114548,145.0,136.0,79.0,268.0,347.0,9.0,995.0,1021.0,9.0,4.0,5.0,0.4444444444444444,115.62200120079636,1278.5782382021275,17.0,12.0,5.0,0.7058823529411765,1233.0144370850066,9508.769390796177,18.0,8.0,10.0,0.4444444444444444,2641.773581993821,49471.93913458058,24.0,13.0,11.0,0.5416666666666666,546.6267191733648,10228.050128054758,81.0,40.0,41.0,0.4938271604938271,166.37901171100506,19280.042910311233,,,,,36459.0,36468.0,36604.0,36619.0,36627.0,36645.0,36660.0,36683.0,36876.0,36951.0,0.1243866542907103,-0.2024543832831077,0.06139496152864846,-0.05313129116313445,0.009263411128167316
36,36,37461.84932180029,1116.3842442572466,2.9074193228118466,37613.972626301,-6084.63891139516,12.8287909975393,37635.55537820874,44854.44320071119,7.781270620969272,37673.84462511292,-10128.451803470363,9.492718572755733,37910.20310369683,17676.516584120447,32.620141720360216,0.929129446906936,145.0,135.0,81.0,264.0,345.0,10.0,999.0,1000.0,10.0,3.0,7.0,0.3,146.83500249042467,1558.283332418761,17.0,12.0,5.0,0.7058823529411765,1243.9164199550055,9098.300904913016,18.0,9.0,9.0,0.5,2755.8844187225677,48385.73604106152,24.0,13.0,11.0,0.5416666666666666,510.2033895263155,9596.575770252784,83.0,41.0,42.0,0.4939759036144578,167.95807884384473,18704.50412183398,,,,,37459.0,37469.0,37604.0,37619.0,37627.0,37645.0,37661.0,37685.0,37873.0,37949.0,0.1315272973850657,-0.20443553644990006,0.061440611499528584,-0.05037328502185318,0.009501763429720565
37,37,38493.424660900135,559.3432717294363,1.3012848164363986,38620.54796540086,-5630.023443499692,15.28779240301316,38642.75031379783,43586.22589774158,7.935501494975212,38679.4820090556,-10326.302845624505,9.208926248629057,38921.383477496405,18301.78544930199,30.642387199584604,0.9254216987804984,120.0,110.0,78.0,267.0,345.0,10.0,1032.0,1007.0,10.0,1.0,9.0,0.1,128.6767453094329,564.1432187702616,16.0,11.0,5.0,0.6875,1208.5369242144525,8774.350440023192,19.0,9.0,10.0,0.4736842105263157,2609.0052106037465,46480.82838907023,24.0,12.0,12.0,0.5,559.4636057894604,10792.967364363176,75.0,39.0,36.0,0.52,199.44833773011445,19525.721942470336,,,,,38492.0,38502.0,38612.0,38626.0,38634.0,38652.0,38667.0,38690.0,38883.0,38957.0,0.23004968829172937,-0.21465930583465048,0.059858479528022916,-0.054178500684445664,0.010897753024294205
38,38,39509.51431532945,677.5791828652046,1.8435849920209084,39632.39728720114,-5546.45624140056,17.2602086515154,39654.120477331555,45667.2753543593,7.791677695277539,39692.027373699,-10054.534558193816,9.398144322068385,39929.48416200255,17905.943496032152,32.040266361207614,0.9216475658302818,115.0,108.0,81.0,266.0,347.0,7.0,1017.0,1011.0,7.0,4.0,3.0,0.5714285714285714,116.47974106794248,529.9593473979528,16.0,11.0,5.0,0.6875,1159.489778377631,8066.116530350222,17.0,8.0,9.0,0.4705882352941176,2725.514983732585,49447.89663783321,24.0,13.0,11.0,0.5416666666666666,508.0863074434869,9715.684038509153,81.0,40.0,41.0,0.4938271604938271,189.4954034876681,19340.288146341736,,,,,39506.0,39513.0,39621.0,39637.0,39646.0,39663.0,39679.0,39702.0,39894.0,39968.0,0.17190572557940373,-0.20905055911607498,0.05968201436551027,-0.0505330509833922,0.010582821482132965
39,39,40504.57685110831,616.046611137248,0.9156177403339766,40627.972626301,-5726.940365050106,17.835757756922135,40648.99626664994,44793.760188826054,8.023075095117383,40685.408252958776,-10370.895846846874,8.96830638592135,40923.54363653979,18128.31485302358,32.06179393163091,0.9206857687341304,111.0,108.0,82.0,267.0,349.0,3.0,995.0,995.0,3.0,2.0,1.0,0.6666666666666666,176.37614860370044,597.8229250868059,19.0,15.0,4.0,0.7894736842105263,1283.355750423747,10351.423411975007,18.0,8.0,10.0,0.4444444444444444,2592.7680248995366,47566.937819385086,23.0,12.0,11.0,0.5217391304347826,601.2646764158746,10917.7912106139,79.0,39.0,40.0,0.4936708860759494,187.12781658297183,19790.077433467308,,,,,40503.0,40506.0,40614.0,40632.0,40641.0,40659.0,40673.0,40696.0,40888.0,40963.0,0.2863032527329428,-0.22409099250547523,0.05788234821032753,-0.05797615609057349,0.010322405480052725
40,40,41518.95783369014,578.6521743022016,1.0010389008076055,41641.972626301,-5788.4801184348125,16.451683325065794,41663.4681144168,44267.8447027492,7.864019350749294,41700.72372420654,-10233.810323352249,9.39596300527652,41938.81321232693,17749.444171739047,32.00139663323273,0.92425751863686,115.0,111.0,79.0,267.0,346.0,4.0,1014.0,1015.0,4.0,2.0,2.0,0.5,141.59546170280925,527.7364860148265,16.0,11.0,5.0,0.6875,1234.3131649376376,9093.305630251249,18.0,8.0,10.0,0.4444444444444444,2639.427178898341,49253.25592706876,24.0,14.0,10.0,0.5833333333333334,513.5345790453417,10128.226864223549,78.0,38.0,40.0,0.4871794871794871,183.03590267710393,18953.852147900743,,,,,41517.0,41521.0,41632.0,41646.0,41655.0,41673.0,41688.0,41711.0,41904.0,41978.0,0.24469874648541612,-0.21323614138479446,0.059624027250968076,-0.05018019318508585,0.010312204760109427
41,41,42512.0233770417,1066.7303393338473,2.1769644737586136,42637.972626301,-5829.576004817289,14.97492220596182,42660.0138373933,44068.3659057987,7.921158907170437,42696.92039213368,-10257.823662849589,9.42664138325437,42934.975179660185,18026.6307751144,32.164497803631434,0.9242311742133708,120.0,113.0,80.0,266.0,346.0,7.0,993.0,996.0,7.0,4.0,3.0,0.5714285714285714,144.32980263700685,541.6793321000407,17.0,12.0,5.0,0.7058823529411765,1187.9502909423113,8262.667042894383,18.0,8.0,10.0,0.4444444444444444,2645.0356180624167,48064.250378729324,24.0,13.0,11.0,0.5416666666666666,539.9816642228419,10082.82385354595,81.0,40.0,41.0,0.4938271604938271,171.58865211315714,19355.006913029796,,,,,42508.0,42515.0,42628.0,42643.0,42652.0,42670.0,42684.0,42708.0,42899.0,42974.0,0.13530111342585235,-0.20377987866710115,0.06002118671058714,-0.052640957962503794,0.009518620215488837
42,42,43530.230404036185,1045.653144256884,2.2219953050304135,43655.972626301,-5845.685306944343,14.1350631091692,43677.585445225246,43352.40791381769,8.018061840334001,43714.07726283357,-10181.708412175867,8.962984226237715,43953.272706645286,18080.80406553958,31.919118509090627,0.927078152742618,118.0,111.0,79.0,268.0,347.0,7.0,1018.0,1018.0,7.0,3.0,4.0,0.4285714285714285,129.0446338033923,960.1713324501972,19.0,14.0,5.0,0.7368421052631579,1223.0171960744274,9390.31850763153,18.0,9.0,9.0,0.5,2571.8995224887567,46145.24390214341,23.0,12.0,11.0,0.5217391304347826,583.5436716210043,10469.640095897796,80.0,39.0,41.0,0.4875,163.86571465988138,19257.932825394604,,,,,43527.0,43534.0,43645.0,43660.0,43669.0,43687.0,43702.0,43724.0,43916.0,43992.0,0.12341055397973355,-0.20921707752922522,0.05932541342574461,-0.0573129427791479,0.009062966119531984
43,43,44530.52685871381,1142.2685944651196,2.4701012970575396,44655.12330450071,-5833.6856669413755,12.739827004320274,44679.79751518283,43976.09645980154,7.607260648785705,44717.42677818232,-10727.39417062833,9.671711849628617,44957.383477496405,18039.34462453943,30.89141419864764,0.9193021763735746,121.0,114.0,80.0,265.0,345.0,7.0,1001.0,1002.0,7.0,4.0,3.0,0.5714285714285714,141.51659845345097,612.2639500578197,15.0,7.0,8.0,0.4666666666666667,912.4767090644858,2828.0168044308384,17.0,8.0,9.0,0.4705882352941176,2731.3374318090578,48236.40070060397,26.0,14.0,12.0,0.5384615384615384,537.2710511218987,10647.02803868783,79.0,42.0,37.0,0.5316455696202531,184.0456065244738,19321.464821710055,,,,,44527.0,44534.0,44648.0,44663.0,44672.0,44689.0,44704.0,44728.0,44920.0,44993.0,0.1238908249243408,-0.15641513121547754,0.06210959252160472,-0.05008402251060655,0.010202455264040546
44,44,45516.84932180029,355.39760311116714,2.052777943968787,45670.54796540086,-6271.428971454297,15.287790556171228,45691.46431130914,43726.61738152709,8.04689054449821,45728.027373699,-10487.431726693834,9.331693120793258,45966.698738511775,17656.38566503855,31.579675264375048,0.9243997737376772,144.0,140.0,80.0,267.0,347.0,4.0,985.0,1012.0,8.0,3.0,5.0,0.375,152.60089260197344,380.41900710441905,19.0,15.0,4.0,0.7894736842105263,1370.9233911276065,11272.972529654866,18.0,8.0,10.0,0.4444444444444444,2559.3772709031196,48338.90390135253,24.0,13.0,11.0,0.5416666666666666,551.9569715218125,10755.15747635398,77.0,37.0,40.0,0.4805194805194805,186.7827558698895,19327.46397592203,,,,,45514.0,45518.0,45658.0,45674.0,45683.0,45701.0,45715.0,45738.0,45932.0,46005.0,0.4293807590881259,-0.21859824887878776,0.05853133455469079,-0.052630327987443035,0.010578765066269395
45,45,46573.699470263375,932.52003617242,1.8295698511495293,46700.54796540086,-6542.691339029771,15.287792402728977,46720.96931287267,45057.954927848,7.960465461375842,46758.51912079707,-10604.888645007031,9.91143039651068,46997.10627733899,17852.858557194468,31.475224993731203,0.9232826772711128,118.0,112.0,80.0,267.0,347.0,6.0,1058.0,1029.0,6.0,3.0,3.0,0.5,173.20338412299245,755.8748213760583,18.0,14.0,4.0,0.7777777777777778,1446.9329606937847,12546.14415053006,18.0,8.0,10.0,0.4444444444444444,2669.713880846618,48611.81419672644,24.0,14.0,10.0,0.5833333333333334,545.4309758578669,10435.32138869762,79.0,39.0,40.0,0.4936708860759494,175.12353089073756,19182.81131113416,,,,,46571.0,46577.0,46689.0,46704.0,46713.0,46730.0,46745.0,46769.0,46961.0,47036.0,0.18573690366366316,-0.2211525633285267,0.05925066694930279,-0.05143203234997337,0.009809271178041406
46,46,47577.53801763776,840.1929110294803,2.2075864784038335,47705.54796540086,-6623.244921320243,15.28779240518434,47726.379335857266,44341.197871796554,8.03160168341575,47763.32294233254,-10714.316124332989,9.651594758842805,48002.95881659626,17887.50135609994,30.76476731099161,0.9212874210222418,120.0,112.0,80.0,266.0,346.0,8.0,1003.0,1006.0,8.0,4.0,4.0,0.5,140.61633207008643,478.9604968936002,19.0,15.0,4.0,0.7894736842105263,1396.852154705774,11466.987770717164,18.0,8.0,10.0,0.4444444444444444,2648.363419829779,49495.038185778714,24.0,13.0,11.0,0.5416666666666666,562.4466701177812,11185.326965425817,77.0,39.0,38.0,0.5064935064935064,199.02122280119312,18919.1508430772,,,,,47574.0,47582.0,47694.0,47709.0,47718.0,47736.0,47750.0,47774.0,47967.0,48040.0,0.16736195964542308,-0.21090147975795115,0.05972692545399826,-0.052494873549644855,0.011126272967874494
47,47,48607.15067819971,662.5587469802284,2.7753935053621555,48733.972626301,-5718.399112493694,17.835757697391006,48755.27478517478,43970.412454371275,8.064235568299395,48791.94241003236,-10381.768757975718,9.316655729857166,49034.808138396555,17497.003307758314,29.58498814298597,0.9241665993285024,117.0,112.0,81.0,266.0,347.0,5.0,1031.0,1028.0,5.0,2.0,3.0,0.4,130.59893360102302,476.27229314694273,20.0,15.0,5.0,0.75,1258.833241626988,10092.091021547729,18.0,8.0,10.0,0.4444444444444444,2579.61311429523,47577.31945252235,24.0,13.0,11.0,0.5416666666666666,530.8887909233703,10567.08045736678,77.0,42.0,35.0,0.5454545454545454,205.5654935299391,18008.974197442374,,,,,48605.0,48610.0,48722.0,48738.0,48747.0,48765.0,48779.0,48803.0,48995.0,49069.0,0.19711298688042264,-0.22013735258118994,0.0586670210785976,-0.051136641867072875,0.011748611457299643
48,48,49630.726017299574,1050.2608763887793,3.2021756229897775,49756.972626301,-5486.308321985275,17.83575780259906,49778.74621135612,46049.65824790644,7.852511206623181,49816.61076267977,-10204.754421926558,9.26620983364159,50053.942819807446,17864.525263655585,32.15118684487808,0.9272683488389808,122.0,111.0,81.0,266.0,347.0,11.0,1024.0,1024.0,11.0,7.0,4.0,0.6363636363636364,111.71320919161516,712.7725439766195,17.0,12.0,5.0,0.7058823529411765,1237.1968388487471,9215.218393847545,18.0,9.0,9.0,0.5,2703.0022939610444,48619.19812156672,23.0,13.0,10.0,0.5652173913043478,515.156552260544,9881.019166884564,82.0,41.0,41.0,0.5,187.126213923643,19191.460491746144,,,,,49624.0,49635.0,49746.0,49761.0,49771.0,49788.0,49804.0,49827.0,50018.0,50093.0,0.10636710526219949,-0.22550625415836184,0.05869755383220312,-0.050482013673317526,0.010474737568556675
49,49,50643.796942717,606.476252125692,0.9749773924980814,50767.972626300994,-6221.350671317662,17.835757727061523,50788.82456743687,44375.764662762864,8.061351394883394,50825.49631428458,-10396.00761687996,9.299833732609416,51064.31318247128,17841.590102228172,31.390258474356315,0.9213144961380992,113.0,109.0,81.0,266.0,347.0,4.0,1012.0,1010.0,4.0,2.0,2.0,0.5,151.49461938233932,499.6203884381971,18.0,14.0,4.0,0.7777777777777778,1316.7183764488516,10407.662329924777,19.0,9.0,10.0,0.4736842105263157,2549.013674920206,46379.64585776371,24.0,12.0,12.0,0.5,555.2640536224197,10740.359884539575,80.0,40.0,40.0,0.5,180.67932401500929,19248.8701370509,,,,,50642.0,50646.0,50755.0,50772.0,50780.0,50798.0,50813.0,50836.0,51030.0,51102.0,0.24979480870248835,-0.21164509863096576,0.057441571864544475,-0.05341127806801906,0.010126862178749689
50,50,51665.20022913684,858.9456619775146,2.2112079787908536,51790.972626301,-6313.126389080681,13.085799630881802,51813.0352425607,43084.23405132023,8.016304532034882,51849.76789009426,-10226.31828831696,9.147166909905586,52092.808138396555,18268.01649268227,30.795908551437684,0.9210769767945648,119.0,113.0,79.0,267.0,346.0,6.0,1021.0,1024.0,6.0,3.0,3.0,0.5,128.16753876847625,792.7747271013002,16.0,11.0,5.0,0.6875,1193.5100840278983,7911.503369815482,18.0,8.0,10.0,0.4444444444444444,2604.5521822386586,47668.0904471032,23.0,13.0,10.0,0.5652173913043478,547.7133203322935,10483.029263108472,78.0,43.0,35.0,0.5512820512820513,163.93489195163366,19144.204256180965,,,,,51662.0,51668.0,51781.0,51796.0,51805.0,51823.0,51837.0,51860.0,52053.0,52127.0,0.14921495554608366,-0.1890521447649486,0.06045255856553512,-0.05355918962135451,0.00897387475084129
51,51,52669.726017299574,1067.3286947474314,3.588841455965079,52796.972626301,-6670.167182182261,9.986690520094024,52817.91407843873,44372.82164939111,7.9483265745202605,52856.027373699,-10015.60009327998,9.033465331458329,53092.10949479597,18137.27761351603,33.29898983701882,0.9251746371535764,123.0,112.0,80.0,266.0,346.0,11.0,1006.0,1005.0,11.0,7.0,4.0,0.6363636363636364,163.6851783935704,591.4973246180807,16.0,12.0,4.0,0.75,1360.152258526315,10779.373855589398,17.0,8.0,9.0,0.4705882352941176,2717.9578739453277,49721.21319288979,23.0,13.0,10.0,0.5652173913043478,546.3181252820094,9324.341627978569,83.0,42.0,41.0,0.5060240963855421,177.7423420844394,19546.245608082416,,,,,52663.0,52674.0,52786.0,52801.0,52810.0,52827.0,52843.0,52866.0,53055.0,53132.0,0.15335967186032062,-0.20391576723288632,0.06125276177884496,-0.0545467191375347,0.009799835778660879
52,52,53692.7509800407,1070.239481192152,2.546053460950564,53818.54796540086,-5953.38518022218,13.0726115515862,53839.53765262553,43157.494112364235,8.069051554233342,53876.027373699,-9878.005934399094,8.858323298526127,54114.793629939384,18136.826194705405,32.74023200472011,0.924835610925286,116.0,109.0,80.0,269.0,349.0,7.0,1022.0,1022.0,7.0,3.0,4.0,0.4285714285714285,151.58990024129935,605.1312180924219,18.0,14.0,4.0,0.7777777777777778,1331.335552231115,11797.530620159449,18.0,9.0,9.0,0.5,2532.0428270988245,45949.80884447531,22.0,12.0,10.0,0.5454545454545454,576.3189523641856,10066.58039547065,81.0,40.0,41.0,0.4938271604938271,194.86436969499903,19967.830752385453,,,,,53690.0,53697.0,53806.0,53822.0,53831.0,53849.0,53864.0,53886.0,54079.0,54155.0,0.1416411026739937,-0.2236266446615889,0.058669829636225725,-0.05834365318178407,0.010744127313293923
53,53,54711.64530633189,742.2730423425625,1.5221178577412102,54838.972626301,-6293.960472403231,17.8357578060484,54859.65303702753,45826.96966982728,7.802831640136407,54897.796392102064,-10579.191148563124,9.850051480322572,55135.33345278796,17303.17184228222,31.144428570490437,0.9259840044384224,118.0,113.0,81.0,266.0,347.0,5.0,1018.0,1020.0,6.0,3.0,3.0,0.5,188.68217703181548,18.915285312784818,18.0,14.0,4.0,0.7777777777777778,1369.5046318864554,10475.959041957993,18.0,9.0,9.0,0.5,2698.098170384105,47579.95811112042,25.0,14.0,11.0,0.56,530.099449358459,10558.206343905162,79.0,39.0,40.0,0.4936708860759494,173.67504995298629,18613.50375111845,,,,,54709.0,54714.0,54827.0,54843.0,54852.0,54869.0,54885.0,54908.0,55100.0,55174.0,0.2541951091694608,-0.21759028165036057,0.05887577096681884,-0.050107748495541414,0.010037179976944576
54,54,55712.74903865228,801.0999545513407,2.4608202616691517,55840.972626301,-5844.8475908571745,17.8357578060484,55861.98026197923,44687.08364507412,8.007977486116376,55898.32892474494,-10716.824771120995,8.919075232870549,56138.95881659626,18053.6296222968,30.75993774801657,0.9232688820233376,121.0,113.0,79.0,267.0,346.0,8.0,1001.0,1002.0,9.0,5.0,4.0,0.5555555555555556,125.34310281153304,547.7182348945175,20.0,16.0,4.0,0.8,1321.2038579964624,10709.350332521348,18.0,8.0,10.0,0.4444444444444444,2624.681531293003,47981.040735071045,23.0,12.0,11.0,0.5217391304347826,606.2760820118303,11259.66765482177,78.0,40.0,38.0,0.5128205128205128,182.56287624484364,19080.979308805767,,,,,55709.0,55717.0,55830.0,55845.0,55854.0,55871.0,55886.0,55909.0,56100.0,56176.0,0.15646374974734828,-0.22604590409904968,0.0587346794017587,-0.05657236121333101,0.010112253328791721
55,55,56719.726017299574,745.5334853861492,2.9932285846590743,56844.54796540086,-6549.04221309186,15.28779240518434,56865.00990109576,43671.669095781086,8.119678171311499,56901.53426216668,-10374.95739752066,9.01974792284323,57140.39293114516,17960.174513861395,31.28818048102819,0.9244627255967848,117.0,106.0,82.0,267.0,349.0,11.0,1009.0,1003.0,12.0,8.0,4.0,0.6666666666666666,120.37595897630094,471.8177720552747,20.0,16.0,4.0,0.8,1378.8813019352872,12437.08443865703,18.0,8.0,10.0,0.4444444444444444,2547.4747250380397,46929.748176674846,23.0,13.0,10.0,0.5652173913043478,559.1456424857671,10392.899366734782,80.0,40.0,40.0,0.5,187.4362772115061,19801.700768221526,,,,,56713.0,56724.0,56830.0,56848.0,56857.0,56875.0,56889.0,56912.0,57105.0,57179.0,0.16146284685516465,-0.21054701696361572,0.05833243330935888,-0.05389377720426959,0.010436216923551917
56,56,57701.30135639944,998.1088972717282,10.191861602966076,57828.54796540086,-6101.4744773706525,9.157809311156283,57851.61263566999,44549.596393585736,7.72642506840279,57889.42169625645,-9979.539501038404,8.880533311099928,58129.383477496405,18376.17840258199,31.60102819862809,0.927207942418257,121.0,110.0,80.0,265.0,345.0,11.0,982.0,987.0,13.0,3.0,10.0,0.2307692307692307,134.8685928490311,1190.453934667673,15.0,9.0,6.0,0.6,1172.1124253235391,7551.054173302653,18.0,9.0,9.0,0.5,2747.0938592540037,48773.41709511458,24.0,13.0,11.0,0.5416666666666666,525.7079702399795,9733.766897023756,78.0,42.0,36.0,0.5384615384615384,184.2361046306695,19725.419593610583,,,,,57699.0,57710.0,57820.0,57834.0,57843.0,57861.0,57877.0,57900.0,58088.0,58165.0,0.13512412645322214,-0.1921031432108268,0.06166372047423377,-0.05267858002719243,0.010025811710925866
57,57,58679.173501237725,610.1823573221792,2.3610046758019236,58805.54796540086,-6424.220596966385,15.28779240518434,58825.73840141354,44498.63764365623,8.043673200910748,58862.293527499576,-10703.049405733798,9.13761283123392,59099.7483999288,17841.529655172013,31.62096081796272,0.926447192078466,115.0,110.0,79.0,266.0,345.0,5.0,977.0,974.0,9.0,5.0,4.0,0.5555555555555556,144.0054385401292,248.13406749453975,21.0,18.0,3.0,0.8571428571428571,1441.5955599731326,13564.333788097694,19.0,9.0,10.0,0.4736842105263157,2614.408599671622,47164.77987138045,23.0,12.0,11.0,0.5217391304347826,600.591376367223,11066.565202634669,80.0,40.0,40.0,0.5,156.269121621903,19274.45982784261,,,,,58678.0,58683.0,58793.0,58809.0,58818.0,58835.0,58850.0,58872.0,59065.0,59138.0,0.23600393687569968,-0.22440007129485498,0.05875255374350399,-0.05611404316656489,0.008758728911823025
58,58,59440.1163389527,258.39943461760527,1.0765665044002288,59814.972626301,-6133.768401309035,17.83575780604837,59836.06892643577,44796.19663883214,7.983753367468512,59873.24730571445,-10582.353006085015,9.234496595224249,60110.65105520432,18012.978471368733,31.351432367299857,0.9162228445448904,365.0,361.0,81.0,265.0,346.0,4.0,760.0,1010.0,4.0,2.0,2.0,0.5,74.9709952226068,2752.386174538948,19.0,14.0,5.0,0.7368421052631579,1304.52271498074,9847.0983635845,18.0,8.0,10.0,0.4444444444444444,2619.4961513383814,47668.8013002249,25.0,13.0,12.0,0.52,562.0539964859976,10734.804848874735,79.0,39.0,40.0,0.4936708860759494,174.71717708795356,19479.771809628815,,,,,59438.0,59442.0,59803.0,59819.0,59828.0,59845.0,59860.0,59884.0,60076.0,60149.0,0.29013606524934277,-0.21267883454848668,0.0584758606284811,-0.053112384000307676,0.009699516233012935
59,59,60659.805660142374,1127.742727297138,2.2041148285218335,60784.972626301,-6083.8759766976,11.651807652793298,60806.98549520907,43899.833896638454,8.008228644752423,60843.763561336695,-10036.629350915406,9.177480691543249,61080.97998669474,17802.16433926561,30.936914837825693,0.9311642646989302,118.0,112.0,79.0,266.0,345.0,6.0,1220.0,971.0,6.0,3.0,3.0,0.5,131.87880480904562,1062.3448440773916,16.0,11.0,5.0,0.6875,1207.4027943566082,8725.668039078548,19.0,9.0,10.0,0.4736842105263157,2681.991384015248,49180.57699662216,24.0,13.0,11.0,0.5416666666666666,549.5868760877423,10074.293256286845,76.0,37.0,39.0,0.4868421052631579,199.22369119458048,19606.12983675703,,,,,60657.0,60663.0,60775.0,60789.0,60799.0,60817.0,60831.0,60854.0,61045.0,61120.0,0.11694050568175215,-0.1984594687632013,0.061093428971279465,-0.05475811219805745,0.011190981467076998
60,60,61666.96860219481,534.4966942393976,0.8285045675681589,61790.972626301,-5773.697102944832,17.835757801515086,61811.78029288791,44362.578967143105,8.061977077367288,61848.12251422189,-10019.892351287232,8.680608497592287,62086.95881659626,17860.677927932014,30.97691371610983,0.92038840656423,115.0,111.0,78.0,266.0,344.0,4.0,1007.0,1005.0,4.0,2.0,2.0,0.5,132.9391025890614,249.4273044296565,22.0,18.0,4.0,0.8181818181818182,1324.8552373034167,11327.935539074611,18.0,9.0,9.0,0.5,2542.767171250411,46605.29161336702,22.0,12.0,10.0,0.5454545454545454,557.2342999145162,10200.984368734058,80.0,41.0,39.0,0.5125,184.3466596108157,19129.83659071353,,,,,61665.0,61669.0,61780.0,61795.0,61803.0,61821.0,61836.0,61858.0,62050.0,62124.0,0.24871828773092253,-0.22946393163362933,0.057317839279219934,-0.05561280305001776,0.010321369678948134
61,61,62678.83161150213,1167.6265282451302,2.172372698006661,62804.54796540086,-5786.425654034936,13.882085272581726,62827.57135726678,44607.776755409206,7.7524324707894,62865.323523723215,-10265.778856946674,9.595916121886406,63106.808138396555,18114.390996865855,30.830970683541157,0.9209765348295166,120.0,114.0,80.0,265.0,345.0,6.0,1011.0,1016.0,6.0,3.0,3.0,0.5,150.9886507234206,935.9250463316764,17.0,11.0,6.0,0.6470588235294118,1147.5653519263967,6768.899358581525,18.0,9.0,9.0,0.5,2721.2401843557473,47430.0130145322,25.0,13.0,12.0,0.52,526.286788327952,10330.03728783577,77.0,43.0,34.0,0.5584415584415584,170.28752771036108,18639.39225685103,,,,,62676.0,62682.0,62796.0,62810.0,62819.0,62837.0,62852.0,62876.0,63065.0,63141.0,0.12931245314402637,-0.19832024474835985,0.06100371689171363,-0.05126613339930101,0.00940067638706839
62,62,63660.718758563846,1094.411014167832,4.095158182253699,63789.54796540086,-5978.0062564304435,11.648912933050733,63810.34820941941,44086.928275786864,7.993521039678126,63847.027373699,-10094.777943798412,8.963612487733236,64083.888997377806,18327.464025217596,31.822791852868868,0.9303492688605604,124.0,112.0,78.0,266.0,344.0,12.0,982.0,983.0,13.0,7.0,6.0,0.5384615384615384,130.33385696084568,744.7036496760583,18.0,15.0,3.0,0.8333333333333334,1359.3017712294932,12676.509108300288,18.0,8.0,10.0,0.4444444444444444,2670.106747033038,50112.94519357395,23.0,13.0,10.0,0.5652173913043478,535.430758671915,10309.869669545513,79.0,39.0,40.0,0.4936708860759494,166.8506850434728,19733.151559263508,,,,,63655.0,63667.0,63779.0,63793.0,63802.0,63820.0,63834.0,63857.0,64047.0,64123.0,0.11909041052547237,-0.22738379869832262,0.060564590264264265,-0.05304037014512533,0.00910386100411357
63,63,64687.593183957506,1044.6252661411618,3.077594874664193,64815.54796540086,-6065.369265863508,12.87725040737391,64836.55456365751,43182.28743233882,8.115091972128722,64872.5137705945,-10034.946072589424,8.715476854367612,65110.989889706674,18084.234227519257,31.907355343639836,0.9283884978259536,122.0,113.0,78.0,267.0,345.0,9.0,1028.0,1026.0,9.0,5.0,4.0,0.5555555555555556,118.03646602366986,983.511333626742,21.0,17.0,4.0,0.8095238095238095,1341.9589212899043,12099.618387906135,19.0,9.0,10.0,0.4736842105263157,2563.130508077346,46284.9891917116,23.0,13.0,10.0,0.5652173913043478,575.3428711735074,10525.331603293876,78.0,38.0,40.0,0.4871794871794871,181.14131814971017,19668.15530495539,,,,,64683.0,64692.0,64805.0,64819.0,64828.0,64846.0,64860.0,64883.0,65075.0,65150.0,0.11299407533928,-0.22124933577293973,0.05935606148917996,-0.057333927557923145,0.010016532404455514
64,64,65714.93462642985,845.7653321089398,1.7354397760201186,65842.972626301,-6557.897705924543,17.727697284305194,65863.73003598784,46192.10620350183,7.907620007333429,65901.49044472992,-10618.224391599775,9.947189517883396,66138.75021350352,17825.91228472747,31.15673403268191,0.9273247877002184,118.0,113.0,83.0,264.0,347.0,5.0,1027.0,1027.0,5.0,3.0,2.0,0.6,157.6064954540913,697.752855451914,21.0,17.0,4.0,0.8095238095238095,1388.7297454475995,10540.197247125549,17.0,8.0,9.0,0.4705882352941176,2729.759412679529,48334.79827941801,25.0,13.0,12.0,0.52,530.2870925998993,10706.409709937145,77.0,38.0,39.0,0.4935064935064935,186.7957221407116,19147.360158181305,,,,,65712.0,65717.0,65830.0,65847.0,65856.0,65873.0,65888.0,65913.0,66104.0,66177.0,0.18634778403732277,-0.2117644720491739,0.05909579876382829,-0.04994122115364381,0.010478887091840496
65,65,66724.11541492831,1081.3165559701774,2.4790738745056045,66852.54796540085,-6219.845073026078,11.839537601223384,66873.47448652092,43295.00099568976,8.128319144999395,66909.75108948298,-10319.34245437349,9.091985137510113,67148.20149717144,18206.02011025514,31.055173447764904,0.9307288531029324,121.0,113.0,80.0,265.0,345.0,8.0,1009.0,1010.0,8.0,4.0,4.0,0.5,160.41004496438845,636.9508859196687,18.0,15.0,3.0,0.8333333333333334,1357.716472570849,12172.779253450231,18.0,8.0,10.0,0.4444444444444444,2614.266128989644,49604.00413944923,24.0,13.0,11.0,0.5416666666666666,592.5639521233891,10424.026244009485,76.0,37.0,39.0,0.4868421052631579,182.40522467091995,20059.52767045038,,,,,66720.0,66728.0,66841.0,66856.0,66865.0,66883.0,66898.0,66921.0,67113.0,67186.0,0.1483469795026541,-0.21828782817419806,0.060382632379426614,-0.05742264633075062,0.010018951070375573
66,66,67735.14915356261,405.4323776812965,1.0594931486143913,67883.54796540085,-6050.527383963787,15.287792405036306,67906.75917294694,43363.050835811075,7.9141249440047,67943.39137427826,-10741.382783029669,9.52204115673112,68184.38347749642,18101.945336312205,30.351696073609663,0.922759020701192,142.0,138.0,79.0,266.0,345.0,4.0,1011.0,1033.0,4.0,2.0,2.0,0.5,140.78695615956465,654.4536271277916,15.0,9.0,6.0,0.6,1090.1429836037278,5859.479715636921,18.0,9.0,9.0,0.5,2584.009948394255,46520.208940314275,24.0,13.0,11.0,0.5416666666666666,551.6262470732995,10892.597329772529,75.0,39.0,36.0,0.52,200.43856414944608,19532.766251922825,,,,,67733.0,67737.0,67875.0,67890.0,67899.0,67916.0,67930.0,67954.0,68148.0,68220.0,0.34725138866495486,-0.18017321704766165,0.05959013258034576,-0.051355235933386055,0.011072763751383649
67,67,68758.19514169676,1362.293315224092,3.9331902739392985,68886.54796540085,-6194.177171712122,10.864628097879852,68907.2589937414,44313.79688207347,8.022706072170276,68944.36394303307,-10073.977228527508,9.211356841314595,69182.95881659626,17990.62516530044,31.666789071362295,0.9305481590990344,124.0,112.0,79.0,265.0,344.0,12.0,1022.0,1001.0,12.0,6.0,6.0,0.5,161.6937098870026,1045.9523578676165,16.0,13.0,3.0,0.8125,1417.788300802545,12977.230478861631,18.0,8.0,10.0,0.4444444444444444,2709.766781404735,50636.29645363492,24.0,12.0,12.0,0.5,535.5151376664539,10302.35934192919,82.0,42.0,40.0,0.5121951219512195,178.1180236539225,19043.00632386093,,,,,68752.0,68764.0,68876.0,68890.0,68899.0,68917.0,68932.0,68955.0,69146.0,69220.0,0.11869228754191206,-0.22889049852777404,0.061149505843877114,-0.05315826366472034,0.00990060223129261
68,68,69774.00863161124,956.5257246289073,2.069029953404221,69898.972626301,-5651.146396785473,14.550745222501424,69920.70503531206,43707.724045742354,8.078542296984363,69956.87462888683,-9853.309193524605,8.7385097802228,70196.53415569612,18014.031394664016,31.24667717562196,0.9229333306627344,118.0,112.0,78.0,268.0,346.0,6.0,1017.0,1013.0,6.0,3.0,3.0,0.5,138.81294491262528,812.5185812301988,15.0,11.0,4.0,0.7333333333333333,1217.368267301057,9227.502363295194,18.0,9.0,9.0,0.5,2554.598287401293,46996.59728150485,22.0,12.0,10.0,0.5454545454545454,578.3381539579277,10337.436626451075,77.0,38.0,39.0,0.4935064935064935,156.51531663485335,19074.900093286054,,,,,69771.0,69777.0,69889.0,69903.0,69912.0,69930.0,69945.0,69967.0,70160.0,70235.0,0.1451220195530852,-0.21541970103509073,0.05844729605979428,-0.05869481436125031,0.008688522474831211
69,69,70786.74006010912,972.6807619019086,2.755905100393013,70912.972626301,-6746.195388832117,12.721542299128917,70933.62353310836,44499.99672508399,7.980694504623981,70971.16392946625,-10391.130359820443,9.603514100688631,71209.53415569612,17620.980740401897,31.67623494780404,0.924437502866356,119.0,112.0,80.0,266.0,346.0,7.0,1012.0,1013.0,8.0,4.0,4.0,0.5,150.5556950254055,507.7509595545048,20.0,15.0,5.0,0.75,1369.563682429634,11402.907298127366,18.0,9.0,9.0,0.5,2682.660603918799,48109.8745859681,25.0,13.0,12.0,0.52,542.6681194178099,10117.401288142772,79.0,40.0,39.0,0.5063291139240507,157.06678414694653,18943.980008547347,,,,,70783.0,70790.0,70902.0,70917.0,70926.0,70943.0,70958.0,70982.0,71172.0,71248.0,0.1547842837263687,-0.2030127506678589,0.060284512389786826,-0.05222416624818352,0.008913623280162791
70,70,71755.15067819973,1001.91369988287,2.859976300769461,71879.972626301,-5830.112252524525,14.85604989204595,71901.4112661798,44974.8580663524,7.941985982509907,71938.17100771487,-10151.977857508706,9.232381746858715,72175.75010769133,17913.64638668217,31.664351952891636,0.9264287051851774,119.0,111.0,80.0,265.0,345.0,8.0,970.0,968.0,8.0,5.0,3.0,0.625,139.859813151603,563.7750810146043,19.0,14.0,5.0,0.7368421052631579,1274.2860030697389,10186.231497955574,18.0,8.0,10.0,0.4444444444444444,2706.0186020585807,50197.79685220079,25.0,13.0,12.0,0.52,547.0996477526824,10068.270471408685,78.0,38.0,40.0,0.4871794871794871,154.7664654204719,19353.32364425932,,,,,71750.0,71758.0,71869.0,71884.0,71893.0,71911.0,71926.0,71949.0,72140.0,72214.0,0.13959267466644432,-0.21856972008008152,0.06016736279781766,-0.05389094178806065,0.008639584709874167
71,71,72511.99805483503,344.0047962750049,0.7050843188940431,72876.972626301,-6031.55780700216,17.83575780572186,72898.23550033083,43617.66383348217,8.045958715714441,72934.81244721054,-10384.230713407802,9.511957741200948,73173.9588165969,17382.066065558705,30.34891445564376,0.9255998351160964,353.0,351.0,81.0,266.0,347.0,2.0,756.0,996.0,2.0,1.0,1.0,0.5,107.28885859695517,2611.7348093608725,19.0,15.0,4.0,0.7894736842105263,1259.167198439444,9390.928060499004,18.0,8.0,10.0,0.4444444444444444,2533.7642706625775,46692.95995673709,24.0,13.0,11.0,0.5416666666666666,538.8444006549569,10730.439550041392,76.0,38.0,38.0,0.5,190.73330906731317,18282.16890097159,,,,,72511.0,72513.0,72864.0,72881.0,72890.0,72908.0,72922.0,72945.0,73139.0,73211.0,0.31188186838879456,-0.2087631817069963,0.05809032506499322,-0.051890642217648095,0.010972994139358226
72,72,,,,,,,,,,,,,,,,,,,,,,,,,,,,,,,,,,,,,,,,,,,,,,,,,,,,,,,,,,,,73474.0,73837.0,73854.0,73862.0,73879.0,73894.0,73920.0,74110.0,74182.0,,,,,
73,73,74670.14189852081,935.0128369051888,2.4952044229301915,74818.54796540085,-5408.209852260864,15.287792404836472,74841.0304386791,43682.23568242056,7.926155392076036,74877.12376178868,-10232.637399876246,8.909697787940448,75118.80813839656,18278.384062250825,30.6908913229066,0.9239678003172184,143.0,136.0,78.0,265.0,343.0,7.0,2158.0,1943.0,7.0,3.0,4.0,0.4285714285714285,142.69495021617396,1470.7608845355835,16.0,11.0,5.0,0.6875,1161.7822300293017,8661.472280984637,18.0,8.0,10.0,0.4444444444444444,2624.295767592765,47347.26686671782,23.0,12.0,11.0,0.5217391304347826,568.3897140314356,10486.869451886194,77.0,42.0,35.0,0.5454545454545454,187.29107239301908,19194.70701752379,,,,,74667.0,74674.0,74810.0,74823.0,74833.0,74851.0,74865.0,74888.0,75078.0,75153.0,0.1526128247484621,-0.2148182599725909,0.06007695637814811,-0.05554674633915101,0.010246588087609962
74,74,75671.31044593244,705.2808934698004,2.103555657846622,75819.54796540085,-5934.0632924252905,11.99024435067151,75842.4794338621,43457.62402591825,7.8716097026298435,75879.11874111745,-9745.644638474638,9.345352367001023,76116.68745502838,17747.298611767757,31.92922655842247,0.9239895809172184,143.0,136.0,79.0,266.0,345.0,7.0,1002.0,1002.0,7.0,3.0,4.0,0.4285714285714285,134.63765465742392,970.334899305974,14.0,9.0,5.0,0.6428571428571429,1120.5376382005984,6877.967067384858,18.0,8.0,10.0,0.4444444444444444,2657.1897595726896,49364.51856742928,24.0,13.0,11.0,0.5416666666666666,518.4837588459187,9501.259443625871,80.0,40.0,40.0,0.5,183.95442449411408,19212.572498459915,,,,,75668.0,75675.0,75811.0,75825.0,75834.0,75852.0,75866.0,75890.0,76082.0,76156.0,0.190899336567933,-0.18883142679501608,0.06114438649448332,-0.05320158676820689,0.010365207039010367
75,75,76671.15067819973,987.0592936291654,2.112146341595196,76797.972626301,-6332.172691271446,13.158018767239298,76819.37914197092,44053.31992299694,7.891692455044736,76856.60964554528,-10498.422193002943,9.523705557005746,77093.32502559423,17673.94948300947,31.845771102278203,0.9279476892307011,120.0,113.0,81.0,264.0,345.0,7.0,1000.0,977.0,7.0,4.0,3.0,0.5714285714285714,141.66059104577155,650.0806680847166,19.0,14.0,5.0,0.7368421052631579,1258.2843953883576,9334.829378680672,18.0,8.0,10.0,0.4444444444444444,2719.193239436327,49986.46384182178,24.0,13.0,11.0,0.5416666666666666,527.162107835193,10186.228831625242,78.0,38.0,40.0,0.4871794871794871,178.22895522440655,18921.45069431848,,,,,76667.0,76674.0,76787.0,76802.0,76811.0,76829.0,76844.0,76868.0,77057.0,77132.0,0.14351781292177665,-0.19871289946384973,0.06172504692471179,-0.050213460474712035,0.010084274338101041
76,76,77659.74583893533,525.9631514544853,2.3252458741602635,77788.54796540085,-6007.340961128794,14.840295286129308,77809.2902018192,43623.356837104235,8.06938000483147,77845.35565242084,-10330.026459625691,8.741609412738898,78083.25219629437,17725.565900698955,31.52804680060942,0.9243786449437776,122.0,114.0,78.0,266.0,344.0,8.0,988.0,989.0,8.0,4.0,4.0,0.5,138.39912234167443,317.5844092860867,20.0,16.0,4.0,0.8,1371.5771165739463,12363.969243385203,18.0,8.0,10.0,0.4444444444444444,2587.835968885683,48478.3014087972,23.0,12.0,11.0,0.5217391304347826,598.2659661575543,10997.610897579763,79.0,39.0,40.0,0.4936708860759494,174.41443859359498,18978.379198442773,,,,,77656.0,77664.0,77778.0,77792.0,77801.0,77819.0,77833.0,77856.0,78047.0,78122.0,0.26313463587505886,-0.22831684191872864,0.059322256619292905,-0.05791524043968736,0.009839710594893756
77,77,78649.02885616281,972.0615811494696,1.6850872957704683,78775.972626301,-5798.285415702949,17.258593731089213,78797.1097855935,46188.37252666182,7.751392217563961,78835.027373699,-10383.162826838095,9.44950550337665,79072.53415569612,17392.15493285618,31.130644198185227,0.9290521575586372,119.0,113.0,80.0,266.0,346.0,6.0,989.0,989.0,6.0,3.0,3.0,0.5,164.01349785014466,906.6517952818336,19.0,14.0,5.0,0.7368421052631579,1317.5099732619149,10263.484406131933,17.0,8.0,9.0,0.4705882352941176,2761.5687484347013,49880.40932477579,25.0,14.0,11.0,0.56,510.2092149612935,9805.098958798668,79.0,40.0,39.0,0.5063291139240507,179.43540307250922,18486.14518744139,,,,,78646.0,78652.0,78765.0,78780.0,78789.0,78806.0,78821.0,78845.0,79036.0,79111.0,0.16872747676767305,-0.22722406346086846,0.05978926291114957,-0.04913813097898452,0.010317031084718029
78,78,79617.69048409395,387.120319608492,2.142608935899101,79745.97262629986,-6140.626528130841,17.83575780598125,79766.96138859875,44464.63788031317,7.966136175823997,79803.65853118888,-10821.502831500848,9.31012653812056,80041.13040542995,17563.523868800778,31.046830216441773,0.9223263105242784,121.0,113.0,79.0,265.0,344.0,8.0,968.0,969.0,8.0,4.0,4.0,0.5,144.74291513935518,140.36183634052804,19.0,15.0,4.0,0.7894736842105263,1310.463323622996,9997.928581131851,18.0,8.0,10.0,0.4444444444444444,2610.1534978649356,47507.893497120866,23.0,13.0,10.0,0.5652173913043478,570.5246219611769,11062.730879739687,78.0,39.0,39.0,0.5,190.55896530947305,19231.760332381375,,,,,79614.0,79622.0,79735.0,79750.0,79759.0,79776.0,79791.0,79814.0,80007.0,80079.0,0.37389645494645857,-0.21340873241836628,0.05870178241169457,-0.05272138545308222,0.01084970002221338
79,79,80582.93648986482,361.3971663110659,2.183424834290361,80733.39728720085,-6041.918893271043,20.38372317711646,80754.62765173987,44150.93195189824,7.965605850554225,80791.50432989403,-10736.193028200409,9.638241552747402,81029.64645226611,17441.609488233367,30.84994626343259,0.924044457363278,141.0,136.0,80.0,266.0,346.0,5.0,966.0,988.0,5.0,2.0,3.0,0.4,116.49599616934108,518.8188568888884,18.0,13.0,5.0,0.7222222222222222,1216.2087272555725,8090.163141329498,18.0,9.0,9.0,0.5,2555.302298103933,44993.13197419257,24.0,14.0,10.0,0.5833333333333334,542.8291125908422,10802.657654051762,76.0,37.0,39.0,0.4868421052631579,176.23527303410907,18885.927697773357,,,,,80581.0,80586.0,80722.0,80738.0,80746.0,80764.0,80778.0,80802.0,80994.0,81068.0,0.32234894744323844,-0.2012951098383791,0.05787652004464811,-0.05056066998469669,0.010104301048191835
80,80,81568.15067819973,932.7402157339062,3.030834216222579,81694.54796540085,-6121.4466580609815,13.20956080959678,81715.56110173879,45461.755892389265,7.771113117397782,81753.35443839851,-9996.954509315758,9.563166012986532,81990.53415569612,17395.601338996927,31.923037699316037,0.9271119304331764,120.0,113.0,81.0,264.0,345.0,7.0,986.0,961.0,7.0,4.0,3.0,0.5714285714285714,112.123592358534,816.3798154974211,18.0,14.0,4.0,0.7777777777777778,1377.8202568180272,11363.450060117895,18.0,9.0,9.0,0.5,2780.311199004487,48648.2048369041,25.0,13.0,12.0,0.52,518.8691236734319,9738.380463902084,83.0,44.0,39.0,0.5301204819277109,143.18016222933966,18621.071718686573,,,,,81564.0,81571.0,81684.0,81698.0,81707.0,81725.0,81740.0,81765.0,81952.0,82029.0,0.12020881105711949,-0.22508082382840908,0.06115714504265195,-0.051902719292152295,0.008230825680533547
81,81,82535.84932180027,842.1934020120417,2.96850710383599,82661.972626301,-5675.551361881474,14.312273175272422,82683.58946484965,43755.46893240205,7.953930620370203,82720.027373699,-9925.26893518899,8.78118375805578,82957.27735375642,17485.001127247502,32.257045691939986,0.9272520676917652,116.0,108.0,81.0,266.0,347.0,8.0,966.0,968.0,8.0,3.0,5.0,0.375,142.11276529238492,649.0822174239001,19.0,14.0,5.0,0.7368421052631579,1196.4314436136196,9392.020596608634,18.0,9.0,9.0,0.5,2587.7492283795323,46450.747524659695,24.0,13.0,11.0,0.5416666666666666,579.1045275520573,9938.408380302695,82.0,41.0,41.0,0.5,186.06041408899193,18881.47649709492,,,,,82533.0,82541.0,82649.0,82666.0,82675.0,82693.0,82708.0,82730.0,82921.0,82996.0,0.16874124750071717,-0.21080444300956808,0.059141160899848964,-0.058346482229705995,0.010641143957322791
82,82,83515.66917997618,1069.3357844993925,2.832241223112119,83641.972626301,-6116.628214774188,10.951202631902452,83663.19744869071,44047.70457917253,7.908518120673255,83700.65700314629,-9904.62576890775,8.912270384025813,83936.9884779385,17586.007887408654,32.787091307743545,0.928221339172752,120.0,112.0,79.0,266.0,345.0,8.0,981.0,979.0,8.0,4.0,4.0,0.5,139.3935315809432,745.4703476731008,15.0,11.0,4.0,0.7333333333333333,1289.5208700860612,10171.339510456655,18.0,8.0,10.0,0.4444444444444444,2690.4539881072283,49738.16205829397,23.0,13.0,10.0,0.5652173913043478,566.8707156203578,10000.018177010044,82.0,40.0,42.0,0.4878048780487805,188.45068676342072,18903.836240384237,,,,,83512.0,83520.0,83632.0,83646.0,83655.0,83673.0,83688.0,83711.0,83901.0,83977.0,0.13035524818446062,-0.21082217601052403,0.06108045842142202,-0.05723292619493593,0.0107159446288176
83,83,84466.14346606341,1211.821092573541,2.508074031422593,84591.972626301,-6213.833385864653,13.074523386635123,84612.6032565842,44564.334207930275,7.894798361819975,84649.90284219127,-10468.69757910584,9.635418403862374,84885.9308276722,17515.944695457354,32.16046167910693,0.9331544423785856,118.0,110.0,81.0,265.0,346.0,8.0,951.0,950.0,8.0,4.0,4.0,0.5,148.801620710576,812.568715196157,18.0,14.0,4.0,0.7777777777777778,1334.6528034589044,11403.34217966061,18.0,9.0,9.0,0.5,2686.016757325457,47756.25661745823,24.0,13.0,11.0,0.5416666666666666,541.5420088034876,10356.07542562996,80.0,39.0,41.0,0.4875,175.19439696075952,18959.5510129135,,,,,84462.0,84470.0,84580.0,84596.0,84604.0,84622.0,84637.0,84661.0,84851.0,84926.0,0.12279174015247286,-0.21478734954416354,0.06027279000271651,-0.05172964494497722,0.01000199532521903
84,84,85446.06094230681,1160.826793286333,3.348588860276575,85569.972626301,-6199.86738473427,11.82088702064991,85591.1265865944,42957.09629724864,8.048154318531232,85627.32887016726,-9708.108675510264,8.817196037477489,85865.53415569612,17724.76137640097,32.98329695141563,0.9242350809109362,117.0,109.0,78.0,267.0,345.0,8.0,978.0,978.0,8.0,4.0,4.0,0.5,105.25801086714752,952.6734483376182,16.0,12.0,4.0,0.75,1271.3753023241798,10150.863064387067,18.0,8.0,10.0,0.4444444444444444,2587.630973412457,47876.14204214024,23.0,12.0,11.0,0.5217391304347826,585.2319007823254,10053.13859771379,79.0,39.0,40.0,0.4936708860759494,189.48931280521936,19602.30848817091,,,,,85442.0,85450.0,85559.0,85574.0,85583.0,85601.0,85615.0,85637.0,85830.0,85904.0,0.09067503565209686,-0.20506491888111114,0.0602375671648503,-0.06028279249269583,0.010690655224137938
85,85,86405.05034514153,675.4204535280668,1.0948878708401222,86530.972626301,-6278.959454334108,17.8357578060484,86552.03837732493,46189.806834273695,7.706282853778747,86590.22219737482,-11080.259327932234,10.154052993495734,86825.70846192594,16853.872911906496,31.155962628970673,0.9298607060595676,116.0,112.0,83.0,262.0,345.0,4.0,960.0,962.0,4.0,2.0,2.0,0.5,170.67022452056867,343.12702654090947,17.0,12.0,5.0,0.7058823529411765,1330.382602869238,9059.0688423781,17.0,8.0,9.0,0.4705882352941176,2777.4770996956263,49465.37057712732,26.0,14.0,12.0,0.5384615384615384,536.8269842719197,11116.377114881054,78.0,38.0,40.0,0.4871794871794871,165.17673649589335,18194.79902939458,,,,,86403.0,86407.0,86519.0,86535.0,86544.0,86561.0,86577.0,86602.0,86790.0,86864.0,0.25268737958566506,-0.2118794702442185,0.06013181890240525,-0.048448954883089444,0.00980052106475797
86,86,87351.5388111906,1040.5958407214996,2.8499621165832294,87475.54796540085,-5961.585214169634,14.047623838416666,87496.46724319052,44359.95218012358,7.963819156469388,87533.03562692674,-10311.96910763677,9.283406556505048,87769.91514535727,17747.020958020254,31.757804562530232,0.932901726541737,116.0,108.0,79.0,265.0,344.0,8.0,947.0,944.0,8.0,4.0,4.0,0.5,156.72984623265182,770.4678172465058,17.0,13.0,4.0,0.7647058823529411,1355.7906480324896,11946.07615085565,18.0,8.0,10.0,0.4444444444444444,2659.1296414630106,49837.566287154186,24.0,13.0,11.0,0.5416666666666666,578.2922271678909,10547.630648624743,80.0,41.0,39.0,0.5125,180.5697546415912,19454.40138249025,,,,,87348.0,87356.0,87464.0,87479.0,87488.0,87506.0,87521.0,87543.0,87735.0,87808.0,0.15061548403267,-0.22742116388943245,0.059944375743815385,-0.05607970903826923,0.010174651569337778
87,87,88314.9185810662,427.2649315403318,1.978693293147913,88439.97262630098,-6060.313836739837,17.835757794196713,88460.8598139598,44250.19804184573,8.05737967352984,88497.54544510444,-10529.751656897944,9.242122831248263,88734.43513237205,17324.281717251262,31.84830250944239,0.9237899259536628,114.0,107.0,82.0,265.0,347.0,7.0,963.0,964.0,7.0,3.0,4.0,0.4285714285714285,135.15083749207457,322.36543043083327,20.0,16.0,4.0,0.8,1304.316078711367,10639.760558581316,19.0,9.0,10.0,0.4736842105263157,2554.833787015994,46452.81383187389,23.0,13.0,10.0,0.5652173913043478,564.1405012110132,10748.22599535384,80.0,39.0,41.0,0.4875,168.1167388788467,18699.436212410757,,,,,88312.0,88319.0,88426.0,88444.0,88452.0,88471.0,88485.0,88508.0,88700.0,88773.0,0.31631624202071207,-0.21522253035876235,0.05773609836954819,-0.05357586005757789,0.009704110197621558
88,88,89269.76012357225,1025.0489069712337,2.0702305659958826,89395.39728720114,-5546.789548231323,20.383722396338243,89416.29916755174,46817.24517024682,7.772394998417901,89454.4376429766,-10482.09552398022,9.565391864638164,89690.53415569612,17096.30554770898,31.623562281624217,0.9302526526063812,117.0,111.0,81.0,264.0,345.0,6.0,955.0,956.0,6.0,3.0,3.0,0.5,139.83980660544768,1049.5999070218948,17.0,12.0,5.0,0.7058823529411765,1293.3771139488956,9754.894482595004,17.0,8.0,9.0,0.4705882352941176,2749.922183981912,50354.93067364665,26.0,14.0,12.0,0.5384615384615384,525.8817496619671,10045.144327512591,81.0,42.0,39.0,0.5185185185185185,166.281149890717,18249.947130900146,,,,,89267.0,89273.0,89384.0,89400.0,89408.0,89425.0,89441.0,89465.0,89655.0,89729.0,0.13642257033241445,-0.2331758042562311,0.05873737709218175,-0.05016952463931385,0.009726145185384791
89,89,90192.15067819972,648.5182123145696,2.6305706477109996,90340.972626301,-6163.272522657157,17.83575780532271,90361.92117154428,44721.85038527197,7.981114749820495,90398.53287949796,-10700.077772196884,9.31792514237905,90635.52997106964,17391.656057426764,31.18455602993084,0.9285589632364948,144.0,135.0,79.0,265.0,344.0,9.0,923.0,945.0,11.0,8.0,3.0,0.7272727272727273,138.79531662616603,666.0235388839196,20.0,16.0,4.0,0.8,1322.5672415028428,10513.831791354736,17.0,8.0,9.0,0.4705882352941176,2636.4599725094945,47335.03802212463,24.0,14.0,10.0,0.5833333333333334,545.4519043960366,10677.05844208751,78.0,39.0,39.0,0.5,169.6662023840061,18990.226098503394,,,,,90186.0,90195.0,90330.0,90345.0,90354.0,90371.0,90386.0,90409.0,90600.0,90674.0,0.21401915010343936,-0.2145884733541926,0.05895239015820658,-0.05097644297626888,0.009755609346445964
90,90,91182.73536768036,890.4333959447974,2.3044362735608757,91308.972626301,-6474.27421600893,10.470219633129618,91330.52271814746,42024.28746912416,8.073697886351248,91367.07378880327,-9918.917533503143,9.120443696048149,91604.95881659626,17630.638062465845,31.51392171980955,0.9257980453786356,120.0,112.0,79.0,264.0,343.0,8.0,989.0,969.0,8.0,4.0,4.0,0.5,131.91356144057067,660.8658029626104,17.0,12.0,5.0,0.7058823529411765,1261.8118520330258,9391.189749990648,18.0,9.0,9.0,0.5,2542.675952446595,45499.341005309994,24.0,13.0,11.0,0.5416666666666666,541.7651860696529,10179.66217160991,79.0,40.0,39.0,0.5063291139240507,180.71624334295063,18950.259921589473,,,,,91179.0,91187.0,91299.0,91313.0,91322.0,91340.0,91355.0,91378.0,91568.0,91642.0,0.14814534365100193,-0.19489626326190282,0.060504915266314394,-0.054619386061002306,0.010250124964432252
91,91,92139.15067819972,744.5176787891272,1.7039115586844094,92266.54796540084,-6510.353644046206,14.079728019908336,92287.3968681712,45452.712378862,7.759288903091509,92325.68617157766,-10665.016726675807,9.86671403932492,92561.95881659626,17190.645119519253,31.000646076786147,0.9296604603946844,119.0,113.0,82.0,262.0,344.0,6.0,958.0,957.0,6.0,3.0,3.0,0.5,171.91639775486962,541.4398134462947,18.0,14.0,4.0,0.7777777777777778,1400.7074900323596,11069.543099126931,18.0,8.0,10.0,0.4444444444444444,2756.224396876419,50548.848896877214,25.0,14.0,11.0,0.56,536.4523887244826,10283.558622547884,79.0,40.0,39.0,0.5063291139240507,167.8351448209542,18365.726956650553,,,,,92136.0,92142.0,92255.0,92270.0,92279.0,92297.0,92312.0,92337.0,92524.0,92599.0,0.23090975896565943,-0.21515075318732077,0.0606393821759736,-0.050300191970884055,0.009763167330490959
92,92,92834.9309821132,488.4525523464728,1.1195532818561709,93207.95723716683,-6219.098884661759,20.383723206912418,93229.99561675072,44932.90211554423,7.944036441945705,93267.22180184258,-10872.652986156305,9.921170475102786,93503.48025956604,17102.82527083603,30.273476608557218,0.9193206305108584,363.0,359.0,82.0,263.0,345.0,4.0,695.0,942.0,4.0,2.0,2.0,0.5,129.65018683048834,2904.338596267958,20.0,14.0,6.0,0.7,1204.8994588445828,7483.594646858608,18.0,8.0,10.0,0.4444444444444444,2646.2800819401177,47001.723679732735,25.0,13.0,12.0,0.52,544.73695535998,11062.87501908443,76.0,37.0,39.0,0.4868421052631579,180.57662848126063,18422.216691923204,,,,,92833.0,92837.0,93196.0,93213.0,93222.0,93239.0,93254.0,93278.0,93468.0,93541.0,0.26543046240144097,-0.19374180748536438,0.05889403883005934,-0.05010156730409504,0.010558292306779415
93,93,94029.7416389626,908.1369597694422,2.181354732451327,94180.54796540084,-5619.384374802343,11.4901901852071,94203.92136509696,42245.19823189819,7.979026894704243,94241.027373699,-9883.536232196851,8.907926834084469,94476.49592466456,17550.239133509665,32.59524539140997,0.9230556859433788,146.0,138.0,79.0,265.0,344.0,8.0,1194.0,974.0,8.0,4.0,4.0,0.5,148.51540646094818,794.8011506722273,15.0,9.0,6.0,0.6,1050.7291625997664,6691.545214599822,19.0,9.0,10.0,0.4736842105263157,2519.745025088392,46419.34393950325,23.0,13.0,10.0,0.5652173913043478,521.5457113974921,9870.273321509036,79.0,38.0,41.0,0.4810126582278481,188.0363986119445,19008.881898702108,,,,,94026.0,94034.0,94172.0,94187.0,94195.0,94214.0,94228.0,94251.0,94440.0,94516.0,0.16353855535034414,-0.1869829669084925,0.05964571431897796,-0.05276914043158885,0.010714178717537583
94,94,95019.87022219069,873.3289457764265,1.6523303375299494,95147.972626301,-6275.709040845698,17.83575780594818,95168.83398178504,46219.9620449353,7.825382752793103,95207.14199676682,-10393.336521965197,9.8442299042905,95442.53415569612,16947.395161043656,31.119589787352,0.924455057782906,119.0,113.0,82.0,263.0,345.0,6.0,991.0,965.0,6.0,3.0,3.0,0.5,163.91599272796884,699.4458729605634,20.0,16.0,4.0,0.8,1341.3284016389264,10454.558939946392,17.0,8.0,9.0,0.4705882352941176,2756.3543078167227,48673.953436085234,26.0,14.0,12.0,0.5384615384615384,526.7070039932927,10281.619306904142,77.0,38.0,39.0,0.4935064935064935,166.28459127824274,17774.374177383692,,,,,95017.0,95023.0,95136.0,95152.0,95161.0,95178.0,95194.0,95218.0,95406.0,95481.0,0.18769101095377133,-0.21373336349866412,0.05963558137795483,-0.05067737418875586,0.009811808227642849
95,95,95985.72466429354,963.6526838944648,2.35266241067266,96112.39728720114,-5835.871756100947,13.517338447166884,96133.82814533245,43788.62370825688,7.9983482015929805,96170.27659259342,-9961.949602738569,8.823381083873285,96406.73293074008,17584.93521214897,32.02904178031935,0.923129490019176,118.0,112.0,79.0,265.0,344.0,6.0,966.0,965.0,6.0,3.0,3.0,0.5,137.35690248635348,640.1805698943481,17.0,12.0,5.0,0.7058823529411765,1187.182746109043,9077.84205977735,18.0,9.0,9.0,0.5,2609.3918327616652,47464.9909602791,23.0,12.0,11.0,0.5217391304347826,563.0674200357032,10224.384468571016,81.0,41.0,40.0,0.5061728395061729,210.0713871914877,19353.2143694071,,,,,95983.0,95989.0,96101.0,96117.0,96125.0,96143.0,96158.0,96180.0,96372.0,96445.0,0.14253776778916358,-0.20342851860442895,0.05959063363459018,-0.05652180973500552,0.011946099582235305
96,96,96945.7260172996,899.3690530532152,3.863424749931091,97094.54796540084,-5761.7914894498435,13.600879274460215,97117.61598882783,42823.38852741398,7.946241708517277,97154.11187449578,-10364.73506258734,8.799552360360881,97391.15725690246,17428.648791671807,31.862346801132496,0.9284089016662496,148.0,136.0,79.0,265.0,344.0,12.0,961.0,984.0,12.0,8.0,4.0,0.6666666666666666,118.857452428357,1149.100154170952,14.0,9.0,5.0,0.6428571428571429,1113.3595101440442,6437.316279897185,18.0,9.0,9.0,0.5,2543.8265412088444,46042.93636639912,23.0,12.0,11.0,0.5217391304347826,572.8646795473359,10854.06624995813,80.0,40.0,40.0,0.5,184.51387151020865,18905.16680335198,,,,,96938.0,96950.0,97086.0,97100.0,97109.0,97127.0,97142.0,97165.0,97356.0,97430.0,0.1321564846209182,-0.19323148228856712,0.059402738285887366,-0.05527055694989778,0.01058681448663867
97,97,97932.2739827004,962.3524069966186,3.3526926686991354,98059.972626301,-6702.725576385245,11.944594144217056,98081.2663868714,44472.987011581245,7.833352274303379,98119.59632702533,-10287.404397893926,9.852716096046626,98354.52314969143,17243.322645510478,32.21650329733153,0.9306558870506983,121.0,110.0,81.0,264.0,345.0,11.0,984.0,964.0,11.0,4.0,7.0,0.3636363636363636,123.0725924064738,737.7778852091576,18.0,13.0,5.0,0.7222222222222222,1299.43402180463,9271.0470287257,18.0,8.0,10.0,0.4444444444444444,2726.0737008081965,49839.40512501036,25.0,14.0,11.0,0.56,508.2269807712751,9991.55613818584,79.0,39.0,40.0,0.4936708860759494,159.31528645270245,18802.60150400106,,,,,97928.0,97939.0,98049.0,98064.0,98073.0,98091.0,98107.0,98130.0,98317.0,98394.0,0.1278872391357839,-0.19386651101795666,0.0612972926711286,-0.04940283876419995,0.009239245227147811
98,98,98884.15067819972,625.1070694030425,2.64015555420027,99006.54796540084,-5698.473544316521,15.28779240518434,99030.3248055341,43301.20589307437,7.909630481010945,99066.87400382484,-10392.280137813244,9.099662786711386,99306.38347749642,17847.588390593428,30.675114905668533,0.921105333765083,119.0,111.0,79.0,265.0,344.0,8.0,954.0,948.0,10.0,6.0,4.0,0.6,117.91403996198156,259.92172599180947,15.0,9.0,6.0,0.6,1011.0719582870582,5361.455907972718,18.0,8.0,10.0,0.4444444444444444,2587.716145005735,48274.42041863473,23.0,13.0,10.0,0.5652173913043478,571.5451857847096,10490.83486946436,77.0,40.0,37.0,0.5194805194805194,175.39123965684223,18948.056132463174,,,,,98879.0,98887.0,98998.0,99013.0,99022.0,99040.0,99054.0,99077.0,99268.0,99342.0,0.18863014951116414,-0.17742856054766978,0.05976083325244336,-0.054997091899504434,0.009827167447971973
99,99,99825.84932180028,615.6636216854419,1.8212940796029835,99976.972626301,-6300.618384395855,14.766372805996962,99998.8361276682,43330.26219837961,7.932450947322455,100036.027373699,-10198.537834308216,9.28649198417346,100273.53415569612,17545.146486301594,31.52467582076448,0.9220305486818466,144.0,136.0,79.0,266.0,345.0,8.0,940.0,969.0,8.0,3.0,5.0,0.375,136.60675653925583,1065.6372225782343,16.0,11.0,5.0,0.6875,1204.160902104402,7670.721681460524,18.0,8.0,10.0,0.4444444444444444,2610.5965888189867,46655.54232174532,24.0,13.0,11.0,0.5416666666666666,540.9345038818727,9941.418027690062,80.0,41.0,39.0,0.5125,166.25338407280404,18712.760250803138,,,,,99823.0,99831.0,99967.0,99982.0,99991.0,100008.0,100023.0,100046.0,100236.0,100312.0,0.2218853798203651,-0.1911178917114919,0.06024880663926869,-0.053040397816846975,0.009475747848706004
100,100,100777.15067819972,773.938889509267,1.8092094162090608,100925.39728720114,-6798.51460478123,11.801420414337054,100946.6537667362,45457.31776385791,7.711397130333089,100985.22896200146,-10079.17249747727,9.368983394845232,101219.53415569612,17137.456174633982,32.26329851045197,0.9242612499591536,140.0,134.0,82.0,262.0,344.0,6.0,953.0,948.0,6.0,3.0,3.0,0.5,160.26598355101504,1011.9763259504316,17.0,12.0,5.0,0.7058823529411765,1260.3704952480869,8104.528376962452,17.0,8.0,9.0,0.4705882352941176,2819.7960918649364,49618.6867480766,24.0,13.0,11.0,0.5416666666666666,523.564236405806,9869.324560178056,81.0,42.0,39.0,0.5185185185185185,150.13806767782074,18406.59892165348,,,,,100774.0,100780.0,100914.0,100930.0,100939.0,100956.0,100972.0,100996.0,101183.0,101258.0,0.20707834394087007,-0.18538909872484483,0.062031730655848175,-0.05194516082911069,0.008760814099122115
101,101,101737.84932180028,571.6092472875503,2.1860880300121814,101863.972626301,-5839.166574786828,13.3888218950341,101885.2969922639,43941.13559729502,7.995027012154333,101921.70861548749,-10035.138281641212,8.979890009423833,102158.53415569612,17790.77526030305,32.04469653606888,0.9254307868728768,119.0,112.0,78.0,265.0,343.0,7.0,959.0,939.0,7.0,3.0,4.0,0.4285714285714285,116.82392239925944,489.6920007621136,18.0,14.0,4.0,0.7777777777777778,1258.1146507107692,10296.951701535418,18.0,8.0,10.0,0.4444444444444444,2629.215894737788,48989.055109034234,23.0,13.0,10.0,0.5652173913043478,542.181370889767,10154.604382440124,79.0,40.0,39.0,0.5063291139240507,157.5562063555517,18929.77242897558,,,,,101735.0,101742.0,101854.0,101868.0,101877.0,101895.0,101909.0,101932.0,102122.0,102197.0,0.20437724363911614,-0.21546133931907901,0.05983495553764524,-0.05402829095854722,0.008856061866348812
102,102,102700.31493587625,960.490006111271,3.351184477595381,102823.54796540084,-5930.557074002562,9.834760626517964,102846.06918173603,41965.73812317903,7.997272596538492,102882.2128434925,-9853.548541090657,8.722676596985446,103118.49325241867,17667.50957135192,33.08344940990536,0.9251217985596232,120.0,110.0,78.0,266.0,344.0,10.0,964.0,960.0,11.0,6.0,5.0,0.5454545454545454,105.64662161623632,941.4208176819128,16.0,11.0,5.0,0.6875,1164.584650459782,8613.767919587855,19.0,9.0,10.0,0.4736842105263157,2571.939414637876,47230.500666415304,23.0,12.0,11.0,0.5217391304347826,569.9888568553972,10072.743580509648,82.0,39.0,43.0,0.4756097560975609,174.03677583821354,18574.78409129031,,,,,102695.0,102705.0,102815.0,102829.0,102838.0,102856.0,102870.0,102893.0,103082.0,103159.0,0.10999242151822801,-0.19637019523256996,0.061286647862326314,-0.05784604951997395,0.009850668263987603
103,103,103654.48734396808,267.0782098823221,0.0204146738956054,103780.27989239262,-6947.289562233744,14.683088906615204,103801.4064876627,44966.05779040004,7.810450492001362,103839.74945654057,-10395.467251136924,10.464805256628582,104074.80432236138,16912.724547481266,31.1605705088392,0.922105728866016,116.0,112.0,82.0,262.0,344.0,4.0,954.0,956.0,4.0,1.0,3.0,0.25,161.14203824699123,62.07165279951289,17.0,12.0,5.0,0.7058823529411765,1259.4988594142012,7966.927398293271,18.0,8.0,10.0,0.4444444444444444,2761.838952657798,50277.13456274645,26.0,14.0,12.0,0.5384615384615384,508.07754212657306,10314.724233707684,81.0,41.0,40.0,0.5061728395061729,181.51594507727123,18357.281476498392,,,,,103653.0,103657.0,103769.0,103785.0,103793.0,103811.0,103826.0,103851.0,104041.0,104113.0,0.603351498866165,-0.18129356033480745,0.06142052668996553,-0.048874911521750594,0.010732507619791132
104,104,104622.29057597496,798.7064613452284,1.9901039390270057,104748.39728720114,-5680.402463501489,20.38372320641998,104769.6474835798,44898.697402601574,7.973146726595803,104806.51099307186,-10435.625643286823,9.042036063423934,105043.2280006752,17431.055090841128,31.593761112326856,0.926473594726992,117.0,112.0,80.0,265.0,345.0,5.0,967.0,968.0,5.0,2.0,3.0,0.4,141.37273971215987,701.6289895927086,17.0,12.0,5.0,0.7058823529411765,1223.2160939105313,8590.03939091093,18.0,9.0,9.0,0.5,2581.0700066644295,45741.30797077555,23.0,13.0,10.0,0.5652173913043478,533.6628159234498,10140.75016908142,78.0,38.0,40.0,0.4871794871794871,162.29962757990185,19109.938274066964,,,,,104620.0,104625.0,104737.0,104753.0,104761.0,104779.0,104794.0,104817.0,105008.0,105082.0,0.17700212350110653,-0.2153396879481884,0.05748652312828287,-0.051138555000461515,0.00931094685514359
105,105,105612.84580568007,898.7777627863411,1.9114499047409863,105737.54796540084,-6269.316389275071,15.287792402236768,105758.46424758308,43970.81182281042,7.949356526141659,105795.47172022524,-10396.030293966376,9.485279606184518,106033.53415569612,17198.888493872477,31.409636449505573,0.925599583561342,116.0,110.0,80.0,266.0,346.0,6.0,991.0,989.0,6.0,3.0,3.0,0.5,141.46907741533366,776.2155256950502,19.0,15.0,4.0,0.7894736842105263,1354.6650345057033,11319.092831143367,18.0,8.0,10.0,0.4444444444444444,2584.279150647599,48452.694004351135,25.0,13.0,12.0,0.52,561.4874866341265,10476.008164486748,79.0,40.0,39.0,0.5063291139240507,179.39485388626582,18735.196384290422,,,,,105610.0,105616.0,105726.0,105741.0,105750.0,105768.0,105783.0,105806.0,105998.0,106072.0,0.15740162170541364,-0.2160785882210588,0.058772604905760945,-0.05400979708187281,0.010430607416879272
106,106,106562.84932180028,1106.2490476213504,2.664414818185914,106713.972626301,-6321.728812824287,9.60688376610547,106736.11249304678,44277.05079131792,7.879166049834549,106774.12584441747,-9752.651170607596,8.988555210431437,107009.10949479598,17255.080536952635,33.34255618953925,0.9290695676155256,144.0,137.0,81.0,264.0,345.0,7.0,949.0,977.0,9.0,4.0,5.0,0.4444444444444444,156.12437518639229,1394.6565188539405,16.0,11.0,5.0,0.6875,1202.596065379092,8606.114612120295,17.0,8.0,9.0,0.4705882352941176,2715.630666372331,50014.9306778859,24.0,13.0,11.0,0.5416666666666666,508.309984814048,9730.993494296854,85.0,43.0,42.0,0.5058823529411764,162.98022618851476,18728.19085538033,,,,,106560.0,106567.0,106704.0,106719.0,106728.0,106745.0,106762.0,106785.0,106971.0,107049.0,0.1411295001989741,-0.19023215025287074,0.061332690814737516,-0.052120185160111694,0.009445347174096596
107,107,107573.08929133674,768.7957726377401,2.182285915364849,107697.972626301,-5832.630945990831,17.835757726404093,107719.12575178428,44577.97316791969,8.017422378106218,107756.029282846,-10501.757785302492,9.248666149603109,107993.54436287993,17265.543904084716,31.740057078749917,0.92654814495049,117.0,110.0,79.0,267.0,346.0,7.0,1011.0,983.0,7.0,3.0,4.0,0.4285714285714285,146.27882421048477,748.3535257968886,19.0,15.0,4.0,0.7894736842105263,1291.7631429878747,10096.311333302132,18.0,8.0,10.0,0.4444444444444444,2589.787823165143,47879.25476842676,24.0,13.0,11.0,0.5416666666666666,568.1689312160058,10843.800289379064,78.0,38.0,40.0,0.4871794871794871,168.39627259411228,18687.20731262226,,,,,107570.0,107577.0,107687.0,107702.0,107711.0,107729.0,107743.0,107766.0,107959.0,108033.0,0.19027006835456675,-0.2214717774790453,0.05809568356573175,-0.054102269623012476,0.009753314087850587
108,108,108532.42466090011,468.20433126897694,1.047709161917034,108686.39728720114,-5836.328202612099,20.38372320593854,108707.55155751524,44760.96674215279,7.920599659192296,108745.18843281048,-10362.60701535844,9.311019372879972,108982.31027959895,16964.579250771443,31.77660039350009,0.9232243636400074,142.0,136.0,82.0,266.0,348.0,6.0,959.0,989.0,6.0,1.0,5.0,0.1666666666666666,144.8535808621269,968.04446593215,19.0,14.0,5.0,0.7368421052631579,1217.860366023898,8870.787418834117,18.0,9.0,9.0,0.5,2561.912585710553,45516.16377935361,24.0,13.0,11.0,0.5416666666666666,549.6528328679277,10257.230873486316,77.0,37.0,40.0,0.4805194805194805,172.59958686684138,18340.950263744173,,,,,108531.0,108537.0,108673.0,108691.0,108699.0,108717.0,108732.0,108755.0,108947.0,109021.0,0.3093811209937537,-0.20866893083203136,0.05723541675202292,-0.05304194514500899,0.010174115391573453
109,109,109491.51812648227,945.3959709178632,1.6659222489858871,109640.972626301,-6189.779317797986,12.968406185447748,109662.94901521818,45056.948276815,7.777664826052448,109701.12156536356,-10255.647227086052,9.511228136388022,109939.38347749642,17277.808469971857,31.01901173252926,0.9252405893285826,142.0,137.0,81.0,263.0,344.0,5.0,959.0,955.0,5.0,3.0,2.0,0.6,152.3293342313872,1278.131132494916,16.0,11.0,5.0,0.6875,1221.6592594513345,7780.80141891245,17.0,8.0,9.0,0.4705882352941176,2745.2657706063965,49614.57143526444,24.0,13.0,11.0,0.5416666666666666,520.9018603056576,9936.3864387907,79.0,42.0,37.0,0.5316455696202531,158.73905156155058,18098.53451089498,,,,,109489.0,109494.0,109631.0,109646.0,109655.0,109672.0,109688.0,109712.0,109900.0,109975.0,0.1611275475222241,-0.1973671752623872,0.060928799565838125,-0.05079171004731039,0.009187452901647379
110,110,110444.57238400204,571.526257694956,1.348444860002824,110595.972626301,-5727.211836958222,17.8357578060484,110617.1714891868,44483.86925794913,7.991083657641346,110653.78366959465,-10502.438176580386,9.165469945025707,110890.62318319111,17550.273222980493,31.857319175900816,0.9263383883461048,143.0,138.0,79.0,265.0,344.0,5.0,953.0,954.0,5.0,3.0,2.0,0.6,154.9783404480944,1136.9531126527845,18.0,14.0,4.0,0.7777777777777778,1289.1374833374896,9956.485087078188,18.0,8.0,10.0,0.4444444444444444,2575.373026465849,47630.829966730336,24.0,13.0,11.0,0.5416666666666666,586.353810464151,10469.24113550736,80.0,40.0,40.0,0.5,176.59375547910687,19527.412421268236,,,,,110442.0,110447.0,110585.0,110600.0,110609.0,110627.0,110641.0,110664.0,110854.0,110929.0,0.2711657397389638,-0.2250898901658513,0.057894537265452406,-0.05583025585160539,0.01006216559910152
111,111,111410.15067819972,700.5788062292032,1.9677214654278004,111555.972626301,-5781.964530176038,17.83575769673875,111577.68090640256,44381.87271723397,7.842598497363034,111615.51403578924,-10599.086519746572,9.817801937541237,111851.58723296392,17101.351512719146,31.48072534447125,0.928791508051681,143.0,133.0,80.0,264.0,344.0,10.0,967.0,961.0,10.0,7.0,3.0,0.7,162.51014176621618,945.4164089385206,19.0,14.0,5.0,0.7368421052631579,1230.8293282624516,8076.939818057766,18.0,9.0,9.0,0.5,2620.6414468947987,46330.57520395345,24.0,14.0,10.0,0.5833333333333334,502.852572247268,10290.156842261944,82.0,42.0,40.0,0.5121951219512195,171.57030014514444,18473.138247943025,,,,,111403.0,111413.0,111546.0,111561.0,111569.0,111587.0,111602.0,111626.0,111816.0,111890.0,0.23196554095164695,-0.21287389810829185,0.05904756348591786,-0.04744301042457113,0.010032557954120695
112,112,112370.82440137112,1150.8193223677104,2.447740633304537,112494.972626301,-6560.009080189383,12.052196348799608,112516.04868278722,44836.14238773929,7.90450163125091,112553.76778075592,-10109.351167768831,9.344008898044557,112787.86697868913,17356.243024867024,32.70406318072515,0.9308127873511736,118.0,111.0,79.0,263.0,342.0,7.0,959.0,938.0,7.0,4.0,3.0,0.5714285714285714,153.5106133064206,781.6688633207297,17.0,13.0,4.0,0.7647058823529411,1328.4575732413775,10197.131521878146,18.0,8.0,10.0,0.4444444444444444,2717.3090131106237,50084.44822002735,24.0,13.0,11.0,0.5416666666666666,536.484239426054,9756.394379026224,81.0,40.0,41.0,0.4938271604938271,179.06283676777997,19279.8641586051,,,,,112367.0,112374.0,112485.0,112499.0,112508.0,112526.0,112541.0,112564.0,112751.0,112827.0,0.13339245381332832,-0.20250849610150629,0.060605325712715374,-0.05306811787649652,0.010316912278263738
113,113,113329.50963374606,1154.8972434723264,2.081048153083441,113452.54796540084,-6474.412181172148,11.051178286386271,113473.4501633213,42637.62178715214,8.07975702248272,113510.2184526964,-9977.595273739897,8.93932022703691,113746.53415569612,17559.83241977448,32.03775691333609,0.9317123641905268,114.0,108.0,80.0,264.0,344.0,6.0,960.0,957.0,6.0,3.0,3.0,0.5,169.33960488582844,962.8839184745397,19.0,15.0,4.0,0.7894736842105263,1356.7775380302785,11827.993221294437,18.0,8.0,10.0,0.4444444444444444,2555.283220666539,48258.11183841749,23.0,12.0,11.0,0.5217391304347826,559.8342821044891,10248.71576231814,79.0,40.0,39.0,0.5063291139240507,167.95647594107723,19016.99692263921,,,,,113327.0,113333.0,113441.0,113456.0,113465.0,113483.0,113498.0,113521.0,113709.0,113785.0,0.14662742148097105,-0.20955995696039284,0.05993024736282347,-0.05610913920089753,0.009564810866414537
114,114,114276.57533909989,611.5666682046655,1.0246509992122543,114398.972626301,-6080.677561072835,17.835757789359416,114420.66944746696,45725.567090653785,7.71404216400911,114458.66709369188,-10518.890757954316,9.637742947438186,114699.65746019685,17283.96599568012,29.5655174481484,0.9164454629357534,115.0,111.0,80.0,262.0,342.0,4.0,947.0,948.0,4.0,3.0,1.0,0.75,115.2661762683527,398.54199011997395,18.0,13.0,5.0,0.7222222222222222,1217.952242135333,7748.1182136238385,18.0,9.0,9.0,0.5,2728.627702640171,47711.42857728044,25.0,14.0,11.0,0.56,493.0812700416235,10230.261298831185,77.0,45.0,32.0,0.5844155844155844,188.41452687371503,17598.900720067548,,,,,114274.0,114278.0,114389.0,114404.0,114413.0,114430.0,114445.0,114469.0,114658.0,114731.0,0.1884768779285041,-0.20029877096795864,0.059674004637941314,-0.04687578580172617,0.01090111649842441
115,115,115216.15067819972,849.2614348494544,1.9175865022789205,115340.54796540084,-6806.772729829206,15.28779240517485,115360.47023943206,44747.89008062224,7.989719279491752,115397.41117489547,-10676.02051799964,9.518762343333153,115632.97757721537,17679.738124369494,31.35645797692558,0.932399659237512,113.0,107.0,82.0,264.0,346.0,6.0,940.0,940.0,6.0,3.0,3.0,0.5,124.06771494363431,423.27016775968826,22.0,19.0,3.0,0.8636363636363636,1462.1274837662709,13615.049495077788,18.0,8.0,10.0,0.4444444444444444,2664.1648156549372,49357.76523955355,24.0,13.0,11.0,0.5416666666666666,550.4606583247702,10854.58139955057,78.0,39.0,39.0,0.5,188.62931359004125,19141.214363575215,,,,,115213.0,115219.0,115326.0,115344.0,115352.0,115370.0,115384.0,115408.0,115596.0,115672.0,0.14608895429901084,-0.21480480424428072,0.05953721641076068,-0.05156047212504887,0.010669236855382905
116,116,115940.42466090011,313.6588767753122,0.9998605853096892,116304.54796540084,-6708.54395515009,15.28779240430141,116324.98204507418,43181.1134855528,8.050310379858034,116361.97907368696,-10478.221124430953,9.683904062447333,116598.4752493052,17476.928794373758,30.782148977720784,0.9249690737872396,352.0,349.0,81.0,265.0,346.0,3.0,723.0,964.0,3.0,1.0,2.0,0.3333333333333333,94.08907938916774,2457.465465794514,20.0,17.0,3.0,0.85,1385.7837333394027,12113.389831339424,18.0,8.0,10.0,0.4444444444444444,2532.992940540334,46232.74884578184,24.0,13.0,11.0,0.5416666666666666,613.4258674302812,10953.738381212712,78.0,38.0,40.0,0.4871794871794871,177.82027975950442,19023.97808031042,,,,,115939.0,115942.0,116291.0,116308.0,116317.0,116335.0,116349.0,116372.0,116562.0,116637.0,0.2999726338259125,-0.20656997145789716,0.058659741171051626,-0.05854293969803914,0.010174572537982133
117,117,117137.22073927172,1507.7987764975665,2.5803338625948813,117263.972626301,-6371.025406621084,12.1848497999264,117284.9813394092,44513.99400050555,7.793569029700122,117323.1878468728,-10442.368387447972,9.80009087628288,117557.17959462183,17323.43052928468,31.698024010968485,0.9355729833009552,120.0,113.0,80.0,262.0,342.0,7.0,1197.0,960.0,7.0,3.0,4.0,0.4285714285714285,143.82168610618314,948.8180365573902,15.0,11.0,4.0,0.7333333333333333,1319.818659800925,9653.766734265171,17.0,8.0,9.0,0.4705882352941176,2707.2632094938085,49114.558729820645,26.0,14.0,12.0,0.5384615384615384,534.2351254711347,10272.422111533131,82.0,41.0,41.0,0.5,164.5731199194616,18522.632084510173,,,,,117134.0,117141.0,117254.0,117268.0,117277.0,117294.0,117310.0,117334.0,117522.0,117596.0,0.09538519883950526,-0.20715953485749788,0.06081824986234805,-0.051160340800972,0.009500030588124923
118,118,118099.1299631619,613.6660854389157,2.0206110491680835,118224.972626301,-6226.968002860389,9.731757698229352,118246.36439731866,42457.5311116556,8.104114427376878,118282.5577441954,-9600.083972645694,8.357784828820812,118517.79940270672,17820.159887133887,32.46747704643996,0.9245569857297892,118.0,113.0,78.0,264.0,342.0,5.0,962.0,961.0,5.0,2.0,3.0,0.4,134.53738258532832,565.5532020160265,14.0,10.0,4.0,0.7142857142857143,1260.9667175009904,10249.843579150504,18.0,8.0,10.0,0.4444444444444444,2587.829676454642,48981.108755026005,22.0,12.0,10.0,0.5454545454545454,577.0495461707997,9801.823956584736,81.0,41.0,40.0,0.5061728395061729,173.84031060245294,19465.440353837548,,,,,118097.0,118102.0,118215.0,118229.0,118238.0,118256.0,118271.0,118293.0,118481.0,118557.0,0.21923548616688246,-0.20250091487892005,0.060951016432140626,-0.06010880194538237,0.00975526099111856
119,119,119074.57533909989,478.9586708290893,0.7727954734393546,119199.54796540084,-6479.230980697467,15.287792400660472,119220.10391159896,43568.82401127423,7.920704198140376,119257.520068837,-10698.35172524297,9.663423131451763,119493.95881659634,17174.125722369234,30.52344168720301,0.9242510063291232,114.0,111.0,81.0,263.0,344.0,3.0,976.0,974.0,3.0,2.0,1.0,0.6666666666666666,128.7576450317894,287.41520234333615,22.0,18.0,4.0,0.8181818181818182,1390.9376096325748,12003.555422619262,18.0,8.0,10.0,0.4444444444444444,2598.26907383617,47607.45891596434,23.0,13.0,10.0,0.5652173913043478,528.6509076375327,10458.453722708293,77.0,40.0,37.0,0.5194805194805194,170.8344370558294,18657.29821447611,,,,,119073.0,119076.0,119187.0,119203.0,119212.0,119230.0,119245.0,119268.0,119457.0,119531.0,0.2688282995459853,-0.2146763425746623,0.05963596982015903,-0.04941423886729864,0.009947198466895941
120,120,120037.13146532944,1368.9278703410898,2.975505602512367,120163.972626301,-6235.862351818644,11.248361026604288,120185.0866885686,44199.05834174827,7.900738251775361,120222.59350977677,-10001.03484061622,9.169689522735354,120456.59233539732,17451.40223559563,32.730771367124134,0.9290702629695712,121.0,113.0,79.0,264.0,343.0,8.0,963.0,965.0,9.0,5.0,4.0,0.5555555555555556,151.47361374489492,1137.858910239799,16.0,12.0,4.0,0.75,1293.0009714529035,10446.052688875136,18.0,8.0,10.0,0.4444444444444444,2705.027164895327,49701.90680499571,23.0,13.0,10.0,0.5652173913043478,526.8615450245636,9874.892389086506,81.0,41.0,40.0,0.5061728395061729,175.12096218275656,19215.02591647428,,,,,120033.0,120041.0,120154.0,120168.0,120177.0,120195.0,120210.0,120233.0,120420.0,120497.0,0.11065127464104657,-0.20734918420317747,0.061201013469110284,-0.052680702889352275,0.01003477885722915
121,121,121019.20784305665,987.3042723207808,2.8172547517782776,121145.972626301,-6210.840039933665,9.587009935573302,121166.8877964203,42144.73728993616,8.113516525604851,121203.06218492612,-9762.881684659274,8.49221466555531,121443.80813839656,18255.824312862675,31.278303318226932,0.9171401873459673,119.0,112.0,78.0,265.0,343.0,7.0,981.0,982.0,7.0,3.0,4.0,0.4285714285714285,140.92489582399222,968.5985975040026,15.0,11.0,4.0,0.7333333333333333,1302.5375649066275,11518.02008635319,19.0,9.0,10.0,0.4736842105263157,2577.0616581131003,46960.87901910536,23.0,12.0,11.0,0.5217391304347826,574.0584459692396,9885.742986055851,78.0,43.0,35.0,0.5512820512820513,172.8405555169087,19278.17538184837,,,,,121016.0,121023.0,121135.0,121150.0,121158.0,121177.0,121191.0,121213.0,121403.0,121478.0,0.14273704649604202,-0.20972003087050028,0.06114788758520706,-0.05880010272697209,0.009467693846896238
122,122,122012.15067819972,707.7297527667661,3.435585117294209,122134.972626301,-6344.586026807376,10.303214662745948,122156.73856654992,43289.77148370649,7.957821771793645,122194.22195592856,-9973.339429143112,9.295941710482962,122428.70945565372,17625.060084413966,33.08124980239483,0.923844500628068,121.0,110.0,80.0,263.0,343.0,11.0,994.0,990.0,11.0,8.0,3.0,0.7272727272727273,142.7721824019692,642.5514504046197,15.0,10.0,5.0,0.6666666666666666,1210.800187297103,8617.665524209979,18.0,9.0,9.0,0.5,2650.44245129294,47628.21949864091,24.0,13.0,11.0,0.5416666666666666,540.2678614958025,10085.319836576004,80.0,39.0,41.0,0.4875,158.77583383425687,19102.336084656352,,,,,122004.0,122015.0,122125.0,122140.0,122148.0,122166.0,122181.0,122205.0,122392.0,122468.0,0.2017326272405847,-0.19083990384576488,0.06122560504368844,-0.05417120968700663,0.009008527237570332
123,123,122979.9789066182,516.4009128283255,1.8681617738595877,123106.39728720114,-5935.02547270015,16.773947512895194,123127.94838609386,44440.03368402385,7.932456551200852,123165.03061894768,-10665.575644755878,9.504460080956296,123401.95881659626,17791.490412574396,30.622676095022715,0.9214537128330428,118.0,112.0,81.0,263.0,344.0,6.0,967.0,971.0,6.0,3.0,3.0,0.5,133.52713833231698,51.41900563807173,17.0,12.0,5.0,0.7058823529411765,1180.949183520138,7685.963076406975,18.0,8.0,10.0,0.4444444444444444,2629.533805164724,47281.98641314698,24.0,13.0,11.0,0.5416666666666666,550.6546136921701,10632.76693855464,78.0,40.0,38.0,0.5128205128205128,192.7651145966302,19218.126963313796,,,,,122977.0,122983.0,123095.0,123111.0,123120.0,123137.0,123152.0,123176.0,123365.0,123439.0,0.25857262257920777,-0.19897963184020895,0.05917038280981409,-0.05162915083377798,0.010834680520098004
124,124,123986.23663752952,473.63191696568754,1.1009722626613965,124113.39728720112,-5726.437592552344,20.38372319635658,124134.93269406652,44361.87813979619,7.958617420564765,124171.68575270458,-10407.915931725687,9.228381097802894,124408.4917899548,17472.54668899652,31.565295347262257,0.9220799814428564,117.0,113.0,81.0,265.0,346.0,4.0,1006.0,1007.0,4.0,2.0,2.0,0.5,129.26903440694375,270.91649497386123,18.0,13.0,5.0,0.7222222222222222,1170.697720772505,7887.933335364818,19.0,9.0,10.0,0.4736842105263157,2578.691548836279,46221.412962613416,23.0,13.0,10.0,0.5652173913043478,534.4505583065129,10175.640827075673,80.0,39.0,41.0,0.4875,171.95755542595296,18649.817717169703,,,,,123984.0,123988.0,124101.0,124118.0,124127.0,124144.0,124159.0,124182.0,124373.0,124447.0,0.272931425810792,-0.20443734902395236,0.058128547684796604,-0.05135039154931934,0.009841585115594204
125,125,125010.15067819972,942.40811436321,1.7907290164666414,125136.972626301,-6018.8346931165925,17.835757793376715,125158.1439431694,45376.857047937774,7.842851360488338,125195.55196792926,-10358.971433348874,9.342315069661623,125431.58026024394,17383.42548331694,32.00090260300034,0.9274200779766648,119.0,113.0,80.0,266.0,346.0,6.0,1025.0,1023.0,6.0,3.0,3.0,0.5,140.87351741614572,750.3347843251568,18.0,13.0,5.0,0.7222222222222222,1310.2526461089506,9633.638795947589,18.0,8.0,10.0,0.4444444444444444,2667.366510553117,48484.786228420286,24.0,13.0,11.0,0.5416666666666666,512.6221993479608,9676.82031977864,79.0,39.0,40.0,0.4936708860759494,149.81951304082995,18704.757520096173,,,,,125007.0,125013.0,125126.0,125141.0,125150.0,125167.0,125183.0,125206.0,125395.0,125472.0,0.14948249624456458,-0.21769208043002308,0.05878253109807084,-0.049485820348694504,0.008618526491491182
126,126,126016.7260172996,867.6883970317758,3.0445799963415845,126142.54796540084,-5744.111452683587,15.28779240518434,126165.6308547966,43467.45075531709,7.913797215118037,126201.98979972528,-10559.775775883894,9.026159088967963,126443.80813839656,18077.052562877052,30.01011677599166,0.9189526413723474,121.0,113.0,79.0,265.0,344.0,8.0,1007.0,1008.0,8.0,4.0,4.0,0.5,134.917506682465,523.22173820498,18.0,12.0,6.0,0.6666666666666666,1116.7701979140452,6791.429223234557,18.0,9.0,9.0,0.5,2576.179756108152,45775.72019781604,25.0,13.0,12.0,0.52,552.457316292476,10085.54467679373,76.0,42.0,34.0,0.5526315789473685,187.85450601729184,19411.86690302712,,,,,126013.0,126021.0,126134.0,126149.0,126157.0,126175.0,126190.0,126213.0,126403.0,126478.0,0.1554907350887673,-0.1944200085797956,0.0592668700681285,-0.05231714460776352,0.010391876959138182
127,127,127040.7260172996,958.2056245121838,2.903147161131593,127167.54796540084,-6311.611635021863,13.441651849685726,127188.14321921192,43477.65354811478,7.9948000172505,127225.29475599184,-10424.967512714638,9.310773925519944,127462.15410359592,17763.987628660867,32.17521897532983,0.9297401341484934,121.0,112.0,79.0,266.0,345.0,9.0,1024.0,1022.0,10.0,6.0,4.0,0.6,132.0129058764663,567.3384993042251,18.0,14.0,4.0,0.7777777777777778,1381.747984925483,12180.485102895747,18.0,8.0,10.0,0.4444444444444444,2579.8857795726244,47860.72496156408,24.0,13.0,11.0,0.5416666666666666,573.7315961401963,10587.756445962574,82.0,41.0,41.0,0.5,179.74349354673964,19533.491380737527,,,,,127036.0,127045.0,127157.0,127171.0,127180.0,127198.0,127213.0,127236.0,127426.0,127502.0,0.13777095698397013,-0.2189215789606638,0.05933820178951424,-0.05503437736764686,0.010118420329044642
128,128,128029.84884774905,959.47328718286,1.9068979572934437,128155.972626301,-6360.72606736884,13.51108577913966,128177.09285917644,45240.13706077183,7.7839346205031505,128214.98221952964,-10313.167372664966,9.554961493196297,128450.07989433616,17635.264425516732,32.07884266287165,0.9239665321547892,118.0,112.0,81.0,263.0,344.0,6.0,988.0,990.0,6.0,3.0,3.0,0.5,131.66476350639454,841.6793764232056,16.0,12.0,4.0,0.75,1320.9108134195762,9526.646838890692,17.0,8.0,9.0,0.4705882352941176,2739.8712185649947,50096.008724053885,24.0,13.0,11.0,0.5416666666666666,549.2452416945168,9734.631446843505,79.0,39.0,40.0,0.4936708860759494,173.65150513223415,19475.37933870042,,,,,128027.0,128033.0,128145.0,128160.0,128169.0,128186.0,128202.0,128226.0,128414.0,128489.0,0.13722608567142044,-0.2076666719222481,0.06056284079963065,-0.05325669814593434,0.009846833080709305
129,129,129021.88363724068,755.5382427601608,1.3825038239358771,129147.972626301,-6132.849820490486,17.83575779245072,129168.80563728722,44200.13689200684,8.014581278635317,129205.4916619281,-10499.145567318574,9.413721313607777,129442.82879059191,17825.778028866433,31.36947530097716,0.9231522831942548,114.0,110.0,82.0,266.0,348.0,4.0,992.0,991.0,4.0,2.0,2.0,0.5,134.7570181149066,452.21567390360946,19.0,15.0,4.0,0.7894736842105263,1295.0975075899514,10553.799489262216,19.0,9.0,10.0,0.4736842105263157,2568.233148666161,46112.44582501086,23.0,12.0,11.0,0.5217391304347826,584.4815467720947,11035.563567015584,78.0,38.0,40.0,0.4871794871794871,178.32492181562685,19386.822755530287,,,,,129020.0,129024.0,129134.0,129152.0,129160.0,129178.0,129193.0,129216.0,129407.0,129482.0,0.1783589638329983,-0.2111738499225754,0.05810464241187906,-0.05566943929146495,0.010003766541177265
130,130,130027.19062895972,711.8116024864788,2.70013445529254,130149.972626301,-5424.3021172680355,17.83575780591171,130172.74346542195,43904.669562961,7.861080645797029,130210.027373699,-10469.575315028856,9.527828255422708,130450.80813839656,17850.39766961903,30.483462670251875,0.9280440357634204,119.0,109.0,80.0,265.0,345.0,10.0,1005.0,1004.0,10.0,6.0,4.0,0.6,96.81551790515354,596.7029273518425,16.0,10.0,6.0,0.625,1067.7897361785606,6332.994684781977,18.0,9.0,9.0,0.5,2591.3755245993025,46011.35610976005,24.0,13.0,11.0,0.5416666666666666,518.743437617144,10442.67528552482,80.0,44.0,36.0,0.55,183.66986451975265,18462.741314462844,,,,,130021.0,130031.0,130140.0,130156.0,130164.0,130182.0,130197.0,130220.0,130411.0,130485.0,0.1360128404299122,-0.1968529246885599,0.05902277708486496,-0.04954770580545885,0.010289399032961298
131,131,130998.74956574453,1320.234903578354,2.662777115182152,131123.97262630097,-6448.671388373432,11.638763393631812,131145.37497872752,44689.21625336621,7.782156186691905,131183.40808982262,-10129.810252215011,9.648129906005304,131418.50782729406,17540.166177117633,32.3283205727156,0.9321446266545568,118.0,110.0,81.0,264.0,345.0,8.0,973.0,973.0,8.0,4.0,4.0,0.5,151.0324621404024,1005.8367746636512,17.0,12.0,5.0,0.7058823529411765,1262.8234638343608,9012.293473743972,18.0,8.0,10.0,0.4444444444444444,2748.9888978665813,50579.58064535779,25.0,13.0,12.0,0.52,526.96195308519,10110.908469428472,81.0,41.0,40.0,0.5061728395061729,177.73002453393875,19069.03952041569,,,,,130995.0,131003.0,131113.0,131128.0,131137.0,131155.0,131171.0,131194.0,131384.0,131458.0,0.11439817393938399,-0.19582692120289397,0.061513473010606085,-0.05202091055653911,0.010132744623924939
132,132,131960.05213145982,706.2212875494128,2.305515019560616,132108.54796540082,-5446.207793950305,15.287792402216818,132131.7442630998,43473.42519356357,7.803160673588948,132168.1563860162,-10394.27380099702,9.225917100655836,132405.2364919086,17792.4678505574,31.468751734962375,0.9249061022677036,143.0,136.0,79.0,265.0,344.0,7.0,960.0,986.0,7.0,3.0,4.0,0.4285714285714285,133.0041941632567,1280.1775334936683,15.0,9.0,6.0,0.6,1096.3851892602086,6383.9738995197495,18.0,9.0,9.0,0.5,2614.643106947284,46252.96014782187,24.0,13.0,11.0,0.5416666666666666,556.3908223718232,10430.763700763431,79.0,39.0,40.0,0.4936708860759494,176.31810397014348,19081.45796572461,,,,,131957.0,131964.0,132100.0,132115.0,132123.0,132141.0,132155.0,132179.0,132369.0,132444.0,0.1883321793156096,-0.2013116705679285,0.06014348065066641,-0.05352859016648707,0.009909704794808427
133,133,132979.50981313997,501.1423497949834,1.6365873562222664,133105.54796540082,-6721.882866054127,15.28779240259044,133126.210073492,44370.57061949336,7.962084109262802,133163.8045113334,-10801.604798542076,9.763948041509362,133399.93828059966,17481.148728764718,31.713518572841064,0.9231839921511764,115.0,109.0,83.0,264.0,347.0,6.0,1019.0,995.0,6.0,3.0,3.0,0.5,147.4250289286696,222.6839015485108,21.0,17.0,4.0,0.8095238095238095,1395.6252985346573,11548.991905174347,18.0,8.0,10.0,0.4444444444444444,2616.327989416023,48265.87837698154,25.0,14.0,11.0,0.56,556.0876163583878,10803.368267851878,81.0,40.0,41.0,0.4938271604938271,194.30803799990997,18993.509033141767,,,,,132977.0,132983.0,133092.0,133109.0,133118.0,133136.0,133151.0,133175.0,133365.0,133439.0,0.2941779496164732,-0.20762416220946675,0.05896538973665102,-0.05148194427863576,0.011115290019824715
134,134,133947.03527905454,714.1147722896536,2.078148655824265,134072.97262630097,-5861.721379536801,17.835757805546816,134093.73670798732,45475.76529901278,8.00417657620299,134130.68368371704,-10294.87830788238,9.32876451707274,134367.95881659628,18322.9458917844,31.42245201307866,0.9245370075644952,116.0,112.0,80.0,264.0,344.0,4.0,968.0,967.0,4.0,2.0,2.0,0.5,103.40317599034012,683.693626465991,22.0,18.0,4.0,0.8181818181818182,1323.940950413812,11536.400040181292,18.0,9.0,9.0,0.5,2651.7286603292328,47529.094040101605,24.0,13.0,11.0,0.5416666666666666,548.4089567412782,10158.214111875512,79.0,41.0,38.0,0.5189873417721519,183.70795219703103,19920.095403579584,,,,,133945.0,133949.0,134061.0,134077.0,134085.0,134103.0,134118.0,134141.0,134331.0,134405.0,0.14479909953241876,-0.22586214265244237,0.058310808908735356,-0.05327007666728641,0.010026114429525309
135,135,134931.32131284048,752.8389501896222,2.5122175858413343,135057.97262630097,-6623.602670027097,14.065552489237804,135078.50821128028,43361.02059865919,8.110599501320856,135115.02068845514,-10210.57226454106,9.244401113274504,135351.5930558001,17728.98759233793,31.87854501331254,0.926384395280608,120.0,112.0,79.0,264.0,343.0,8.0,984.0,985.0,8.0,4.0,4.0,0.5,106.82231260395336,695.1470085486204,19.0,15.0,4.0,0.7894736842105263,1352.1210002049802,11090.514409217656,18.0,9.0,9.0,0.5,2546.5378987064223,45821.70043341901,24.0,13.0,11.0,0.5416666666666666,567.4089879455078,10408.175268040904,80.0,41.0,39.0,0.5125,153.62577177737015,19115.46526616217,,,,,134927.0,134935.0,135047.0,135062.0,135070.0,135088.0,135102.0,135126.0,135315.0,135390.0,0.14189264858977788,-0.2041367919491235,0.05872873524534075,-0.055570733279660244,0.008665230937595317
136,136,135904.14185033288,1283.1209881488933,4.0931383264149375,136031.54796540082,-6353.226059319974,10.62902173917282,136052.2769276816,44814.92220111222,7.8890606664189935,136090.48543794555,-9627.307250917707,9.441658587519546,136328.38347749648,17883.635980547995,31.5085347322022,0.9237792432640768,123.0,112.0,81.0,262.0,343.0,11.0,973.0,974.0,11.0,6.0,5.0,0.5454545454545454,138.66025147516575,1156.106288668719,17.0,13.0,4.0,0.7647058823529411,1419.4809340786585,12590.620319219075,18.0,8.0,10.0,0.4444444444444444,2751.0333383420616,50654.20870041271,25.0,13.0,12.0,0.52,502.2286424891059,9365.243102852655,82.0,45.0,37.0,0.5487804878048781,179.721361193639,18668.50409613752,,,,,135898.0,135909.0,136021.0,136035.0,136044.0,136062.0,136078.0,136102.0,136286.0,136364.0,0.10806483001669646,-0.22342679464338067,0.06138654723077454,-0.052167094016993355,0.01004948665859234
137,137,136871.74617117862,452.8459019055658,1.2038302892393828,136998.97262630097,-6007.624376225043,17.835757782382174,137019.9181436902,44196.0777071503,8.03057161597212,137056.78540316623,-10764.504718723148,9.47709062281466,137296.80813839656,18024.715191147872,29.746490941024277,0.9246981881690656,117.0,113.0,80.0,264.0,344.0,4.0,968.0,967.0,4.0,2.0,2.0,0.5,120.36857900942329,297.3611844589858,21.0,17.0,4.0,0.8095238095238095,1309.849208753265,10542.43558597125,18.0,8.0,10.0,0.4444444444444444,2589.589435555484,46841.45301364343,23.0,13.0,10.0,0.5652173913043478,550.1898191265504,10899.959049188808,75.0,41.0,34.0,0.5466666666666666,169.4320568563039,18807.25537862305,,,,,136870.0,136874.0,136987.0,137003.0,137012.0,137029.0,137044.0,137067.0,137257.0,137331.0,0.26580472187760756,-0.2180311428818596,0.05859319581964906,-0.051111484782907154,0.00939998524578706
138,138,137873.29035075035,652.9308473470618,1.8142717237052843,137998.97262630097,-5879.847254061112,17.835755172080333,138020.59816464383,44263.56930761206,7.988224700869193,138057.94518683953,-10556.774844857202,9.311606326439156,138294.53415569614,18137.144803968135,31.620019642956468,0.9219001626525584,116.0,112.0,80.0,265.0,345.0,4.0,1002.0,1001.0,5.0,2.0,3.0,0.4,141.93321338561674,756.3367208838993,21.0,16.0,5.0,0.7619047619047619,1221.8131826491888,9076.923591746665,18.0,9.0,9.0,0.5,2578.0265495313224,45573.323835031,24.0,13.0,11.0,0.5416666666666666,529.6201396193915,10667.344991347629,79.0,40.0,39.0,0.5063291139240507,151.48276975784296,19126.142011238997,,,,,137872.0,137876.0,137988.0,138003.0,138012.0,138030.0,138045.0,138068.0,138257.0,138333.0,0.21737863046647102,-0.20779675557138033,0.058242626834162155,-0.05016874447004041,0.008352073680566348
139,139,138850.11646955018,1399.0634555414142,3.1943967161866778,138978.97262630097,-5988.284080995753,10.672206736865377,139001.14796242723,43503.13259462638,8.033377696111986,139038.04442970996,-9522.15060552362,8.812018910533203,139274.95881659628,18420.12765978095,32.035493437159076,0.919746591186372,123.0,115.0,79.0,264.0,343.0,8.0,976.0,980.0,8.0,4.0,4.0,0.5,159.28393646197003,1468.9522889958391,16.0,11.0,5.0,0.6875,1168.9487940793958,8469.78234777657,18.0,8.0,10.0,0.4444444444444444,2635.2593721644967,48407.78577715099,23.0,12.0,11.0,0.5217391304347826,522.8428078010413,9317.850976939051,81.0,43.0,38.0,0.5308641975308642,154.8357855226206,19577.04321770208,,,,,138846.0,138854.0,138969.0,138984.0,138993.0,139011.0,139026.0,139048.0,139236.0,139312.0,0.11385040173201422,-0.19520596856604353,0.0605763128995913,-0.054908059057346775,0.008405793292122161
