Unnamed: 0,cycle,p_center,p_height,p_width,q_center,q_height,q_width,r_center,r_height,r_width,s_center,s_height,s_width,t_center,t_height,t_width,r_squared,pr_interval,pr_segment,qrs_duration,st_segment,qt_interval,p_duration,pp_interval,rr_interval,fwhm_p,rise_time_p,decay_time_p,rise_decay_symmetry_p,sharpness_deriv_p,sharpness_diff_p,fwhm_q,rise_time_q,decay_time_q,rise_decay_symmetry_q,sharpness_deriv_q,sharpness_diff_q,fwhm_r,rise_time_r,decay_time_r,rise_decay_symmetry_r,sharpness_deriv_r,sharpness_diff_r,fwhm_s,rise_time_s,decay_time_s,rise_decay_symmetry_s,sharpness_deriv_s,sharpness_diff_s,fwhm_t,rise_time_t,decay_time_t,rise_decay_symmetry_t,sharpness_deriv_t,sharpness_diff_t,Average_Heart_Rate,SDNN,RMSSD,NN50,p_on,p_off,q_on,q_off,r_on,r_off,s_on,s_off,t_on,t_off,sharpness_deriv_p_norm,sharpness_deriv_q_norm,sharpness_deriv_r_norm,sharpness_deriv_s_norm,sharpness_deriv_t_norm
0,0,0.0,0.0,0.0,0.0,0.0,0.0,0.0,0.0,0.0,0.0,0.0,0.0,0.0,0.0,0.0,0.0,0.0,0.0,0.0,0.0,0.0,0.0,0.0,0.0,0.0,0.0,0.0,0.0,0.0,0.0,0.0,0.0,0.0,0.0,0.0,0.0,0.0,0.0,0.0,0.0,0.0,0.0,0.0,0.0,0.0,0.0,0.0,0.0,0.0,0.0,0.0,0.0,0.0,0.0,77.91732404289604,233.49641722975616,339.49109169797356,123.0,,,,,,,,,,,,,,,
1,1,1662.5205917018718,2834.1670295887056,16.732162663667136,1779.8493218002875,-1321.5311651615425,2.658321015111658,1805.5457522919285,17113.297341333633,8.573138616956363,1830.3893096529616,-4621.666188089075,15.287792405184188,2051.6574601968323,5423.528350924276,32.88983879433662,0.935897029056174,133.0,88.0,74.0,232.0,306.0,45.0,,,50.0,22.0,28.0,0.44,133.6494463378867,2761.360856317159,6.0,3.0,3.0,0.5,376.66309228681314,2810.4362898733425,19.0,11.0,8.0,0.5789473684210527,948.2675661349402,13713.34882501707,31.0,8.0,23.0,0.2580645161290322,509.1174056818666,9605.322218744765,79.0,44.0,35.0,0.5569620253164557,138.7673226798053,4721.857947685405,0.0,0.0,0.0,0.0,1644.0,1689.0,1777.0,1783.0,1795.0,1814.0,1822.0,1851.0,2013.0,2083.0,0.04715651722096348,-0.2850202115670653,0.05541115468405939,-0.11015884422677699,0.025586170791594847
2,2,2475.0055283051192,3131.1935447154588,14.137806941414803,2575.4520345991364,-1119.6492065227203,15.28779240518434,2618.4031951178877,17369.122779081532,9.00489121648285,2642.12330450072,-6516.936393926748,12.739827004320285,2859.1159924879994,4881.923984528674,31.86437523886195,0.9531029301390356,110.0,85.0,92.0,239.0,331.0,25.0,818.0,815.0,25.0,15.0,10.0,0.6,143.72411731970035,3665.5381432495215,17.0,7.0,10.0,0.4117647058823529,97.51170831346334,924.4203742073324,19.0,11.0,8.0,0.5789473684210527,979.0321466652822,14777.601402900347,29.0,7.0,22.0,0.2413793103448276,543.9522320660238,11538.259689797853,85.0,39.0,46.0,0.4588235294117647,141.37052058636922,4054.3753003530846,0.0,0.0,0.0,0.0,2460.0,2485.0,2570.0,2584.0,2607.0,2626.0,2635.0,2662.0,2832.0,2901.0,0.045900745280426605,-0.08709130301293577,0.05636624020208882,-0.08346747600190527,0.02895795203579309
3,3,3300.2466090014395,2254.405133601518,14.840653197871324,3392.328730098416,-1256.7265501334805,28.027619409504627,3443.8361130757617,16461.29536089439,8.725022682686493,3469.5479654008636,-6318.66117867649,15.28779240518434,3683.1728714814863,5089.08946025018,32.07260421991029,0.950079019547096,99.0,69.0,104.0,230.0,334.0,30.0,821.0,824.0,37.0,20.0,17.0,0.5405405405405406,147.90217318441182,2064.9015137631523,24.0,7.0,17.0,0.2916666666666667,125.5648234757004,1071.0633763831956,18.0,11.0,7.0,0.6111111111111112,938.7538585515128,13625.58496635636,34.0,10.0,24.0,0.2941176470588235,528.1988202371048,9583.233358622128,80.0,36.0,44.0,0.45,132.10771710483,4795.596525581828,0.0,0.0,0.0,0.0,3286.0,3316.0,3385.0,3408.0,3433.0,3451.0,3461.0,3489.0,3648.0,3719.0,0.06560585361519788,-0.0999141964991221,0.05702794573394421,-0.08359347103775892,0.0259590086078651
4,4,4098.821948101295,2377.60691422433,17.592938474150586,4192.60271279885,-991.9772773317133,20.383723206797967,4243.547699300855,16443.78934915464,9.302340945001056,4267.1233044960645,-6332.183856947852,12.739827004289657,4480.99655331425,4864.3952647778215,34.82442268411889,0.9528741077952574,102.0,65.0,100.0,238.0,338.0,37.0,799.0,801.0,38.0,13.0,25.0,0.3421052631578947,118.98854849739013,3138.2575837471227,25.0,10.0,15.0,0.4,120.57281121622457,796.8937915703434,19.0,11.0,8.0,0.5789473684210527,913.6071195401544,12349.190864559809,29.0,7.0,22.0,0.2413793103448276,555.6418970113259,11492.673195638134,93.0,45.0,48.0,0.4838709677419355,147.4421411202775,4608.075117839937,0.0,0.0,0.0,0.0,4086.0,4123.0,4188.0,4206.0,4233.0,4252.0,4260.0,4288.0,4437.0,4526.0,0.050045509114869366,-0.12154795676424097,0.05555940301479976,-0.08774885719745168,0.030310477067494606
5,5,4902.610951112681,2212.1095795054453,16.53524575874504,5020.726017299571,-1446.810210481663,7.643896202586971,5046.751582224384,16953.087590413164,9.008586130988515,5070.123304500719,-6736.718489430945,12.739827004320285,5296.657460196832,4782.006063097286,28.767848150373336,0.9310832673835586,131.0,92.0,73.0,239.0,312.0,39.0,806.0,803.0,43.0,21.0,22.0,0.4883720930232558,112.16749628684664,2015.373866687407,9.0,5.0,4.0,0.5555555555555556,373.07538858215537,3182.598568954948,19.0,11.0,8.0,0.5789473684210527,984.9326593811948,13456.520276168209,27.0,7.0,20.0,0.2592592592592592,527.8875282014395,11993.298665789103,77.0,46.0,31.0,0.5974025974025974,118.23792993331249,4194.366019198241,0.0,0.0,0.0,0.0,4885.0,4924.0,5016.0,5025.0,5036.0,5055.0,5063.0,5089.0,5252.0,5328.0,0.05070612112801554,-0.25786062738522797,0.05809753852378881,-0.07835974280796028,0.024725591806700944
6,6,5705.228298688918,1840.5740885036005,20.818853452059383,5783.027373698993,-1434.1516964255595,17.362576535991234,5840.43180729076,15887.119388460056,9.199538636624212,5865.547962745511,-6054.914478450968,15.28779240518434,6078.855057378468,5577.012799336688,34.91823598012238,0.9396262376000836,74.0,28.0,132.0,233.0,365.0,46.0,811.0,793.0,46.0,22.0,24.0,0.4782608695652174,94.85720677768838,1710.3398611675896,45.0,28.0,17.0,0.6222222222222222,118.58285410653664,1211.3387227013554,19.0,11.0,8.0,0.5789473684210527,875.3347025078658,13861.732982567632,33.0,9.0,24.0,0.2727272727272727,452.51762127604246,9930.083269551627,90.0,45.0,45.0,0.5,112.43932644625949,5598.5516415302445,0.0,0.0,0.0,0.0,5683.0,5729.0,5757.0,5793.0,5830.0,5848.0,5857.0,5889.0,6037.0,6122.0,0.05153675006628391,-0.08268501470387637,0.055097131273759016,-0.07473559253173966,0.020161210040549424
7,7,6459.547965400863,2252.6091489757305,15.28779240518434,6561.701567924027,-1498.0111345119574,7.010542392277323,6613.302977444903,16428.504050752203,9.440501679896816,6637.123304500719,-6353.176004828038,12.739827004320285,6850.9111499864275,5251.646570657595,35.63973278825031,0.9418582151506332,101.0,52.0,107.0,234.0,341.0,49.0,745.0,771.0,50.0,9.0,41.0,0.18,151.43312666825582,2876.8608115221195,24.0,10.0,14.0,0.4166666666666667,148.63241237763395,1442.831094725665,21.0,12.0,9.0,0.5714285714285714,872.293598906706,13839.516523751392,31.0,8.0,23.0,0.2580645161290322,552.4166121207959,11100.604273078185,86.0,43.0,43.0,0.5,130.98429259449964,5545.7819555854585,0.0,0.0,0.0,0.0,6451.0,6500.0,6552.0,6570.0,6601.0,6622.0,6630.0,6659.0,6822.0,6893.0,0.06722565551911791,-0.09921983151751236,0.05309634986922421,-0.08695125268070521,0.02494156657958386
8,8,7241.821948101295,2301.2606516757332,19.780541237018863,7316.938682575644,-1541.345155064727,16.918157109937685,7389.617040527606,17373.077369902814,8.641160824111083,7413.123304500719,-6290.696882478401,12.739827004320285,7641.356103797409,5320.852913734873,29.600450529397648,0.9348953584159212,63.0,17.0,142.0,233.0,375.0,46.0,781.0,779.0,48.0,14.0,34.0,0.2916666666666667,140.90869251364012,3084.585090415,45.0,25.0,20.0,0.5555555555555556,83.23309159329207,1398.7762801659212,20.0,12.0,8.0,0.6,998.229225699669,13408.167588090137,29.0,7.0,22.0,0.2413793103448276,576.3516390273227,11733.6037981779,75.0,48.0,27.0,0.64,125.32529018562424,4448.597915143958,0.0,0.0,0.0,0.0,7229.0,7275.0,7292.0,7337.0,7378.0,7398.0,7406.0,7434.0,7594.0,7667.0,0.061231087582813856,-0.05400029404173058,0.05745839982437453,-0.0916196805846179,0.023553609208425665
9,9,8013.382401082748,2324.2483994092054,17.068983590882187,8102.328730098417,-1194.1774027741044,28.02761940922473,8153.498798445408,16212.78270665169,9.40770965355777,8176.123304500719,-7529.562015527499,12.739827004320285,8397.808138396545,5681.704760873829,31.866851608931093,0.9354653906922276,103.0,63.0,105.0,232.0,337.0,40.0,778.0,763.0,40.0,21.0,19.0,0.525,101.55679526272984,2487.4234229457725,27.0,10.0,17.0,0.3703703703703703,144.79723635702584,1363.7116641222392,18.0,11.0,7.0,0.6111111111111112,941.5281349590346,13371.711387420097,31.0,7.0,24.0,0.2258064516129032,551.4758595748176,12543.840830642734,80.0,46.0,34.0,0.575,159.9333216815575,5803.858465110152,0.0,0.0,0.0,0.0,7992.0,8032.0,8095.0,8118.0,8142.0,8160.0,8169.0,8200.0,8353.0,8432.0,0.04369446711829265,-0.12125270166782438,0.058073197673385805,-0.0732414260534094,0.028148826525255813
10,10,8761.437185145278,2791.419192385698,16.68278663515421,8863.02005554191,-781.4271375393243,10.496419072149244,8902.436652542463,18153.98574247033,8.810350400480568,8927.002391823262,-5046.582670448754,17.8357578060484,9140.617959820673,5462.599324985314,36.93099736892385,0.9568126952280585,107.0,67.0,102.0,233.0,335.0,40.0,741.0,749.0,41.0,17.0,24.0,0.4146341463414634,125.3228271975874,2470.0093962018245,17.0,12.0,5.0,0.7058823529411765,120.68071602849372,1175.286184628232,19.0,10.0,9.0,0.5263157894736842,931.39493959143,15425.870603363195,34.0,8.0,26.0,0.2352941176470588,469.12575652053897,10152.23511701971,85.0,39.0,46.0,0.4588235294117647,132.92991791744836,5627.242559125116,0.0,0.0,0.0,0.0,8744.0,8784.0,8851.0,8868.0,8892.0,8911.0,8919.0,8953.0,9103.0,9186.0,0.04489573889132708,-0.15443630023972724,0.05130525895547437,-0.09295909472911167,0.024334553938349806
11,11,9525.583371412706,2909.3369476090265,22.45684055684105,9600.259238700097,-1098.443681959916,7.908243687285812,9666.383837025463,17385.061819537368,8.950490849286615,9688.698643600574,-6338.29175214313,10.191861603456228,9913.931442897265,5643.676083476549,36.17534115122338,0.940661539829601,87.0,38.0,120.0,230.0,350.0,49.0,767.0,765.0,50.0,22.0,28.0,0.44,131.85658518253464,2950.184485916646,14.0,10.0,4.0,0.7142857142857143,142.6860981236796,1284.3654730909716,21.0,11.0,10.0,0.5238095238095238,1009.2070313537204,14894.834512564656,30.0,7.0,23.0,0.2333333333333333,633.745960952175,11800.150834684868,72.0,42.0,30.0,0.5833333333333334,145.57035637493465,5755.499294283829,0.0,0.0,0.0,0.0,9504.0,9553.0,9591.0,9604.0,9655.0,9675.0,9683.0,9711.0,9873.0,9941.0,0.045321868025942486,-0.129898419433839,0.05805024116851695,-0.09998687118463585,0.02579353496227979
12,12,10311.609987344083,2263.9428575126326,15.786411324442556,10423.009230319016,-1585.4129329682662,10.191861603456228,10458.1056102252,16926.17718870148,8.65260928404437,10483.54796540086,-6049.280758067854,15.28779240518434,10698.061973201826,5342.009324875428,30.7513523621687,0.9474828248839344,124.0,93.0,89.0,233.0,322.0,31.0,790.0,791.0,33.0,20.0,13.0,0.6060606060606061,131.53355146312663,1632.9101727786508,18.0,7.0,11.0,0.3888888888888889,178.4150553110833,1261.579362995601,19.0,11.0,8.0,0.5789473684210527,971.210229242573,14317.632215753953,34.0,10.0,24.0,0.2941176470588235,466.275863567892,9131.17413761251,79.0,37.0,42.0,0.4683544303797468,117.48092651669008,5718.237561651367,0.0,0.0,0.0,0.0,10293.0,10324.0,10417.0,10428.0,10447.0,10466.0,10475.0,10506.0,10661.0,10739.0,0.058099324824673795,-0.11253538532516467,0.05737918364052533,-0.07707955411823553,0.02199189843597468
13,13,11098.630086497842,2618.7187356873897,15.871139752232564,11198.131958865326,-1157.313740383838,10.191861603456228,11235.424808844651,17336.378510933628,8.723541261832787,11260.54796540086,-5532.883421869742,15.28779240518434,11475.339075035976,5128.973488786136,32.86994141053034,0.9529647323248748,118.0,73.0,89.0,229.0,318.0,45.0,791.0,776.0,49.0,27.0,22.0,0.5510204081632653,130.56216586815324,2312.831617671234,9.0,5.0,4.0,0.5555555555555556,142.1830411174129,960.6288919359824,19.0,11.0,8.0,0.5789473684210527,949.0813530540394,14906.525427855891,31.0,9.0,22.0,0.2903225806451613,474.88928443716856,8981.39662472959,79.0,38.0,41.0,0.4810126582278481,187.42838164758592,6272.649208375235,0.0,0.0,0.0,0.0,11075.0,11120.0,11193.0,11202.0,11224.0,11243.0,11252.0,11282.0,11441.0,11511.0,0.0498572695451701,-0.12285609006098559,0.05474507564861237,-0.08583034346252102,0.03654305916327601
14,14,11897.945252602014,2272.28569649815,20.487078631405495,12011.123304500716,-1226.8037809834923,5.634524828466333,12039.31801250168,17034.834585125158,9.044636308563463,12063.123304500716,-6647.721888481389,12.739827004320285,12280.458337396374,5043.6840754531295,35.77225147889655,0.9452606510086544,126.0,76.0,79.0,245.0,324.0,50.0,787.0,806.0,50.0,20.0,30.0,0.4,90.46551164106812,2237.6789737080644,13.0,7.0,6.0,0.5384615384615384,311.1545020143843,2170.657652373368,19.0,11.0,8.0,0.5789473684210527,947.10955769104,14459.686361558655,28.0,7.0,21.0,0.25,576.4610399625427,11668.27156481463,98.0,49.0,49.0,0.5,89.62448232751633,4704.142022925322,0.0,0.0,0.0,0.0,11878.0,11928.0,12004.0,12016.0,12028.0,12047.0,12056.0,12083.0,12242.0,12328.0,0.03981256044540778,-0.2536302111531976,0.05559840061599761,-0.08671557710038769,0.017769646351107823
15,15,12689.095930801726,2165.7244811519417,26.883887022945103,12770.27398270043,-1132.8675179296868,7.643896202376437,12832.691244179476,17333.93720891405,9.369579956384069,12855.714437494453,-5992.001311422658,17.835757805884487,13072.611062494429,5762.970663190662,34.355672134535496,0.946074205937225,94.0,49.0,113.0,234.0,347.0,45.0,792.0,793.0,58.0,24.0,34.0,0.4137931034482758,131.30481678790022,1839.9631912344912,15.0,4.0,11.0,0.2666666666666666,137.6952794526092,1220.269558135536,21.0,13.0,8.0,0.6190476190476191,894.1723069141248,12890.045185246632,30.0,7.0,23.0,0.2333333333333333,519.7871531429495,11837.27195200972,82.0,37.0,45.0,0.4512195121951219,152.18168388870689,4814.681103934406,0.0,0.0,0.0,0.0,12672.0,12717.0,12766.0,12781.0,12820.0,12841.0,12849.0,12879.0,13040.0,13113.0,0.06062858776849566,-0.12154579178353271,0.051585066689539695,-0.08674683567776764,0.026406812177740928
16,16,13446.095930801726,2316.048503604201,23.81771869790154,13541.027373698991,-1215.6124614161702,11.061699427884925,13591.801679006536,17294.19119915825,9.046694153557656,13615.450899007496,-5282.796723127064,17.83575780604824,13828.81744045454,5409.18861076639,37.1041597846181,0.93560152083796,96.0,70.0,115.0,231.0,346.0,26.0,757.0,759.0,35.0,17.0,18.0,0.4857142857142857,129.68404476376728,2520.7566096083865,29.0,18.0,11.0,0.6206896551724138,121.08160660680952,1038.3535420144583,19.0,11.0,8.0,0.5789473684210527,925.5960266545408,13566.626997899064,32.0,7.0,25.0,0.21875,512.5400409197006,11130.535293264536,95.0,47.0,48.0,0.4947368421052631,127.74967603970936,4674.788178628391,0.0,0.0,0.0,0.0,13429.0,13455.0,13525.0,13551.0,13581.0,13600.0,13608.0,13640.0,13795.0,13871.0,0.05599366531484762,-0.09960543384505229,0.05352063106019042,-0.0970205873483451,0.023617160582168974
17,17,14204.630086497842,2583.213222211737,25.04074658725044,14296.698643600574,-555.9001837659075,10.191861603456228,14342.784033969949,16228.886273571912,9.72953285507,14366.123304500716,-5982.435510220933,12.739827004320285,14580.216038490622,5309.342120948719,37.85171942251597,0.9425735505514624,114.0,64.0,98.0,242.0,340.0,50.0,770.0,752.0,52.0,30.0,22.0,0.5769230769230769,137.7203457937654,2468.97502113886,11.0,9.0,2.0,0.8181818181818182,91.18879947222588,472.3452856951523,23.0,14.0,9.0,0.6086956521739131,840.4289140094229,12464.833999312132,29.0,7.0,22.0,0.2413793103448276,589.7708249227624,11368.26800554671,95.0,44.0,51.0,0.4631578947368421,121.016621524351,5253.148576900796,0.0,0.0,0.0,0.0,14176.0,14226.0,14290.0,14299.0,14329.0,14352.0,14359.0,14388.0,14537.0,14630.0,0.0533135803926591,-0.16403808117938304,0.051785988258358034,-0.09858373298218503,0.02279314814670988
18,18,14974.328730098418,2642.0377525626895,20.62787772372996,15064.401016599708,-1116.796021885844,4.781457957014028,15105.290510233875,17920.930465451507,8.740831501549525,15128.123304500716,-6092.952597886202,12.739827004320285,15348.808138396544,5574.57375225112,34.00766549797455,0.9337897888641336,119.0,72.0,91.0,230.0,321.0,47.0,768.0,760.0,53.0,36.0,17.0,0.6792452830188679,104.42686885512504,1948.448962892227,16.0,9.0,7.0,0.5625,161.27729088779958,1204.8968546167655,20.0,11.0,9.0,0.55,1016.5223355068608,14657.174309774637,33.0,7.0,26.0,0.2121212121212121,667.1326821992802,11868.556436371737,77.0,41.0,36.0,0.5324675324675324,142.21179576399396,6301.5580058162595,0.0,0.0,0.0,0.0,14943.0,14990.0,15062.0,15070.0,15094.0,15114.0,15121.0,15153.0,15316.0,15383.0,0.03952512364890866,-0.1444106960691564,0.05672263153224897,-0.10949251146820431,0.02551079276806879
19,19,15705.54796540086,1751.5670245608817,15.287792405184335,15781.178051898703,-1752.9567184075584,22.93168860777651,15840.04114046936,15910.665866625348,8.667098909983354,15864.54796540086,-6621.100698331718,15.28779240518434,16078.191273583903,5130.229871650465,29.02618774525953,0.9019876716585552,64.0,36.0,128.0,222.0,350.0,28.0,724.0,736.0,35.0,16.0,19.0,0.4571428571428571,130.2308902847763,2082.4773584767645,59.0,43.0,16.0,0.7288135593220338,94.77888340243952,1055.0334253689257,18.0,11.0,7.0,0.6111111111111112,927.460704234986,12337.262151539597,35.0,9.0,26.0,0.2571428571428571,549.5652107316838,10968.445220794049,74.0,36.0,38.0,0.4864864864864865,194.2315501263745,4777.172128882543,0.0,0.0,0.0,0.0,15697.0,15725.0,15761.0,15794.0,15829.0,15847.0,15856.0,15889.0,16046.0,16111.0,0.07435107447140096,-0.05406801115348682,0.05829175925191498,-0.08300209221559712,0.03786020412061722
20,20,16431.821948101293,2894.8859005766512,22.93168860777651,16525.849321800284,-901.5585977907064,5.095930801728113,16582.43302359099,17826.25273550181,8.859629353503035,16606.123304500717,-5550.8708504931055,12.739827004320285,16819.90698199409,5448.375732477294,39.35938779524262,0.9489266175049336,104.0,85.0,98.0,243.0,341.0,19.0,725.0,742.0,21.0,14.0,7.0,0.6666666666666666,190.51429946756664,3886.4775568202263,18.0,4.0,14.0,0.2222222222222222,132.63607692306502,1172.7445983638377,19.0,10.0,9.0,0.5263157894736842,968.6787848667716,15754.738403248455,23.0,7.0,16.0,0.3043478260869565,579.371012362448,10859.671327748212,77.0,33.0,44.0,0.4285714285714285,131.08315092764704,6279.822016998739,0.0,0.0,0.0,0.0,16419.0,16438.0,16523.0,16540.0,16572.0,16591.0,16599.0,16621.0,16790.0,16864.0,0.06581064194261227,-0.14711864236899666,0.05434001184879438,-0.1043747959495365,0.024059124657330767
21,21,17209.780764697556,2211.919307048871,18.14118457414257,17312.72601729957,-1650.8793450673024,7.64389620259217,17349.17377023051,17427.276683524597,8.650014737656399,17372.123304500717,-6623.271777092649,12.739827004320285,17588.96180829462,5058.820860903571,31.42582192339168,0.9391392887008964,100.0,56.0,108.0,233.0,341.0,44.0,789.0,766.0,48.0,23.0,25.0,0.4791666666666667,123.05337540799935,1489.912773716852,27.0,23.0,4.0,0.8518518518518519,175.9960191471639,784.1508496735148,19.0,11.0,8.0,0.5789473684210527,1031.7695226926155,14519.845817551231,34.0,7.0,27.0,0.2058823529411764,577.7603742764201,12072.15687009966,84.0,40.0,44.0,0.4761904761904761,145.32868967916136,4986.877590900354,0.0,0.0,0.0,0.0,17190.0,17234.0,17290.0,17317.0,17338.0,17357.0,17365.0,17398.0,17555.0,17631.0,0.05563194598277475,-0.1066074390433354,0.05920428885300422,-0.08723186873814708,0.028727779392687128
22,22,18750.246609001435,2560.2888979886025,18.30217613974996,18832.178051898707,-905.4464704322568,22.931688607401135,18892.768452999684,17800.64797571237,8.848863948918238,18915.123304500717,-6559.382260085961,12.739827004320285,19131.676300313015,5081.8636389919275,34.80824837316135,0.9481485240340516,94.0,71.0,111.0,231.0,342.0,23.0,1529.0,1545.0,24.0,18.0,6.0,0.75,161.75413821881617,2944.0967543119523,18.0,5.0,13.0,0.2777777777777778,130.92031342591324,1079.4680957215253,19.0,11.0,8.0,0.5789473684210527,1062.9576346513588,13253.04180995122,31.0,7.0,24.0,0.2258064516129032,587.70756189694,12178.779203248529,67.0,30.0,37.0,0.4477611940298507,107.09156459184656,5704.713053325078,0.0,0.0,0.0,0.0,18733.0,18756.0,18827.0,18845.0,18882.0,18901.0,18908.0,18938.0,19103.0,19169.0,0.06317808054625883,-0.14459199709885928,0.05971454725140813,-0.08959800459765216,0.021073285747015825
23,23,19544.246609001435,2722.18808431319,17.34459684152053,19651.14191530919,-1620.5028504805443,10.973820343154442,19690.82321040435,17786.867974617242,8.965844824137106,19715.123304500717,-6296.359452766376,12.739827004320285,19930.75600691686,5131.540676948857,35.66609559360457,0.9507408879884502,104.0,75.0,102.0,234.0,336.0,29.0,794.0,799.0,45.0,14.0,31.0,0.3111111111111111,157.3005703777993,2805.960327949245,26.0,17.0,9.0,0.6538461538461539,89.39952030527044,1479.5265024280548,21.0,12.0,9.0,0.5714285714285714,996.2345438151162,14776.803754305056,30.0,8.0,22.0,0.2666666666666666,624.3216330296145,12244.369754504292,87.0,40.0,47.0,0.4597701149425287,133.43071740578495,5366.221340007458,0.0,0.0,0.0,0.0,19530.0,19559.0,19634.0,19660.0,19679.0,19699.0,19708.0,19736.0,19892.0,19970.0,0.05778460764127779,-0.0551677649186238,0.05600955408432745,-0.0991559706387652,0.026002077310847898
24,24,20377.30135639943,2022.3763717731256,10.191861603456228,20452.45203459914,-1654.0183549317258,15.28779240518434,20502.773450544468,17111.784743724624,8.940400945119727,20526.39222174003,-6088.309762647077,17.8357578060484,20756.780764697556,4957.037753972798,32.340069399504785,0.9179488889209828,103.0,66.0,103.0,229.0,332.0,37.0,839.0,811.0,49.0,31.0,18.0,0.6326530612244898,125.21837931450968,1746.7203852533023,25.0,7.0,18.0,0.28,133.60818842851364,1305.343215469949,19.0,12.0,7.0,0.631578947368421,912.5813548212944,12702.857565449613,33.0,7.0,26.0,0.2121212121212121,490.33437451821214,11273.418529080078,80.0,49.0,31.0,0.6125,105.10572329941306,4394.320591885015,0.0,0.0,0.0,0.0,20346.0,20383.0,20449.0,20467.0,20491.0,20510.0,20519.0,20552.0,20710.0,20781.0,0.0619164568288167,-0.0807779357648233,0.05333057705485478,-0.08053702811353416,0.021203333223592358
25,25,21120.69864360057,2358.6848865435077,10.191861603456228,21216.972626301005,-1137.053212140544,16.330629101179245,21274.998822308455,15165.214959003768,9.1032234942992,21299.123304500717,-6183.797382211962,12.739827004320285,21515.59320561618,5438.635528599972,33.868935581317935,0.9214929800802052,92.0,72.0,116.0,234.0,350.0,20.0,740.0,771.0,24.0,6.0,18.0,0.25,173.75953035864637,2605.451232205087,18.0,11.0,7.0,0.6111111111111112,125.9646976671212,1735.3932598879944,18.0,11.0,7.0,0.6111111111111112,885.6338360450625,12862.1745601186,33.0,8.0,25.0,0.2424242424242424,512.6620710088644,11057.49308488387,84.0,41.0,43.0,0.4880952380952381,85.25094860348557,5143.596208856341,0.0,0.0,0.0,0.0,21115.0,21135.0,21207.0,21223.0,21264.0,21282.0,21292.0,21323.0,21480.0,21557.0,0.07366797122835647,-0.1107817086501942,0.05839902951848706,-0.08290408616614209,0.015675061907564725
26,26,21901.320612628915,2329.1289117738443,21.07896584594002,22000.69864360057,-1204.4649843162329,10.191861603456228,22043.889176971556,16637.009291870352,9.223613944218744,22067.123304500717,-6257.401143369733,12.739827004320285,22286.530140455732,5102.038428588367,33.841521366122635,0.9445526774127282,112.0,65.0,93.0,236.0,329.0,47.0,778.0,770.0,51.0,21.0,30.0,0.4117647058823529,94.02930713211612,2096.7115841334244,23.0,7.0,16.0,0.3043478260869565,133.74469281808027,875.9979805478738,19.0,11.0,8.0,0.5789473684210527,927.1940026274756,13551.54045117604,28.0,7.0,21.0,0.25,508.144134384567,11220.70190637126,83.0,43.0,40.0,0.5180722891566265,120.33748759280304,5658.161620638362,0.0,0.0,0.0,0.0,21883.0,21930.0,21995.0,22012.0,22033.0,22052.0,22060.0,22088.0,22244.0,22324.0,0.040371018820295444,-0.11104074801643676,0.055730809928714015,-0.08120689767875763,0.023586158606433316
27,27,22659.972626301005,2007.865048409625,17.835757806048374,22776.30135639943,-1633.7840802580083,10.191861603456228,22813.53263077809,17280.41361934253,8.736694082637337,22836.123304500717,-6715.401015765957,12.739827004320285,23067.08212109698,5009.096903649319,30.534969738241784,0.8966119444421244,95.0,45.0,116.0,236.0,352.0,50.0,760.0,769.0,50.0,10.0,40.0,0.2,126.59303329657315,2624.790549028364,68.0,61.0,7.0,0.8970588235294118,148.50263455880923,588.038508363764,18.0,11.0,7.0,0.6111111111111112,1033.6280012945915,13272.975139759656,33.0,7.0,26.0,0.2121212121212121,604.5580185958383,12405.707694676748,86.0,55.0,31.0,0.6395348837209303,114.80113043405404,4761.597115308191,0.0,0.0,0.0,0.0,22650.0,22700.0,22745.0,22782.0,22803.0,22821.0,22829.0,22861.0,23012.0,23097.0,0.06304857659474876,-0.09089489630438656,0.05981500350996333,-0.09002560192258044,0.022918528557596286
28,28,23417.555760008552,2347.483627898561,19.058379830566416,23518.849321800284,-1031.364006346475,5.095930801728113,23556.960481685423,16121.955608822977,8.70884827974019,23581.54796540086,-6081.167727256849,15.28779240518434,23797.102391123182,5625.045748393601,32.737997858316334,0.931317812520137,116.0,70.0,92.0,229.0,321.0,46.0,765.0,744.0,47.0,19.0,28.0,0.4042553191489361,131.90951412298662,2202.3141445766423,8.0,3.0,5.0,0.375,174.45353964275722,1311.0492036178407,18.0,11.0,7.0,0.6111111111111112,896.6074778576095,12879.742851817797,35.0,9.0,26.0,0.2571428571428571,466.4112658110057,10179.418646065818,90.0,46.0,44.0,0.5111111111111111,162.4618973728911,4590.2847511385335,0.0,0.0,0.0,0.0,23400.0,23446.0,23516.0,23524.0,23546.0,23564.0,23573.0,23608.0,23754.0,23837.0,0.05619187821176433,-0.1691483691201761,0.055614064423234605,-0.07669764866383631,0.028881880190803233
29,29,24145.903424107142,2468.4346586271668,19.472034460348095,24235.72601729957,-1138.4041485201285,7.64389620259217,24283.532666350493,16181.615022871776,9.166809176685636,24307.123304500717,-6381.165377420597,12.739827004320285,24523.131821807583,5682.1219328669795,36.015273089901214,0.945510553604508,107.0,64.0,99.0,234.0,333.0,43.0,720.0,726.0,43.0,21.0,22.0,0.4883720930232558,137.81797201893792,2554.6859647935444,11.0,6.0,5.0,0.5454545454545454,111.50096127450404,993.5966639224084,21.0,13.0,8.0,0.6190476190476191,901.8614487272808,12742.934539308617,31.0,7.0,24.0,0.2258064516129032,558.337283008121,11556.366785334663,83.0,40.0,43.0,0.4819277108433735,134.31213951693,5681.886862384264,0.0,0.0,0.0,0.0,24125.0,24168.0,24232.0,24240.0,24271.0,24292.0,24300.0,24331.0,24484.0,24565.0,0.05583213294192933,-0.09794497096611077,0.05573371060011945,-0.08749769830190685,0.02363767288062424
30,30,24883.036056510908,2342.8926985274575,20.738963320689955,24971.095930801723,-1158.8519879944308,18.18412980383317,25025.958626789376,16709.313403121523,9.15967364182358,25049.123304500717,-6352.706810446415,12.739827004320176,25264.97238445207,5205.2470275943,32.874654596732675,0.948639019963901,88.0,44.0,118.0,234.0,352.0,44.0,738.0,743.0,45.0,18.0,27.0,0.4,120.99258859038729,2620.0115470169594,39.0,17.0,22.0,0.4358974358974359,113.99152692205922,1041.9216347961328,21.0,12.0,9.0,0.5714285714285714,933.1965980956608,13009.222347905454,31.0,7.0,24.0,0.2258064516129032,599.3800233172808,11923.18947809774,82.0,39.0,43.0,0.4756097560975609,92.9055845867248,5141.340042499287,0.0,0.0,0.0,0.0,24866.0,24910.0,24954.0,24988.0,25014.0,25035.0,25042.0,25072.0,25226.0,25306.0,0.0516423943215295,-0.09836590703817047,0.05584888951339719,-0.09435033619553448,0.017848448708430043
31,31,25672.246609001435,2874.6198637837488,18.84103391525437,25795.849321800284,-1043.2017666412196,4.3885747713289724,25820.625573361784,17254.667175751994,8.998202233235586,25845.123304500717,-5165.43810654282,12.739827004320285,26060.684833895823,5581.694319024501,36.70563600001133,0.9522373666469806,135.0,109.0,75.0,234.0,309.0,26.0,788.0,795.0,44.0,14.0,30.0,0.3181818181818182,184.54259354962804,3814.163786771656,5.0,3.0,2.0,0.6,407.2792067853563,4192.2311903096115,20.0,12.0,8.0,0.6,961.8847913411948,14912.872027872216,34.0,8.0,26.0,0.2352941176470588,569.4278092285634,9768.361757768684,86.0,45.0,41.0,0.5232558139534884,138.0751351748474,6063.963677009529,0.0,0.0,0.0,0.0,25658.0,25684.0,25793.0,25798.0,25809.0,25829.0,25838.0,25868.0,26017.0,26102.0,0.06419721643011327,-0.39041268890549025,0.055746354394649394,-0.11023804708980943,0.024737136661933584
32,32,26536.876695499283,2253.8405104359067,12.739827004320285,26634.30135639943,-1580.844801420904,10.191861603456228,26662.23496210598,16158.29754820584,9.740557822682154,26686.123304500717,-6412.942750221311,12.739827004320285,26905.140905248583,5410.155071044056,33.777221505783174,0.9250336002060664,130.0,88.0,78.0,234.0,312.0,42.0,871.0,840.0,59.0,51.0,8.0,0.864406779661017,172.5575005844032,1507.046488518934,9.0,2.0,7.0,0.2222222222222222,339.12615021695393,2236.053906121299,20.0,12.0,8.0,0.6,857.0940579394476,14130.936716573391,31.0,7.0,24.0,0.2258064516129032,537.362480254808,11490.40128452985,81.0,40.0,41.0,0.4938271604938271,130.56903390414442,5710.034220416846,0.0,0.0,0.0,0.0,26502.0,26544.0,26632.0,26641.0,26650.0,26670.0,26679.0,26710.0,26867.0,26944.0,0.0765615400847638,-0.21452210230386853,0.05304358676292703,-0.08379343168723338,0.02413406495554426
33,33,27393.876695499283,2469.895915853939,12.739827004320285,27474.904111443146,-1691.3902534606686,12.739827004320285,27538.57472186975,18660.112797436137,8.484270226419904,27562.574342699936,-5961.158776847816,15.28779240518434,27781.328900424214,5471.739475983492,30.563532937250777,0.9379785685396091,83.0,57.0,124.0,230.0,354.0,26.0,857.0,876.0,28.0,20.0,8.0,0.7142857142857143,136.13966974213798,2301.3491366664102,23.0,18.0,5.0,0.782608695652174,123.52189073826182,1746.6414024907167,19.0,11.0,8.0,0.5789473684210527,1044.191035956817,14358.194858373545,29.0,8.0,21.0,0.2758620689655172,543.2743519255793,10834.161453069895,76.0,33.0,43.0,0.4342105263157895,148.51822722972034,5675.589603209786,0.0,0.0,0.0,0.0,27375.0,27401.0,27458.0,27479.0,27528.0,27546.0,27555.0,27582.0,27751.0,27812.0,0.055119597902193056,-0.07302979929411907,0.055958452518051593,-0.09113569563615209,0.027142781172531175
34,34,28305.61299415134,2590.581296726832,13.923568486574382,28395.123304500717,-1641.608157446855,12.739827004320285,28447.91025058112,16899.01044810953,8.68114929880245,28471.123304500717,-6901.25777714909,12.739827004320285,28693.218953666594,4845.8067371685775,30.772911172244623,0.9300906557606547,99.0,68.0,108.0,236.0,344.0,31.0,912.0,909.0,31.0,17.0,14.0,0.5483870967741935,118.39640572822012,2320.977304215441,14.0,7.0,7.0,0.5,139.85483494720054,2066.077953561879,19.0,12.0,7.0,0.631578947368421,1000.2340278013044,13674.332549082894,32.0,7.0,25.0,0.21875,543.6214129542517,11834.109371725914,90.0,41.0,49.0,0.4555555555555555,135.35580392585038,4716.213138360701,0.0,0.0,0.0,0.0,28289.0,28320.0,28388.0,28399.0,28436.0,28455.0,28464.0,28496.0,28653.0,28732.0,0.04570264051462602,-0.08519379872277966,0.05918891114202484,-0.07877135306469045,0.027932563403248574
35,35,29140.246609001435,2117.548229281291,13.003558900947697,29256.204541756262,-2167.3049880612944,10.191861603456228,29282.32559257027,16329.496058558168,9.330734100646294,29305.123304500717,-7343.908685704911,12.739827004320285,29538.93144289727,5327.317248670296,27.781583097197984,0.9052188420744331,124.0,98.0,82.0,234.0,316.0,26.0,828.0,836.0,28.0,16.0,12.0,0.5714285714285714,132.04134669620314,2150.058652437708,21.0,15.0,6.0,0.7142857142857143,388.53847861355206,2176.421065892665,19.0,11.0,8.0,0.5789473684210527,961.593958015628,14011.447804955227,35.0,7.0,28.0,0.2,519.2810507815514,11987.192224429282,72.0,45.0,27.0,0.625,110.48558476610744,5340.091034974213,0.0,0.0,0.0,0.0,29126.0,29152.0,29250.0,29261.0,29271.0,29290.0,29298.0,29332.0,29494.0,29566.0,0.06235576827500113,-0.17927263617895742,0.0588869340834106,-0.07070908326955971,0.020739441562952675
36,36,29993.45203459914,1872.095300200332,15.287792405148435,30065.904069198277,-1525.3442415684342,30.57558481036868,30116.959350016394,17139.978346665328,9.29344932311015,30141.54796540086,-6732.200982556054,15.28779240518434,30365.657460196835,4935.192509804772,31.39902589005032,0.9218027912471886,62.0,42.0,119.0,234.0,353.0,20.0,860.0,834.0,47.0,35.0,12.0,0.7446808510638298,170.3113827211861,1152.118974184298,74.0,56.0,18.0,0.7567567567567568,97.5365198611906,824.66244887573,19.0,12.0,7.0,0.631578947368421,918.7581433414172,13183.80579111354,31.0,9.0,22.0,0.2903225806451613,502.06566852628737,10750.603382750644,88.0,54.0,34.0,0.6136363636363636,118.0936300537178,4192.661434416484,0.0,0.0,0.0,0.0,29982.0,30002.0,30044.0,30083.0,30105.0,30124.0,30133.0,30163.0,30322.0,30397.0,0.09097367142739003,-0.06394393947486814,0.05360322660618567,-0.07457674983667305,0.02392888014380403
37,37,30786.63119295199,2227.4470623649327,16.151136839935152,30887.45203459914,-1497.5285730918388,15.28779240518434,30927.68725210935,17376.92824767773,9.110407283423484,30951.447529372177,-6160.028058743517,17.8357578060484,31170.48551309799,5693.03584405798,34.41735060008156,0.9431047661547352,110.0,76.0,95.0,240.0,335.0,34.0,787.0,812.0,39.0,22.0,17.0,0.5641025641025641,103.65106778160632,2025.9945124233725,18.0,8.0,10.0,0.4444444444444444,133.40236400718834,1410.923472580237,18.0,11.0,7.0,0.6111111111111112,944.0120092469816,13363.272563016557,31.0,7.0,24.0,0.2258064516129032,518.9316667293193,11931.677393314236,95.0,46.0,49.0,0.4842105263157895,121.67693502093113,5140.834095861169,0.0,0.0,0.0,0.0,30770.0,30804.0,30880.0,30896.0,30917.0,30935.0,30944.0,30975.0,31138.0,31215.0,0.04653357178848397,-0.08908168191526532,0.054325597469917636,-0.08424176996933479,0.02137294377795453
38,38,31566.220093860455,2490.120866656799,17.707221812517023,31657.72601729957,-1255.820626331179,3.7563687315487977,31706.708341346748,17991.281634567244,8.885630704964358,31729.200587226835,-5630.038878553503,17.835757806047912,31947.9106429083,5797.9619135505,35.23713290078629,0.9474946842003888,102.0,66.0,102.0,237.0,339.0,36.0,782.0,779.0,36.0,18.0,18.0,0.5,137.3473416072862,2720.4303622793946,13.0,9.0,4.0,0.6923076923076923,144.49852975361668,1108.8959364231046,19.0,12.0,7.0,0.631578947368421,933.18303961868,13616.164307621231,29.0,6.0,23.0,0.2068965517241379,610.476892008306,12454.272626862585,83.0,41.0,42.0,0.4939759036144578,135.92935289583156,6254.11339034799,0.0,0.0,0.0,0.0,31548.0,31584.0,31650.0,31662.0,31695.0,31714.0,31723.0,31752.0,31917.0,31989.0,0.05515689758131572,-0.11506303266873578,0.051868624958086626,-0.10843209170966732,0.023444333530054606
39,39,32355.67126990158,2689.906110798752,15.912578781040231,32433.78607058093,-1422.7932869844817,17.8357578060484,32500.829748849475,17423.090703493453,8.632976924163614,32525.54796540086,-6059.7445682707275,15.28779240518434,32743.277169388533,5186.039938936127,33.89996100969171,0.950810486061047,82.0,59.0,125.0,238.0,363.0,23.0,786.0,793.0,45.0,16.0,29.0,0.3555555555555555,177.7151510807948,2841.1402472042637,20.0,14.0,6.0,0.7,142.2503762941834,1440.7639889271263,18.0,11.0,7.0,0.6111111111111112,968.8976265832924,13895.05324533655,34.0,9.0,25.0,0.2647058823529412,487.4664822101448,10468.859416250612,83.0,40.0,43.0,0.4819277108433735,123.11889935549996,5326.2328267787925,0.0,0.0,0.0,0.0,32340.0,32363.0,32422.0,32438.0,32490.0,32508.0,32517.0,32547.0,32703.0,32785.0,0.0660674178802558,-0.09997965101147889,0.05560997431925333,-0.08044340429175109,0.023740445658958186
40,40,33171.246609001435,1924.9762663091112,15.036142855787457,33291.30135639943,-1946.9661321093763,10.191861603456228,33317.29091258298,16398.16447065188,9.09636915293877,33341.12330450071,-7044.01756602182,12.739827004320285,33561.94587474278,5228.8343378864965,31.25298455209426,0.922628803714193,131.0,110.0,78.0,234.0,312.0,21.0,816.0,817.0,22.0,15.0,7.0,0.6818181818181818,159.53264250907216,2334.5683359882696,10.0,4.0,6.0,0.4,439.9066726557376,2768.5558060440426,19.0,11.0,8.0,0.5789473684210527,955.3108362786954,14252.052447676491,33.0,7.0,26.0,0.2121212121212121,519.7165943010722,11561.847266294277,81.0,42.0,39.0,0.5185185185185185,132.05846124694494,5774.155487030946,0.0,0.0,0.0,0.0,33157.0,33178.0,33288.0,33297.0,33306.0,33324.0,33334.0,33366.0,33520.0,33600.0,0.08287512178784158,-0.22594469693170022,0.05825718103928243,-0.07378127459647824,0.02525581280900232
41,41,33988.45203459914,2258.716543284233,6.849994755185417,34048.42661044576,-1765.1816220077712,10.191861603456228,34115.08377879078,16300.130839334804,9.088052346413868,34138.12330450071,-7206.852497858794,12.739827004320285,34358.894240102534,5599.348472113577,30.19223795243642,0.9317753432373066,65.0,47.0,117.0,234.0,351.0,18.0,824.0,796.0,20.0,10.0,10.0,0.5,188.8760672678767,1242.666964580986,8.0,4.0,4.0,0.5,131.29020529219642,2055.2518820424752,19.0,12.0,7.0,0.631578947368421,932.583145698188,12714.76523949134,31.0,7.0,24.0,0.2258064516129032,582.6094546539321,12308.480555415874,80.0,41.0,39.0,0.5125,131.71970127685006,5348.1626674571835,0.0,0.0,0.0,0.0,33979.0,33997.0,34044.0,34052.0,34103.0,34122.0,34131.0,34161.0,34320.0,34395.0,0.08362096954106775,-0.07437773181824936,0.05721323067221747,-0.08084104049958417,0.02352411212355391
42,42,34792.39728720114,1825.8958570052455,20.383723196706292,34849.54796540086,-1708.9909148751717,15.287792405130698,34933.751548125554,16657.166584172384,8.821811453246664,34957.12330449869,-6102.617755442243,12.73982700408852,35179.808138396555,5045.6906369870785,30.091866670603725,0.9338594938878666,60.0,20.0,141.0,232.0,373.0,40.0,798.0,819.0,41.0,12.0,29.0,0.2926829268292683,146.43932590054044,2389.1804158789146,27.0,13.0,14.0,0.4814814814814814,131.05058373194055,1651.7723220297703,20.0,12.0,8.0,0.6,942.4808906940764,12874.30270191982,33.0,7.0,26.0,0.2121212121212121,575.8213632834335,10937.958698298453,84.0,45.0,39.0,0.5357142857142857,142.0443257187656,5004.45861663238,0.0,0.0,0.0,0.0,34781.0,34821.0,34841.0,34862.0,34922.0,34942.0,34950.0,34982.0,35137.0,35214.0,0.08020135723442837,-0.0766830195475397,0.05658110495152401,-0.09435645265016357,0.02815161212570579
43,43,35602.99239143511,2050.292374908636,14.35766058611613,35704.30135639943,-1556.3953896043324,10.191861603456228,35742.07418787916,17377.111677768742,8.001549521580007,35767.972626301,-5801.7246528832875,17.8357578060484,35985.62584721022,5371.457380149182,31.84683108949649,0.917872275870076,47.0,29.0,130.0,253.0,383.0,18.0,812.0,810.0,28.0,17.0,11.0,0.6071428571428571,141.1852597228208,2086.6572751448766,78.0,71.0,7.0,0.9102564102564102,131.5883050495555,1097.4380240125065,17.0,10.0,7.0,0.5882352941176471,1021.5527897278338,14485.625438569148,36.0,10.0,26.0,0.2777777777777778,533.4903286145808,9469.345151214704,84.0,44.0,40.0,0.5238095238095238,130.64281467816397,5109.586861771772,0.0,0.0,0.0,0.0,35595.0,35613.0,35642.0,35710.0,35732.0,35749.0,35758.0,35772.0,35945.0,36025.0,0.068861037308941,-0.08454683554608057,0.058787260430325054,-0.09195374833058506,0.02432167015994002
44,44,36385.7941806402,2351.057283563421,15.0527235074305,36476.027373705,-1349.9138078145882,17.8357578060484,36523.95743810881,15654.15828673887,8.853623596899688,36547.12330450071,-6636.984203747997,12.739827004320285,36770.10949479597,5610.892517391387,31.110100048545178,0.9236461180476276,99.0,80.0,102.0,237.0,339.0,19.0,782.0,781.0,21.0,15.0,6.0,0.7142857142857143,154.26538772237944,2973.8681226363697,16.0,5.0,11.0,0.3125,157.54914077208105,1927.953282201308,18.0,11.0,7.0,0.6111111111111112,922.881416552112,13385.63301713215,34.0,7.0,27.0,0.2058823529411764,487.9947617767806,11093.064184110772,87.0,45.0,42.0,0.5172413793103449,101.45426150524884,5443.319778731668,0.0,0.0,0.0,0.0,36372.0,36391.0,36471.0,36486.0,36513.0,36531.0,36540.0,36573.0,36726.0,36810.0,0.06561532498628209,-0.11671051874574244,0.058954394075209644,-0.07352658177206498,0.018081661908650657
45,45,37152.821948101286,2358.321455905996,13.114063095416668,37252.802285616126,-1311.4457007665562,10.191861603456228,37298.68754693629,16138.651774070728,9.043295234647625,37322.12330450071,-6252.120299717695,12.739827004320285,37542.36950130955,5230.400006808654,31.3454862403929,0.9396942801977904,108.0,74.0,97.0,233.0,330.0,34.0,766.0,776.0,35.0,13.0,22.0,0.3714285714285714,171.05032274192388,3061.7300565586565,14.0,5.0,9.0,0.3571428571428571,143.63713791159407,1316.0853157394854,20.0,12.0,8.0,0.6,911.7476647825764,12855.064308972698,30.0,7.0,23.0,0.2333333333333333,491.9425525013181,10879.154257201058,74.0,38.0,36.0,0.5135135135135135,125.72579297104758,5279.875170987698,0.0,0.0,0.0,0.0,37140.0,37174.0,37248.0,37262.0,37287.0,37306.0,37315.0,37345.0,37504.0,37578.0,0.07253053747764487,-0.10952579876363648,0.05649466123604215,-0.07868411497512788,0.024037510096242064
46,46,37955.60425872639,3024.1706185676544,14.877625372222926,38060.69864360057,-1434.8521079696584,7.391538994130768,38093.56852475715,17436.615811744345,8.91807080092984,38117.12330450071,-6457.422351018363,12.739827004320285,38335.99833565152,5353.764037469694,30.429786231877785,0.9534958666738452,118.0,76.0,82.0,233.0,315.0,42.0,806.0,795.0,42.0,19.0,23.0,0.4523809523809524,131.40191330683885,3043.010575112968,16.0,7.0,9.0,0.4375,216.50132214404775,129.3620441392901,19.0,11.0,8.0,0.5789473684210527,998.9511735230656,13275.721224067998,28.0,7.0,21.0,0.25,574.5600962493879,11763.7557053392,67.0,32.0,35.0,0.4776119402985074,112.5965262402458,5630.879721888536,0.0,0.0,0.0,0.0,37937.0,37979.0,38055.0,38070.0,38083.0,38102.0,38110.0,38137.0,38305.0,38370.0,0.04345056211447325,-0.1508875520630492,0.057290427472183394,-0.08897669457206518,0.021031282935185424
47,47,38772.94525260201,2672.3977730676834,19.22033902521833,38862.84932180029,-983.9780587158768,5.095930801728113,38914.41962384218,17909.50515148317,8.549084447267719,38937.44477534445,-5798.913039546952,15.287792405181529,39169.356103797414,5997.613672222261,32.135507189571946,0.922112472097643,107.0,63.0,97.0,238.0,335.0,44.0,812.0,820.0,51.0,22.0,29.0,0.4313725490196078,109.51030078882424,2518.281744437383,28.0,10.0,18.0,0.3571428571428571,114.56718593880382,1064.347641909806,18.0,10.0,8.0,0.5555555555555556,1010.4739651072746,14531.457392988848,28.0,7.0,21.0,0.25,568.8147428050885,11751.461194462663,77.0,50.0,27.0,0.6493506493506493,123.17379625534468,6032.78035838941,0.0,0.0,0.0,0.0,38753.0,38797.0,38860.0,38865.0,38904.0,38922.0,38930.0,38957.0,39122.0,39195.0,0.04097829368534304,-0.11643266323267178,0.05642109910689479,-0.0980898901097382,0.020537134098153043
48,48,39563.39728720114,1897.773692829074,19.114964366385657,39647.44776658199,-1190.1017651303976,23.33299031395907,39711.56675463567,17464.311452305355,9.649724150547335,39732.027373699,-6702.2030367678535,17.20429352324824,39954.33409334755,5461.466819199159,32.850845131708034,0.9327884909493916,78.0,61.0,123.0,243.0,366.0,17.0,793.0,796.0,45.0,12.0,33.0,0.2666666666666666,156.4928756015517,2800.383600089808,24.0,17.0,7.0,0.7083333333333334,99.14050894486878,1187.168636009264,19.0,12.0,7.0,0.631578947368421,852.1751776669371,12001.622995008,26.0,4.0,22.0,0.1538461538461538,604.1772099590681,13033.619516725084,85.0,41.0,44.0,0.4823529411764706,132.289270684399,5487.8780578064425,0.0,0.0,0.0,0.0,39552.0,39569.0,39630.0,39654.0,39700.0,39719.0,39728.0,39753.0,39917.0,39996.0,0.08246129461741174,-0.08330422813380679,0.048795234784618245,-0.09014606192092225,0.02422229687807519
49,49,40400.45351281269,2449.512140867326,14.65882606709418,40471.87669549929,-1391.2719117316708,12.739827004320285,40538.67092630794,16086.068027519525,8.819911729293791,40563.12330450071,-5995.223471412142,12.739827004320285,40782.94124431818,5190.339227324402,31.330154958212603,0.9473242748452138,71.0,29.0,132.0,239.0,371.0,42.0,839.0,828.0,43.0,19.0,24.0,0.4418604651162791,117.15126843896137,2118.9175446343806,33.0,22.0,11.0,0.6666666666666666,96.6126410549963,783.1390616426618,19.0,12.0,7.0,0.631578947368421,898.2242856984305,13554.640565025198,30.0,8.0,22.0,0.2666666666666666,489.168292787387,10371.31539098639,83.0,42.0,41.0,0.5060240963855421,98.90859510401532,5226.986191010419,0.0,0.0,0.0,0.0,40381.0,40423.0,40452.0,40479.0,40527.0,40546.0,40556.0,40584.0,40743.0,40823.0,0.04782636774254988,-0.06944195468932145,0.055838647714393445,-0.08159300401727411,0.019056287223639192
50,50,41276.89554971226,2534.531235245237,16.543984517242905,41372.30135639943,-1528.7878490511414,10.191861603456228,41418.94374151606,16312.946230740228,8.911944357790432,41441.69864360057,-6659.714017914791,10.191861603456228,41676.205425597705,5195.8292789806865,29.015812582444727,0.9170483843005194,110.0,62.0,98.0,235.0,333.0,48.0,873.0,879.0,50.0,22.0,28.0,0.44,111.66443433785574,2274.804358847001,17.0,6.0,11.0,0.3529411764705882,152.54004105801812,1366.034664401182,19.0,11.0,8.0,0.5789473684210527,960.9277385753686,14047.650853381834,29.0,6.0,23.0,0.2068965517241379,608.7307295463733,11636.138609111214,71.0,48.0,23.0,0.676056338028169,107.55575636845496,5285.910537911691,0.0,0.0,0.0,0.0,41256.0,41304.0,41366.0,41378.0,41408.0,41427.0,41436.0,41464.0,41633.0,41699.0,0.04405723345802494,-0.09977842324734183,0.05890583619803698,-0.09140493539345278,0.020700402302200962
51,51,42161.2830938694,2681.977402593429,14.475740090853527,42255.17443090331,-1304.791318709587,20.383723206912453,42300.80081713086,16238.860481565218,9.012742269808776,42326.54796540086,-6249.43583977687,15.28779240518434,42546.65746019684,5617.150105560818,31.15811462985061,0.9452646267325324,101.0,63.0,104.0,230.0,334.0,38.0,885.0,884.0,44.0,20.0,24.0,0.4545454545454545,122.5365014933227,2072.4134453341458,22.0,12.0,10.0,0.5454545454545454,179.9572220972776,1942.7039325281896,18.0,11.0,7.0,0.6111111111111112,901.626962586057,13414.036511924229,33.0,10.0,23.0,0.303030303030303,481.1467613660282,9696.72917253148,70.0,37.0,33.0,0.5285714285714286,117.7154082737332,5756.565197317559,0.0,0.0,0.0,0.0,42143.0,42181.0,42244.0,42264.0,42290.0,42308.0,42318.0,42348.0,42513.0,42578.0,0.045688864259196174,-0.13792030918419335,0.05552279752693286,-0.07699043140879851,0.020956429160972272
52,52,43018.12330450071,2286.6828323026207,12.739827004320285,43142.87669549929,-1893.7324669340223,12.739827004320285,43170.90099109657,17927.76549385037,8.790046988782695,43194.12330450071,-7193.738806921316,12.739827004320285,43426.93144289727,4862.471047489013,29.25844964646227,0.9181479022899318,129.0,108.0,74.0,240.0,314.0,21.0,859.0,871.0,34.0,7.0,27.0,0.2058823529411764,167.68733563599807,3337.2046297607462,14.0,7.0,7.0,0.5,356.28667409592634,1175.8273042250676,18.0,11.0,7.0,0.6111111111111112,1042.0243235363273,14337.580724487834,28.0,7.0,21.0,0.25,606.1697203312135,12744.922675302936,77.0,48.0,29.0,0.6233766233766234,174.1574972559545,3733.233032942851,0.0,0.0,0.0,0.0,43011.0,43032.0,43140.0,43150.0,43160.0,43178.0,43187.0,43214.0,43381.0,43454.0,0.07333213564521407,-0.18813991961217158,0.05812349140185738,-0.0842635153430924,0.03581666513899136
53,53,43903.345366812464,2678.397536870734,19.18134478719681,44006.775184342056,-1401.6232517259662,15.28779240518434,44046.24049410421,16782.73065677038,8.700399389024494,44068.69864360057,-6515.252426787771,10.191861603456228,44293.054229523674,5799.176204500801,30.47445934878483,0.9403057298872884,113.0,74.0,93.0,232.0,325.0,39.0,886.0,873.0,40.0,16.0,24.0,0.4,174.73607760648957,3296.3097088200298,14.0,7.0,7.0,0.5,117.07979761449756,1816.958225296322,18.0,10.0,8.0,0.5555555555555556,1000.1010019574592,15177.5668870671,31.0,7.0,24.0,0.2258064516129032,547.3525422316995,11663.332763526829,63.0,30.0,33.0,0.4761904761904761,154.83209563392447,7198.05321592476,0.0,0.0,0.0,0.0,43887.0,43926.0,44000.0,44014.0,44036.0,44054.0,44063.0,44093.0,44263.0,44325.0,0.0652390375965772,-0.08353157488670718,0.05959107742422148,-0.08401094944245499,0.02669898105764706
54,54,44726.94525260201,2015.845223192881,16.649203139889472,44836.30135639943,-1893.4238815094964,4.7858322883563575,44865.580417592544,16814.152704300974,8.360517917271947,44890.972626301,-6016.671122220676,17.8357578060484,45110.56815551373,5951.387086744249,31.82781526165913,0.9297174795414238,122.0,83.0,83.0,239.0,322.0,39.0,819.0,821.0,52.0,22.0,30.0,0.4230769230769231,146.63945735259043,1146.4691447490195,13.0,7.0,6.0,0.5384615384615384,283.8495189931188,671.7681215420985,17.0,10.0,7.0,0.5882352941176471,967.8186560772346,12730.970706441249,35.0,10.0,25.0,0.2857142857142857,494.5158619756352,9550.295383420427,79.0,36.0,43.0,0.4556962025316455,134.9410608725697,6020.096406155873,0.0,0.0,0.0,0.0,44707.0,44746.0,44829.0,44842.0,44856.0,44873.0,44881.0,44912.0,45077.0,45151.0,0.07274341088564795,-0.14991335102778208,0.05755976367632676,-0.08219094112511766,0.02267388407202231
55,55,45514.47940829813,2486.5216348962067,16.185264376954745,45580.726017299574,-1525.847157481214,7.64389620259217,45644.031565108504,16588.395776010322,8.859248502827068,45667.12330450071,-6600.920261700694,12.73982700432027,45889.39459895143,5845.263524798221,31.553022093737948,0.938144327746083,78.0,34.0,123.0,239.0,362.0,44.0,799.0,778.0,56.0,36.0,20.0,0.6428571428571429,148.33372460517822,1454.214015983925,18.0,14.0,4.0,0.7777777777777778,132.27648282463653,1546.1465840729695,19.0,11.0,8.0,0.5789473684210527,942.5659674863342,13503.324415722978,30.0,7.0,23.0,0.2333333333333333,587.6934905564101,12098.701697630262,85.0,41.0,44.0,0.4823529411764706,140.34786154761483,5536.051704780573,0.0,0.0,0.0,0.0,45489.0,45533.0,45567.0,45585.0,45633.0,45652.0,45660.0,45690.0,45861.0,45929.0,0.05965511118963983,-0.0866905195425939,0.05682080294041736,-0.08903205420708928,0.024010527660933756
56,56,46275.246609001435,2422.910464630067,25.47965400864057,46364.273982700426,-1257.369803474211,7.64389620259217,46420.682918891354,17631.11361035645,8.938503350546828,46445.12330450071,-6068.889183227963,12.739827004320285,46664.73622685735,5765.266145816697,35.39007239019602,0.9543909142920164,99.0,50.0,104.0,242.0,346.0,49.0,751.0,775.0,56.0,19.0,37.0,0.3392857142857143,113.092786309485,2713.69605413468,17.0,4.0,13.0,0.2352941176470588,110.02535701997212,1269.507847914624,20.0,12.0,8.0,0.6,939.9937102025032,14187.123371017204,27.0,7.0,20.0,0.2592592592592592,568.3375369100063,11181.848628148808,84.0,43.0,41.0,0.5119047619047619,136.4030264174797,6387.613462940805,0.0,0.0,0.0,0.0,46261.0,46310.0,46360.0,46376.0,46409.0,46429.0,46438.0,46464.0,46623.0,46706.0,0.046676419933970675,-0.08750437358680276,0.05331448319012331,-0.09364770384680429,0.023659450052701272
57,57,47066.79362880421,3226.121184726768,15.982338558645608,47185.15067819971,-1744.0239954823396,3.7912152115019575,47210.30927287787,17844.57622372283,8.769405198475495,47234.54796540086,-5987.191529504628,15.28779240518434,47460.2327992967,5419.744388603999,30.7734286976199,0.9475229071731872,127.0,97.0,77.0,239.0,316.0,30.0,795.0,791.0,31.0,18.0,13.0,0.5806451612903226,186.7946510906098,3496.104487207738,11.0,8.0,3.0,0.7272727272727273,380.5152776520427,2956.2446728783857,18.0,10.0,8.0,0.5555555555555556,983.8283317000896,14803.289521377725,29.0,9.0,20.0,0.3103448275862069,529.8929056194659,10138.39641690923,82.0,45.0,37.0,0.5487804878048781,150.61536102424623,5120.583979843978,0.0,0.0,0.0,0.0,47050.0,47080.0,47177.0,47188.0,47200.0,47218.0,47226.0,47254.0,47419.0,47493.0,0.05790069262585066,-0.21818236368175928,0.05513318553298982,-0.08850441864239283,0.02779012260078953
58,58,47853.191297576355,2498.218437689972,15.98870215496044,47942.87669549929,-1242.121977782117,12.739827004282024,47992.54720750612,15698.992452332344,8.708903023805952,48016.12330450071,-6547.80927109622,12.739827004320285,48236.60120984142,6308.781687723568,33.75647377809154,0.9382405594457855,103.0,66.0,103.0,237.0,340.0,37.0,782.0,782.0,48.0,19.0,29.0,0.3958333333333333,93.28154335323956,1872.7794920251968,18.0,6.0,12.0,0.3333333333333333,173.17607524022054,1072.0229726171478,19.0,12.0,7.0,0.631578947368421,938.0623360690896,12746.940018925789,31.0,7.0,24.0,0.2258064516129032,502.0636228897743,11257.632065891608,81.0,40.0,41.0,0.4938271604938271,149.3759328165155,7090.981645858103,0.0,0.0,0.0,0.0,47834.0,47871.0,47937.0,47950.0,47981.0,48000.0,48009.0,48040.0,48199.0,48277.0,0.03733922620453247,-0.13941954038156282,0.05975302803140879,-0.07667658022753004,0.02367746107100048
59,59,48611.31941456427,2490.7508080490275,19.254318998167875,48683.12330450071,-1091.9120447324974,6.49533668482927,48750.40358305119,15993.209512444171,9.44087652996149,48774.12330450071,-6014.473272410038,12.739827004320285,48994.68483389583,5897.592157001266,34.81398533234683,0.9423079917687378,78.0,49.0,121.0,239.0,360.0,29.0,766.0,757.0,55.0,26.0,29.0,0.4727272727272727,139.01778875537622,2437.9560552449752,18.0,7.0,11.0,0.3888888888888889,123.17774151347932,1564.8941613734323,21.0,12.0,9.0,0.5714285714285714,832.6555298661003,13631.813220753758,32.0,7.0,25.0,0.21875,526.0062364278614,11002.727792483163,76.0,34.0,42.0,0.4473684210526316,118.85802434023228,6088.061309416313,0.0,0.0,0.0,0.0,48598.0,48627.0,48676.0,48693.0,48738.0,48759.0,48767.0,48797.0,48962.0,49036.0,0.055813607810998575,-0.11280921582255837,0.0520630664669414,-0.08745674186313032,0.02015365274099722
60,60,49386.06846684515,2658.222272690989,15.568515047625832,49498.72601730176,-1867.5779783913135,7.64389620259217,49524.61808652979,16498.562952691667,9.132351835414251,49548.12330450071,-6155.209822630353,12.739827004320285,49769.5791173641,5515.899986470906,32.35868727570707,0.94168345541905,123.0,89.0,78.0,233.0,311.0,34.0,768.0,776.0,37.0,14.0,23.0,0.3783783783783784,113.83014322344918,3096.185403816864,8.0,4.0,4.0,0.5,440.77188647015913,2488.7911974790545,20.0,12.0,8.0,0.6,970.4562973992732,13371.665043497578,34.0,8.0,26.0,0.2352941176470588,536.8062296333986,10599.307671751398,67.0,30.0,37.0,0.4477611940298507,107.67522459485188,5557.404480067907,0.0,0.0,0.0,0.0,49372.0,49406.0,49495.0,49503.0,49513.0,49533.0,49541.0,49573.0,49741.0,49806.0,0.042821905599419986,-0.23601257434499703,0.05882065608877454,-0.08721168653906279,0.019520880519761367
61,61,50191.484454494275,1995.9619872258284,14.18808163577732,50282.027373699,-2102.1505596323645,17.8357578060484,50332.541269016336,15573.909055723823,9.258352149899787,50355.12330450071,-7281.672896750096,12.739827004320285,50581.383477496405,5054.392926240912,27.311157486541205,0.9029417103076092,70.0,32.0,139.0,237.0,376.0,38.0,804.0,807.0,39.0,20.0,19.0,0.5128205128205128,119.23664851698322,2001.398747422319,52.0,41.0,11.0,0.7884615384615384,166.420937059122,1505.144410386372,18.0,12.0,6.0,0.6666666666666666,917.1140670306976,11496.195131921071,32.0,7.0,25.0,0.21875,609.3587493425301,12742.099358839634,79.0,42.0,37.0,0.5316455696202531,146.74544205431422,4238.561242620182,0.0,0.0,0.0,0.0,50171.0,50209.0,50241.0,50292.0,50321.0,50339.0,50348.0,50380.0,50556.0,50617.0,0.059738937554972824,-0.07916699224827482,0.058887852994982906,-0.08368389489378118,0.0290332477501809
62,62,50979.67263750029,2426.397373999395,20.383723206912453,51054.964949422625,-969.850227601022,7.64389620259217,51125.55759057077,17822.336878766346,9.464510758388716,51146.03637892521,-6315.878452822204,15.28779240518434,51368.20786139209,5723.491058271094,35.71271017656254,0.9368522543156678,92.0,62.0,109.0,254.0,363.0,30.0,794.0,793.0,30.0,22.0,8.0,0.7333333333333333,136.14536993205098,2382.0454438145816,12.0,8.0,4.0,0.6666666666666666,146.94114492320534,1228.8075636115204,21.0,13.0,8.0,0.6190476190476191,906.6041048297036,11977.745852190212,19.0,5.0,14.0,0.2631578947368421,672.3343864659688,12823.025773806548,83.0,37.0,46.0,0.4457831325301205,142.22283160304306,6070.705956897682,0.0,0.0,0.0,0.0,50958.0,50988.0,51050.0,51059.0,51113.0,51134.0,51141.0,51159.0,51334.0,51413.0,0.05611008789860524,-0.15150911010937468,0.05086898036978742,-0.10645144479712733,0.024848965457457114
63,63,51807.403750661,2592.9952325525283,11.306509738638288,51909.35320225556,-1986.2193307725415,28.027619409504627,51955.699529763166,16303.628170208383,9.541976064853475,51978.69864360057,-7024.636327834755,10.191861603456228,52203.37578816924,5103.276554804185,31.46537820324014,0.9193372191540246,102.0,83.0,105.0,236.0,341.0,19.0,825.0,832.0,19.0,10.0,9.0,0.5263157894736842,169.78295565230795,2852.5278157035336,25.0,10.0,15.0,0.4,133.00867248163425,1624.8393123134524,20.0,12.0,8.0,0.6,938.0234365338598,13293.652397348422,32.0,7.0,25.0,0.21875,539.8207881601103,11920.680605289828,62.0,25.0,37.0,0.4032258064516129,123.42236875317256,6128.244715361805,0.0,0.0,0.0,0.0,51797.0,51816.0,51899.0,51924.0,51944.0,51964.0,51973.0,52004.0,52180.0,52240.0,0.06547754254263502,-0.06696575268447338,0.057534643622939696,-0.07684679504632838,0.024184926571730412
64,64,52673.39728720114,1816.2007711189228,17.441965012827566,52794.33915471264,-2145.719878738064,4.845440116340536,52819.20057926359,16974.185094769426,8.597221768026717,52842.12330450071,-6457.977392031814,12.739827004320285,53076.63008649785,5441.086075307154,27.54954331526882,0.9078236107957784,127.0,86.0,80.0,229.0,309.0,41.0,865.0,861.0,43.0,12.0,31.0,0.2790697674418604,128.97670534275574,2230.8138648933345,9.0,5.0,4.0,0.5555555555555556,429.45356204705865,2592.774125097224,18.0,11.0,7.0,0.6111111111111112,1020.7259584932332,14567.554203905696,34.0,7.0,27.0,0.2058823529411764,594.1317217606777,12199.67268562733,66.0,44.0,22.0,0.6666666666666666,139.06978456116806,5147.426368824312,0.0,0.0,0.0,0.0,52662.0,52703.0,52789.0,52798.0,52808.0,52826.0,52835.0,52869.0,53039.0,53098.0,0.07101456369457211,-0.20014428085535002,0.0601340183811103,-0.09199965959833617,0.025559195836341822
65,65,53487.07168227061,2192.6670126381628,18.23071313178424,53586.89089923759,-1227.6590993299385,7.64389620259217,53627.30441370975,17696.351666203765,8.68293697533967,53651.568136465554,-5462.48246683014,17.8357578060484,53873.12025745709,5901.159350141181,33.74302345578156,0.9450203165162272,121.0,79.0,91.0,241.0,332.0,42.0,819.0,809.0,42.0,25.0,17.0,0.5952380952380952,121.07923243555994,2066.2020024184267,12.0,5.0,7.0,0.4166666666666667,143.09724208382917,1280.6509571167576,19.0,11.0,8.0,0.5789473684210527,934.536263296676,14920.540456200191,30.0,8.0,22.0,0.2666666666666666,508.45161838098073,10676.071281414104,91.0,47.0,44.0,0.5164835164835165,69.46767832521934,5613.4638554124485,0.0,0.0,0.0,0.0,53462.0,53504.0,53583.0,53592.0,53616.0,53635.0,53644.0,53674.0,53839.0,53915.0,0.05522007296943844,-0.11656105686173976,0.05280954407576787,-0.09308068656850692,0.011771869594329354
66,66,54275.14952280889,3089.9796448841935,19.36870893614204,54376.12330450071,-909.8924820103584,12.739826713828275,54420.25872015982,17510.251754302244,8.529692162022815,54444.12330450071,-5538.131109133213,12.739827004320285,54665.430824935574,5764.281693997697,34.871949544601236,0.940505637902114,108.0,78.0,80.0,261.0,341.0,30.0,787.0,792.0,31.0,15.0,16.0,0.4838709677419355,161.13903225904974,3941.398182756533,28.0,7.0,21.0,0.25,151.63742504630656,1111.091851584664,18.0,10.0,8.0,0.5555555555555556,998.9111567004484,15506.71118491607,33.0,8.0,25.0,0.2424242424242424,599.3021056404085,11132.130550704183,80.0,34.0,46.0,0.425,103.85473364872728,4901.451209399293,0.0,0.0,0.0,0.0,54261.0,54291.0,54369.0,54388.0,54410.0,54428.0,54437.0,54449.0,54634.0,54710.0,0.0521488976556313,-0.16665422348723208,0.05704721843619509,-0.10821378075576236,0.0180169428147258
67,67,55075.972626301,2306.7543916206,17.835757806047788,55170.819465916946,-1318.7239721210835,17.835757806048395,55226.138814630656,18753.350256222548,8.258108044130985,55250.54796540086,-6108.000546550181,15.28779240518434,55471.413069540715,5648.2672549425815,33.47437742085516,0.953285690634179,98.0,67.0,107.0,241.0,348.0,31.0,797.0,806.0,31.0,10.0,21.0,0.3225806451612903,181.7028431588811,3406.740549483862,16.0,7.0,9.0,0.4375,129.49098603228254,2002.8176941920733,18.0,10.0,8.0,0.5555555555555556,1067.8770569674236,15521.680514748252,30.0,9.0,21.0,0.3,517.7747746453821,10421.62451174292,79.0,37.0,42.0,0.4683544303797468,147.4233437664872,6097.780453788444,0.0,0.0,0.0,0.0,55066.0,55097.0,55164.0,55180.0,55216.0,55234.0,55242.0,55271.0,55434.0,55512.0,0.0787699131814491,-0.09819415493297247,0.05694326839616785,-0.08476992932455171,0.026100631771183047
68,68,55886.39728720114,2165.0389864771855,20.383723206912453,55971.69864360057,-1062.150481717466,10.191861603456228,56036.03086629842,18049.02853011381,8.40527775401553,56058.77899167493,-5866.769160634496,15.287792405184332,56292.78076469755,6001.84729036636,33.293223232685975,0.9182926553808962,91.0,51.0,111.0,240.0,351.0,40.0,810.0,810.0,41.0,12.0,29.0,0.2926829268292683,149.61603322803325,3227.877138171404,10.0,6.0,4.0,0.6,146.2666651419221,1290.0804266585226,18.0,11.0,7.0,0.6111111111111112,1013.6405650875292,14531.026181426683,25.0,7.0,18.0,0.28,578.7909475002002,11973.41702710363,72.0,47.0,25.0,0.6527777777777778,127.2972069930622,5957.784681273431,0.0,0.0,0.0,0.0,55875.0,55915.0,55966.0,55976.0,56025.0,56043.0,56052.0,56077.0,56249.0,56317.0,0.06910546838303314,-0.1377080438785032,0.05616039463821146,-0.0986558242965884,0.021209671095329025
69,69,56669.196240414974,1980.2867297254743,16.273249692514344,56766.027373699,-1274.4732448190607,17.8357578060484,56812.33892455044,16289.107905489063,8.694245625456364,56836.54796540086,-6369.012644612387,15.28779240518434,57068.65746019684,5614.394715279688,31.29544834990165,0.906740545505514,100.0,46.0,114.0,242.0,356.0,54.0,782.0,777.0,56.0,26.0,30.0,0.4642857142857143,110.71522489296304,1594.287319437274,32.0,22.0,10.0,0.6875,108.86748316908522,822.4729300339412,19.0,11.0,8.0,0.5789473684210527,941.2642556507686,13369.302614521055,31.0,9.0,22.0,0.2903225806451613,514.3677122072648,10551.535492937835,90.0,59.0,31.0,0.6555555555555556,166.04836173162067,5095.322929173678,0.0,0.0,0.0,0.0,56644.0,56698.0,56744.0,56776.0,56802.0,56820.0,56828.0,56858.0,57010.0,57100.0,0.05590868394513324,-0.0854215524818972,0.0577848867545155,-0.08076098147526427,0.02957546986850011
70,70,57450.205425597705,2504.232002553663,23.602466955405216,57521.15067819971,-1104.2608838822025,5.095930801727427,57579.452034599446,16279.347625929078,8.367512836114043,57611.753390998565,-4610.1065988341725,12.887296562018966,57837.356103797414,5790.355021215742,34.23943556985287,0.9003219103071914,87.0,36.0,117.0,237.0,354.0,51.0,792.0,769.0,53.0,29.0,24.0,0.5471698113207547,106.40466428847,2501.5930644768687,15.0,12.0,3.0,0.8,146.04091158160267,946.9222074867516,20.0,10.0,10.0,0.5,897.6042067308238,15033.88546880474,30.0,15.0,15.0,0.5,304.5649687434556,4240.476362571919,90.0,61.0,29.0,0.6777777777777778,153.25218378978568,5121.383113616766,0.0,0.0,0.0,0.0,57422.0,57473.0,57509.0,57524.0,57569.0,57588.0,57597.0,57626.0,57786.0,57863.0,0.04248993870374831,-0.1322521821729055,0.05513760301433434,-0.06606462610224145,0.026466802679330163
71,71,58220.821948101286,2716.763480731184,19.953547416685108,58305.60271279886,-1090.6506978936832,20.383723206912453,58365.106756713,17499.120630269157,8.669765965839646,58389.12330450071,-6063.305564353532,12.739827004320212,58610.07072099632,5435.280688951406,33.94414551479541,0.9534589258720187,96.0,74.0,108.0,248.0,356.0,22.0,760.0,785.0,50.0,18.0,32.0,0.36,165.55007846766094,2495.346091033916,22.0,6.0,16.0,0.2727272727272727,135.8471886969434,610.7047122422678,19.0,11.0,8.0,0.5789473684210527,969.9184068438497,14523.024366163198,27.0,7.0,20.0,0.2592592592592592,557.5844562129038,10950.700075067016,88.0,40.0,48.0,0.4545454545454545,105.38760762593756,5041.840954028809,0.0,0.0,0.0,0.0,58204.0,58226.0,58300.0,58317.0,58354.0,58373.0,58382.0,58408.0,58571.0,58656.0,0.06093650759141725,-0.12455609202772068,0.055426694137197405,-0.0919604744136548,0.01938954281425884
72,72,59046.246609001435,2097.534848963057,17.346112313208213,59138.66446398316,-1937.9182891586695,10.191861603456228,59193.772629266416,17600.419406517074,8.454137901898472,59216.12330450071,-6587.321236833159,12.739827004320285,59439.45110573585,5341.288593588571,30.972534447142028,0.9332567805298756,94.0,49.0,114.0,237.0,351.0,45.0,825.0,828.0,48.0,16.0,32.0,0.3333333333333333,136.53366339578332,2082.825583745644,18.0,14.0,4.0,0.7777777777777778,148.0120150907207,2602.651265848673,18.0,11.0,7.0,0.6111111111111112,1066.8264961723355,13904.43572149814,33.0,7.0,26.0,0.2121212121212121,605.0501321329497,12050.088116233588,77.0,39.0,38.0,0.5064935064935064,138.85086912076733,5256.166424931778,0.0,0.0,0.0,0.0,59032.0,59077.0,59126.0,59142.0,59183.0,59201.0,59209.0,59240.0,59401.0,59477.0,0.06509244099724039,-0.07637680903201488,0.0606136974086715,-0.09185070992891585,0.025995762387270617
73,73,59873.30135639943,2748.555793095057,10.191861603456228,59966.34253980316,-1606.0679923597293,56.05523881899774,60010.622979994216,17266.312693805226,8.88001454696291,60035.54796540086,-6302.17761753519,15.28779240518434,60257.67184332786,5577.3371080270745,29.9930942828796,0.93166534522838,64.0,39.0,142.0,237.0,379.0,25.0,833.0,817.0,25.0,19.0,6.0,0.76,140.12438232616887,1762.4735885151968,63.0,49.0,14.0,0.7777777777777778,120.78741425232452,1007.2842279071776,18.0,11.0,7.0,0.6111111111111112,965.3472678186398,12629.671331925634,34.0,9.0,25.0,0.2647058823529412,453.76346483488305,10828.080720543565,77.0,36.0,41.0,0.4675324675324675,105.38421228178711,5266.172510338478,0.0,0.0,0.0,0.0,59854.0,59879.0,59918.0,59979.0,60000.0,60018.0,60027.0,60060.0,60225.0,60297.0,0.05098109439080349,-0.07520691205286806,0.05590928908434429,-0.07200105937546585,0.018895076672004445
74,74,60672.52357319741,1964.0090389545528,17.264197024935424,60765.753390998565,-1528.057685779054,25.47965400864057,60812.97141816809,17236.668704409858,8.818149304436433,60838.972626301,-5729.174920444522,17.8357578060484,61058.794574402295,4989.17615481397,30.796497153372272,0.941253523226932,109.0,55.0,107.0,234.0,341.0,54.0,799.0,802.0,54.0,27.0,27.0,0.5,87.55639203396608,1835.0693965905211,38.0,24.0,14.0,0.631578947368421,138.17033112164685,897.8206422769763,20.0,11.0,9.0,0.55,933.896855692372,13540.181749324936,34.0,10.0,24.0,0.2941176470588235,443.1124114773054,8869.824804792635,76.0,39.0,37.0,0.5131578947368421,127.0175340451517,5484.828998805846,0.0,0.0,0.0,0.0,60646.0,60700.0,60755.0,60780.0,60802.0,60822.0,60829.0,60862.0,61036.0,61096.0,0.04458044250171709,-0.090422195711285,0.05418082065088611,-0.07734314585090808,0.025458618838822653
75,75,61507.67572133624,2242.252992810941,23.256455485810083,61581.21321294299,-1153.559535340307,23.18180058434863,61646.51574393827,17067.464839878936,8.779983279977522,61668.69864360057,-7012.830505648409,10.191861603456228,61892.11248237616,5175.370490061682,34.438436284008226,0.9429475525192216,77.0,28.0,128.0,243.0,371.0,49.0,828.0,833.0,52.0,25.0,27.0,0.4807692307692308,112.783580253425,1977.312920414297,28.0,19.0,9.0,0.6785714285714286,120.11792138714463,630.3645590742268,18.0,11.0,7.0,0.6111111111111112,1033.8664834838214,14321.475311461769,28.0,6.0,22.0,0.2142857142857142,569.9148170735947,12239.457989553484,77.0,36.0,41.0,0.4675324675324675,182.57253278324177,5584.164553643695,0.0,0.0,0.0,0.0,61485.0,61534.0,61562.0,61588.0,61636.0,61654.0,61663.0,61690.0,61857.0,61933.0,0.05029922163780317,-0.10412806422835308,0.060575281284197736,-0.08126744495172997,0.03527719090523813
76,76,62368.30135639943,2328.545279364771,10.191861603456228,62471.45203459914,-1381.0256589447738,15.28779240518434,62510.62022761315,17559.02403556578,8.64774265206885,62536.972626301,-6266.976973512587,17.835757806040597,62757.00205426934,5486.3708863751535,29.833524005170517,0.9293664366473248,73.0,54.0,131.0,237.0,368.0,19.0,868.0,865.0,20.0,14.0,6.0,0.7,130.0616503659617,2276.1184876801035,53.0,44.0,9.0,0.8301886792452831,132.05281148108344,796.2409705017013,16.0,10.0,6.0,0.625,1026.336156957482,14455.312871308286,32.0,10.0,22.0,0.3125,391.7165048735905,9747.992223114368,80.0,40.0,40.0,0.5,174.1642157499542,4541.481930879971,0.0,0.0,0.0,0.0,62355.0,62374.0,62428.0,62480.0,62501.0,62517.0,62527.0,62559.0,62724.0,62796.0,0.05585532371586204,-0.09561937580651725,0.058450637967044146,-0.06250485784919627,0.031744885527603205
77,77,62957.71817378288,2336.994863416933,4.454152327165468,63271.273982700426,-1620.7179893399673,7.643896202592129,63334.50749921239,16393.93986445445,8.126908896875584,63360.972626301,-6014.192992277651,17.8357578060484,63582.37215529778,5573.247183540209,31.22947946275843,0.9036175025343142,316.0,303.0,117.0,235.0,352.0,13.0,587.0,823.0,13.0,7.0,6.0,0.5384615384615384,206.88340221932927,2198.4382887693096,19.0,5.0,14.0,0.2631578947368421,156.46023630566074,2188.503161650806,18.0,11.0,7.0,0.6111111111111112,952.708662888222,12597.427106168252,35.0,11.0,24.0,0.3142857142857143,419.9356438594013,9105.408366726902,68.0,29.0,39.0,0.4264705882352941,120.12356684373644,6133.7128266291775,0.0,0.0,0.0,0.0,62951.0,62964.0,63267.0,63285.0,63324.0,63342.0,63351.0,63384.0,63554.0,63619.0,0.08852539877509354,-0.09653760699563699,0.05811346575412889,-0.06982410514571238,0.021553604727689857
78,78,63994.67126990158,1909.17803501026,14.495360336429687,64073.32873009842,-1375.7874829739335,27.92385960710798,64128.93539184863,16311.65408513385,9.418728428612798,64151.70545049624,-6196.151851747114,17.835757803520156,64375.24068758081,5435.811398994835,30.36380060271579,0.9303259687418132,52.0,19.0,145.0,234.0,379.0,33.0,1033.0,795.0,42.0,22.0,20.0,0.5238095238095238,139.79753196055526,1589.5032823792565,59.0,42.0,17.0,0.711864406779661,106.80256156318605,1590.4160203394192,19.0,11.0,8.0,0.5789473684210527,838.2910511213411,11713.13612073714,31.0,7.0,24.0,0.2258064516129032,500.4391934325714,11622.25488401364,70.0,32.0,38.0,0.4571428571428571,122.77951944384496,5778.130120404501,0.0,0.0,0.0,0.0,63979.0,64012.0,64031.0,64089.0,64118.0,64136.0,64145.0,64176.0,64348.0,64410.0,0.07322393689690862,-0.07763013029622802,0.05139215475917581,-0.08076612797852328,0.022587155887444657
79,79,64801.027373699,2666.515823129866,17.8357578060484,64898.972626301,-1190.8948555338316,8.704885255393501,64938.44202292633,17568.397304027727,9.230202571124927,64961.796802129706,-5572.700315831098,15.287792405182955,65184.67393470308,5283.435223486908,35.26547865226754,0.9395722960973664,109.0,78.0,95.0,246.0,341.0,31.0,814.0,808.0,40.0,30.0,10.0,0.75,156.21834111779998,2135.738831641634,18.0,10.0,8.0,0.5555555555555556,140.8552648344615,1409.0172636370862,21.0,12.0,9.0,0.5714285714285714,895.0103617727439,13949.057991328486,29.0,7.0,22.0,0.2413793103448276,538.3477507185843,11201.984185157044,79.0,34.0,45.0,0.430379746835443,135.65341896499456,5010.275510786914,0.0,0.0,0.0,0.0,64780.0,64811.0,64889.0,64907.0,64926.0,64947.0,64955.0,64984.0,65152.0,65230.0,0.058585191868254574,-0.11827682702627984,0.05094433751037461,-0.09660446824840543,0.025675230835037546
80,80,65632.0896985096,2195.924969326654,21.479108979633224,65715.17805189875,-1432.5873766870147,22.93168860767771,65769.36940170052,17282.185660671414,9.248151957862108,65793.12330450067,-6759.90765170364,12.739827004290538,66015.54299324678,5235.079410922918,34.00464703389855,0.9438314178400132,92.0,58.0,110.0,243.0,353.0,34.0,831.0,831.0,47.0,20.0,27.0,0.425531914893617,154.4193488043711,1652.1188616288712,41.0,22.0,19.0,0.5365853658536586,119.6319353859695,1478.9619085971503,19.0,11.0,8.0,0.5789473684210527,933.3949941474492,15168.204679376804,29.0,7.0,22.0,0.2413793103448276,558.0479412531298,11743.390688148082,76.0,33.0,43.0,0.4342105263157895,97.07235161701324,4879.295576008125,0.0,0.0,0.0,0.0,65613.0,65647.0,65705.0,65728.0,65758.0,65777.0,65786.0,65815.0,65983.0,66058.0,0.07032086749836512,-0.08350760123450826,0.05400908267474235,-0.08255259834984431,0.01854267032023873
81,81,66430.06192890501,2134.6216939535348,18.44682970076487,66490.69864360057,-1268.2992180779377,10.191861603456228,66568.24832885103,17029.70812563633,8.639090320951498,66593.54796540085,-6066.2037425164035,15.28779240518434,66813.74269973852,6755.076894838573,35.28795849447329,0.9240314444768052,75.0,23.0,138.0,243.0,381.0,52.0,798.0,799.0,52.0,27.0,25.0,0.5192307692307693,149.7107433402857,1907.9257840260975,23.0,14.0,9.0,0.6086956521739131,120.52218904655568,1414.5411659251213,19.0,11.0,8.0,0.5789473684210527,939.6391400374812,14564.741981268606,32.0,9.0,23.0,0.28125,421.0592914597927,9963.11422583362,94.0,48.0,46.0,0.5106382978723404,111.7100255504279,6907.177582896489,0.0,0.0,0.0,0.0,66403.0,66455.0,66478.0,66493.0,66557.0,66576.0,66585.0,66616.0,66779.0,66859.0,0.07013455534737224,-0.09502662094927629,0.05517646768255288,-0.06941067417645412,0.0165371952517348
82,82,67178.82194810128,2223.9507223276582,20.229987192022072,67259.09593080172,-1337.9015084351895,30.575584810368653,67326.45781444956,16542.09462441788,8.88680310500302,67350.12330450071,-6609.178139824902,12.739827004320212,67585.054747398,5198.430946294986,30.76563352566991,0.9124318799933192,75.0,34.0,129.0,235.0,364.0,41.0,742.0,758.0,47.0,18.0,29.0,0.3829787234042553,150.0777187856162,2143.312776293146,72.0,27.0,45.0,0.375,97.07069967421472,1280.7600348904275,19.0,11.0,8.0,0.5789473684210527,940.6902156833132,14292.767854690856,28.0,7.0,21.0,0.25,577.5516005971141,11851.260499930104,66.0,44.0,22.0,0.6666666666666666,123.32612461394932,4861.00466309886,0.0,0.0,0.0,0.0,67166.0,67207.0,67241.0,67266.0,67315.0,67334.0,67343.0,67370.0,67542.0,67605.0,0.06748248388729587,-0.07255444370322048,0.05686645113822254,-0.08738629650742251,0.023723720847315676
83,83,67935.99654797856,2377.1568913500428,20.32585988132295,68030.027373699,-1191.0942011980442,17.8357578060484,68080.87669549929,17130.901375580634,8.763001020637175,68104.12330450071,-6679.103237107421,12.739827004320285,68326.18320742884,5269.457810626099,34.17192011203659,0.946548134092738,102.0,55.0,107.0,244.0,351.0,47.0,765.0,757.0,55.0,29.0,26.0,0.5272727272727272,141.46163012468375,2625.9136029658066,25.0,13.0,12.0,0.52,105.87957420272302,1022.6872590091546,19.0,12.0,7.0,0.631578947368421,990.2325970001016,13029.025261312374,29.0,8.0,21.0,0.2758620689655172,548.2093375927466,11544.492477209042,83.0,39.0,44.0,0.4698795180722891,108.25497670750896,5090.61381274324,0.0,0.0,0.0,0.0,67915.0,67962.0,68017.0,68040.0,68070.0,68088.0,68097.0,68124.0,68289.0,68368.0,0.059508747882578504,-0.08889269555357221,0.05780388172753337,-0.08207828478335731,0.020543854908413525
84,84,68681.972626301,2464.8142611033713,17.83575780546726,68768.54796540085,-1902.7204921146697,15.287792405156662,68830.97697202793,18541.224188508073,8.85668707059308,68854.86014144808,-6335.006315300795,17.835757806020215,69076.17259971243,5589.303871437078,32.78302445014165,0.9460380107081642,92.0,74.0,117.0,239.0,356.0,18.0,739.0,748.0,52.0,20.0,32.0,0.3846153846153846,157.3902298180421,2583.2155518636605,29.0,10.0,19.0,0.3448275862068966,134.041456850782,2231.0869305973715,18.0,11.0,7.0,0.6111111111111112,1009.8313221818032,14894.417130147383,31.0,8.0,23.0,0.2580645161290322,519.7093027321738,11833.37456006035,85.0,42.0,43.0,0.4941176470588235,171.73730583952906,6803.0122293127,0.0,0.0,0.0,0.0,68668.0,68686.0,68760.0,68778.0,68820.0,68838.0,68847.0,68877.0,69046.0,69116.0,0.06385480330172487,-0.07044726611516614,0.054464112612785345,-0.08203769291862138,0.03072606352951308
85,85,69429.81519952205,2383.8611197279283,13.3090864533807,69532.027373699,-1323.9467892341515,17.8357578060484,69576.01380548929,17935.255229289724,8.332585174413575,69601.97262630097,-5873.281663072612,17.8357578060484,69827.38347749642,5918.699714313824,29.638998758103064,0.9348354806004094,109.0,81.0,102.0,237.0,339.0,28.0,752.0,746.0,29.0,15.0,14.0,0.5172413793103449,153.43566037060276,2316.0216423243255,19.0,8.0,11.0,0.4210526315789473,125.2092010149974,1471.4608209725625,19.0,11.0,8.0,0.5789473684210527,1025.460206775651,14724.564750630218,35.0,10.0,25.0,0.2857142857142857,432.79303331981936,9483.264489322131,76.0,39.0,37.0,0.5131578947368421,118.59694692738282,5688.668274112319,0.0,0.0,0.0,0.0,69415.0,69443.0,69524.0,69542.0,69566.0,69584.0,69592.0,69626.0,69791.0,69863.0,0.06436434534748169,-0.09457268376127544,0.057175668462247,-0.07368845189920678,0.02003766919287477
86,86,70177.00316978735,1918.7937727758683,19.385427941025497,70271.0330293631,-1226.9514636905976,33.12355021123273,70319.97601986837,16863.23508311007,9.264069005813544,70343.12330450071,-6546.699474386205,12.739827004320285,70571.65746019685,5397.148159485614,29.68456035772807,0.9148658257705448,110.0,63.0,104.0,236.0,340.0,47.0,750.0,743.0,49.0,25.0,24.0,0.5102040816326531,101.6625489704998,1906.9124859459905,37.0,9.0,28.0,0.2432432432432432,116.50071925075956,1081.6683101556528,19.0,11.0,8.0,0.5789473684210527,938.020322441134,14018.72579400318,32.0,7.0,25.0,0.21875,617.7829652240832,12139.929687822265,82.0,50.0,32.0,0.6097560975609756,130.1924880936229,5010.361640142635,0.0,0.0,0.0,0.0,70153.0,70200.0,70263.0,70297.0,70309.0,70328.0,70336.0,70367.0,70525.0,70603.0,0.05298253017750171,-0.0949513674325244,0.05562517024865764,-0.09436556048450724,0.024122459537229222
87,87,70940.09593080172,2508.8557550882247,20.881059536362468,71030.45203459915,-804.6090804728574,15.28779240518434,71090.14662643071,17345.00752652014,9.000873208992093,71113.12330450071,-5723.823585667526,12.739827004320285,71332.99822498843,5416.887930643759,36.0758413732663,0.9494250547972188,104.0,69.0,107.0,241.0,348.0,35.0,754.0,772.0,54.0,19.0,35.0,0.3518518518518518,108.96285686904244,2564.936019091888,20.0,3.0,17.0,0.15,115.33293149634736,982.9465965113496,20.0,11.0,9.0,0.55,956.5991053794958,14010.392092929484,28.0,7.0,21.0,0.25,597.8833344227088,11351.94166436409,95.0,48.0,47.0,0.5052631578947369,129.60640027072802,5394.918524977,0.0,0.0,0.0,0.0,70923.0,70958.0,71027.0,71046.0,71079.0,71098.0,71106.0,71134.0,71286.0,71375.0,0.04343129597947361,-0.14334033047274064,0.0551512649341245,-0.10445523442053853,0.02392635807315386
88,88,71801.97820615619,1908.3894005409177,17.100054444273347,71890.90406919828,-1581.1947717310095,30.575584810217425,71943.92426023648,17074.016371843943,8.986753461248705,71966.69864360057,-6993.203758451894,10.191861603455653,72190.18210928339,5249.387139997988,31.944699028265823,0.9422650354164,80.0,57.0,122.0,241.0,363.0,23.0,866.0,854.0,23.0,16.0,7.0,0.6956521739130435,122.4783529197678,2056.5229869631016,44.0,26.0,18.0,0.5909090909090909,120.6724733128646,1610.545658473702,19.0,11.0,8.0,0.5789473684210527,1040.122698582136,14433.260523396788,28.0,7.0,21.0,0.25,584.0543814804615,12127.793471952677,76.0,37.0,39.0,0.4868421052631579,109.85320968560517,6160.4767470668885,0.0,0.0,0.0,0.0,71786.0,71809.0,71866.0,71908.0,71933.0,71951.0,71961.0,71988.0,72153.0,72229.0,0.06417891070085188,-0.07631727315968713,0.060918455033073506,-0.08351742658357139,0.02092686379493193
89,89,72661.972626301,1555.841126349519,17.511868970725217,72742.20384553407,-1628.4878397626917,27.31886250132158,72807.33244361036,15928.216830172882,8.247458304646011,72832.54796540085,-6092.368928591108,15.28779240518434,73055.50010534572,5359.321785180269,30.71418868234293,0.926809905341507,65.0,28.0,138.0,239.0,377.0,37.0,858.0,861.0,38.0,11.0,27.0,0.2894736842105263,115.19695684280056,1837.734532581792,69.0,28.0,41.0,0.4057971014492754,118.68353138052126,941.080715238816,17.0,10.0,7.0,0.5882352941176471,954.350531275348,13898.519317733442,33.0,10.0,23.0,0.303030303030303,441.63636402672734,9709.964141307968,74.0,35.0,39.0,0.4729729729729729,137.66930184463618,5117.737448061398,0.0,0.0,0.0,0.0,72652.0,72689.0,72717.0,72764.0,72797.0,72814.0,72824.0,72855.0,73022.0,73094.0,0.07404159389531499,-0.0728795932537121,0.059915716960075416,-0.07249008870000558,0.025687821586925938
90,90,73507.53492772486,2251.3560800614273,17.911592182580367,73587.64389620257,-1259.2261708083593,45.86337721555302,73641.0396707109,15855.683443465028,9.49880354565834,73663.69864360057,-6653.389712941835,10.191861603456228,73887.97139742503,5303.033844415516,29.48770507774097,0.9276008577430034,63.0,33.0,130.0,231.0,361.0,30.0,847.0,835.0,31.0,13.0,18.0,0.4193548387096774,119.82180007277212,2158.936409326707,59.0,49.0,10.0,0.8305084745762712,115.4302599911492,411.8870570953215,19.0,11.0,8.0,0.5789473684210527,882.1405220148802,13237.86092061795,32.0,7.0,25.0,0.21875,521.6256960756372,11628.05903051543,63.0,31.0,32.0,0.492063492063492,167.06857664604837,5523.460210959252,0.0,0.0,0.0,0.0,73496.0,73526.0,73559.0,73598.0,73630.0,73649.0,73658.0,73689.0,73860.0,73920.0,0.053222056312612634,-0.09166761513306926,0.05563560379848888,-0.07839999136996251,0.031504339128814694
91,91,74318.82194810128,2011.5467292474823,19.248186181982717,74410.71958875009,-1501.6561333266036,22.931688607766887,74471.92435912204,17843.5489307203,8.293948672507032,74496.54796540085,-6016.014865632698,15.28779240518434,74727.65746019685,5119.6138729118,30.298208935583578,0.9377913140281072,95.0,51.0,117.0,241.0,358.0,44.0,809.0,830.0,51.0,15.0,36.0,0.2941176470588235,139.99928887456025,2228.462204166022,21.0,10.0,11.0,0.4761904761904761,135.58027646590193,2123.987830732188,17.0,10.0,7.0,0.5882352941176471,1016.3804755787914,14626.919155628006,33.0,9.0,24.0,0.2727272727272727,434.3341085136144,9576.820958178305,85.0,48.0,37.0,0.5647058823529412,155.85447223321086,4391.706606587119,0.0,0.0,0.0,0.0,74306.0,74350.0,74401.0,74422.0,74462.0,74479.0,74488.0,74518.0,74682.0,74759.0,0.06959783078314757,-0.09028716592097041,0.05696066850406326,-0.07219631570307564,0.03044262245202645
92,92,75139.82194810128,2593.1901038870037,12.923116354863526,75260.12330450071,-1452.4537622658877,12.739826980807708,75284.64219135912,16547.337599667935,8.9771522838297,75311.972626301,-5261.493045009058,17.8357578060484,75534.2327992967,6091.421539580904,31.90580069573954,0.9362535911352556,120.0,87.0,86.0,234.0,320.0,33.0,821.0,813.0,41.0,16.0,25.0,0.3902439024390244,153.27229360383595,2568.3175805660007,16.0,13.0,3.0,0.8125,393.605115215607,2656.7286692410935,18.0,11.0,7.0,0.6111111111111112,926.3679752979228,14562.818989137068,37.0,10.0,27.0,0.2702702702702703,446.6692818380398,8397.17754714747,85.0,42.0,43.0,0.4941176470588235,159.5878063520057,6178.845467262731,0.0,0.0,0.0,0.0,75127.0,75160.0,75247.0,75263.0,75274.0,75292.0,75302.0,75333.0,75498.0,75567.0,0.059105691238791905,-0.27099321537201077,0.055982901763998144,-0.08489401734774522,0.02619877894101309
93,93,75908.03413873582,2297.0550399312197,17.40333772407536,75994.027373699,-1204.1761006510956,17.8357578060484,76049.32697782152,15732.381247793825,8.708242890837031,76074.54796540085,-6135.180746815359,15.28779240518434,76294.77312455633,5969.071976176469,33.43524846592091,0.9370258589102576,100.0,57.0,105.0,238.0,343.0,43.0,767.0,765.0,48.0,19.0,29.0,0.3958333333333333,119.66852354053988,1815.6202664153031,23.0,4.0,19.0,0.1739130434782608,115.2212762784644,1447.5311047594369,17.0,10.0,7.0,0.5882352941176471,901.5775240681344,13584.131511715315,33.0,10.0,23.0,0.303030303030303,449.33642787723,9342.313704028908,72.0,33.0,39.0,0.4583333333333333,197.1655908232363,5902.5012582452855,0.0,0.0,0.0,0.0,75890.0,75933.0,75990.0,76013.0,76039.0,76056.0,76066.0,76095.0,76264.0,76333.0,0.05209649810747377,-0.09568473931359749,0.05730712406900029,-0.07323931379046508,0.03303119674384159
94,94,76653.24660900142,2373.844598416934,17.450161685658294,76777.27398270041,-2568.2466416400734,3.2507561583156575,76801.59169026713,16882.505465337257,8.347565076698942,76826.54796540085,-5231.5380608545975,15.28779240518434,77054.054747398,5792.063297541011,31.064504622937225,0.9315567770914636,134.0,89.0,71.0,230.0,301.0,45.0,746.0,751.0,52.0,20.0,32.0,0.3846153846153846,131.1843835416816,2147.0021221265733,8.0,4.0,4.0,0.5,504.76647317306566,2207.349218997416,18.0,11.0,7.0,0.6111111111111112,976.7501512697196,13607.90501577469,30.0,9.0,21.0,0.3,515.0949618661244,9447.09903390462,68.0,46.0,22.0,0.6764705882352942,151.00032223279675,5321.350594781323,0.0,0.0,0.0,0.0,76639.0,76684.0,76773.0,76781.0,76791.0,76809.0,76818.0,76844.0,77013.0,77074.0,0.05526241424108623,-0.19654127644482133,0.05785575803752345,-0.09845956502168335,0.026070212716235875
95,95,77437.87669549929,2384.320024087542,11.90845299849754,77523.45203459915,-1331.735994607368,15.28779240518434,77566.15034511618,16765.565357876974,8.824597241530498,77589.12330450071,-6308.755880810898,12.739827004320285,77818.2327992967,5297.640217064099,32.214835439658444,0.910348305207606,116.0,75.0,93.0,238.0,331.0,41.0,791.0,767.0,43.0,35.0,8.0,0.813953488372093,173.07942327822292,1565.339972529569,14.0,4.0,10.0,0.2857142857142857,135.09420950067593,1160.1832404073127,19.0,11.0,8.0,0.5789473684210527,961.89784668938,13515.632719964216,32.0,7.0,25.0,0.21875,611.0286557411165,11923.586291347385,88.0,51.0,37.0,0.5795454545454546,136.21840959472254,4627.814141464704,0.0,0.0,0.0,0.0,77404.0,77445.0,77520.0,77532.0,77555.0,77574.0,77582.0,77613.0,77771.0,77851.0,0.07259068477792063,-0.10144218527374518,0.05737342142401724,-0.09685406556935561,0.025713035240851723
96,96,78233.59383943431,2239.4329922571983,13.884902930973244,78333.06855710273,-1620.8510444828537,48.41134261640953,78379.8520933628,17997.642026336664,8.898198624964259,78405.972626301,-5769.254848191668,17.8357578060484,78627.64349820749,5090.24986034316,29.902637478897464,0.9256918341045206,87.0,61.0,127.0,234.0,361.0,26.0,790.0,812.0,31.0,17.0,14.0,0.5483870967741935,138.17620177332446,1450.2647840063992,43.0,30.0,13.0,0.6976744186046512,138.65567935388717,1068.964267061457,17.0,10.0,7.0,0.5882352941176471,978.8923861835246,14224.967403883904,37.0,10.0,27.0,0.2702702702702703,428.289859839526,9311.130812607786,82.0,43.0,39.0,0.524390243902439,84.06693351223922,4778.310026287946,0.0,0.0,0.0,0.0,78218.0,78244.0,78305.0,78344.0,78370.0,78387.0,78396.0,78432.0,78585.0,78666.0,0.06170142274900225,-0.08554498565790568,0.05439003535858045,-0.07423659919855514,0.016515286246984312
97,97,79046.57754615782,1380.4010793520197,14.667252822102933,79126.972626301,-1995.8276804320344,17.8357578060484,79191.64037112462,16779.7473469978,8.235744248384739,79215.54796540085,-6474.921803473094,15.28779240518434,79443.08212109699,5043.491206015521,28.20278093870202,0.9213638052813076,80.0,62.0,123.0,233.0,356.0,18.0,817.0,812.0,18.0,10.0,8.0,0.5555555555555556,138.43334813931588,1363.5740779321184,55.0,23.0,32.0,0.4181818181818181,133.25583674849833,2118.8975709913716,18.0,11.0,7.0,0.6111111111111112,983.4178272231106,12523.42608786154,35.0,9.0,26.0,0.2571428571428571,575.2025738521953,11195.06794538386,71.0,41.0,30.0,0.5774647887323944,127.10316481787568,4876.830566011162,0.0,0.0,0.0,0.0,79037.0,79055.0,79117.0,79132.0,79181.0,79199.0,79207.0,79240.0,79404.0,79473.0,0.10028487387469916,-0.06676720543311264,0.05860742756648609,-0.0888354471777036,0.02520142489120948
98,98,79882.54796540085,1582.5045335612174,15.28779240518434,79987.90406919828,-1664.3831638726,24.492049022076426,80038.64006182841,16851.830533115823,8.977435800390097,80062.12330450071,-6973.0028088137715,12.739827004320285,80285.44953992838,4714.734430349451,31.575300048096928,0.9124786728863352,80.0,62.0,129.0,250.0,379.0,18.0,833.0,848.0,48.0,10.0,38.0,0.2083333333333333,151.83741092532668,1963.5210437348435,53.0,35.0,18.0,0.660377358490566,101.61264817641772,1129.939595123553,18.0,11.0,7.0,0.6111111111111112,1003.3638033540782,13215.701238881347,31.0,8.0,23.0,0.2580645161290322,567.3519175540891,11885.944563079916,84.0,33.0,51.0,0.3928571428571428,141.64655004008384,4524.004004479657,0.0,0.0,0.0,0.0,79874.0,79892.0,79954.0,80005.0,80028.0,80046.0,80055.0,80083.0,80253.0,80333.0,0.09594753613984072,-0.06105123530569169,0.059540344972159,-0.08136407414564135,0.03004337829258925
99,99,80774.39728720114,2750.9596425793343,18.69376299700193,80871.15067819973,-1046.5646724460996,5.095930801727976,80926.21344980328,17458.989613509242,8.346307230996361,80950.12330450042,-5458.310519318046,12.739827004291373,81173.26127119917,5676.917737249733,33.88286892712069,0.937744154461952,107.0,67.0,105.0,242.0,347.0,40.0,891.0,886.0,40.0,11.0,29.0,0.275,133.0430541101125,3720.6223731410673,24.0,16.0,8.0,0.6666666666666666,152.79779495261153,645.3040185588713,17.0,10.0,7.0,0.5882352941176471,1009.3106934928012,15779.186509145333,34.0,8.0,26.0,0.2352941176470588,539.7263780808739,10484.531925065628,87.0,41.0,46.0,0.4712643678160919,99.1478973207166,4660.850718838646,0.0,0.0,0.0,0.0,80763.0,80803.0,80870.0,80876.0,80916.0,80933.0,80943.0,80975.0,81134.0,81217.0,0.048362415809695296,-0.1459993815723614,0.057810372526473516,-0.09888158179544292,0.017465093191353916
100,100,81607.87669549929,1974.2589801016647,12.739827004320285,81718.30135642442,-1868.8479116625736,10.191861603456228,81746.74711603415,15104.92007363136,9.48467690133388,81768.69864360057,-8005.254135741765,10.191861603456228,82000.08212109699,5556.573987957313,28.895815352566174,0.9015066411051492,133.0,101.0,79.0,235.0,314.0,32.0,839.0,821.0,48.0,26.0,22.0,0.5416666666666666,136.1309088670988,1549.386997945474,17.0,9.0,8.0,0.5294117647058824,323.5265301439101,1835.3775692340375,18.0,11.0,7.0,0.6111111111111112,951.257197332944,12657.147266008567,32.0,6.0,26.0,0.1875,580.342850682824,12713.328668588998,69.0,38.0,31.0,0.5507246376811594,137.5959858729572,5325.531091689226,0.0,0.0,0.0,0.0,81583.0,81615.0,81716.0,81725.0,81736.0,81754.0,81763.0,81795.0,81967.0,82030.0,0.06895291359398488,-0.17311549437754561,0.06297664553641383,-0.07249524385387292,0.024762738005678873
101,101,82419.67126990156,1995.1585578749068,14.418337898369522,82498.54213349325,-1814.6285377274912,27.648814377087028,82563.88577913189,16484.82139696358,8.675909414374178,82587.12330450071,-6901.746393768232,12.739827004320285,82812.22181967538,4780.960852570424,29.29993329133103,0.9246862982821682,58.0,36.0,146.0,242.0,388.0,22.0,805.0,816.0,23.0,16.0,7.0,0.6956521739130435,168.19537785508996,2032.3188010414835,56.0,37.0,19.0,0.6607142857142857,124.57707216575132,1805.4911661181427,18.0,11.0,7.0,0.6111111111111112,954.1138112585696,12827.490076541982,28.0,7.0,21.0,0.25,527.6648357422547,11971.02810234777,79.0,41.0,38.0,0.5189873417721519,116.64469129367704,4056.017373504104,0.0,0.0,0.0,0.0,82404.0,82426.0,82462.0,82518.0,82553.0,82571.0,82580.0,82608.0,82784.0,82850.0,0.08430175997352263,-0.06865155571826428,0.0578783226267961,-0.0764538140982255,0.024397750764046617
102,102,83240.65334890306,2562.8991991828584,16.70159859940753,83321.02737369903,-1065.3840916402544,17.83575780604839,83381.62797597154,17624.693403996163,8.299053443854207,83405.12330450071,-6036.702784703518,12.739827004320285,83635.50678199713,5761.895962807904,31.758830822153985,0.9305352450625544,97.0,60.0,110.0,237.0,347.0,37.0,830.0,819.0,50.0,26.0,24.0,0.52,138.0199684686866,1926.7851076894528,17.0,5.0,12.0,0.2941176470588235,135.4821044835061,1254.8679225777105,18.0,11.0,7.0,0.6111111111111112,1044.9847172692864,14413.03408402322,30.0,8.0,22.0,0.2666666666666666,575.9971526724822,11417.956508640054,77.0,44.0,33.0,0.5714285714285714,164.36699650862414,5586.46451485999,0.0,0.0,0.0,0.0,83220.0,83257.0,83317.0,83333.0,83371.0,83389.0,83398.0,83427.0,83598.0,83664.0,0.053853061607999325,-0.12716738080340514,0.05929094443324331,-0.09541585418649551,0.02852654708963616
103,103,84031.87669549929,2369.621474930568,12.642370794862764,84127.75339099858,-1346.9896376583083,25.47965400864057,84169.91078959238,15720.643683130123,9.028017557987326,84193.12330450071,-6381.039364679807,12.739827004320285,84416.39488794241,5731.005442986975,32.34384715786909,0.9258667161394613,103.0,83.0,98.0,236.0,334.0,20.0,789.0,789.0,26.0,19.0,7.0,0.7307692307692307,187.82486860329303,2729.7606611734027,27.0,8.0,19.0,0.2962962962962963,105.24888357797818,1716.599738066113,18.0,11.0,7.0,0.6111111111111112,900.7647467495776,12992.598429242284,34.0,7.0,27.0,0.2058823529411764,487.0599759683686,10947.24160165404,81.0,40.0,41.0,0.4938271604938271,102.67306015817766,5917.353934013436,0.0,0.0,0.0,0.0,84019.0,84039.0,84122.0,84146.0,84159.0,84177.0,84186.0,84220.0,84378.0,84456.0,0.07926365902334526,-0.0781363721260317,0.05729821023271403,-0.07632925423784918,0.017915366017287344
104,104,84811.92040108719,2610.335551771748,19.301026190424153,84907.87669549929,-836.6301700920081,12.739827004320285,84955.24936011336,16812.909845462953,8.826980063594268,84979.12330450071,-5845.986609914452,12.739827004320285,85201.31982535921,5772.269119963675,35.524588312679434,0.950134323077611,112.0,78.0,99.0,243.0,342.0,34.0,778.0,784.0,34.0,22.0,12.0,0.6470588235294118,150.48086601629888,2777.4503468179655,13.0,6.0,7.0,0.4615384615384615,118.1106682792742,884.9516570329451,19.0,11.0,8.0,0.5789473684210527,920.2377149972378,14316.879085294391,30.0,7.0,23.0,0.2333333333333333,577.0870897407417,11090.572210334733,90.0,47.0,43.0,0.5222222222222223,152.40142185736016,5849.589545749728,0.0,0.0,0.0,0.0,84790.0,84824.0,84902.0,84915.0,84944.0,84963.0,84972.0,85001.0,85155.0,85244.0,0.0576480927573319,-0.14117428763809103,0.05473399449920732,-0.09871508921386096,0.026402341729056325
105,105,85597.07157779597,2898.1804922232573,16.672087528654796,85686.17805189872,-1331.1165448669988,22.931688607762148,85745.7806670515,16695.62373666596,8.514334151864078,85769.12330450071,-6416.742668644137,12.739827004320285,85991.46175689436,5432.050152595068,33.55027986253028,0.94138572660662,88.0,59.0,120.0,237.0,357.0,29.0,782.0,790.0,43.0,19.0,24.0,0.4418604651162791,162.33501363253205,3177.2061838271775,53.0,40.0,13.0,0.7547169811320755,108.78770946758192,1178.4204681813485,17.0,10.0,7.0,0.5882352941176471,986.6716475593644,13555.938627919855,29.0,7.0,22.0,0.2413793103448276,558.1381386474093,11704.680376742062,71.0,34.0,37.0,0.4788732394366197,170.3698674604995,5928.277057101817,0.0,0.0,0.0,0.0,85583.0,85612.0,85671.0,85699.0,85736.0,85753.0,85762.0,85791.0,85957.0,86028.0,0.05601273422001448,-0.08172666013887737,0.05909762121630074,-0.08698153681225063,0.03136382446305439
106,106,86408.87703181397,2339.2312621250076,17.260440539021904,86502.64389619786,-1160.2342728527426,45.86337721481184,86547.80810864958,17059.41458411015,8.67193558818361,86571.1233045006,-6294.552090004143,12.739827004301508,86794.31941119948,5712.3121524100325,34.58157431988716,0.9406459395884794,89.0,49.0,118.0,242.0,360.0,40.0,817.0,804.0,41.0,22.0,19.0,0.5365853658536586,127.14711133974336,1843.891898124036,37.0,27.0,10.0,0.7297297297297297,87.49702026773191,1010.878487813678,18.0,11.0,7.0,0.6111111111111112,997.509853736679,13919.32392338368,30.0,7.0,23.0,0.2333333333333333,510.0265632818307,11312.298596620223,92.0,40.0,52.0,0.4347826086956521,129.61376832058474,5301.160751367768,0.0,0.0,0.0,0.0,86387.0,86427.0,86476.0,86513.0,86537.0,86555.0,86564.0,86594.0,86755.0,86836.0,0.054354228843641654,-0.07541323533961582,0.05847268960013442,-0.0810266649618742,0.02269024606190341
107,107,87173.39728720114,1726.235370711759,15.306453969898817,87263.45203459915,-1466.0309068942524,15.28779240518434,87322.72817286478,15647.230492752196,8.413661850663013,87346.12330450071,-6336.4362669679795,12.739827004320285,87568.81343760517,5630.289277230259,31.865077443545005,0.9186143112131544,83.0,51.0,125.0,235.0,360.0,32.0,759.0,775.0,33.0,12.0,21.0,0.3636363636363636,172.78093245189132,2302.0073536836317,39.0,19.0,20.0,0.4871794871794871,93.80529341922944,1286.9819203458835,18.0,11.0,7.0,0.6111111111111112,934.264932342389,12553.236017729105,32.0,7.0,25.0,0.21875,557.0290137221995,11630.629642969643,68.0,32.0,36.0,0.4705882352941176,111.47262785919608,6285.873889686733,0.0,0.0,0.0,0.0,87162.0,87194.0,87245.0,87272.0,87312.0,87330.0,87339.0,87370.0,87537.0,87605.0,0.10009117840092137,-0.06398589073265411,0.05970800601263852,-0.08790887973197291,0.01979873899375086
108,108,87960.027373699,2401.537949888834,17.8357578060484,88005.24592481446,-1568.2647263551642,17.8357578060484,88088.93460366174,16789.594642352888,8.840204125156431,88113.54796540085,-5388.7812532876205,15.28779240518434,88334.91166406395,5427.8882633183675,34.55390565738975,0.9425995084561694,68.0,28.0,136.0,245.0,381.0,40.0,793.0,765.0,43.0,31.0,12.0,0.7209302325581395,149.75903835742264,1544.4900990592346,26.0,7.0,19.0,0.2692307692307692,109.37886640311405,1847.154648050395,21.0,12.0,9.0,0.5714285714285714,903.2936690431832,13707.16489861756,30.0,9.0,21.0,0.3,494.1238744121905,9203.282348571698,94.0,49.0,45.0,0.5212765957446809,97.73553554400584,5617.2031599433385,0.0,0.0,0.0,0.0,87930.0,87970.0,87998.0,88024.0,88077.0,88098.0,88105.0,88134.0,88287.0,88379.0,0.06235963848264605,-0.06974515498880325,0.05380080271649703,-0.09169492157632719,0.018006180452258373
109,109,88726.51308961523,2848.3809612002933,19.69982685263453,88822.30135639943,-1102.9863228517172,10.19186160266938,88871.27165503036,17063.30054478477,8.987828172519956,88894.12330450071,-5974.945094894467,12.739827004320285,89115.71220759483,5492.525056588955,36.272546688665194,0.945224361471475,112.0,62.0,101.0,252.0,353.0,50.0,758.0,784.0,52.0,26.0,26.0,0.5,113.82585766205632,3114.880960505361,15.0,9.0,6.0,0.6,139.2382617395767,974.3236589624978,19.0,11.0,8.0,0.5789473684210527,951.3820280739671,14043.88328706956,29.0,7.0,22.0,0.2413793103448276,529.8537431042901,11271.002522237177,95.0,43.0,52.0,0.4526315789473684,99.56978829653244,5484.417199680818,0.0,0.0,0.0,0.0,88702.0,88752.0,88814.0,88828.0,88860.0,88879.0,88887.0,88915.0,89076.0,89167.0,0.03996159896185048,-0.1262375233988242,0.05575603767729143,-0.08867926561484975,0.01812823560578687
110,110,89539.027373699,1882.4430801093151,17.8357578060484,89625.69864360057,-1924.173207408754,10.191861603456228,89681.839114722,17250.736494764395,8.784576738281709,89706.12330450071,-6613.392884155094,12.739827004320285,89950.90406919828,4735.1974924666565,30.575584806903088,0.8778359005773505,95.0,71.0,108.0,240.0,348.0,24.0,821.0,809.0,31.0,21.0,10.0,0.6774193548387096,118.7689207682609,1910.322201421227,28.0,6.0,22.0,0.2142857142857142,120.75856233043656,2083.3625964226208,18.0,11.0,7.0,0.6111111111111112,977.2808841412078,15049.91526995696,29.0,7.0,22.0,0.2413793103448276,523.3072225893395,11690.474709783655,64.0,47.0,17.0,0.734375,147.4296334065599,4234.8194166416615,0.0,0.0,0.0,0.0,89525.0,89549.0,89620.0,89647.0,89671.0,89689.0,89699.0,89728.0,89904.0,89968.0,0.06309296786884196,-0.06275867570833694,0.05665154554055202,-0.07912840379453663,0.031134843613409867
111,111,90317.72907862956,2254.855056269411,16.76669404740849,90415.3582072744,-1187.3755641829296,20.383723206907845,90462.34462974768,16815.745011256728,8.849792504789372,90488.18211160145,-5628.167744943495,17.8357578060484,90707.32778130956,5835.182226500479,34.240551330445896,0.9366939417507664,100.0,64.0,108.0,236.0,344.0,36.0,779.0,780.0,37.0,14.0,23.0,0.3783783783783784,154.3000991942283,2664.2974891936783,25.0,12.0,13.0,0.48,132.75072416940677,1670.2440510926715,19.0,11.0,8.0,0.5789473684210527,882.1739248510507,13996.768092468912,34.0,9.0,25.0,0.2647058823529412,481.05662223188824,10042.380673071912,81.0,38.0,43.0,0.4691358024691358,111.39422257226644,5566.43121193524,0.0,0.0,0.0,0.0,90304.0,90340.0,90404.0,90425.0,90451.0,90470.0,90479.0,90512.0,90670.0,90748.0,0.06843016306756014,-0.11180179900430805,0.05246118588623397,-0.08547304274363235,0.01909010177374917
112,112,91093.945252602,2295.950625285904,20.657681414219393,91197.75339099868,-1054.794502555413,25.479654008429872,91241.6592926924,16615.12679124336,8.556332415803023,91273.75339099858,-5003.561351281168,14.382406758825228,91488.00438439236,5496.605077964277,33.5721438627369,0.9529699900631436,113.0,59.0,101.0,238.0,339.0,54.0,767.0,782.0,57.0,20.0,37.0,0.3508771929824561,97.0300521320179,2559.484252407943,35.0,14.0,21.0,0.4,80.94980066897236,1095.9432879757503,18.0,10.0,8.0,0.5555555555555556,914.2472419531946,14540.35033254731,30.0,15.0,15.0,0.5,281.2154612147653,4437.336306870535,86.0,37.0,49.0,0.4302325581395348,117.15079369126993,5687.248933959053,0.0,0.0,0.0,0.0,91074.0,91128.0,91187.0,91212.0,91232.0,91250.0,91259.0,91288.0,91454.0,91526.0,0.042261384484230884,-0.07674461752773472,0.05502499339547794,-0.05620306047466766,0.0213133001242756
113,113,91896.82194810128,2282.8997261055138,17.286595969090655,92008.30135639945,-1884.8484901480667,10.191861603456228,92043.9338624376,16827.730619456754,8.403369740855199,92077.75339099858,-5407.975326711226,14.432587392709731,92291.50212333212,5288.616459232637,32.46693765306856,0.9469747155781592,113.0,93.0,97.0,239.0,336.0,20.0,805.0,802.0,50.0,21.0,29.0,0.42,139.85004258453762,2201.8062692518993,19.0,13.0,6.0,0.6842105263157895,153.73620736933282,1578.3684866030444,19.0,10.0,9.0,0.5263157894736842,945.7640165438264,15532.986775007372,32.0,17.0,15.0,0.53125,230.55023432252045,4407.4853128850755,80.0,40.0,40.0,0.5,111.00981587973476,4571.134108221258,0.0,0.0,0.0,0.0,91882.0,91902.0,91995.0,92014.0,92034.0,92052.0,92061.0,92092.0,92253.0,92331.0,0.061259827133587325,-0.0815642255453943,0.05620270718205485,-0.04263152481184227,0.020990332109627394
114,114,92709.60271279886,2463.98947704867,13.81319298551034,92801.7260172996,-1350.2325600425622,7.64389620259217,92851.23311244282,17938.86048494109,8.375699225973987,92875.6164840938,-5501.895351709202,20.383723206912453,93097.54379160504,5800.829028340044,33.25274789839442,0.9371342778942346,101.0,72.0,106.0,239.0,345.0,29.0,820.0,806.0,30.0,19.0,11.0,0.6333333333333333,158.9300478620531,2312.7772251184933,14.0,10.0,4.0,0.7142857142857143,137.78700750845536,1768.1112665902083,18.0,10.0,8.0,0.5555555555555556,985.2732453805958,14397.4339347095,32.0,9.0,23.0,0.28125,422.354657003681,10023.284806612037,89.0,46.0,43.0,0.5168539325842697,96.57306762072132,5007.7177288419125,0.0,0.0,0.0,0.0,92692.0,92721.0,92793.0,92806.0,92841.0,92858.0,92867.0,92899.0,93055.0,93138.0,0.06450110657632238,-0.10204687072878173,0.054923959423603896,-0.07676530177413744,0.016648149281578897
115,115,93472.69864360055,1620.30192264248,10.191861603456228,93575.90406919828,-1579.6737820795977,24.010886738236863,93636.35401657331,17271.524795752273,8.645835908727715,93660.54796540084,-6365.7135892182205,15.28779240518434,93885.01760937137,5296.5289749107715,29.144846275023692,0.9210064972909002,78.0,45.0,137.0,237.0,374.0,33.0,758.0,786.0,33.0,6.0,27.0,0.1818181818181818,155.03575271435756,2599.101366978779,54.0,33.0,21.0,0.6111111111111112,105.65063202231975,717.738265384312,18.0,10.0,8.0,0.5555555555555556,981.9039911447272,13353.360098868608,32.0,9.0,23.0,0.28125,549.5454523361212,11129.08226124787,64.0,30.0,34.0,0.46875,134.8107423278746,5782.227113621826,0.0,0.0,0.0,0.0,93467.0,93500.0,93545.0,93593.0,93626.0,93644.0,93652.0,93682.0,93855.0,93919.0,0.0956832492437684,-0.06688129740510954,0.05685103097476459,-0.0863289629095002,0.025452658328966416
116,116,94284.72795228349,2098.26280401474,20.140345816005585,94369.75339099864,-1358.33000227795,25.47965400864057,94430.35829612246,17010.79964206183,8.883139218588605,94454.12330450072,-6229.762150693243,12.739827004320238,94676.92338367224,5295.088498536131,33.268843993845245,0.9335663409285024,92.0,70.0,112.0,243.0,355.0,22.0,812.0,794.0,25.0,14.0,11.0,0.56,146.35204672753554,2541.4658176480593,30.0,6.0,24.0,0.2,110.83832183997968,1295.168386665033,19.0,11.0,8.0,0.5789473684210527,943.38558080526,14391.588041146377,32.0,8.0,24.0,0.25,540.9997174321558,11032.486368926491,76.0,33.0,43.0,0.4342105263157895,124.85753745981054,5804.078794334894,0.0,0.0,0.0,0.0,94272.0,94294.0,94364.0,94394.0,94419.0,94438.0,94447.0,94476.0,94644.0,94719.0,0.0697491498431516,-0.0815989646507854,0.05545803846120164,-0.0868411512904957,0.02357987737019474
117,117,95096.81325608952,2368.817523338319,13.79206457455249,95197.7260172996,-1527.070358216405,7.64389620259217,95239.55177964333,17107.869651231922,8.398949577177458,95264.54796540084,-6295.117990782805,15.28779240518434,95487.23076650564,5587.057026690311,30.866363456754677,0.9402731960425046,104.0,66.0,107.0,236.0,343.0,38.0,820.0,808.0,39.0,17.0,22.0,0.4358974358974359,151.48604548582838,2087.5075336790633,19.0,15.0,4.0,0.7894736842105263,154.8425871486284,1786.5655648063794,17.0,11.0,6.0,0.6470588235294118,984.0473585286182,13939.1169297301,36.0,9.0,27.0,0.25,474.03164900587,9815.77019583715,81.0,39.0,42.0,0.4814814814814814,164.25373811311917,6103.837076078901,0.0,0.0,0.0,0.0,95080.0,95118.0,95184.0,95202.0,95229.0,95246.0,95256.0,95291.0,95449.0,95527.0,0.06395006959942726,-0.10139846295587991,0.05752015759938631,-0.07530147166422271,0.029398972899050687
118,118,95874.31495164048,2730.0900009256716,19.091359248826254,95977.36829679468,-865.8578595529748,2.119985942740736,96015.21757242776,19338.09724244717,9.125703854555075,96035.50681034436,-5874.316129600176,17.835757805973177,96259.09612494848,6020.38511763121,36.35007885248148,0.9494841062088958,121.0,78.0,85.0,243.0,328.0,43.0,774.0,776.0,55.0,25.0,30.0,0.4545454545454545,146.7572417103606,1873.2019172712728,8.0,4.0,4.0,0.5,158.5208938215904,620.1481971590837,21.0,12.0,9.0,0.5714285714285714,986.030704782036,14712.915152546277,31.0,5.0,26.0,0.1612903225806451,655.1143347751693,12920.61905331618,85.0,39.0,46.0,0.4588235294117647,136.23158103084168,7106.685934538753,0.0,0.0,0.0,0.0,95855.0,95898.0,95976.0,95980.0,96003.0,96024.0,96031.0,96061.0,96220.0,96304.0,0.05375545921951317,-0.18307958064090518,0.05098902401926578,-0.11152180446573248,0.022628383129822693
119,119,96639.82194810128,2558.040688402129,22.931688607757017,96746.30135639945,-975.6202511985838,8.736562994829743,96788.46248593969,17399.103542112993,8.889461001934265,96812.12330450064,-5608.354466914791,12.739827004320244,97034.3736814783,5673.590226921559,35.97970731662598,0.9481433073311268,117.0,74.0,89.0,240.0,329.0,43.0,759.0,774.0,45.0,14.0,31.0,0.3111111111111111,142.73817857517665,3195.4789961834667,12.0,3.0,9.0,0.25,137.03973806577676,467.1284310617529,19.0,10.0,9.0,0.5263157894736842,985.4860657152954,15042.609412139158,29.0,7.0,22.0,0.2413793103448276,585.8459874445473,11025.845248118996,84.0,41.0,43.0,0.4880952380952381,121.73014522714948,5888.22873973203,0.0,0.0,0.0,0.0,96627.0,96670.0,96744.0,96754.0,96778.0,96797.0,96805.0,96833.0,97005.0,97073.0,0.055799807728757256,-0.14046422047658258,0.05664004834099719,-0.10445951497905707,0.02145557580974599
120,120,97438.45203459916,3001.748120780313,15.28779240518434,97549.30135639945,-1149.5345402980968,10.191861603456225,97578.13905904489,18928.068393041372,8.83805743478592,97600.17091911376,-6344.981576937065,15.287792405182309,97822.41483835634,5720.957227369867,34.67964307543944,0.9450870355043828,120.0,85.0,83.0,247.0,330.0,35.0,805.0,789.0,45.0,27.0,18.0,0.6,160.40671380119923,2554.9134529954363,24.0,17.0,7.0,0.7083333333333334,277.3592775497003,2379.077282969052,19.0,11.0,8.0,0.5789473684210527,1044.351420797252,15509.00779117066,21.0,6.0,15.0,0.2857142857142857,649.499584105153,13138.648874830644,77.0,37.0,40.0,0.4805194805194805,126.14084992980278,6409.570827742467,0.0,0.0,0.0,0.0,97412.0,97447.0,97532.0,97555.0,97567.0,97586.0,97594.0,97615.0,97786.0,97862.0,0.05343776604397475,-0.24127963782434553,0.05517474890259762,-0.10236429786746333,0.02204890631349718
121,121,98198.82194810128,2233.765724859667,18.36546359711207,98284.30135639945,-1026.027691823218,10.19186159891432,98340.91685268692,17967.47529280396,9.02017120322113,98364.93044779196,-5789.859846595613,17.8357578059316,98591.38347749642,5928.472711234371,32.62434857281467,0.947638213972214,96.0,56.0,106.0,239.0,345.0,40.0,754.0,762.0,56.0,27.0,29.0,0.4821428571428571,159.55589984765265,2354.2391898557335,10.0,3.0,7.0,0.3,145.6840819335134,1014.0478587406832,20.0,12.0,8.0,0.6,945.8612490519648,14210.089017658773,31.0,8.0,23.0,0.2580645161290322,569.0495758979731,11769.659635757596,73.0,35.0,38.0,0.4794520547945205,80.9715856902187,6158.266866387885,0.0,0.0,0.0,0.0,98186.0,98226.0,98282.0,98291.0,98329.0,98349.0,98357.0,98388.0,98556.0,98627.0,0.07142911097253787,-0.14198845030648002,0.05264296923401285,-0.09828382568406545,0.013658085249642578
122,122,98945.79457440229,2468.7577277038868,22.387140427261,99058.14127288056,-1257.1978208869189,7.380852970202048,99093.04021661714,16978.94217336763,8.867162532512582,99117.12330450072,-5627.639072407778,12.739827004320285,99338.18365450656,5644.580610513465,36.46280756744485,0.9441710075686576,131.0,79.0,84.0,248.0,332.0,52.0,744.0,752.0,63.0,27.0,36.0,0.4285714285714285,113.9445933186792,2012.3369160861785,8.0,4.0,4.0,0.5,181.5822049930536,845.4392545519316,19.0,11.0,8.0,0.5789473684210527,942.9044436721674,14404.438242565762,30.0,8.0,22.0,0.2666666666666666,486.0120848045746,10128.273941559251,96.0,48.0,48.0,0.5,116.96816384075034,6267.499340579863,0.0,0.0,0.0,0.0,98923.0,98975.0,99054.0,99062.0,99082.0,99101.0,99110.0,99138.0,99290.0,99386.0,0.04615462750354829,-0.14443407551005163,0.05553375669958773,-0.08636163025938956,0.020722206291622115
123,123,99713.69864360055,2064.748216318789,10.191861603456228,99812.027373699,-2019.1237227274048,17.8357578060484,99858.26213945849,17850.704688003323,8.222877547631711,99884.972626301,-6018.661900748973,17.835757806048374,100106.80813839656,5453.303590090943,31.00160801581872,0.9252758839370546,105.0,92.0,97.0,236.0,333.0,13.0,773.0,765.0,45.0,19.0,26.0,0.4222222222222222,147.45073791764884,1631.522753842105,19.0,5.0,14.0,0.2631578947368421,154.67158650736738,1138.4143817633903,17.0,10.0,7.0,0.5882352941176471,1001.869506960211,15727.702450266474,31.0,10.0,21.0,0.3225806451612903,473.5724888815735,9328.832563084234,72.0,33.0,39.0,0.4583333333333333,148.03014354289152,6056.043126209816,0.0,0.0,0.0,0.0,99703.0,99716.0,99808.0,99825.0,99848.0,99865.0,99875.0,99905.0,100075.0,100141.0,0.07141342307612533,-0.07660332290011387,0.05612492752924895,-0.07868401593095657,0.027145039900561063
124,124,100473.75339099858,2055.090998710211,16.11020621207406,100570.60271279886,-1368.0790181796394,20.383723206912453,100615.16825335743,16221.857858864532,8.988185722904863,100636.69864360055,-6721.542543767466,10.191861603456228,100860.66324002644,5778.682214108684,32.74846732840189,0.9195896479962464,116.0,78.0,99.0,237.0,336.0,38.0,766.0,758.0,49.0,29.0,20.0,0.5918367346938775,115.4571426782818,1379.8507834553247,46.0,32.0,14.0,0.6956521739130435,119.8197226337019,696.6606488842358,18.0,11.0,7.0,0.6111111111111112,989.1688299628258,14454.079112037594,35.0,6.0,29.0,0.1714285714285714,536.4150092596466,11615.908794292296,86.0,44.0,42.0,0.5116279069767442,116.30274915583082,5956.201340455947,0.0,0.0,0.0,0.0,100450.0,100488.0,100566.0,100584.0,100605.0,100622.0,100631.0,100665.0,100824.0,100902.0,0.05618103663085649,-0.0875824576223189,0.060977530352498345,-0.07980534315847426,0.02012617147762115
125,125,101264.21123773666,2276.4152687450464,22.916577099861733,101341.40561433372,-1294.698714891705,18.69602921623178,101406.79947610588,16509.792162703456,9.323305057631,101429.15239529154,-6407.108012898577,12.739827004320109,101651.61080446516,5528.913818230472,35.99649388636294,0.9391904953945416,79.0,49.0,117.0,243.0,360.0,30.0,791.0,792.0,33.0,11.0,22.0,0.3333333333333333,162.15311073659777,3010.244829586453,23.0,9.0,14.0,0.391304347826087,134.818477628394,1489.2645356976282,19.0,11.0,8.0,0.5789473684210527,944.8780140321858,12628.043350847627,27.0,6.0,21.0,0.2222222222222222,601.0517414045408,12229.968968056442,93.0,45.0,48.0,0.4838709677419355,122.6013807800027,5806.848869402044,0.0,0.0,0.0,0.0,101253.0,101283.0,101332.0,101355.0,101396.0,101415.0,101423.0,101449.0,101610.0,101692.0,0.07123177961549623,-0.10413115891574115,0.057231369403106,-0.09381014651142504,0.02217458705464887
126,126,102073.972626301,2196.2161581437717,15.075565757409327,102156.67126990156,-1401.4585823229463,26.35952925686624,102224.2963455969,17867.609865767023,8.542447663823788,102248.54796540084,-6411.154384677754,15.28779240518434,102476.80813839656,5498.699579039283,28.421363430463987,0.9356439044076412,77.0,49.0,127.0,243.0,370.0,28.0,802.0,816.0,28.0,10.0,18.0,0.3571428571428571,168.69777919553096,3326.678815275739,35.0,17.0,18.0,0.4857142857142857,144.04265992752008,1177.3993731431565,18.0,10.0,8.0,0.5555555555555556,1010.9573051619568,14878.367378538713,29.0,9.0,20.0,0.3103448275862069,515.6973320172626,10641.667852054085,82.0,44.0,38.0,0.5365853658536586,181.02403207450467,5088.429097622771,0.0,0.0,0.0,0.0,102064.0,102092.0,102141.0,102168.0,102214.0,102232.0,102240.0,102268.0,102443.0,102511.0,0.07681292142851424,-0.10278053289935006,0.05658044432114415,-0.08043751578494912,0.03292124428193123
127,127,102852.39728720114,1704.9391831376238,18.05099196390604,102973.87669549928,-1746.8305347576531,12.739827004320285,103002.39666737664,16266.2322679161,8.697639548626285,103027.54796540084,-6376.593598061122,15.28779240518434,103253.80813839656,6014.118956209684,30.01703405618658,0.919567105557837,113.0,71.0,99.0,235.0,334.0,42.0,778.0,780.0,43.0,11.0,32.0,0.2558139534883721,129.82593594048802,2003.5366811596816,28.0,21.0,7.0,0.75,258.42332147669055,1337.0391208574497,18.0,10.0,8.0,0.5555555555555556,935.4448635783313,13477.115998608908,36.0,10.0,26.0,0.2777777777777778,523.7260889234775,10228.2513698356,78.0,41.0,37.0,0.5256410256410257,107.7516686104707,5924.016008432524,0.0,0.0,0.0,0.0,102841.0,102883.0,102954.0,102981.0,102992.0,103010.0,103019.0,103053.0,103215.0,103288.0,0.0761469600936542,-0.14793840406078254,0.05750839212000094,-0.08213258080030732,0.01791645117016104
128,128,103596.54796540084,2228.012225191107,15.28779240518434,103728.7428839833,-1186.9698152889705,5.224982758430942,103755.1062844818,17098.56122219388,8.966350172211055,103779.54796540084,-5471.935252766043,15.28779240518434,104007.2327992967,5675.814029211804,33.93673353184779,0.925348288216913,139.0,81.0,76.0,237.0,313.0,58.0,745.0,751.0,59.0,9.0,50.0,0.1525423728813559,153.84382357508943,3388.715316461582,7.0,3.0,4.0,0.4285714285714285,396.8530522183616,3112.4677005425606,21.0,12.0,9.0,0.5714285714285714,921.4954578196944,13666.273571920328,33.0,9.0,24.0,0.2727272727272727,508.91233829657335,9645.48476647148,83.0,47.0,36.0,0.5662650602409639,116.99368286963237,6006.463489456897,0.0,0.0,0.0,0.0,103588.0,103646.0,103727.0,103733.0,103743.0,103764.0,103771.0,103803.0,103964.0,104040.0,0.06904981123337127,-0.3343413177880575,0.05389315778356814,-0.09300408626716115,0.020612670229767763
129,129,104354.98348317278,2752.1825379289717,25.467692940044422,104454.7260172996,-828.9080967087125,7.643896202563935,104503.3969547398,17077.61204629551,8.95609645059171,104525.69864360055,-6127.883129808298,10.191861603456228,104750.53415569612,6070.762216560078,38.29441567800977,0.944844625179028,110.0,63.0,97.0,243.0,340.0,47.0,762.0,750.0,48.0,16.0,32.0,0.3333333333333333,144.73567007325667,3170.2025389005685,10.0,6.0,4.0,0.6,139.24651628767407,588.8564359469274,20.0,11.0,9.0,0.55,958.283090653658,14492.896206170431,28.0,7.0,21.0,0.25,642.1928759602719,11624.83367691543,88.0,47.0,41.0,0.5340909090909091,123.95568770813784,6146.056436316583,0.0,0.0,0.0,0.0,104339.0,104386.0,104449.0,104459.0,104492.0,104512.0,104520.0,104546.0,104710.0,104789.0,0.05258941515636926,-0.16798788290350944,0.05611341258109499,-0.10479848625643778,0.02041847189633064
130,130,105102.62318671882,2312.1678053915143,16.4556799993891,105196.45203459916,-1452.9173092336594,15.28779240518434,105246.0551687175,18197.663210992323,8.744586180589517,105269.74921906673,-6578.019197289916,17.835757806048345,105490.32190015848,5706.003360317311,32.425589843069055,0.9378582410687636,102.0,62.0,105.0,237.0,342.0,40.0,751.0,741.0,45.0,20.0,25.0,0.4444444444444444,119.6178232695106,1592.5640346721348,54.0,44.0,10.0,0.8148148148148148,153.92073531491744,1116.91987867769,17.0,10.0,7.0,0.5882352941176471,1010.2175515903208,14847.129909099418,30.0,8.0,22.0,0.2666666666666666,545.4793529006399,12359.224102830696,82.0,37.0,45.0,0.4512195121951219,101.43573310518792,5222.057766187278,0.0,0.0,0.0,0.0,105085.0,105125.0,105187.0,105205.0,105236.0,105253.0,105262.0,105292.0,105454.0,105529.0,0.051734057965250484,-0.10593908843725103,0.055513586545556985,-0.08292456080477426,0.017777019517834124
131,131,105830.82194810128,2250.0347124050477,22.93168860757676,105906.30135639945,-1402.5961146895695,10.191861603456228,105978.8392905078,18595.344267229484,9.279712261201809,105999.027373699,-6172.937843021213,17.835757806048253,106221.72612456715,5956.713450311563,35.6277563457802,0.954424142568025,69.0,27.0,137.0,241.0,378.0,42.0,720.0,733.0,44.0,14.0,30.0,0.3181818181818182,126.4608474032888,2993.4063803064037,29.0,19.0,10.0,0.6551724137931034,95.05890008583503,803.0821985897376,20.0,12.0,8.0,0.6,890.156446524033,13296.50702692046,30.0,4.0,26.0,0.1333333333333333,688.3658562559139,13383.309695938771,82.0,37.0,45.0,0.4512195121951219,153.6792609006455,6780.940771327676,0.0,0.0,0.0,0.0,105818.0,105860.0,105887.0,105912.0,105967.0,105987.0,105995.0,106024.0,106185.0,106265.0,0.05620395396838816,-0.06777353729293198,0.04786985568709007,-0.11151349224002681,0.02579933753445994
132,132,106580.82194810128,2291.933227361353,22.93168860777651,106667.85482287094,-1165.143287157778,10.87871131652258,106736.38912522256,17725.099694552453,8.885782378102514,106759.12330447925,-6074.1775286216325,12.739827004320285,106996.63008649784,5559.0033171906,31.8523251674755,0.914344476968623,88.0,39.0,121.0,241.0,362.0,49.0,750.0,759.0,51.0,14.0,37.0,0.2745098039215686,123.06062681894522,2829.0073687435383,22.0,12.0,10.0,0.5454545454545454,139.59956610406655,1691.8712643278595,20.0,11.0,9.0,0.55,977.5891892887483,14528.193593659158,26.0,7.0,19.0,0.2692307692307692,647.9107743493116,12316.986607780676,77.0,50.0,27.0,0.6493506493506493,157.28342964889578,5192.530056757589,0.0,0.0,0.0,0.0,106568.0,106617.0,106656.0,106678.0,106725.0,106745.0,106752.0,106777.0,106948.0,107018.0,0.05369293718937088,-0.11981321751816663,0.05515281753756206,-0.10666642048184212,0.028293458498669044
133,133,107412.972626301,2245.514727288343,16.147939886866972,107530.54796540084,-1688.5064316114892,15.28779240518434,107565.6124065838,17250.0273386468,9.307215322702348,107589.12330450072,-6226.5871564708405,12.739827004320285,107821.2327992967,5386.847245454748,32.615747825612644,0.9316813342632532,119.0,88.0,88.0,244.0,332.0,31.0,833.0,827.0,45.0,12.0,33.0,0.2666666666666666,140.1093522245395,2873.6620876058737,23.0,10.0,13.0,0.4347826086956521,180.42835196552704,1140.6772127532956,20.0,12.0,8.0,0.6,965.3990087245838,13907.753001176658,28.0,7.0,21.0,0.25,575.7671694328423,11358.880803522865,93.0,59.0,34.0,0.6344086021505376,172.8169771320929,5738.266693296366,0.0,0.0,0.0,0.0,107403.0,107434.0,107522.0,107544.0,107554.0,107574.0,107582.0,107610.0,107777.0,107854.0,0.06239520521592566,-0.10685677506915298,0.05596507122987063,-0.0924691415962096,0.03208128414591863
134,134,108269.17805189872,2140.673925222226,13.379069392346077,108353.87669549928,-1956.7854814805223,12.739827004320285,108410.54661502536,15713.50397610624,8.680041982371366,108434.12330450072,-6808.513989591451,12.739827004320274,108658.18030020077,5414.122914938104,30.625088888619885,0.9227753203208664,103.0,69.0,104.0,247.0,351.0,34.0,863.0,845.0,34.0,21.0,13.0,0.6176470588235294,130.4147596035504,1590.4656262829103,16.0,4.0,12.0,0.25,151.79675228196956,1419.610185027902,17.0,11.0,6.0,0.6470588235294118,964.6438275769048,12837.544684335457,30.0,8.0,22.0,0.2666666666666666,487.9720154701129,11182.01612270922,90.0,43.0,47.0,0.4777777777777778,165.45338822820423,4902.630834761389,0.0,0.0,0.0,0.0,108248.0,108282.0,108351.0,108365.0,108400.0,108417.0,108427.0,108455.0,108621.0,108702.0,0.06092229090425899,-0.0775745495449602,0.0613894793321547,-0.07167085449425566,0.030559592168050317
