Unnamed: 0,cycle,p_center,p_height,p_width,q_center,q_height,q_width,r_center,r_height,r_width,s_center,s_height,s_width,t_center,t_height,t_width,r_squared,pr_interval,pr_segment,qrs_duration,st_segment,qt_interval,p_duration,pp_interval,rr_interval,fwhm_p,rise_time_p,decay_time_p,rise_decay_symmetry_p,sharpness_deriv_p,sharpness_diff_p,fwhm_q,rise_time_q,decay_time_q,rise_decay_symmetry_q,sharpness_deriv_q,sharpness_diff_q,fwhm_r,rise_time_r,decay_time_r,rise_decay_symmetry_r,sharpness_deriv_r,sharpness_diff_r,fwhm_s,rise_time_s,decay_time_s,rise_decay_symmetry_s,sharpness_deriv_s,sharpness_diff_s,fwhm_t,rise_time_t,decay_time_t,rise_decay_symmetry_t,sharpness_deriv_t,sharpness_diff_t,Average_Heart_Rate,SDNN,RMSSD,NN50,p_on,p_off,q_on,q_off,r_on,r_off,s_on,s_off,t_on,t_off,sharpness_deriv_p_norm,sharpness_deriv_q_norm,sharpness_deriv_r_norm,sharpness_deriv_s_norm,sharpness_deriv_t_norm
0,0,0.0,0.0,0.0,0.0,0.0,0.0,0.0,0.0,0.0,0.0,0.0,0.0,0.0,0.0,0.0,0.0,0.0,0.0,0.0,0.0,0.0,0.0,0.0,0.0,0.0,0.0,0.0,0.0,0.0,0.0,0.0,0.0,0.0,0.0,0.0,0.0,0.0,0.0,0.0,0.0,0.0,0.0,0.0,0.0,0.0,0.0,0.0,0.0,0.0,0.0,0.0,0.0,0.0,0.0,69.41810264925198,377.19192854130733,611.4594171018016,244.0,,,,,,,,,,,,,,,
1,1,1587.561529395104,9951.881750659802,65.3378926374685,1721.7857655820712,7575.928132211552,9.358073235491204,1743.4227727578177,27317.836457818004,9.918345513620071,1870.071279287356,-10620.453553878046,39.511125239648784,2202.4794082981284,9172.407789585395,33.12355021123273,0.8537244605685472,-118.0,-197.0,483.0,299.0,782.0,79.0,,,159.0,100.0,59.0,0.6289308176100629,189.32459596169272,13085.858954159366,52.0,12.0,40.0,0.2307692307692307,710.8668940933009,21693.2223340735,30.0,17.0,13.0,0.5666666666666667,1041.885341614966,25417.08849047092,108.0,56.0,52.0,0.5185185185185185,131.72364300580958,11421.14239089164,62.0,42.0,20.0,0.6774193548387096,223.00452500857628,10067.712383498165,0.0,0.0,0.0,0.0,1557.0,1636.0,1439.0,1767.0,1726.0,1756.0,1815.0,1922.0,2162.0,2221.0,0.01902399975252325,0.09383231753094598,0.03813937985988609,-0.012402826521256322,0.024312539316206784
2,2,3026.01356399424,7555.501198663447,87.83038030562976,3134.0273736989925,-5579.323835862277,17.8357578060484,3177.304617578444,24555.51929026974,14.62372548114462,3332.3786756963286,-7262.44646957284,49.51735820392582,3440.164487904464,8265.319270613496,78.98692742678575,0.86943781651761,217.0,47.0,235.0,143.0,378.0,170.0,1441.0,1439.0,179.0,120.0,59.0,0.6703910614525139,100.78441799200452,9689.594426974649,16.0,5.0,11.0,0.3125,292.6097022704787,1421.2548572028347,40.0,20.0,20.0,0.5,552.9950555825116,25355.850704155568,85.0,52.0,33.0,0.611764705882353,83.11422519559213,4535.695939854449,118.0,45.0,73.0,0.3813559322033898,95.70385648720077,7700.13056117505,0.0,0.0,0.0,0.0,2913.0,3083.0,3130.0,3144.0,3158.0,3197.0,3285.0,3365.0,3396.0,3508.0,0.013339210112207126,-0.05244536988329452,0.02252019389390958,-0.011444383864832907,0.011578966686437162
3,3,3764.6487516772495,6150.018476822861,53.79989012568139,3873.6416341785057,-3303.854026457738,6.932584017329003,3918.516369773105,24314.96883981021,13.147093607471884,4037.767200703312,-4723.426543306856,58.60320421987331,4165.801891043933,7471.223459083999,24.92228450118968,0.8977099545368359,134.0,55.0,244.0,80.0,324.0,79.0,731.0,740.0,83.0,34.0,49.0,0.4096385542168674,124.00263354296818,8792.606788502366,15.0,6.0,9.0,0.4,283.8884636820329,1138.7207300770908,31.0,16.0,15.0,0.5161290322580645,835.8762803947876,23327.1492507893,108.0,34.0,74.0,0.3148148148148148,82.30451654180501,4119.373112275996,55.0,28.0,27.0,0.509090909090909,94.32255206918616,6790.525484074288,0.0,0.0,0.0,0.0,3734.0,3813.0,3868.0,3883.0,3903.0,3934.0,4005.0,4112.0,4138.0,4192.0,0.020162969267537672,-0.08592645480357584,0.03437702453585838,-0.017424747857766806,0.0126247799420994
4,4,4504.657460196832,4602.78601669172,56.05523881834563,4614.547965400863,-11291.54213926137,10.739182002831956,4642.471833605036,19314.206961530308,19.932010536414023,4703.520591701871,-5173.055356129186,33.12355021123273,4904.029918955595,8090.277688516865,27.44904258201768,0.7972921585823977,110.0,56.0,115.0,216.0,331.0,54.0,740.0,719.0,58.0,15.0,43.0,0.2586206896551724,150.87454208578538,7704.270087334357,19.0,15.0,4.0,0.7894736842105263,626.9090605215101,3644.3989204945337,37.0,15.0,22.0,0.4054054054054054,571.0316243540536,20879.555260310015,150.0,20.0,130.0,0.1333333333333333,148.80116289595068,4111.421104844653,69.0,37.0,32.0,0.5362318840579711,93.83656181143832,6749.053230952596,0.0,0.0,0.0,0.0,4492.0,4546.0,4602.0,4618.0,4627.0,4664.0,4685.0,4717.0,4869.0,4933.0,0.03277896072914278,-0.05552023388742532,0.02956536737394521,-0.02876465698741204,0.011598682446293229
5,5,5251.281646074545,6188.247463163713,45.79429383438576,5360.397287201151,-5169.521174766605,9.302608316147635,5394.033731518611,23099.361262582315,15.054090926235874,5534.588903094096,-5650.038613937892,81.82586337540783,5646.91715320529,9529.211239836452,31.111471552331597,0.9240866134187748,131.0,54.0,244.0,83.0,327.0,77.0,736.0,753.0,77.0,33.0,44.0,0.4285714285714285,111.99511883873174,7801.279927229675,17.0,11.0,6.0,0.6470588235294118,483.40527829918824,1148.0408401002285,35.0,17.0,18.0,0.4857142857142857,570.7773751456596,21338.041884073544,166.0,105.0,61.0,0.6325301204819277,98.36993751523896,4959.130374077595,54.0,25.0,29.0,0.4629629629629629,125.63315282498908,7952.172324096474,0.0,0.0,0.0,0.0,5218.0,5295.0,5349.0,5365.0,5377.0,5412.0,5433.0,5593.0,5622.0,5676.0,0.018098034945337294,-0.0935106486571289,0.0247096605251262,-0.017410489420828637,0.013184003341198396
6,6,6029.127762748352,6246.085449465467,81.46419212924063,6139.698643600575,-3791.304031525252,7.2236666897965645,6179.054532853032,26440.33285510272,15.09191489105199,6349.7807646975525,-7021.44866972901,36.36573739698336,6440.611915010144,7512.031315425032,78.98692742678575,0.9037546045891516,-158.0,-273.0,557.0,106.0,663.0,115.0,792.0,787.0,126.0,58.0,68.0,0.4603174603174603,104.8930588773583,8295.852053927312,6.0,4.0,2.0,0.6666666666666666,424.02884551844784,3248.828587458617,40.0,21.0,19.0,0.525,574.0604379572584,26468.43101860328,98.0,74.0,24.0,0.7551020408163265,81.15972477836743,2481.810912058432,79.0,39.0,40.0,0.4936708860759494,108.5310312463112,8198.192478029789,0.0,0.0,0.0,0.0,5975.0,6090.0,5817.0,6142.0,6158.0,6198.0,6278.0,6374.0,6402.0,6480.0,0.016793407603210894,-0.1118424800524003,0.021711543538547793,-0.011558829038837046,0.014447627637474845
7,7,6845.013809704751,2904.169253884545,21.989202931610887,6959.8495675108,4138.193464211133,191.09740506480424,6970.937899814007,28681.013592940995,12.4591061289744,7095.488920376077,-7481.448041811765,86.14120603962827,7220.673851199531,8572.095984277685,32.4805784816151,0.9396945102021343,-179.0,-295.0,543.0,102.0,645.0,116.0,789.0,792.0,117.0,47.0,70.0,0.4017094017094017,80.29244741999531,6020.891869129238,41.0,11.0,30.0,0.2682926829268293,794.0125544042862,31180.21714201789,31.0,16.0,15.0,0.5161290322580645,1040.7871368703147,29899.44070180454,107.0,37.0,70.0,0.3457943925233644,103.30175017354674,4915.56004928151,78.0,32.0,46.0,0.4102564102564102,85.77971049683829,6874.079033101098,0.0,0.0,0.0,0.0,6798.0,6914.0,6619.0,7003.0,6955.0,6986.0,7071.0,7162.0,7190.0,7264.0,0.027647303032561934,0.1918741985533655,0.0362883666400993,-0.013807721392465942,0.010006853709310908
8,8,7630.520591701871,3888.989655918233,25.35168198479391,7723.226894252834,-5080.72493943216,8.495973357485116,7761.252884499061,19288.585321757742,14.710438515614204,7905.835512095537,-6230.378181850595,78.98692742678575,8010.885143886707,8591.646334791289,33.00254091091253,0.9361005219531108,98.0,67.0,240.0,91.0,331.0,31.0,794.0,791.0,55.0,21.0,34.0,0.3818181818181818,147.88626317192123,4002.31400006297,21.0,13.0,8.0,0.6190476190476191,403.5860704926944,1655.2673457981705,39.0,20.0,19.0,0.5128205128205128,352.9490453952641,16896.825848633096,157.0,112.0,45.0,0.7133757961783439,86.22880317067703,6663.375951377871,52.0,22.0,30.0,0.4230769230769231,126.72583065742374,7435.2057641912525,0.0,0.0,0.0,0.0,7612.0,7643.0,7710.0,7731.0,7742.0,7780.0,7794.0,7950.0,7989.0,8041.0,0.03802691090907612,-0.07943474116467336,0.01829833756637059,-0.013840059247425119,0.014749889103821242
9,9,8418.538956936809,4390.5823161669105,45.86337721555302,8511.547965400861,-4615.4252565917,8.589862549584216,8546.59013312651,23916.756261693423,15.20529776825979,8715.110389464702,-4236.898316206188,63.63012305794408,8799.835539712854,10161.808356598656,34.93613719699694,0.93963710518859,105.0,46.0,240.0,89.0,329.0,59.0,790.0,782.0,63.0,25.0,38.0,0.3968253968253968,114.91425793188225,5654.894024134124,15.0,11.0,4.0,0.7333333333333333,505.2423455862062,3057.2061328289483,38.0,19.0,19.0,0.5,517.0254908853083,22784.838458521604,103.0,73.0,30.0,0.7087378640776699,79.26788005283122,3154.312498422069,57.0,26.0,31.0,0.4561403508771929,140.95586843704794,9366.733360548677,0.0,0.0,0.0,0.0,8397.0,8456.0,8502.0,8515.0,8528.0,8566.0,8650.0,8742.0,8774.0,8831.0,0.026172896817979557,-0.1094682109442948,0.021617709576837923,-0.01870894086592322,0.013871140203654505
10,10,9226.507375737983,5223.535475827826,69.34873959263544,9325.849321800286,-3165.308365436773,5.095930801728113,9366.531659660655,27031.89690538664,14.590597189037869,9507.69357975764,-5086.620409825861,77.72981671094449,9620.851457323675,8395.585950397199,27.491448921387192,0.9017988352397084,146.0,51.0,248.0,78.0,326.0,95.0,811.0,824.0,97.0,52.0,45.0,0.5360824742268041,134.68953214944025,7091.013647397944,8.0,3.0,5.0,0.375,363.2659722748054,1346.9261561707676,38.0,21.0,17.0,0.5526315789473685,626.2803129039726,24606.891190279952,169.0,105.0,64.0,0.621301775147929,73.77909081764143,5449.449923738517,52.0,24.0,28.0,0.4615384615384615,115.25368559647862,6696.432143593181,0.0,0.0,0.0,0.0,9177.0,9272.0,9323.0,9331.0,9346.0,9384.0,9403.0,9571.0,9597.0,9649.0,0.025785128247472016,-0.11476479708626405,0.023168197004301755,-0.014504540318188838,0.013727890617453081
11,11,10062.219235302446,6315.637541941523,43.31541181468896,10157.45653964008,-999.9423350382784,3.1333938764215374,10200.8839943564,30559.188617499403,12.380481502353236,10360.38372320691,-5567.720425526972,67.11491734777569,10450.369913502158,7453.227931246808,38.21948101296085,0.92899884851674,118.0,54.0,242.0,95.0,337.0,64.0,829.0,832.0,69.0,25.0,44.0,0.3623188405797101,96.98232872734296,7190.419820127287,4.0,1.0,3.0,0.25,261.8352903069914,339.018792417683,28.0,14.0,14.0,0.5,1150.1727806214228,30849.33380267489,105.0,68.0,37.0,0.6476190476190476,73.03405268654866,4805.985200181807,82.0,21.0,61.0,0.2560975609756097,116.74506182737404,6061.283044077811,0.0,0.0,0.0,0.0,10038.0,10102.0,10156.0,10160.0,10187.0,10215.0,10292.0,10398.0,10429.0,10493.0,0.015355904781313514,-0.2618503898997017,0.0376375431631319,-0.01311740660534983,0.01566369134344244
12,12,10877.219235302446,4589.726770075974,30.0154971019346,10971.123304500716,-2248.956423732774,5.263003351525971,11013.015827465177,21785.713603852382,13.99813686245814,11159.902090694375,-5751.7610680879525,76.49766755334834,11260.375141364131,8542.937564809621,27.772517478967647,0.9366955169872224,111.0,54.0,248.0,79.0,327.0,57.0,815.0,816.0,59.0,25.0,34.0,0.423728813559322,88.75485479109793,4607.992865669847,15.0,8.0,7.0,0.5333333333333333,317.12223984147204,146.2961618525212,34.0,18.0,16.0,0.5294117647058824,639.4903519170407,20624.973601744856,99.0,49.0,50.0,0.494949494949495,86.99593776802018,6364.8662408552445,52.0,21.0,31.0,0.4038461538461538,102.97735977022856,6391.867442865601,0.0,0.0,0.0,0.0,10853.0,10910.0,10964.0,10978.0,10995.0,11029.0,11046.0,11212.0,11239.0,11291.0,0.01933772079195659,-0.14100861915106327,0.029353656416559116,-0.015125095903356098,0.012054092516655705
13,13,11680.447756533382,4901.533685475981,38.85187541785928,11777.39728720115,-7747.537712416797,9.418223880232349,11808.683246861348,18513.09579073931,18.39538484876825,11865.246608982146,-3922.2160665132096,25.47965400782904,12066.068898907042,8399.631375072013,22.172074415732233,0.8846618912729295,109.0,51.0,110.0,212.0,322.0,58.0,805.0,789.0,59.0,24.0,35.0,0.4067796610169492,118.25517936532856,5600.26749765947,16.0,11.0,5.0,0.6875,508.2462421410309,1966.193134749108,38.0,18.0,20.0,0.4736842105263157,489.264942733719,18249.24250171364,27.0,14.0,13.0,0.5185185185185185,211.47581287009527,4479.69268161166,50.0,27.0,23.0,0.54,156.63250999698533,8108.948323796941,0.0,0.0,0.0,0.0,11657.0,11715.0,11766.0,11782.0,11792.0,11829.0,11851.0,11876.0,12040.0,12088.0,0.024126158658408767,-0.06560100266778651,0.026428045760907314,-0.05391743067793153,0.01864754570799751
14,14,12496.64389620259,5034.003861654971,28.774887608564804,12589.972626301009,-4216.566824289189,7.1873499154306035,12622.621552119252,22132.442637796154,15.636015244070457,12758.040937693231,-6987.875980787845,86.45775066744152,12877.460611610655,9000.429162231509,30.1721781981265,0.9594853963911254,108.0,49.0,246.0,83.0,329.0,59.0,814.0,814.0,61.0,27.0,34.0,0.4426229508196721,91.8630033274524,4754.783535322532,17.0,13.0,4.0,0.7647058823529411,506.7673726692355,2763.600214912605,37.0,19.0,18.0,0.5135135135135135,509.7872377196372,18556.830339387896,167.0,99.0,68.0,0.592814371257485,89.19936539074016,7176.117858852584,51.0,20.0,31.0,0.392156862745098,144.0920812643376,7410.946296950287,0.0,0.0,0.0,0.0,12471.0,12530.0,12579.0,12594.0,12604.0,12641.0,12659.0,12825.0,12857.0,12908.0,0.018248496793415583,-0.12018483135380267,0.02303348284066306,-0.012764875283416723,0.01600946784504355
15,15,13323.671269901582,3817.8843499324694,23.21075049205325,13425.471793071643,-4748.669066712725,8.372024704212222,13463.763248660338,22769.58647892975,15.769506723349776,13511.671269901582,-6133.255244744726,28.027619409504627,13721.64389620259,6743.77422967466,19.63419554742021,0.8333301243522517,105.0,52.0,257.0,78.0,335.0,53.0,830.0,845.0,53.0,16.0,37.0,0.3018867924528302,131.28351884140355,4872.938750635269,19.0,13.0,6.0,0.6842105263157895,444.7675679068517,303.99964514398016,36.0,20.0,16.0,0.5555555555555556,553.0460926101492,19482.846289267025,174.0,16.0,158.0,0.0919540229885057,154.0052822521379,5759.32445451166,55.0,27.0,28.0,0.4909090909090909,115.9437054820124,5598.351833223674,0.0,0.0,0.0,0.0,13308.0,13361.0,13413.0,13431.0,13444.0,13480.0,13496.0,13670.0,13696.0,13748.0,0.03438645773639678,-0.09366152108273632,0.024288807050664732,-0.02510987658374355,0.017192702711165034
16,16,14173.671269901582,4627.632267106,18.457061438599368,14271.319386501107,-2791.2930866957845,5.941745894238124,14317.294356236996,26813.753139120847,11.803085292413634,14465.311430515598,-5749.313493667278,73.61108944546409,14566.644388766726,7678.234925132575,26.562220944993612,0.9572755778191636,105.0,53.0,259.0,70.0,329.0,52.0,850.0,853.0,54.0,17.0,37.0,0.3148148148148148,139.79162368101575,5102.85744271938,19.0,9.0,10.0,0.4736842105263157,247.2871154568658,1591.283542022892,27.0,13.0,14.0,0.4814814814814814,1027.2535392140055,26391.609043569097,142.0,87.0,55.0,0.6126760563380281,80.34358719615327,6229.317831358083,47.0,21.0,26.0,0.4468085106382978,128.56338798658928,5476.576395252287,0.0,0.0,0.0,0.0,14158.0,14210.0,14263.0,14281.0,14304.0,14331.0,14348.0,14522.0,14547.0,14592.0,0.030208023371839306,-0.0885923146643099,0.03831069577929613,-0.013974466218384104,0.016743872679093556
17,17,15021.663808641722,4985.430487808315,38.21948101296085,15151.000245710513,1947.8383953346968,-40.875583902818704,15167.994987885952,25801.363456688556,10.763188451676596,15214.095930801726,-4635.954284797762,30.57558481036868,15423.76720070331,7913.978077474852,27.33551675616695,0.8122030588244856,-134.0,-188.0,492.0,99.0,591.0,54.0,850.0,849.0,55.0,18.0,37.0,0.3272727272727272,153.50964162647767,6753.884917249431,44.0,7.0,37.0,0.1590909090909091,795.3868567368347,19980.694618471032,26.0,14.0,12.0,0.5384615384615384,1136.8139678891391,25323.934837328772,167.0,17.0,150.0,0.1017964071856287,132.33196857754552,3904.8224998505702,84.0,35.0,49.0,0.4166666666666667,114.37006658373473,6172.418156487969,0.0,0.0,0.0,0.0,15004.0,15058.0,14870.0,15193.0,15154.0,15180.0,15197.0,15362.0,15391.0,15461.0,0.03079165219570904,0.40834335057871346,0.044060228437053386,-0.028544709556668622,0.014451653196925115
18,18,15840.24660900144,2724.535617786772,16.39865284026344,15941.39728720115,-4849.198634730216,7.667818365983144,15973.362650674686,17901.10614641308,16.169080879100683,16118.13711420547,-4894.723162398358,96.82268523107356,16223.389193407593,9531.75897248524,25.293976437072462,0.9523793720207608,102.0,55.0,247.0,77.0,324.0,47.0,817.0,803.0,48.0,14.0,34.0,0.2916666666666667,134.61680121539075,3273.7786796476967,18.0,13.0,5.0,0.7222222222222222,476.5305021169495,1826.357828943494,38.0,18.0,20.0,0.4736842105263157,313.0946259381871,15742.294753845405,171.0,110.0,61.0,0.6432748538011696,112.57967915075947,4258.1900530872435,51.0,22.0,29.0,0.4313725490196078,118.6461713639412,7364.640410659993,0.0,0.0,0.0,0.0,15826.0,15873.0,15928.0,15946.0,15955.0,15993.0,16064.0,16175.0,16201.0,16252.0,0.04940908106928854,-0.09826994891568534,0.01749023905994341,-0.023000213784429173,0.012447458198054527
19,19,16655.095930801723,3805.8012112947663,22.529184218225975,16753.397287201147,-8712.078170749497,9.634577542054693,16785.10525303527,19234.286999648935,19.00652707466948,16839.095930801723,-8090.755078940702,30.57558481036868,17042.259798320552,6485.196241393007,16.66329431628517,0.7531247159458543,102.0,54.0,252.0,71.0,323.0,48.0,814.0,812.0,48.0,17.0,31.0,0.3541666666666667,100.50718516408986,4523.373969885357,18.0,13.0,5.0,0.7222222222222222,537.017065116331,1286.912361185413,35.0,18.0,17.0,0.5142857142857142,510.16437134336576,17787.47125432339,171.0,18.0,153.0,0.1052631578947368,160.56597902619072,7064.598864387406,44.0,23.0,21.0,0.5227272727272727,124.8361474985945,5904.296542550649,0.0,0.0,0.0,0.0,16638.0,16686.0,16740.0,16758.0,16767.0,16802.0,16822.0,16992.0,17019.0,17063.0,0.026408942449702058,-0.061640524177038185,0.02652369548986543,-0.01984561112770863,0.019249401691471397
20,20,17473.80619331117,5433.089940377773,32.447947984058345,17570.610387052286,-4861.207740918824,7.841017893822538,17606.604049675025,21650.38507111078,15.126229286286272,17748.46559859338,-5968.196610650327,81.8790093700341,17856.707530315292,7273.910675000381,25.038381086328467,0.912862829974034,109.0,52.0,256.0,66.0,322.0,57.0,817.0,827.0,60.0,27.0,33.0,0.45,103.96068847059776,5501.182218691751,19.0,13.0,6.0,0.6842105263157895,487.97645090279497,558.0328103701197,38.0,20.0,18.0,0.5263157894736842,449.40450981608507,18663.185603018635,174.0,107.0,67.0,0.6149425287356322,94.87371987687614,5320.56929332978,40.0,17.0,23.0,0.425,129.08634161186694,5356.0043544957525,0.0,0.0,0.0,0.0,17449.0,17506.0,17558.0,17577.0,17587.0,17625.0,17641.0,17814.0,17840.0,17880.0,0.019134726207637412,-0.10038173164156153,0.020757344885091608,-0.015896547326804334,0.0177464843025255
21,21,18311.369913502156,4131.135093543403,26.59248064597932,18406.123304500717,-1848.3522346683096,4.643707212156969,18450.13284105519,26518.689749044424,12.666588604089783,18597.57146363386,-6646.391146783574,76.87112002565169,18697.81528805214,8022.4972059207375,29.411534209234254,0.9573471201619036,109.0,54.0,255.0,74.0,329.0,55.0,838.0,842.0,55.0,21.0,34.0,0.3818181818181818,89.71278787347106,4427.111363216616,15.0,7.0,8.0,0.4666666666666667,261.96764194990294,783.0374024588064,29.0,14.0,15.0,0.4827586206896552,949.8564478251104,25816.015632418963,166.0,114.0,52.0,0.6867469879518072,99.72783019654256,7808.200601622125,54.0,23.0,31.0,0.4259259259259259,96.48253374125396,5312.161010651156,0.0,0.0,0.0,0.0,18290.0,18345.0,18399.0,18414.0,18436.0,18465.0,18483.0,18654.0,18676.0,18728.0,0.021716256148021924,-0.14173036774936654,0.03581837778615505,-0.015004809075193297,0.01202649639691345
22,22,19161.31367525893,2926.1505085769995,15.808882172526546,19254.32873009842,-3807.3237853753258,28.02761940934081,19303.032797476535,23281.991424205407,13.921976121511886,19350.7945744023,-9391.48339180052,40.767446413824906,19548.095930801723,5102.03869299732,14.209017435400716,0.6810053777956651,83.0,55.0,282.0,63.0,345.0,28.0,851.0,853.0,48.0,20.0,28.0,0.4166666666666667,113.63213710092812,2533.626809761677,44.0,28.0,16.0,0.6363636363636364,166.72786831897284,5010.265604954538,25.0,13.0,12.0,0.52,867.4434871533139,17578.955048127926,182.0,24.0,158.0,0.1318681318681318,121.31934126284796,7082.2251201771,42.0,18.0,24.0,0.4285714285714285,128.8787100428264,4851.646306109242,0.0,0.0,0.0,0.0,19143.0,19171.0,19226.0,19270.0,19290.0,19315.0,19328.0,19508.0,19531.0,19571.0,0.03883331932785233,-0.043791355218961714,0.0372581310313286,-0.012918016909742818,0.02526023768101088
23,23,19990.397287201147,2728.9407150406273,13.193296240160231,20096.397287201147,-13134.980669775046,11.550770335067018,20121.796508293115,18630.76279078874,20.023276027357607,20179.095930801723,-7250.530496601392,30.57558481036868,20388.45828490299,6182.474291308122,20.656908625203304,0.7387134911025229,101.0,65.0,253.0,81.0,334.0,36.0,831.0,817.0,36.0,11.0,25.0,0.3055555555555556,148.99665212911862,3850.9415785719766,21.0,16.0,5.0,0.7619047619047619,592.5493924186434,955.8499531986752,31.0,12.0,19.0,0.3870967741935484,660.4949208900987,20090.42589615194,171.0,17.0,154.0,0.0994152046783625,188.3306136711021,6965.558687192384,56.0,29.0,27.0,0.5178571428571429,111.2795924289349,5442.1446752272495,0.0,0.0,0.0,0.0,19979.0,20015.0,20080.0,20101.0,20110.0,20141.0,20162.0,20333.0,20360.0,20414.0,0.0545987134524102,-0.045112315527205994,0.035451845332744765,-0.025974735746491937,0.017999200188407054
24,24,20834.52059170187,3564.136024070348,17.781452162616716,20930.972626301005,-7161.470788085477,9.742211525657316,20962.98336063316,20086.672017825505,18.29100622900051,21019.52059170187,-6620.560515860011,33.12355021123273,21226.537336626327,6405.705509605765,19.125493659448587,0.7793917191452461,103.0,56.0,252.0,79.0,331.0,47.0,842.0,838.0,49.0,20.0,29.0,0.4081632653061224,111.60738244518323,3226.7046864826,17.0,13.0,4.0,0.7647058823529411,485.9037186608963,2646.222759145057,33.0,17.0,16.0,0.5151515151515151,581.5436003585548,18546.251577107018,171.0,19.0,152.0,0.1111111111111111,167.9597424472759,5907.26421476312,50.0,27.0,23.0,0.54,124.21899329492511,5901.338073607261,0.0,0.0,0.0,0.0,20816.0,20863.0,20919.0,20935.0,20946.0,20979.0,21001.0,21171.0,21200.0,21250.0,0.031314007571945676,-0.06784971035130008,0.02895171484069018,-0.0253694142731445,0.019391930070567682
25,25,21674.767561429315,5299.713299194843,60.18996033339634,21788.972626301005,-5093.235452500293,8.147955572852803,21823.663977253993,22093.36665295822,16.277617697496968,21963.314920393663,-5933.63568218374,82.02115032456375,22080.285107850046,9243.473606467776,29.209553016813516,0.9051844814628468,134.0,57.0,247.0,83.0,330.0,77.0,852.0,862.0,94.0,44.0,50.0,0.4680851063829787,140.65908768100385,7878.302261623125,14.0,10.0,4.0,0.7142857142857143,489.0147744665415,2496.6207605556415,39.0,20.0,19.0,0.5128205128205128,417.9877017561709,19291.25129015687,171.0,102.0,69.0,0.5964912280701754,89.84558295829626,5472.738888877571,53.0,24.0,29.0,0.4528301886792453,127.83342651186358,7627.64653283107,0.0,0.0,0.0,0.0,21645.0,21722.0,21779.0,21793.0,21804.0,21843.0,21863.0,22026.0,22056.0,22109.0,0.026540886221594936,-0.09601259926565575,0.01891914927778578,-0.015141742393801743,0.01382958744236765
26,26,22558.369913502156,3371.7800390773527,17.068120995153496,22650.860320735683,-2462.518511377626,5.608968990428753,22695.81485344153,24729.687819887036,13.027521475627456,22843.74726110362,-6918.798583320276,84.14194382368522,22947.914499023693,8406.555433656138,27.855284559178656,0.9688549224913384,106.0,57.0,263.0,72.0,335.0,49.0,871.0,876.0,49.0,21.0,28.0,0.4285714285714285,85.31970655392789,3026.1781441259227,16.0,8.0,8.0,0.5,261.11495501869405,1246.0084345731625,29.0,15.0,14.0,0.5172413793103449,875.7133319462864,23253.973580097267,176.0,116.0,60.0,0.6590909090909091,80.17780757242478,7273.117683701485,53.0,22.0,31.0,0.4150943396226415,105.10500669259672,5003.556552471808,0.0,0.0,0.0,0.0,22537.0,22586.0,22643.0,22659.0,22681.0,22710.0,22727.0,22906.0,22926.0,22978.0,0.025304054702594007,-0.10603573285327973,0.035411418790416684,-0.01158840029910917,0.012502743546042966
27,27,24272.369913502156,4009.3039837107463,19.199916880305597,24368.397287201147,-12964.522648524877,11.104027453393645,24393.131986918197,19371.44406197676,19.405247715776756,24453.52059170187,-7312.871271425627,33.12355021123273,24658.20646391791,7114.372574602449,19.415261439049317,0.7995294144816746,100.0,51.0,246.0,85.0,331.0,49.0,1714.0,1697.0,51.0,22.0,29.0,0.4313725490196078,91.44813755112074,3740.193887850988,22.0,17.0,5.0,0.7727272727272727,585.4363673264971,1885.934831975152,28.0,11.0,17.0,0.3928571428571428,781.6676738098541,21864.312144979525,164.0,20.0,144.0,0.1219512195121951,159.0212449896333,6822.1588853020785,51.0,26.0,25.0,0.5098039215686274,128.82690460434748,6789.7119175035095,0.0,0.0,0.0,0.0,24251.0,24300.0,24351.0,24373.0,24382.0,24410.0,24435.0,24597.0,24632.0,24682.0,0.022808980791344836,-0.04515680084782057,0.04035154381413158,-0.021745390980830497,0.01810797835697357
28,28,25120.4107732626,4998.307385829237,43.31541181468757,25221.972626301005,-6093.083502265724,8.965079030320743,25255.27341228759,21251.743860000613,16.783804988122583,25312.52059170187,-4286.1321388591605,33.12355021123273,25515.43440768341,8333.950433320879,26.1704391941292,0.8694963597401565,109.0,54.0,114.0,214.0,328.0,55.0,853.0,859.0,56.0,18.0,38.0,0.3214285714285714,135.46086097746817,7131.902224558674,16.0,12.0,4.0,0.75,516.279261483904,2571.72017090807,37.0,18.0,19.0,0.4864864864864865,484.3363207322795,19699.989370559815,162.0,21.0,141.0,0.1296296296296296,153.32250549224452,3286.9029734971837,58.0,32.0,26.0,0.5517241379310345,141.55337779706804,7446.889056844167,0.0,0.0,0.0,0.0,25102.0,25157.0,25211.0,25226.0,25237.0,25274.0,25294.0,25325.0,25484.0,25539.0,0.02710134662016084,-0.08473201808114472,0.022790427172608766,-0.03577176356794599,0.016985147551527063
29,29,25983.095930801723,4186.257908771512,18.296452531361485,26082.098337426843,-4905.232042950525,7.955350364439156,26119.15409496738,21128.27129851274,15.467943618145757,26263.739581293812,-8918.447576394241,95.60801644006555,26377.29048391081,9248.58946593941,36.01949216613015,0.9669634701812816,103.0,70.0,256.0,83.0,339.0,33.0,859.0,866.0,48.0,19.0,29.0,0.3958333333333333,144.35454993500807,3928.8387056366937,20.0,13.0,7.0,0.65,441.47868045722134,1207.3251401608788,37.0,19.0,18.0,0.5135135135135135,385.2417841061792,16848.822440643227,177.0,112.0,65.0,0.632768361581921,91.9438583713128,8475.053081839931,55.0,23.0,32.0,0.4181818181818181,116.17594554030818,4794.052524213016,0.0,0.0,0.0,0.0,25966.0,25999.0,26069.0,26089.0,26100.0,26137.0,26153.0,26325.0,26355.0,26408.0,0.034482956635935015,-0.09000158944400709,0.018233473939408242,-0.010309401673748024,0.012561477181808047
30,30,26840.095930801723,3898.3712238619305,23.46124978090328,26938.797020981583,-3347.5748158163938,7.017444615421377,26984.80296838041,26906.54806146885,11.770260575760592,27121.291317950312,-6323.748847252971,83.48362989858134,27237.18922092953,6429.146749121,35.09142038651264,0.9634282852209368,106.0,54.0,258.0,72.0,330.0,52.0,857.0,867.0,52.0,17.0,35.0,0.3269230769230769,134.55324307604258,4419.799629326488,22.0,11.0,11.0,0.5,245.47263451123553,2863.8244517426583,27.0,14.0,13.0,0.5185185185185185,1048.476702952399,24939.28672433329,166.0,105.0,61.0,0.6325301204819277,88.90940520962519,7260.539760053713,45.0,23.0,22.0,0.5111111111111111,97.57849418385032,4519.720805474546,0.0,0.0,0.0,0.0,26823.0,26875.0,26929.0,26950.0,26971.0,26998.0,27014.0,27187.0,27214.0,27259.0,0.03451524632965741,-0.07332849839574701,0.0389673435833211,-0.014059604098326474,0.015177518571526053
31,31,28507.06855710273,5752.740009039459,48.41134261641708,28603.69864360057,-5947.817165614934,8.793794485349823,28636.679056949382,19137.22791279941,18.088015466173943,28693.246609001435,-3491.6782140781147,25.47965400864057,28899.44558356908,9285.749057085355,33.8216668813675,0.8659295201161552,118.0,50.0,135.0,192.0,327.0,68.0,1664.0,1646.0,85.0,42.0,43.0,0.4941176470588235,105.99314200775235,6219.164572693535,9.0,6.0,3.0,0.6666666666666666,452.84209279418343,3226.6430339768685,39.0,19.0,20.0,0.4871794871794871,522.3259558698851,18426.087215679137,55.0,14.0,41.0,0.2545454545454545,165.5258722763095,4201.207263954551,67.0,41.0,26.0,0.6119402985074627,140.56289278247223,9102.232749969067,0.0,0.0,0.0,0.0,28480.0,28548.0,28598.0,28607.0,28619.0,28656.0,28679.0,28733.0,28859.0,28925.0,0.018424810062892122,-0.07613584617431073,0.02729371036651247,-0.04740582096280377,0.015137485615683075
32,32,29346.219235302444,5164.918641509418,26.251619145082373,29445.972626301005,-6271.103809522293,8.727778390223673,29476.617254960387,20598.712984350303,15.80190208496435,29624.37960669372,-6045.2583336347525,79.03699729564295,29737.778235655707,8118.5304830085215,29.871740579689664,0.9652630771090912,110.0,53.0,255.0,85.0,340.0,57.0,840.0,842.0,61.0,25.0,36.0,0.4098360655737705,94.66330507369364,5042.3465930362845,19.0,15.0,4.0,0.7894736842105263,573.3335198617426,2997.735737664277,37.0,18.0,19.0,0.4864864864864865,486.9595726580767,19168.161637556903,171.0,109.0,62.0,0.6374269005847953,78.53455246736351,6157.273357608054,59.0,25.0,34.0,0.423728813559322,99.85336612759852,5687.847151862821,0.0,0.0,0.0,0.0,29322.0,29379.0,29432.0,29450.0,29459.0,29496.0,29515.0,29687.0,29714.0,29772.0,0.018328130924058238,-0.09142465780763671,0.023640291169066734,-0.012991099492045046,0.012299438468154325
33,33,30223.50575418026,3991.531560452463,53.50727341814519,30318.972626301005,-4105.057695739064,8.162435892517504,30355.557415720858,24116.92247458585,16.190062538735035,30487.38723412758,-5797.7269158417885,84.89025456735718,30615.753449915857,9549.14969444104,33.80087367763514,0.9522997803150756,112.0,46.0,252.0,87.0,339.0,66.0,878.0,882.0,97.0,58.0,39.0,0.5979381443298969,107.53006163008769,4258.279687300331,15.0,11.0,4.0,0.7333333333333333,440.95971040776374,2281.124848775824,39.0,21.0,18.0,0.5384615384615384,456.3470197873922,20895.54297287539,169.0,95.0,74.0,0.5621301775147929,68.27072234141005,5377.111607993385,65.0,30.0,35.0,0.4615384615384615,118.910154874296,7053.802073316367,0.0,0.0,0.0,0.0,30196.0,30262.0,30308.0,30323.0,30335.0,30374.0,30393.0,30560.0,30586.0,30647.0,0.026939549393891937,-0.10741863893057281,0.01892227419432499,-0.01177542911772305,0.012452433847960158
34,34,31115.219235302444,3950.527152773512,26.73530707607496,31208.312063004287,-3084.991425337504,8.591647733987319,31257.126985914812,26086.913115900996,12.40637968441193,31395.290068309652,-6750.624455101676,83.90936499752239,31506.7945744023,7995.789829846717,29.10165625156088,0.9627924050225216,107.0,48.0,266.0,75.0,341.0,59.0,891.0,903.0,61.0,25.0,36.0,0.4098360655737705,86.03596401035323,4019.219670697671,25.0,11.0,14.0,0.44,187.2959404589768,2947.2919752586886,28.0,14.0,14.0,0.5,957.4750006125817,24662.339739661675,177.0,108.0,69.0,0.6101694915254238,89.26928911646391,6631.601501900021,57.0,23.0,34.0,0.4035087719298245,109.24084834864324,5152.232634029314,0.0,0.0,0.0,0.0,31091.0,31150.0,31198.0,31222.0,31243.0,31271.0,31287.0,31464.0,31484.0,31539.0,0.021778350251295122,-0.06071198088937516,0.03670326942703555,-0.013223856505452629,0.013662296117497806
35,35,32015.7945744023,4779.162066429005,28.49699869479685,32110.010266506637,-2335.5942442815963,5.999935484829925,32156.37842625645,23396.020487397134,14.678187427292787,32203.945252602018,-7963.404192412253,35.6715156120968,32408.93583981089,6017.748581645145,17.529783377704824,0.7402448656976556,109.0,52.0,256.0,72.0,328.0,57.0,901.0,898.0,58.0,23.0,35.0,0.396551724137931,102.1971844582117,4940.211611019352,16.0,8.0,8.0,0.5,251.97004117832785,925.0659714341492,30.0,16.0,14.0,0.5333333333333333,790.6066587278646,19876.764657555348,178.0,21.0,157.0,0.1179775280898876,135.562045285035,5837.408567709617,47.0,24.0,23.0,0.5106382978723404,112.94642779077822,5113.177153096733,0.0,0.0,0.0,0.0,31993.0,32050.0,32102.0,32118.0,32141.0,32170.0,32184.0,32358.0,32386.0,32430.0,0.021383912710575548,-0.10788262635740102,0.03379235623228083,-0.01702312754816617,0.018768884452115258
36,36,32889.94525260201,2376.6536774673896,13.15612330051378,32986.246609001435,-15574.382930434209,12.99948630737092,33011.451953841686,19733.079065098336,21.622030843367256,33072.52059170187,-8847.33183850206,33.12355021123273,33274.40898890898,5177.690247504167,13.637630350702464,0.7055566795811197,97.0,54.0,260.0,64.0,324.0,43.0,875.0,856.0,44.0,20.0,24.0,0.4545454545454545,73.10152917426704,1935.6642817536815,26.0,20.0,6.0,0.7692307692307693,579.4703589606708,203.77589280133316,29.0,10.0,19.0,0.3448275862068966,732.8053608831758,21644.26789447801,173.0,19.0,154.0,0.1098265895953757,161.68567325116038,8061.872125223283,39.0,19.0,20.0,0.4871794871794871,152.22307084377138,4996.358096587439,0.0,0.0,0.0,0.0,32870.0,32913.0,32967.0,32992.0,33001.0,33030.0,33054.0,33227.0,33257.0,33291.0,0.030758174767880155,-0.037206633582144454,0.03713588530536423,-0.018275077300427715,0.029399802531089685
37,37,33738.65746019684,3633.930041367508,56.055238819009254,33846.821948101286,-6199.0108314578365,9.40365677684688,33877.936100701765,21775.42752632391,14.875412382134302,34024.89569564239,-6492.319540201175,78.74307361451878,34140.98050556266,9677.68627513539,32.21781879688422,0.9385054568023328,108.0,53.0,254.0,85.0,339.0,55.0,864.0,863.0,59.0,15.0,44.0,0.2542372881355932,127.83294531050711,6203.342038537403,18.0,13.0,5.0,0.7222222222222222,549.9412145602721,1946.3124817384733,33.0,16.0,17.0,0.4848484848484848,642.025335607725,20804.37476171884,170.0,107.0,63.0,0.6294117647058823,92.32329346280622,6159.48362171299,59.0,27.0,32.0,0.4576271186440678,111.72072705907752,7849.900941370777,0.0,0.0,0.0,0.0,33726.0,33781.0,33834.0,33852.0,33862.0,33895.0,33918.0,34088.0,34114.0,34173.0,0.03517760217045936,-0.08871434967809874,0.02948393710440782,-0.014220386549234056,0.011544156721231859
38,38,34627.09593080172,2743.4504418208267,18.068036351410505,34723.075923667464,-5011.336403812478,7.796582552573689,34761.53274676564,24267.35968518582,14.580618392444515,34900.26340179689,-8861.800122669722,88.53564465898128,35017.55285847581,8746.451401499058,23.377779456921044,0.960118864310094,101.0,49.0,267.0,64.0,331.0,52.0,874.0,888.0,54.0,17.0,37.0,0.3148148148148148,117.44692201972136,2670.958603817292,21.0,13.0,8.0,0.6190476190476191,453.99146059028016,1997.3906008773552,35.0,19.0,16.0,0.5428571428571428,577.3825962412021,19751.76213408499,185.0,106.0,79.0,0.572972972972973,106.35205129540094,8530.974549499293,41.0,17.0,24.0,0.4146341463414634,116.40148638702898,5415.844791547697,0.0,0.0,0.0,0.0,34610.0,34662.0,34711.0,34731.0,34743.0,34778.0,34794.0,34978.0,35001.0,35042.0,0.04280993023579894,-0.09059289259545553,0.023792559377346246,-0.012001179198720308,0.01330842430189218
39,39,35515.32873009842,2336.240429967163,15.300616258010113,35594.86648074317,-3392.289949046127,6.7801898036460875,35641.18082497908,29266.601904516363,11.92284880130092,35793.81320819002,-8697.892381850686,82.3328096327704,35891.99917835148,7354.701472553679,26.35091265126899,0.9657791659003202,100.0,54.0,271.0,61.0,332.0,46.0,898.0,878.0,47.0,31.0,16.0,0.6595744680851063,80.6845903109963,2017.4897911275336,21.0,10.0,11.0,0.4761904761904761,252.3680281749581,2719.476957169743,27.0,13.0,14.0,0.4814814814814814,1133.8666298418127,27696.61679409724,176.0,118.0,58.0,0.6704545454545454,99.25392894609736,9906.556126659569,38.0,13.0,25.0,0.3421052631578947,105.7727516715882,3762.02408817285,0.0,0.0,0.0,0.0,35485.0,35531.0,35585.0,35606.0,35628.0,35655.0,35673.0,35856.0,35880.0,35917.0,0.03453608167894362,-0.07439459243332697,0.038742681283638766,-0.01141126201483062,0.014381651256181044
40,40,36358.52059170187,4622.704408689793,19.73401078445102,36454.102244658694,-2515.3824081169255,7.256510937207443,36501.93104046311,26464.391080662743,11.571090344264158,36624.60426549244,-8460.492976696394,90.58196943078076,36752.21098188377,7951.789556729505,28.80303360428116,0.9691583697792296,102.0,53.0,260.0,74.0,334.0,49.0,833.0,860.0,49.0,19.0,30.0,0.3877551020408163,105.36248586095486,4605.057943856474,28.0,14.0,14.0,0.5,175.34255711565365,3394.2891306833844,25.0,13.0,12.0,0.52,1079.3740138788623,22891.51832753999,172.0,95.0,77.0,0.5523255813953488,93.96443141429162,8641.083236327444,45.0,20.0,25.0,0.4444444444444444,120.82590560546576,5244.132879173569,0.0,0.0,0.0,0.0,36340.0,36389.0,36442.0,36468.0,36489.0,36514.0,36530.0,36702.0,36732.0,36776.0,0.022792390891983857,-0.06970811139882274,0.04078590021546159,-0.011106259608406688,0.015194806746767113
41,41,38007.937007061526,4971.271726247614,23.431521590196716,38103.115469272256,-5433.294727465313,8.280205489664608,38136.38212093179,21679.88973160343,15.415974258535789,38270.65183077958,-5959.571841811332,87.918095936691,38394.36231399535,8597.661161414007,29.17575925739844,0.9519225303982396,106.0,57.0,252.0,78.0,330.0,49.0,1649.0,1634.0,50.0,24.0,26.0,0.48,99.00779337910252,4438.248322484491,20.0,15.0,5.0,0.75,527.0349199408482,1472.150571443676,36.0,18.0,18.0,0.5,473.60473804186006,19568.075469383683,173.0,99.0,74.0,0.5722543352601156,100.22858136242232,5841.523248012618,49.0,23.0,26.0,0.4693877551020408,135.89482993717365,6865.943660850367,0.0,0.0,0.0,0.0,37984.0,38033.0,38090.0,38108.0,38118.0,38154.0,38174.0,38342.0,38371.0,38420.0,0.019915989073048517,-0.09700098124194992,0.021845348103937637,-0.01681808425552249,0.015806022985304972
42,42,38823.91787890302,5151.30451332573,44.324602320171465,38915.711126144546,-1507.6345456371207,4.142726938340991,38956.96578020179,25079.037412293885,14.19398828802827,39122.86014596046,-7157.289644889855,78.89231742933988,39215.91787890302,9054.244072273474,49.82495793465544,0.9431115738886534,117.0,55.0,250.0,93.0,343.0,62.0,813.0,823.0,67.0,31.0,36.0,0.4626865671641791,64.04972934912787,5411.083799637559,9.0,6.0,3.0,0.6666666666666666,330.7021355400632,1819.576770682807,34.0,18.0,16.0,0.5294117647058824,760.3700871353103,24143.73578500932,163.0,129.0,34.0,0.7914110429447853,86.44886752437729,6638.776071775512,75.0,31.0,44.0,0.4133333333333333,80.81138319020083,5466.913474468894,0.0,0.0,0.0,0.0,38794.0,38856.0,38911.0,38919.0,38940.0,38973.0,38993.0,39161.0,39186.0,39254.0,0.01243369115210329,-0.2193516568700737,0.030318950230624586,-0.01207843636537748,0.008925249037373201
43,43,39610.77686157799,6605.774357901708,94.46595955921892,39699.36402080922,1037.0102405859488,4.5606536574021215,39769.088227540895,24070.751506725577,13.460812911463828,39917.21923530245,-6293.612206966837,43.31541181468896,40027.46584430388,8377.484870884186,68.79506582332952,0.8758069881860774,-160.0,-258.0,548.0,143.0,691.0,98.0,809.0,812.0,217.0,117.0,100.0,0.5391705069124424,145.78184506023365,9267.502925716504,254.0,238.0,16.0,0.937007874015748,139.6541093659097,4656.00269676198,33.0,17.0,16.0,0.5151515151515151,841.3804296162933,25932.556332051732,60.0,20.0,40.0,0.3333333333333333,89.48405876125086,4393.377012151952,119.0,39.0,80.0,0.3277310924369748,101.7474349284561,8372.63121041367,0.0,0.0,0.0,0.0,39571.0,39669.0,39411.0,39805.0,39752.0,39785.0,39893.0,39959.0,39989.0,40102.0,0.02206885024552073,0.13466994239806157,0.034954472833189455,-0.014218235223040075,0.012145343918444745
44,44,40429.65898506499,6527.501686089723,48.41134261641708,40526.84932180029,-4506.100618072912,5.095930801728113,40560.518343481635,21254.120202352125,16.656503477270018,40720.31297977692,-4894.810946054984,68.17907086703876,40817.80617590486,9908.603445050394,33.07794022805977,0.8713960985216549,118.0,52.0,239.0,90.0,329.0,66.0,801.0,784.0,72.0,26.0,46.0,0.3611111111111111,112.20172869724792,7126.59989830115,4.0,3.0,1.0,0.75,509.4686292848251,4035.9761379136544,42.0,21.0,21.0,0.5,418.5328940756542,18946.00655330225,105.0,66.0,39.0,0.6285714285714286,83.37145128565699,5073.628687372135,61.0,26.0,35.0,0.4262295081967213,123.7770344582071,8497.876076446753,0.0,0.0,0.0,0.0,40406.0,40472.0,40524.0,40528.0,40541.0,40581.0,40602.0,40763.0,40792.0,40853.0,0.01718907693832584,-0.11306197363668845,0.019691847514315672,-0.01703261927875906,0.012491874878698165
45,45,41230.22819278784,4169.154549937743,39.715522046597954,41333.629980566686,-3776.77315956844,8.793894034893894,41372.09589751039,22981.98497953418,15.485720095273864,41514.73958129381,-8255.305925572195,88.0975078517134,41624.47732899065,9634.784580855145,28.378150808979036,0.930733804101013,109.0,49.0,255.0,76.0,331.0,60.0,808.0,819.0,60.0,18.0,42.0,0.3,114.82864792013304,5371.349945494271,20.0,13.0,7.0,0.65,397.47274729655715,232.3909485081772,38.0,20.0,18.0,0.5263157894736842,450.9373844337222,19415.90284393254,172.0,109.0,63.0,0.6337209302325582,86.06632372058193,7945.636921625557,47.0,18.0,29.0,0.3829787234042553,159.30096081026932,6570.43875048235,0.0,0.0,0.0,0.0,41212.0,41272.0,41321.0,41340.0,41352.0,41390.0,41408.0,41576.0,41606.0,41652.0,0.02754243013654837,-0.10524136094580144,0.019621341883013545,-0.010425576531812959,0.01653394110407089
46,46,42056.794574402295,4398.4570605432045,36.408734678390765,42149.87669549929,1720.388200305099,12.739827004320285,42199.3553211484,29949.906927880736,14.081329830304114,42290.4110969059,-4421.5865907590205,94.8261794595817,42447.794574402295,7582.887141802282,23.22129431978775,0.9347729929377472,113.0,52.0,260.0,76.0,336.0,61.0,817.0,827.0,61.0,23.0,38.0,0.3770491803278688,93.298297351254,4977.832973829895,12.0,3.0,9.0,0.25,185.9859476198904,805.0226432654983,29.0,14.0,15.0,0.4827586206896552,1025.751006065297,28532.238627126982,176.0,59.0,117.0,0.3352272727272727,66.48738997407811,3204.4795759111576,58.0,23.0,35.0,0.396551724137931,101.39126335779883,6285.003967398081,0.0,0.0,0.0,0.0,42034.0,42095.0,42147.0,42159.0,42185.0,42214.0,42232.0,42407.0,42425.0,42483.0,0.021211596718357362,0.10810696538543282,0.03424888793595591,-0.015036998283158064,0.013371063219292541
47,47,42902.042139106044,6247.422993189037,59.30204441716681,42994.489305994415,-3022.0140512968323,6.138529565910889,43035.646164158235,22108.482413430513,15.13552831437643,43185.78648513451,-5368.341440117227,74.81904129075508,43288.31188335534,9193.31099099979,36.07932070716095,0.9064745282644262,127.0,50.0,240.0,95.0,335.0,77.0,842.0,838.0,114.0,53.0,61.0,0.4649122807017544,83.69870728721507,6565.378163928757,6.0,3.0,3.0,0.5,349.95840747832665,1285.792243061467,40.0,22.0,18.0,0.55,522.3963653900869,20558.521802568677,117.0,72.0,45.0,0.6153846153846154,82.38161093048657,5700.255351902548,68.0,29.0,39.0,0.4264705882352941,94.7583207453554,7124.002778519063,0.0,0.0,0.0,0.0,42864.0,42941.0,42991.0,42997.0,43014.0,43054.0,43114.0,43231.0,43260.0,43326.0,0.01339731716236658,-0.1158030378211344,0.02362877540037485,-0.015345821768126513,0.010307311570132174
48,48,43741.70822778461,5894.509911202257,53.50727341814519,43837.12330450071,-7560.051168754219,9.365191062506376,43870.219807109206,21617.64788514075,18.11954211731973,43926.6712699015,-3880.709009074306,28.027619409504524,44134.34253980316,8898.139587713875,25.24033959920676,0.8335967834839273,116.0,44.0,106.0,230.0,336.0,72.0,841.0,827.0,107.0,45.0,62.0,0.4205607476635514,105.05541110975516,6254.861293828954,14.0,10.0,4.0,0.7142857142857143,544.4701372116131,3240.2988334854535,40.0,19.0,21.0,0.475,480.2498499844157,20957.961221431266,27.0,17.0,10.0,0.6296296296296297,185.8203887295697,3756.719297382919,65.0,32.0,33.0,0.4923076923076923,108.82629646911622,7804.7969196469185,0.0,0.0,0.0,0.0,43712.0,43784.0,43828.0,43840.0,43851.0,43890.0,43911.0,43934.0,44103.0,44164.0,0.01782258621876298,-0.07201937196694046,0.022215638469832023,-0.04788310288018601,0.012230230307847537
49,49,44598.794574402295,4702.381459564956,39.752025707399994,44695.53598566314,-4110.346693505618,6.700795992913011,44733.22678677758,24429.831835230056,15.573217217001964,44872.616276793095,-6217.237750945986,86.02113689648047,44990.63977946717,8280.63909464385,27.25157121965529,0.932113555889962,109.0,50.0,256.0,76.0,332.0,59.0,859.0,870.0,60.0,24.0,36.0,0.4,91.55277947923152,5723.398245479149,17.0,12.0,5.0,0.7058823529411765,497.8595800430406,1586.1515081461785,39.0,20.0,19.0,0.5128205128205128,490.3414361874597,21702.21009107396,174.0,105.0,69.0,0.603448275862069,83.12828522686377,6100.855766356156,48.0,22.0,26.0,0.4583333333333333,113.32747395373438,6083.960740132336,0.0,0.0,0.0,0.0,44576.0,44635.0,44685.0,44700.0,44713.0,44752.0,44768.0,44941.0,44970.0,45017.0,0.01946944973870784,-0.12112350056253476,0.020071420855232513,-0.013370613857289815,0.013685836643579573
50,50,0.0,0.0,0.0,0.0,0.0,0.0,0.0,0.0,0.0,0.0,0.0,0.0,0.0,0.0,0.0,0.0,0.0,0.0,0.0,0.0,0.0,0.0,0.0,0.0,0.0,0.0,0.0,0.0,0.0,0.0,0.0,0.0,0.0,0.0,0.0,0.0,0.0,0.0,0.0,0.0,0.0,0.0,0.0,0.0,0.0,0.0,0.0,0.0,0.0,0.0,0.0,0.0,0.0,0.0,0.0,0.0,0.0,0.0,45446.0,45506.0,45561.0,45573.0,45597.0,45626.0,45643.0,45826.0,46044.0,,,,,,
51,51,46339.036137178286,4154.047001962596,43.31541181468896,46435.48410507066,-2878.309962630953,5.616071843359001,46474.79485904547,22170.402735550982,15.5237181892511,46599.45620559271,-6364.708932511676,84.23339641836722,46729.455845636774,9471.266072014005,29.669221115816015,0.9491688364693976,111.0,53.0,250.0,83.0,333.0,58.0,1741.0,1743.0,62.0,24.0,38.0,0.3870967741935484,110.85857806582943,4555.805652571405,15.0,9.0,6.0,0.6,392.81385483995666,554.2019259073859,38.0,21.0,17.0,0.5526315789473685,515.9689770553679,18854.36232224744,170.0,91.0,79.0,0.5352941176470588,82.675734778588,5200.154796034209,56.0,25.0,31.0,0.4464285714285714,138.04596313354506,7651.526416459218,0.0,0.0,0.0,0.0,46316.0,46374.0,46427.0,46441.0,46455.0,46492.0,46509.0,46677.0,46704.0,46760.0,0.026686885828074127,-0.1364737849431965,0.023272873443475808,-0.01298971180854331,0.014575238630603738
52,52,47172.09593080172,4163.842256935465,30.535345125967165,47273.54796540086,-9247.66049604895,9.14141255257972,47304.24961325767,21450.58015439838,19.22833115220318,47363.94525260201,-6718.8152748899465,35.6715156120968,47567.11833121187,7536.822213044919,21.508443051786603,0.8522084998720568,107.0,54.0,246.0,86.0,332.0,53.0,834.0,823.0,53.0,17.0,36.0,0.320754716981132,157.51825030509798,5389.678156402437,17.0,13.0,4.0,0.7647058823529411,615.4004598363368,3624.276060075612,36.0,17.0,19.0,0.4722222222222222,564.8923754170468,20443.64723611216,167.0,21.0,146.0,0.1257485029940119,138.0894300029029,5602.379198817529,59.0,30.0,29.0,0.5084745762711864,118.23241316064956,6577.461702978026,0.0,0.0,0.0,0.0,47155.0,47208.0,47262.0,47277.0,47287.0,47323.0,47344.0,47508.0,47538.0,47594.0,0.03783002346996435,-0.06654661036694264,0.026334596610023027,-0.020552645719994853,0.015687302926691033
53,53,48012.19614865513,4583.4464496067585,48.41134261641708,48109.12036519224,-3180.2262822098755,6.774529948120807,48153.62332799611,26372.135197294592,13.623945378788912,48303.81174451169,-6785.736577201376,79.15668367287512,48414.89459458433,7670.765054822571,37.351417605833134,0.9175345118294812,111.0,51.0,259.0,88.0,347.0,60.0,843.0,853.0,61.0,21.0,40.0,0.3442622950819672,116.94901310604163,6231.288203150225,16.0,7.0,9.0,0.4375,288.6282984469739,1149.2615896938162,31.0,16.0,15.0,0.5161290322580645,846.3745420527046,24908.89463938672,172.0,115.0,57.0,0.6686046511627907,92.15743662480892,7016.79676675464,62.0,28.0,34.0,0.4516129032258064,96.05133439641276,5014.425835831839,0.0,0.0,0.0,0.0,47991.0,48051.0,48102.0,48118.0,48138.0,48169.0,48188.0,48361.0,48387.0,48449.0,0.02551551859323575,-0.09075715777256323,0.032093515967547843,-0.013581051309070589,0.012521741144454134
54,54,0.0,0.0,0.0,0.0,0.0,0.0,0.0,0.0,0.0,0.0,0.0,0.0,0.0,0.0,0.0,0.0,0.0,0.0,0.0,0.0,0.0,0.0,0.0,0.0,0.0,0.0,0.0,0.0,0.0,0.0,0.0,0.0,0.0,0.0,0.0,0.0,0.0,0.0,0.0,0.0,0.0,0.0,0.0,0.0,0.0,0.0,0.0,0.0,0.0,0.0,0.0,0.0,0.0,0.0,0.0,0.0,0.0,0.0,48827.0,48883.0,48936.0,48951.0,48977.0,49003.0,49021.0,49200.0,49441.0,,,,,,
55,55,49662.73059775486,5856.279585424478,48.41134261641708,49763.837094598704,-2842.690606134749,5.776242828789009,49803.47940829813,19748.987053660778,15.807579983567583,49950.034186165445,-5457.986375127588,81.84296611846135,50063.391339023416,9359.915971707622,46.5243024317787,0.8811275458748261,116.0,54.0,238.0,103.0,341.0,62.0,1649.0,1654.0,64.0,24.0,40.0,0.375,122.40896774246303,7219.431446371109,12.0,8.0,4.0,0.6666666666666666,375.8029080539321,1946.261772340289,42.0,23.0,19.0,0.5476190476190477,386.95867408011617,17303.91866296292,156.0,112.0,44.0,0.717948717948718,85.49484131093377,5117.67995134401,67.0,33.0,34.0,0.4925373134328358,106.30693333985532,8232.918171110896,0.0,0.0,0.0,0.0,49640.0,49702.0,49756.0,49768.0,49781.0,49822.0,49838.0,49994.0,50030.0,50097.0,0.020902172779988702,-0.13219972206715708,0.019593849194831866,-0.015664172725043713,0.01135768031050611
56,56,50468.794574402295,5126.311122045643,31.163828836009852,50564.69864360057,-7757.732951409918,8.473089223176194,50597.38223667804,19373.94395984648,19.89417466010415,50652.09593080172,-5957.911009716438,30.57558481036868,50857.172698124574,8004.777705938437,23.244457017207232,0.8133993117015063,107.0,53.0,243.0,89.0,332.0,54.0,803.0,786.0,57.0,24.0,33.0,0.4210526315789473,109.83436600761247,5151.627353237427,16.0,13.0,3.0,0.8125,567.5907952207633,3598.318623998201,40.0,19.0,21.0,0.475,355.19209345649506,17475.3820723765,164.0,18.0,146.0,0.1097560975609756,154.75511900038194,5026.089249371938,58.0,30.0,28.0,0.5172413793103449,131.9535621766454,7163.000170088393,0.0,0.0,0.0,0.0,50446.0,50500.0,50553.0,50567.0,50578.0,50618.0,50635.0,50796.0,50827.0,50885.0,0.02142561451942919,-0.07316451839420528,0.018333494418722868,-0.025974728180397477,0.016484350599611793
57,57,51273.21923530245,4207.098930311499,32.36051159797798,51370.81625997437,-3638.953981316819,7.0316447814775325,51413.05659346905,23867.757037141957,15.387157347977023,51464.94525260201,-5556.115228769858,35.6715156120968,51671.49321800287,6852.251963905118,22.35044779130209,0.8471594091995244,112.0,52.0,254.0,85.0,339.0,60.0,804.0,820.0,62.0,25.0,37.0,0.4032258064516129,87.52384278833053,4215.248143627913,16.0,10.0,6.0,0.625,374.40649409083926,335.1732431340097,36.0,20.0,16.0,0.5555555555555556,644.6213743974598,20852.927368213645,175.0,21.0,154.0,0.12,118.41980691670072,4120.494786025907,59.0,29.0,30.0,0.4915254237288136,98.41129324153697,5889.373069419685,0.0,0.0,0.0,0.0,51249.0,51309.0,51361.0,51377.0,51394.0,51429.0,51445.0,51615.0,51643.0,51700.0,0.02080384707802679,-0.10288849378506121,0.02700804157652218,-0.02131341810614667,0.01436189062514451
58,58,52087.21923530245,4140.480336613743,23.635774934434387,52180.4644378474,-2524.07257530117,7.08542095744557,52229.539488690505,29206.742507197523,11.258291681282133,52366.897428959775,-6056.071091851718,77.44807647722168,52479.02135829048,8000.029277090511,28.419578537993573,0.9628462173144352,108.0,52.0,260.0,72.0,332.0,56.0,814.0,815.0,58.0,25.0,33.0,0.4310344827586206,94.1658110761308,3609.348706233687,23.0,10.0,13.0,0.4347826086956521,161.69438150168511,2312.7875446945263,25.0,13.0,12.0,0.52,1217.5404211848577,27672.890068461827,168.0,106.0,62.0,0.6309523809523809,88.85322717802822,6059.655919708424,46.0,21.0,25.0,0.4565217391304347,133.79852244380916,6746.359738152671,0.0,0.0,0.0,0.0,52063.0,52119.0,52171.0,52191.0,52217.0,52242.0,52260.0,52431.0,52458.0,52503.0,0.022742726307243742,-0.06406090818620454,0.04168696392227975,-0.014671760920636791,0.016724754098958704
59,59,52890.479597727026,4390.848907609571,40.767446413824906,52988.54796540086,-3018.9115778568826,7.253888044112664,53028.15949907743,18796.398421307746,15.937920553356992,53163.70794749025,-4995.105695270284,83.56160087412944,53276.29653430296,9901.543711453856,27.0409474112897,0.8855435509997887,111.0,55.0,243.0,83.0,326.0,56.0,805.0,803.0,58.0,22.0,36.0,0.3793103448275862,122.54507328540448,5668.717478065146,16.0,9.0,7.0,0.5625,331.1814179858017,551.0325604156633,42.0,22.0,20.0,0.5238095238095238,306.348764391861,15964.475214672691,162.0,101.0,61.0,0.6234567901234568,94.39485034010282,5771.81565083834,55.0,25.0,30.0,0.4545454545454545,125.3281976413009,8606.690160435392,0.0,0.0,0.0,0.0,52869.0,52925.0,52980.0,52995.0,53006.0,53047.0,53114.0,53223.0,53252.0,53306.0,0.02790919839510475,-0.10970225839502942,0.01629826935593053,-0.01889746806148316,0.012657440222813378
60,60,53703.1731848511,5304.128439060475,51.4309317443599,53801.69864360057,-5666.487532991428,8.246176755754885,53833.35719865373,20459.397579162363,16.832878461816897,53969.0276194095,-2768.270502663582,76.87301629479921,54091.26379860256,10525.681807410834,29.11356561775457,0.9352587807967856,121.0,50.0,236.0,91.0,327.0,71.0,813.0,797.0,73.0,31.0,42.0,0.4246575342465753,99.05117983056384,6119.875878258715,12.0,9.0,3.0,0.75,524.8190584637936,4142.898878269063,39.0,18.0,21.0,0.4615384615384615,502.6954363025149,20157.140893171243,159.0,95.0,64.0,0.5974842767295597,86.89163971696296,2075.9360868755853,59.0,29.0,30.0,0.4915254237288136,135.84574356358613,10139.831304844804,0.0,0.0,0.0,0.0,53673.0,53744.0,53794.0,53804.0,53815.0,53854.0,53875.0,54030.0,54062.0,54121.0,0.018674355451337613,-0.09261805578997423,0.024570392865061862,-0.03138842090516708,0.01290612295233369
61,61,54533.643896202586,5212.801123028739,19.77571965661584,54625.54796540086,-3570.052924319301,6.900687470568303,54663.64028321365,22874.278160111004,15.203440714411322,54826.26017299569,-7302.841684804649,76.4389620259217,54914.98570251854,9768.728923137398,28.49428483702585,0.9539227005240556,109.0,55.0,252.0,74.0,326.0,54.0,828.0,834.0,55.0,26.0,29.0,0.4727272727272727,92.10041091694453,4443.832233060803,15.0,9.0,6.0,0.6,413.6233760029018,960.2375678667336,39.0,20.0,19.0,0.5128205128205128,431.0815448800629,20280.26925421221,166.0,123.0,43.0,0.7409638554216867,87.93604098817741,7427.838256348305,46.0,18.0,28.0,0.391304347826087,137.4068651769458,7400.21950342381,0.0,0.0,0.0,0.0,54508.0,54562.0,54617.0,54632.0,54644.0,54683.0,54703.0,54869.0,54897.0,54943.0,0.017668122904223208,-0.11585917205464595,0.018845689549749314,-0.012041345654685337,0.01406599223482344
62,62,0.0,0.0,0.0,0.0,0.0,0.0,0.0,0.0,0.0,0.0,0.0,0.0,0.0,0.0,0.0,0.0,0.0,0.0,0.0,0.0,0.0,0.0,0.0,0.0,0.0,0.0,0.0,0.0,0.0,0.0,0.0,0.0,0.0,0.0,0.0,0.0,0.0,0.0,0.0,0.0,0.0,0.0,0.0,0.0,0.0,0.0,0.0,0.0,0.0,0.0,0.0,0.0,0.0,0.0,0.0,0.0,0.0,0.0,55324.0,55398.0,55455.0,55462.0,55486.0,55517.0,55535.0,55711.0,55915.0,,,,,,
63,63,56190.531672240555,6390.522839919445,53.50727341814519,56296.424660900135,-2096.447484398326,2.5479654008640567,56336.29140381254,21459.909828269792,15.04557002795162,56506.86313150503,-8486.290410883996,42.70217728902304,56577.386253067896,9086.124796523942,61.151169620600214,0.9051541853192432,121.0,61.0,232.0,109.0,341.0,60.0,1669.0,1675.0,63.0,19.0,44.0,0.3015873015873015,151.3593680601035,9113.6803242855,3.0,1.0,2.0,0.3333333333333333,307.30301014603384,2449.883200682875,42.0,22.0,20.0,0.5238095238095238,454.4503293223663,20717.02685094978,95.0,74.0,21.0,0.7789473684210526,108.7420890994757,2923.477429663029,82.0,22.0,60.0,0.2682926829268293,151.65449510713825,9866.280705261912,0.0,0.0,0.0,0.0,56174.0,56234.0,56295.0,56298.0,56315.0,56355.0,56438.0,56527.0,56558.0,56636.0,0.023684974117393412,-0.1465827369552397,0.021176711969390714,-0.012813854326739723,0.016690778357474945
64,64,57028.08345521722,4819.540663530464,36.43229963775214,57120.54796540086,-7965.394548868106,9.2070921543151,57151.528760679765,19398.68923357656,19.57289052565144,57208.67126990158,-5697.547131998366,28.027619409504627,57418.81680649706,8433.703169769211,26.267364772154952,0.8584065318084476,114.0,53.0,241.0,95.0,336.0,61.0,827.0,811.0,65.0,32.0,33.0,0.4923076923076923,80.04154190422402,4874.2379495450805,14.0,10.0,4.0,0.7142857142857143,515.6637638012584,3806.3918816393007,35.0,17.0,18.0,0.4857142857142857,588.9685705262551,19028.9777513763,161.0,16.0,145.0,0.0993788819875776,189.59231155855292,5761.923183313505,68.0,34.0,34.0,0.5,121.8236165817245,6587.314698113555,0.0,0.0,0.0,0.0,56998.0,57059.0,57112.0,57124.0,57135.0,57169.0,57193.0,57353.0,57386.0,57448.0,0.016607711707860368,-0.0647380064650451,0.03036125603305344,-0.03327612868593419,0.014444854665789502
65,65,57848.36991350215,4961.58235499887,15.830876659015429,57944.246609001435,-9672.960482626628,11.66102984738163,57977.51291569486,20362.7277937194,19.90655942964343,58034.36991350215,-9478.753496474328,38.21948101296085,58240.49321800287,8056.900418839968,22.073451928615437,0.8117742232156018,101.0,53.0,251.0,88.0,339.0,48.0,820.0,825.0,50.0,22.0,28.0,0.44,80.50102489839342,4124.866283607671,23.0,16.0,7.0,0.6956521739130435,520.5021945048909,200.5182168066508,36.0,19.0,17.0,0.5277777777777778,453.04055025654947,16113.016280944024,167.0,21.0,146.0,0.1257485029940119,131.56855357589706,7805.819040301649,60.0,29.0,31.0,0.4833333333333333,129.2029327417837,6946.403300524777,0.0,0.0,0.0,0.0,57827.0,57875.0,57928.0,57950.0,57960.0,57995.0,58013.0,58179.0,58212.0,58267.0,0.01622486923295497,-0.05381001973901914,0.02224851968979733,-0.013880364504133868,0.01603630751593506
66,66,58682.763131110725,5640.8252611777725,34.883762148657645,58776.12772484658,-3217.1062063001027,6.3871553667998135,58816.07166113188,23872.247166882695,15.316721142087411,58973.26017299569,-6743.1106899937395,76.4389620259217,59069.19705078375,9002.200456146802,35.6550940645933,0.953237952741008,111.0,50.0,249.0,81.0,330.0,61.0,834.0,841.0,65.0,30.0,35.0,0.4615384615384615,89.9512866484754,5083.700807186288,14.0,9.0,5.0,0.6428571428571429,395.9958317970984,803.0638493313695,39.0,20.0,19.0,0.5128205128205128,518.430899898782,22271.850127653623,163.0,119.0,44.0,0.7300613496932515,90.42382594841784,6734.494779792386,54.0,23.0,31.0,0.4259259259259259,133.53563079223812,6671.129764311883,0.0,0.0,0.0,0.0,58656.0,58717.0,58767.0,58781.0,58796.0,58835.0,58883.0,59016.0,59046.0,59097.0,0.01594647635471943,-0.12309069281630006,0.021716887240426478,-0.013409808930261205,0.014833665551299573
67,67,59529.21923530245,4373.712504449356,43.31541181468896,59622.95848338635,-1719.3815597338576,5.575337022142481,59670.08277500453,26961.088113280348,11.618239257701823,59824.60646337528,-7631.321791519964,74.35207531091663,59924.47060364404,8592.300720631143,40.997880419059754,0.9300597334047924,112.0,53.0,257.0,83.0,340.0,59.0,846.0,855.0,61.0,25.0,36.0,0.4098360655737705,87.27257593414737,5465.510689138799,15.0,6.0,9.0,0.4,179.81507796192838,683.1932077349651,26.0,13.0,13.0,0.5,1072.5108316496576,26368.042238913793,129.0,87.0,42.0,0.6744186046511628,78.681860604409,7646.467216769835,61.0,26.0,35.0,0.4262295081967213,115.40404588296369,5830.1015369996,0.0,0.0,0.0,0.0,59505.0,59564.0,59617.0,59632.0,59657.0,59683.0,59701.0,59874.0,59899.0,59957.0,0.01995388948070213,-0.10458125303481904,0.03977995350719417,-0.01031038432841889,0.013431099496537027
68,68,61164.483872411525,6075.160756149276,26.250652475893883,61262.54796540086,-14871.654993503436,10.843550698785783,61285.43056662107,20094.93061547898,22.437548723149753,61350.52059170187,-6016.089878747322,33.12355021123273,61551.760676962935,9150.782743455631,22.74516941944352,0.8378178950970593,110.0,56.0,138.0,190.0,328.0,54.0,1638.0,1616.0,55.0,24.0,31.0,0.4363636363636363,95.23262354410164,6477.218509947473,18.0,15.0,3.0,0.8333333333333334,619.5965509711892,4480.082058307654,33.0,10.0,23.0,0.303030303030303,748.6343421020779,24162.193584602035,163.0,20.0,143.0,0.1226993865030674,137.99026551336289,5265.822596508894,56.0,30.0,26.0,0.5357142857142857,154.2215689044216,8328.969024839032,0.0,0.0,0.0,0.0,61140.0,61194.0,61250.0,61266.0,61275.0,61308.0,61332.0,61388.0,61522.0,61578.0,0.01567573721365434,-0.04166291856836748,0.037254885643915096,-0.022936869012019384,0.01685337453943121
69,69,61986.36991350215,5364.676963038168,24.876592189845372,62083.12330450071,-7273.796515043328,8.351249122913657,62116.8375786757,20604.453515238467,19.231184014100688,62169.67126990158,-6419.595763896885,28.027619409504627,62377.49321800287,7869.003315397837,21.893396615261334,0.8411286122158119,106.0,55.0,250.0,85.0,335.0,51.0,820.0,827.0,54.0,23.0,31.0,0.4259259259259259,111.74772614944138,5526.986545124201,15.0,12.0,3.0,0.8,563.6353973292134,3142.4792089658467,41.0,21.0,20.0,0.5121951219512195,374.25560176838314,18022.82547096298,169.0,17.0,152.0,0.1005917159763313,196.71364012759528,5607.703402224257,60.0,28.0,32.0,0.4666666666666667,102.88115001292545,6946.885622687978,0.0,0.0,0.0,0.0,61965.0,62016.0,62071.0,62086.0,62097.0,62137.0,62154.0,62321.0,62349.0,62406.0,0.020830280540537056,-0.07748847471379339,0.01816382082114405,-0.03064268333434507,0.013074228830430228
70,70,62807.62641548006,3972.1961863503734,19.35699580822078,62903.7737105478,-3216.4362450302924,7.517822005151798,62947.43477900549,21882.76354304649,14.75438931019908,63082.057431528534,-7633.114533046162,83.74192569531512,63199.09593080172,7407.954239001474,26.915870309915334,0.9417898521703828,105.0,54.0,265.0,74.0,339.0,51.0,822.0,835.0,52.0,23.0,29.0,0.4423076923076923,87.38546948000973,3572.496676750457,23.0,14.0,9.0,0.6086956521739131,296.68438380297806,1606.9579791448064,36.0,19.0,17.0,0.5277777777777778,542.1319366244168,19160.503263782197,180.0,103.0,77.0,0.5722222222222222,80.27750746461237,7520.069138150746,49.0,17.0,32.0,0.3469387755102041,114.84585418374506,5147.122031654126,0.0,0.0,0.0,0.0,62786.0,62837.0,62891.0,62913.0,62928.0,62964.0,62980.0,63156.0,63182.0,63230.0,0.021999283363770335,-0.09224009468907844,0.024774381698087017,-0.010517005491934609,0.015503045844843834
71,71,63627.94525260201,4703.790888853855,31.16077087096662,63727.159305564775,-865.3718525214559,4.0868114924386605,63773.5503364167,27948.047128722268,11.004899117243909,63923.51371679167,-6432.629571819227,73.83879676868648,64024.79639012189,7560.668441010384,26.832267084682684,0.9496130466294488,113.0,52.0,263.0,68.0,331.0,61.0,820.0,824.0,61.0,20.0,41.0,0.3278688524590163,138.19647405481908,5522.35536246843,15.0,7.0,8.0,0.4666666666666667,145.90580558406108,484.7350894421524,25.0,13.0,12.0,0.52,1173.7815609939107,26771.03295845709,176.0,119.0,57.0,0.6761363636363636,82.0002742185185,6231.147315302773,49.0,20.0,29.0,0.4081632653061224,105.76084108475084,5035.292288149043,0.0,0.0,0.0,0.0,63608.0,63669.0,63721.0,63734.0,63761.0,63786.0,63804.0,63984.0,64005.0,64052.0,0.029379808184562515,-0.1686047508466235,0.04199869692460955,-0.012747551106899478,0.013988292425453495
72,72,64425.414717479944,6147.315311531505,30.637504645265125,64515.69630852234,-1483.9720679486336,4.095840919076388,64563.523358519815,23336.222438721587,13.299634845167256,64724.06103046341,-6763.804488656158,72.45058585899417,64817.36607924693,7540.788869863134,44.079329490049965,0.9047103778975762,113.0,54.0,254.0,92.0,346.0,59.0,795.0,792.0,61.0,29.0,32.0,0.4754098360655737,90.22992522734371,5872.713417671914,12.0,6.0,6.0,0.5,257.852699568328,220.08935609325113,29.0,14.0,15.0,0.4827586206896552,880.621647329153,23716.746717996495,105.0,69.0,36.0,0.6571428571428571,81.90910313259185,6671.492033465684,69.0,28.0,41.0,0.4057971014492754,84.91184749191702,4963.374974440958,0.0,0.0,0.0,0.0,64397.0,64456.0,64510.0,64522.0,64550.0,64579.0,64627.0,64764.0,64790.0,64856.0,0.014677939987572294,-0.17375845889388622,0.037736255284743316,-0.012109915842476645,0.011260340125854522
73,73,65179.383477496405,6250.7449605524525,63.69913502155213,65269.36803798148,-3451.5224736073797,5.095930801728113,65313.33934965083,19094.573838517637,15.45608363832308,65359.246609001435,-4085.109512732988,25.47965400864057,65568.08943499216,8300.055218727963,29.83631427270381,0.7934942204469686,120.0,51.0,233.0,99.0,332.0,69.0,773.0,750.0,71.0,33.0,38.0,0.4647887323943662,68.14718372337153,7973.730652492693,5.0,3.0,2.0,0.6,301.4219886606576,1366.6416690358417,38.0,22.0,16.0,0.5789473684210527,560.2342865685853,18404.936075508544,157.0,14.0,143.0,0.0891719745222929,168.67739782315826,3890.3671964763703,75.0,40.0,35.0,0.5333333333333333,94.47564259089602,7037.948466891847,0.0,0.0,0.0,0.0,65146.0,65215.0,65266.0,65271.0,65291.0,65329.0,65345.0,65499.0,65529.0,65598.0,0.010902249916360138,-0.08733015385689334,0.02933997329851263,-0.04129078970769404,0.011382531814694966
74,74,66681.49321800287,6507.846724713257,41.27446496522325,66775.84932180027,-5095.466929485024,5.095930801728113,66809.40553818256,18326.80336518713,17.599629824427815,66864.67126990156,-3921.2179273986817,28.027619409504627,67065.96337132026,9721.562387779,25.866474303130783,0.8374459471794206,117.0,54.0,105.0,222.0,327.0,63.0,1483.0,1490.0,66.0,29.0,37.0,0.4393939393939394,89.38677281615813,6846.557907159679,9.0,7.0,2.0,0.7777777777777778,460.04907725906,3547.8597489410167,40.0,20.0,20.0,0.5,406.660584124394,16608.851538589966,31.0,17.0,14.0,0.5483870967741935,165.37288521117688,3914.809176296365,65.0,32.0,33.0,0.4923076923076923,129.96848935893814,8684.979998580624,0.0,0.0,0.0,0.0,66653.0,66716.0,66770.0,66777.0,66790.0,66828.0,66849.0,66875.0,67035.0,67097.0,0.013735230191687807,-0.09028595094925974,0.022189389825443884,-0.04217385727420779,0.01336909481981228
75,75,67458.65746019685,5072.886130051672,56.055238819009254,67572.12330450071,-4681.461236598895,7.980661589287457,67607.6072474113,20360.909378696106,16.930488967985664,67660.09593080172,-4565.778104753227,30.57558481036868,67869.58205960842,8976.648045578693,26.813622828873445,0.7978763110545968,118.0,55.0,108.0,225.0,333.0,63.0,795.0,800.0,147.0,96.0,51.0,0.6530612244897959,136.06102095587573,6750.727344579201,12.0,8.0,4.0,0.6666666666666666,443.7170686899193,2345.7630212716613,39.0,21.0,18.0,0.5384615384615384,404.4093056773587,17598.047281377934,162.0,17.0,145.0,0.1049382716049382,153.96861245355956,4333.590588444402,67.0,35.0,32.0,0.5223880597014925,126.28286151773628,7394.284744408197,0.0,0.0,0.0,0.0,67446.0,67509.0,67564.0,67575.0,67587.0,67626.0,67643.0,67672.0,67837.0,67897.0,0.026821225130572727,-0.09478174575515272,0.019862045361318567,-0.033722316091811325,0.014067930576818695
76,76,68302.73489653225,4627.421172679512,18.43888692962635,68395.6399802899,-3725.545974870104,7.625268527081107,68441.17188791989,23311.527852695635,13.959036920702152,68581.55175954386,-7444.48685662025,88.1155531255429,68697.2243740115,7544.501613486017,28.506976361761712,0.947593097463551,102.0,56.0,270.0,69.0,339.0,46.0,829.0,838.0,49.0,22.0,27.0,0.4489795918367347,104.3288314775181,3886.31178417771,22.0,12.0,10.0,0.5454545454545454,274.12832358072245,2792.745228725664,32.0,16.0,16.0,0.5,714.7342968029167,21124.587679916614,178.0,108.0,70.0,0.6067415730337079,93.55145646055011,7981.179516853785,45.0,19.0,26.0,0.4222222222222222,112.92211477349774,4798.140105133576,0.0,0.0,0.0,0.0,68282.0,68328.0,68384.0,68406.0,68425.0,68456.0,68474.0,68654.0,68678.0,68723.0,0.02254578253941523,-0.07358071150639345,0.030660122378905686,-0.012566541960827892,0.01496747175077094
77,77,69155.08212109699,2408.7430740635164,17.8642451558722,69270.12355021122,5836.450174625089,198.74130126739644,69285.27760908082,26023.41131625124,11.596664372724575,69401.06831139224,-9308.446066083585,101.23449320868086,69541.01897515314,8215.580980006787,36.13007209142699,0.8800772804962858,-185.0,-260.0,555.0,109.0,664.0,75.0,867.0,842.0,201.0,135.0,66.0,0.6716417910447762,107.24646392733014,6062.468414462164,45.0,9.0,36.0,0.2,767.4288252242936,23621.16215659324,28.0,14.0,14.0,0.5,1045.5522545883969,27222.98549253535,133.0,53.0,80.0,0.3984962406015037,84.42053533485048,4743.060127839246,85.0,34.0,51.0,0.4,90.37233733044924,6113.4455219176325,0.0,0.0,0.0,0.0,69110.0,69185.0,68925.0,69315.0,69271.0,69299.0,69370.0,69480.0,69508.0,69589.0,0.04452382866488406,0.1314889705665294,0.04017737113256419,-0.009069240422678777,0.011000115214052041
78,78,69977.945252602,5826.29579861223,35.6715156120968,70074.69864360057,-5611.939580725449,7.985177514960923,70109.945252602,19031.572348513968,19.342779479514345,70166.09593080172,-3576.1666204611424,30.57558481036868,70368.98514443675,8966.624070348591,24.05564127989885,0.848840309495746,111.0,55.0,108.0,218.0,326.0,56.0,808.0,819.0,59.0,21.0,38.0,0.3559322033898305,119.62417613106412,7048.568170001758,11.0,6.0,5.0,0.5454545454545454,445.35047179076474,2047.1301311620764,43.0,20.0,23.0,0.4651162790697674,252.5487669744806,18007.725931413886,158.0,17.0,141.0,0.1075949367088607,133.8212646834145,3118.596891174802,56.0,29.0,27.0,0.5178571428571429,103.47980000691996,7845.569487227074,0.0,0.0,0.0,0.0,69958.0,70014.0,70069.0,70080.0,70090.0,70133.0,70149.0,70177.0,70340.0,70395.0,0.020531771860872135,-0.07935767400638957,0.013269989591490597,-0.03742031031712902,0.011540552965648869
79,79,70807.77513258862,2926.72901980694,12.15526736445701,70905.38985937813,-14178.760778574508,12.72823515874222,70932.43944052672,20503.81531504715,22.108348907119527,70993.36991350215,-9692.862639650712,38.21948101296085,71199.51690849448,7020.210552911722,17.938153122960625,0.7744928485377798,95.0,60.0,255.0,81.0,336.0,35.0,833.0,828.0,40.0,17.0,23.0,0.425,114.45994593116122,2636.43800211495,24.0,18.0,6.0,0.75,591.1877399457883,464.2106597057668,31.0,13.0,18.0,0.4193548387096774,690.8132801434939,20411.41305690221,172.0,22.0,150.0,0.127906976744186,144.11251276617088,7645.4361539632755,50.0,25.0,25.0,0.5,127.944551306955,5814.791468397029,0.0,0.0,0.0,0.0,70792.0,70827.0,70887.0,70911.0,70919.0,70950.0,70972.0,71142.0,71176.0,71223.0,0.03910848772009357,-0.041695303925229535,0.03369193828216577,-0.014867900033644145,0.018225172926457082
80,80,0.0,0.0,0.0,0.0,0.0,0.0,0.0,0.0,0.0,0.0,0.0,0.0,0.0,0.0,0.0,0.0,0.0,0.0,0.0,0.0,0.0,0.0,0.0,0.0,0.0,0.0,0.0,0.0,0.0,0.0,0.0,0.0,0.0,0.0,0.0,0.0,0.0,0.0,0.0,0.0,0.0,0.0,0.0,0.0,0.0,0.0,0.0,0.0,0.0,0.0,0.0,0.0,0.0,0.0,0.0,0.0,0.0,0.0,,71208.0,71705.0,71743.0,71752.0,71784.0,71801.0,71979.0,72011.0,72046.0,,,,,
81,81,72467.54527160026,4018.000883161848,42.02827394517627,72562.4855104935,-2010.5921529297864,4.955075852873386,72606.76154633235,26583.30815911086,13.635886114099716,72758.74406185014,-6989.8689871323395,71.69079570698395,72858.13366064733,9253.892299650455,26.82086102035408,0.9550955580704616,112.0,57.0,258.0,72.0,330.0,55.0,1657.0,1677.0,58.0,25.0,33.0,0.4310344827586206,95.54852487158485,4574.908946376826,13.0,6.0,7.0,0.4615384615384615,268.5070493945306,10.463003505271672,32.0,16.0,16.0,0.5,864.6574909392206,26159.090845509432,124.0,71.0,53.0,0.5725806451612904,69.46162167270465,7640.169716562867,48.0,20.0,28.0,0.4166666666666667,146.2702222415106,7256.669707181577,0.0,0.0,0.0,0.0,72444.0,72499.0,72556.0,72569.0,72591.0,72623.0,72669.0,72814.0,72838.0,72886.0,0.023780115447957727,-0.13354625352698637,0.03252633140179274,-0.009937471188741399,0.01580634586022096
82,82,73286.64389620257,2990.428244110142,18.162524961781862,73412.69888931107,3736.495225284705,196.1933358665324,73430.66445184551,30831.074732642668,10.75034565270998,73548.84053570239,-7944.916489623885,93.03072243639625,73679.86996070422,8018.984102222178,27.60336665390233,0.9159814950807555,-183.0,-251.0,552.0,78.0,630.0,68.0,817.0,821.0,69.0,26.0,43.0,0.3768115942028985,90.3250003908553,5814.412801448664,48.0,9.0,39.0,0.1875,904.6215424261438,22226.496741220413,26.0,14.0,12.0,0.5384615384615384,1307.1287485924552,30204.132504005505,172.0,89.0,83.0,0.5174418604651163,89.22472367177741,4476.2002725107595,55.0,25.0,30.0,0.4545454545454545,98.84584674447773,6394.591364104017,0.0,0.0,0.0,0.0,73261.0,73329.0,73078.0,73457.0,73417.0,73443.0,73461.0,73630.0,73656.0,73708.0,0.030204704148563577,0.24210429503685918,0.042396470441833846,-0.011230416806558698,0.012326479948636648
83,83,74105.09593080172,4095.731856610597,17.12681613204235,74200.91358679082,-3955.965923593582,7.523999911157305,74246.35686257276,19063.27898887238,14.800186147468336,74293.52059170186,-6071.011778346073,33.12355021123273,74495.61214720357,6554.943113593867,19.61035581988695,0.8317956035085373,102.0,56.0,248.0,81.0,329.0,46.0,821.0,818.0,49.0,18.0,31.0,0.3673469387755102,110.494141279644,4017.9707848127814,21.0,11.0,10.0,0.5238095238095238,289.41404565733075,2155.475381665683,33.0,18.0,15.0,0.5454545454545454,603.9897592312448,16157.939048515354,166.0,19.0,147.0,0.1144578313253012,120.63365299275466,5064.160877776108,50.0,26.0,24.0,0.52,110.86389477628305,5641.199887158984,0.0,0.0,0.0,0.0,74088.0,74134.0,74190.0,74211.0,74229.0,74260.0,74275.0,74438.0,74470.0,74519.0,0.026977874809188042,-0.07315888236833656,0.03168341393858873,-0.01987043632875621,0.01691302164718557
84,84,74907.36991350215,5719.888890323426,33.6569297537863,75008.972626301,-17749.002367772035,12.47820848649408,75029.57448580892,20862.511709580103,25.20949245370134,75098.945252602,-5707.800819872316,35.6715156120968,75301.27287722623,8898.925638408975,27.001891452248813,0.8411992584415475,112.0,50.0,245.0,87.0,332.0,62.0,801.0,787.0,64.0,22.0,42.0,0.34375,137.1051248190352,6340.687203277928,16.0,12.0,4.0,0.75,558.0199752848738,2986.020530056231,38.0,9.0,29.0,0.2368421052631578,729.5199248646398,23695.43135715086,166.0,21.0,145.0,0.1265060240963855,132.6124960910612,4112.695254935535,72.0,38.0,34.0,0.5277777777777778,122.39407126505884,7373.926250283007,0.0,0.0,0.0,0.0,74886.0,74948.0,74998.0,75013.0,75022.0,75057.0,75079.0,75243.0,75264.0,75330.0,0.023969893025541398,-0.03143951213269909,0.034967981565213115,-0.023233553565737027,0.013753803126164957
85,85,75728.21923530243,4654.207578645532,32.636682961490905,75823.12330450071,-4937.525472539117,8.100641414905885,75854.93456841336,21302.581428825742,15.78518994797906,76012.47138158594,-6181.649633163023,73.79595108454028,76111.81622856708,10654.061889451768,30.385614064757572,0.9680369182032652,109.0,53.0,246.0,82.0,328.0,56.0,820.0,817.0,60.0,25.0,35.0,0.4166666666666667,79.75150268021716,4823.472144943439,13.0,10.0,3.0,0.7692307692307693,486.0043592533011,3254.143449073499,37.0,18.0,19.0,0.4864864864864865,539.7247616009244,20254.930136437524,120.0,74.0,46.0,0.6166666666666667,83.5608497079948,6658.118083952699,54.0,24.0,30.0,0.4444444444444444,133.90781461912488,9168.192823306286,0.0,0.0,0.0,0.0,75704.0,75760.0,75813.0,75826.0,75838.0,75874.0,75927.0,76059.0,76088.0,76141.0,0.017135355768430605,-0.09843075482978196,0.025336120103763193,-0.013517564835721438,0.01256871003834721
86,86,76565.79457440229,5015.504018706086,23.24873241836237,76661.972626301,-7597.744016214792,8.881975798929979,76694.9959412083,21315.1589947296,18.216544799593393,76748.09593080172,-6778.402848129379,30.57558481036855,76953.42356262621,8801.380828270809,21.65000330081623,0.8448154180081674,106.0,54.0,243.0,87.0,330.0,52.0,838.0,840.0,54.0,24.0,30.0,0.4444444444444444,85.42946366045022,4926.168334435824,18.0,14.0,4.0,0.7777777777777778,585.9667285306866,2781.772119708947,39.0,20.0,19.0,0.5128205128205128,440.9929598965219,18463.27056289849,161.0,17.0,144.0,0.1055900621118012,163.4638455377089,6536.675502346974,53.0,26.0,27.0,0.490566037735849,152.24540767111756,8329.486410670397,0.0,0.0,0.0,0.0,76543.0,76595.0,76649.0,76666.0,76676.0,76713.0,76731.0,76892.0,76927.0,76979.0,0.01703307650473971,-0.07712377875329053,0.020689170557234036,-0.024115392548971864,0.017297900254706844
87,87,77425.21923530243,4876.4046774038925,37.22382160512129,77522.65543249251,-1576.1356903353492,4.296371748771148,77563.67201158968,25927.180741112297,14.428037089929807,77741.4110969059,-5571.738456900595,58.15493392118962,77815.4111180022,9906.521997979838,32.94623072045056,0.9502762071737368,115.0,57.0,249.0,86.0,335.0,58.0,859.0,873.0,59.0,25.0,34.0,0.423728813559322,108.0294625241665,5724.263238918685,12.0,8.0,4.0,0.6666666666666666,354.2884993412323,2330.520694024311,35.0,18.0,17.0,0.5142857142857142,759.6645104307648,25929.961969054348,95.0,72.0,23.0,0.7578947368421053,92.27703367646112,4497.613925098939,60.0,23.0,37.0,0.3833333333333333,126.03484004769736,8268.884215258231,0.0,0.0,0.0,0.0,77401.0,77459.0,77516.0,77526.0,77546.0,77581.0,77668.0,77765.0,77792.0,77851.0,0.022153506460353776,-0.22478299394759058,0.029299927285428976,-0.016561623340768276,0.012722410556742184
88,88,78297.01144610628,4410.943160344359,40.76744641374112,78396.76543471772,-1681.775286029798,5.136891729091751,78444.41881458832,29150.562451568538,11.726312418718395,78567.60295850935,-5584.614438618469,77.84317875766492,78699.01470944365,8416.69639764986,29.108559580632075,0.9345692366464036,109.0,57.0,259.0,79.0,338.0,52.0,879.0,880.0,52.0,16.0,36.0,0.3076923076923077,148.38007062359625,6712.087101361047,18.0,8.0,10.0,0.4444444444444444,192.58697751531275,1151.9493062715155,26.0,13.0,13.0,0.5,1171.541914646188,28447.31452337817,176.0,94.0,82.0,0.5340909090909091,87.24919992304034,4764.635863190636,59.0,30.0,29.0,0.5084745762711864,107.55464694352072,6389.0535270548135,0.0,0.0,0.0,0.0,78281.0,78333.0,78390.0,78406.0,78431.0,78457.0,78475.0,78649.0,78669.0,78728.0,0.033639080176225244,-0.11451409657110424,0.04018934168397665,-0.015623137618901438,0.012778724794392314
89,89,80018.36991350215,5178.735933942434,27.490745273345965,80116.12330450071,-16936.11300379753,11.05981989009757,80138.05474741345,20846.759666882615,25.04139169762418,80205.67126990156,-5424.7917825980685,28.027619409504627,80411.21967716707,8955.50088415755,25.33755057487345,0.8674972891583169,112.0,54.0,237.0,91.0,328.0,58.0,1715.0,1699.0,59.0,21.0,38.0,0.3559322033898305,118.04426699409838,5511.733296785769,12.0,8.0,4.0,0.6666666666666666,561.4571608088852,3113.046120048317,33.0,8.0,25.0,0.2424242424242424,884.645361233749,27408.76234705455,157.0,16.0,141.0,0.1019108280254777,161.1284738236824,4877.155184138174,61.0,31.0,30.0,0.5081967213114754,129.83186184134647,7738.162846530666,0.0,0.0,0.0,0.0,79997.0,80055.0,80109.0,80120.0,80130.0,80161.0,80190.0,80346.0,80381.0,80437.0,0.022794030917933757,-0.03315147700555561,0.04243562910350552,-0.02970224116998532,0.014497442803117966
90,90,80873.945252602,4554.333230583706,29.241235257642355,80975.27089935883,-4743.969175007299,7.277650616308906,81009.38487713801,22641.766511339534,15.667945313471735,81158.28754669469,-6046.766584065181,86.2606394510466,81269.97065464218,9450.972996327477,33.57490020334026,0.9614714875292266,109.0,54.0,248.0,93.0,341.0,55.0,856.0,865.0,57.0,21.0,36.0,0.3684210526315789,109.055855334141,5038.844112211966,17.0,13.0,4.0,0.7647058823529411,530.993022323515,2017.6426175917004,38.0,19.0,19.0,0.5,458.74328612441303,20751.412408141965,167.0,112.0,55.0,0.6706586826347305,80.22354490676285,6615.04565739431,60.0,26.0,34.0,0.4333333333333333,99.17568948596406,7577.57082638212,0.0,0.0,0.0,0.0,80854.0,80909.0,80963.0,80979.0,80990.0,81028.0,81047.0,81211.0,81245.0,81304.0,0.023945515141886944,-0.11193011647734791,0.020260931756127046,-0.013267180697560409,0.010493701497666158
91,91,81748.20542559771,4133.504507296126,27.410350521298252,81831.05893855632,-2230.769974803803,5.88640794307423,81875.67420901351,25997.384139723476,13.691324454286256,82008.70357792525,-6846.985690333454,83.34271133585422,82128.34081107016,7968.078439641214,28.237355383925717,0.9341791605100728,109.0,51.0,256.0,79.0,335.0,58.0,887.0,869.0,61.0,37.0,24.0,0.6065573770491803,83.66544984460747,3603.130559867825,18.0,9.0,9.0,0.5,251.66534008503987,1097.116519993029,31.0,16.0,15.0,0.5161290322580645,826.559056379575,23626.35129155504,171.0,102.0,69.0,0.5964912280701754,72.34773886124142,7090.432745818021,50.0,20.0,30.0,0.4,108.9886170992318,6295.154999963062,0.0,0.0,0.0,0.0,81713.0,81771.0,81822.0,81840.0,81860.0,81891.0,81907.0,82078.0,82108.0,82157.0,0.02024080285794488,-0.11281545965185134,0.03179393172548501,-0.010566363379929604,0.01367815564628645
92,92,82610.19186160344,5963.52188664283,57.650849511477446,82720.88753638208,5099.570094332251,8.136495979694926,82746.23365942115,27526.016824673592,11.302306645917088,82899.66341189636,-4721.605748040518,70.77321110416212,82998.58518546094,9728.758252258443,35.841708960329775,0.9450235248259566,-110.0,-223.0,474.0,90.0,564.0,113.0,845.0,868.0,122.0,41.0,81.0,0.3360655737704918,87.12589820964325,6417.847148859153,58.0,10.0,48.0,0.1724137931034483,581.4075876849645,16582.04609314653,30.0,16.0,14.0,0.5333333333333333,991.4355022745495,26168.500239945748,129.0,91.0,38.0,0.7054263565891473,80.43130293390044,4994.600984921535,62.0,30.0,32.0,0.4838709677419355,96.45049845612638,8361.216696463827,0.0,0.0,0.0,0.0,82576.0,82689.0,82466.0,82773.0,82730.0,82760.0,82803.0,82940.0,82969.0,83030.0,0.014609806061882478,0.1140110983730081,0.0360181245470232,-0.017034735051159173,0.009913957768838204
93,93,83447.79457440229,4858.225079820703,40.767446413824906,83548.12330450071,-9173.689085422053,8.922478270240765,83578.61810196904,18434.66393026973,20.58875497171045,83637.52059170186,-5018.431512503212,33.12355021123273,83845.80400639938,8688.473785920518,26.190255378240774,0.8109070349634131,113.0,52.0,245.0,93.0,338.0,61.0,841.0,829.0,65.0,25.0,40.0,0.3846153846153846,126.80872251596348,5312.322089706066,15.0,11.0,4.0,0.7333333333333333,556.2753531849414,2946.1913480632006,40.0,18.0,22.0,0.45,414.1430485486157,17295.189786525003,167.0,20.0,147.0,0.1197604790419161,121.4520166884526,3810.760958206602,67.0,36.0,31.0,0.5373134328358209,100.08435287688832,7691.845792812326,0.0,0.0,0.0,0.0,83425.0,83486.0,83538.0,83551.0,83561.0,83600.0,83619.0,83783.0,83811.0,83876.0,0.02610186239470063,-0.060638130200959275,0.02246545150566008,-0.024201190428893966,0.01151920985698004
94,94,84289.31606125287,5461.873850213821,34.428711795547024,84388.972626301,-5572.768304452365,8.065490558552787,84421.15883770837,20650.62338611248,16.633182696714663,84565.72010777952,-5350.46027850548,78.80032264437273,84679.71489357525,9799.635931433357,32.14691911079399,0.9466962448518108,112.0,57.0,245.0,89.0,334.0,55.0,844.0,844.0,56.0,22.0,34.0,0.3928571428571428,116.3329722405321,6564.051261913178,15.0,11.0,4.0,0.7333333333333333,518.647967660476,2894.050670026961,38.0,18.0,20.0,0.4736842105263157,474.1930698238975,19317.59357403292,161.0,103.0,58.0,0.639751552795031,78.60485437440917,5513.086204310076,60.0,27.0,33.0,0.45,112.52981036591557,8094.502798514382,0.0,0.0,0.0,0.0,84267.0,84322.0,84379.0,84393.0,84403.0,84441.0,84464.0,84624.0,84653.0,84713.0,0.02129909540770113,-0.09306828120704427,0.022962651584784204,-0.014691232208598979,0.011483060304818512
95,95,85148.49321800287,5097.517615330095,35.142887296865254,85243.972626301,-3636.30285725938,6.455051798324436,85281.61135492721,23301.006295106992,15.293233199473088,85426.05626241551,-7927.493422916917,82.4384582916223,85541.7724829128,8852.524731251233,30.89692881980098,0.942761542968212,114.0,52.0,257.0,82.0,339.0,62.0,855.0,865.0,64.0,29.0,35.0,0.453125,96.49808401114382,4982.129745880885,16.0,10.0,6.0,0.625,438.2165684410333,933.4990416907932,39.0,21.0,18.0,0.5384615384615384,470.4964794221647,19786.17654521341,176.0,110.0,66.0,0.625,84.93694596071867,7601.358555091746,56.0,24.0,32.0,0.4285714285714285,91.63471753158962,5915.90386212598,0.0,0.0,0.0,0.0,85120.0,85182.0,85234.0,85249.0,85261.0,85300.0,85317.0,85491.0,85518.0,85573.0,0.01893040716935217,-0.12051157058224511,0.02019210987986235,-0.010714224715113818,0.010351252361724584
96,96,86023.56083936697,4859.525719688697,27.20645506302865,86116.70060552165,-1300.2051521018684,4.456804972354659,86162.79136119656,27196.50141084447,12.112738013989697,86313.3090343218,-6872.697036149107,74.97835096441251,86417.78453030839,8330.574140343531,32.31551348978844,0.9510366666199512,109.0,56.0,260.0,80.0,340.0,53.0,878.0,880.0,54.0,24.0,30.0,0.4444444444444444,103.03888092442924,5368.43731684871,15.0,8.0,7.0,0.5333333333333333,194.26758328004072,89.67871879532174,28.0,14.0,14.0,0.5,1049.4236080809303,26432.136704250253,170.0,117.0,53.0,0.6882352941176471,81.77846679235518,7307.782968533283,55.0,24.0,31.0,0.4363636363636363,100.64709939228273,6221.361156417464,0.0,0.0,0.0,0.0,86000.0,86053.0,86109.0,86124.0,86149.0,86177.0,86195.0,86369.0,86394.0,86449.0,0.021203485045250454,-0.1494130237570542,0.03858671349773239,-0.011899035613270258,0.012081652200280676
97,97,86893.34253980315,4298.680996589413,22.403536311848175,87093.137851337,2462.614289671366,654.8271080220626,87028.54221408727,27170.749745777823,11.588852139492143,87157.05354257359,-8362.230816642807,88.39885396418713,87277.82758692367,7786.324245471328,26.210157279887323,0.9677503504012076,-194.0,-262.0,560.0,87.0,647.0,68.0,866.0,864.0,75.0,32.0,43.0,0.4266666666666667,70.6631107208698,6017.940763344148,173.0,35.0,138.0,0.2023121387283237,74.74177119696466,4266.91488959844,27.0,14.0,13.0,0.5185185185185185,1103.1791400799557,26268.733315787,169.0,98.0,71.0,0.5798816568047337,91.00978578114125,5751.657244155256,60.0,22.0,38.0,0.3666666666666666,112.1038882827816,7138.031778952303,0.0,0.0,0.0,0.0,86862.0,86930.0,86668.0,87241.0,87015.0,87042.0,87059.0,87228.0,87256.0,87315.0,0.01643832393632701,0.03035057967073638,0.040601718774852115,-0.01088343383203563,0.014397536597321042
98,98,88608.64389620257,4716.939653019704,30.112198977320787,88703.972626301,-4544.9151887401795,7.400277719419083,88739.03587774964,22430.92390439599,16.43663245067556,88890.71220759483,-6630.852358522504,85.64351856747356,88998.26062118774,10498.012022122472,33.32161694977816,0.9572688053573368,110.0,54.0,249.0,87.0,336.0,56.0,1717.0,1710.0,57.0,26.0,31.0,0.4561403508771929,90.97978082988728,4690.750730618182,16.0,12.0,4.0,0.75,496.00526970466984,2559.359826071207,40.0,20.0,20.0,0.5,399.5021836314202,19846.546562364216,167.0,113.0,54.0,0.6766467065868264,97.2295303647042,6584.685098843894,56.0,25.0,31.0,0.4464285714285714,114.78080594650103,7956.497428481347,0.0,0.0,0.0,0.0,88583.0,88639.0,88693.0,88708.0,88719.0,88759.0,88779.0,88942.0,88973.0,89029.0,0.019287883145090393,-0.10913410902221021,0.01781033118984128,-0.014663202422194939,0.010933575395477098
99,99,89474.04958835625,4827.062112199006,22.152053613863632,89570.4879706996,-3198.431275098119,6.564752814015568,89614.74672522189,26029.771486806847,14.039254179458974,89662.52059170186,-7595.478524010417,33.12355021123273,89869.21923530243,5941.225750800197,19.252828580738004,0.8189973027744643,111.0,57.0,253.0,82.0,335.0,54.0,868.0,877.0,55.0,25.0,30.0,0.4545454545454545,79.66158583812806,4609.9009621668565,18.0,9.0,9.0,0.5,296.4483162398221,1437.5198414979743,29.0,16.0,13.0,0.5517241379310345,864.3415881943104,21973.601795870494,171.0,19.0,152.0,0.1111111111111111,128.85846789531465,6862.51847168082,53.0,25.0,28.0,0.4716981132075472,105.19829215534467,5414.528277508601,0.0,0.0,0.0,0.0,89450.0,89504.0,89561.0,89578.0,89599.0,89628.0,89644.0,89814.0,89845.0,89896.0,0.016503120114573708,-0.09268553573367865,0.03320588460149951,-0.01696515466247113,0.01770649636418478
100,100,90337.945252602,4337.872667878613,18.469249414301434,90434.6341561818,-2043.9294089594391,5.740150337734883,90481.60387427472,28626.036967390773,11.293326521838656,90614.57558481036,-6957.938943892573,87.65338613157269,90734.422190419,7140.954892034166,28.388873944012257,0.9635497095020468,106.0,56.0,265.0,72.0,337.0,50.0,863.0,866.0,50.0,20.0,30.0,0.4,98.9511590752862,4500.522251895095,21.0,11.0,10.0,0.5238095238095238,194.19477096835988,2150.458237594587,25.0,13.0,12.0,0.52,1182.603849784024,26058.617658185223,176.0,103.0,73.0,0.5852272727272727,78.80082008193513,7013.779859431128,47.0,20.0,27.0,0.425531914893617,119.32323137234984,4828.092088108105,0.0,0.0,0.0,0.0,90318.0,90368.0,90424.0,90445.0,90469.0,90494.0,90512.0,90689.0,90714.0,90761.0,0.022810987470426862,-0.09501050775879001,0.041312175036005934,-0.01132531065842474,0.016709702438459113
101,101,91194.2696933815,4713.352647630841,28.352620097755263,91295.90895151072,-5758.847536169038,9.07784911942922,91331.4140696818,18687.251051711715,19.037433483580052,91383.09593080172,-6921.57658577395,30.57558481036868,91591.39779720656,7788.638211836399,23.23354925969847,0.7978938301104209,111.0,53.0,248.0,87.0,335.0,58.0,856.0,848.0,59.0,23.0,36.0,0.3898305084745763,109.82468124476313,5099.538266761857,19.0,15.0,4.0,0.7894736842105263,454.1338125829151,2784.6502812110225,41.0,22.0,19.0,0.5365853658536586,277.86564197281734,15541.337918620626,167.0,18.0,149.0,0.1077844311377245,164.78924360830624,5855.599721267404,59.0,31.0,28.0,0.5254237288135594,113.36041980664338,6731.79986633983,0.0,0.0,0.0,0.0,91171.0,91229.0,91282.0,91299.0,91309.0,91350.0,91366.0,91530.0,91561.0,91617.0,0.023300756267402637,-0.0788584538365846,0.014869262536469504,-0.023808050314288332,0.014554587942519844
102,102,92041.09593080172,3514.2395214551652,15.559359121370331,92139.82194810128,-7851.4454681067455,9.96177759868546,92171.2222150412,21762.885316481308,17.476626959370215,92306.16342616524,-7325.901956527038,111.7226622776987,92429.1849338723,9412.3671026459,25.154697354472336,0.9725935801668372,96.0,52.0,265.0,69.0,334.0,44.0,848.0,840.0,46.0,18.0,28.0,0.391304347826087,122.55243302544302,2639.061011973634,27.0,21.0,6.0,0.7777777777777778,599.8529741804443,582.1706480805797,36.0,17.0,19.0,0.4722222222222222,461.7526208973273,18377.388984938465,177.0,97.0,80.0,0.5480225988700564,88.24484827051974,7212.544739246594,44.0,19.0,25.0,0.4318181818181818,118.27272719839972,5730.791422146884,0.0,0.0,0.0,0.0,92024.0,92068.0,92120.0,92145.0,92154.0,92190.0,92209.0,92385.0,92410.0,92454.0,0.03487310192638688,-0.07640032356043219,0.021217435748174265,-0.01204559503992511,0.012565673003250396
103,103,92888.945252602,3508.1051402472963,17.363486310182743,92981.9517540777,-4556.023112786444,7.771212175379208,93024.2775020778,24238.42338681124,14.559267470444434,93154.96570947827,-8677.023632595336,90.56772585435614,93279.24025150549,8056.388980696697,25.852389019211813,0.9657916967830096,101.0,54.0,267.0,69.0,336.0,47.0,847.0,857.0,51.0,21.0,30.0,0.4117647058823529,99.99313592950178,2836.223770162059,22.0,12.0,10.0,0.5454545454545454,368.1213706764029,3264.338559416158,34.0,18.0,16.0,0.5294117647058824,621.7138561063693,20308.0754424095,183.0,100.0,83.0,0.546448087431694,79.92892819613935,8261.705727099097,46.0,19.0,27.0,0.4130434782608695,111.05948851255368,4851.91692346241,0.0,0.0,0.0,0.0,92869.0,92916.0,92970.0,92992.0,93006.0,93040.0,93056.0,93237.0,93260.0,93306.0,0.028503460395845767,-0.0807988373990626,0.02564992970807912,-0.00921156050513513,0.013785268906287285
104,104,93740.21923530244,4695.843759527163,22.205179372714017,93832.57949475326,-3010.0542749959227,6.617831381881968,93879.53581989376,28304.099734472864,11.059195350529851,94029.09617651222,-7736.934225677865,80.83359504942624,94135.96655418376,8530.919849576687,31.685462504986667,0.959449183704181,108.0,55.0,267.0,83.0,350.0,53.0,850.0,854.0,56.0,25.0,31.0,0.4464285714285714,88.90129250609037,3724.5303523975545,20.0,10.0,10.0,0.5,220.64121654633084,2418.9325476130707,25.0,13.0,12.0,0.52,1188.375409815893,26346.645526292617,175.0,118.0,57.0,0.6742857142857143,100.3803632257824,8631.746202004513,62.0,24.0,38.0,0.3870967741935484,68.94964270077625,4841.640757613324,0.0,0.0,0.0,0.0,93716.0,93769.0,93824.0,93843.0,93867.0,93892.0,93908.0,94091.0,94112.0,94174.0,0.018931910229279453,-0.07330140801086708,0.0419859815703135,-0.012974178181925498,0.008082322178211252
105,105,94582.52059170186,3888.153957171337,13.898764180599652,94678.59425128558,-7376.986353641101,11.18762760188419,94715.34197481358,18666.045581879192,18.318642833804702,94768.945252602,-7119.038482286414,35.6715156120968,94972.20686272164,7252.209098559887,18.98906351789471,0.8059853385272735,99.0,55.0,249.0,83.0,332.0,44.0,844.0,837.0,45.0,20.0,25.0,0.4444444444444444,89.49223588797959,3423.0280509539452,24.0,17.0,7.0,0.7083333333333334,489.4628208463265,339.90191588175026,40.0,21.0,19.0,0.525,273.8344627939987,14721.886584422617,167.0,21.0,146.0,0.1257485029940119,144.62336338243588,5912.863212473696,49.0,25.0,24.0,0.5102040816326531,138.24186098364254,6643.613051184112,0.0,0.0,0.0,0.0,94564.0,94608.0,94663.0,94686.0,94694.0,94734.0,94749.0,94912.0,94947.0,94995.0,0.023016638968968686,-0.0663499696735564,0.014670191476433251,-0.020315013571325344,0.0190620346303989
106,106,95415.49321800108,4677.372978059225,23.16806713053016,95508.39728720114,-8640.32552280515,9.506284804837303,95540.64269440011,20388.922071723297,18.692111292480096,95596.09593080172,-4941.792538537749,30.57558481036868,95803.89300811666,8905.890341269633,24.72419091020731,0.8407156455856549,107.0,51.0,248.0,90.0,338.0,56.0,830.0,820.0,58.0,29.0,29.0,0.5,83.68607186516773,3981.293134247507,20.0,15.0,5.0,0.75,544.5035489272244,1971.4329467107973,39.0,19.0,20.0,0.4871794871794871,431.5561784820467,18824.453967176563,164.0,17.0,147.0,0.1036585365853658,138.2220371099135,4597.374893700978,64.0,33.0,31.0,0.515625,105.95323814817137,7563.330540713629,0.0,0.0,0.0,0.0,95387.0,95443.0,95494.0,95513.0,95522.0,95561.0,95579.0,95742.0,95773.0,95832.0,0.017891682416118004,-0.06301886977406924,0.021166208638393753,-0.027970020196520163,0.011896984365188868
107,107,96249.9807649506,4842.6095517013455,21.590402292058208,96346.4166524992,-4989.551928771233,8.09227882192374,96387.17564390737,22461.26061532775,15.090944555904937,96534.98866172708,-6211.324311200308,87.04286757928527,96642.59131002636,9155.674608729016,30.036384402683865,0.962607356555304,108.0,56.0,257.0,84.0,341.0,52.0,837.0,852.0,55.0,25.0,30.0,0.4545454545454545,98.228868755638,4291.154189472956,21.0,12.0,9.0,0.5714285714285714,395.6683553636868,2103.1493488474835,38.0,20.0,18.0,0.5263157894736842,489.02074775121383,19948.472141706607,174.0,115.0,59.0,0.6609195402298851,105.59735529821864,7061.770449991294,57.0,25.0,32.0,0.4385964912280701,98.40105932496876,6197.291470915742,0.0,0.0,0.0,0.0,96226.0,96278.0,96334.0,96354.0,96368.0,96405.0,96492.0,96591.0,96618.0,96675.0,0.020284284270064148,-0.07929937617888011,0.021771740959966514,-0.017000779545161517,0.010747548764036812
108,108,97091.94381588136,5519.168263023492,48.41134261641708,97193.42466090011,-913.4724166150022,2.5479654008640567,97241.28809018224,28462.41382313395,12.188154388612393,97398.9483951569,-5843.226621686792,74.81607587058411,97500.68840613111,9200.543692259507,39.57073981419626,0.9236784836948748,121.0,56.0,253.0,93.0,346.0,65.0,846.0,853.0,65.0,21.0,44.0,0.3230769230769231,138.95452211656536,7445.077749972761,9.0,1.0,8.0,0.1111111111111111,160.6140665592174,424.5619792410355,27.0,13.0,14.0,0.4814814814814814,1085.877943687782,28851.53621578435,111.0,66.0,45.0,0.5945945945945946,77.02560646853448,5896.3944444538465,74.0,31.0,43.0,0.4189189189189189,107.54349846955596,6751.44596337953,0.0,0.0,0.0,0.0,97071.0,97136.0,97192.0,97201.0,97228.0,97255.0,97274.0,97445.0,97471.0,97538.0,0.025176714224770486,-0.1758280421366142,0.03815129491249234,-0.013182033053905263,0.011688819929199748
109,109,97947.00417216567,4924.180097764881,25.746548587749977,98036.972626301,-3777.484890469848,6.524199678606581,98074.63137674997,19617.930115106916,16.3796782089147,98216.04739044105,-7047.255196417762,84.07749730669991,98327.51099818456,9348.961676892175,29.082712481586956,0.954405819482414,109.0,53.0,248.0,81.0,329.0,56.0,852.0,836.0,56.0,29.0,27.0,0.5178571428571429,78.93645956887119,4807.306223315671,17.0,11.0,6.0,0.6470588235294118,423.4537833896251,1026.5918054611814,41.0,22.0,19.0,0.5365853658536586,327.56830467440193,16088.786290848637,165.0,104.0,61.0,0.6303030303030303,82.34986200611978,7851.993045126674,50.0,22.0,28.0,0.44,108.96973635784484,7000.038030215033,0.0,0.0,0.0,0.0,97918.0,97974.0,98027.0,98042.0,98053.0,98094.0,98113.0,98275.0,98306.0,98356.0,0.016030376225414863,-0.11209939832134058,0.016697393800080663,-0.011685381004505073,0.011655811642397176
110,110,98777.36991350216,4680.645696114406,17.977839477966647,98874.39728720114,-15422.025792317829,10.944735715834824,98897.86370627343,19675.65377144831,21.993681238321543,98967.21923530244,-8475.72164396733,43.31541181468896,99169.03107980308,7369.839662279394,22.010820933111383,0.8040305204850525,104.0,55.0,250.0,84.0,334.0,49.0,829.0,822.0,49.0,21.0,28.0,0.4285714285714285,92.05373641442556,4496.999451934329,20.0,15.0,5.0,0.75,612.0785285065925,1274.6350207693897,27.0,10.0,17.0,0.3703703703703703,820.6818838247765,21790.967157447525,170.0,25.0,145.0,0.1470588235294117,113.1205602372138,6031.503900534095,55.0,30.0,25.0,0.5454545454545454,129.06450675557014,6490.187848224934,0.0,0.0,0.0,0.0,98756.0,98805.0,98860.0,98879.0,98888.0,98915.0,98943.0,99110.0,99139.0,99194.0,0.019666888372013098,-0.03968859453026509,0.04171052679406682,-0.013346422285791837,0.017512525735960474
111,111,99617.36991350216,4589.846467367117,32.74031628247236,99717.39728720114,-7941.016270277531,9.574786182057393,99750.10114516076,20827.55509812378,18.956489331152618,99805.09593080172,-7065.112403931192,30.57558481036868,100012.37430058492,8111.09840878756,21.51712344929637,0.7974942441580376,110.0,53.0,245.0,85.0,330.0,57.0,840.0,846.0,57.0,21.0,36.0,0.3684210526315789,106.33688312395,5415.573736108805,17.0,12.0,5.0,0.7058823529411765,507.2228806619677,2169.8053646031576,36.0,18.0,18.0,0.5,546.4385606301191,19206.92492026146,164.0,17.0,147.0,0.1036585365853658,159.0194964884716,6504.876117839203,52.0,26.0,26.0,0.5,162.0149919063443,7252.465448671786,0.0,0.0,0.0,0.0,99596.0,99653.0,99706.0,99722.0,99732.0,99768.0,99788.0,99951.0,99987.0,100036.0,0.02316785188349628,-0.06387379944812036,0.026236327694523505,-0.022507709346561773,0.01997448233778268
112,112,100493.47640060332,3569.5217524877207,27.145018204130572,100593.52763328535,-4073.223812929298,6.963341580274003,100630.55933610207,24226.05191528345,15.617753615366444,100770.32025643,-7347.097547410392,92.38041250679458,100888.82520706384,8504.760675509682,28.53874324442648,0.9361228242375124,106.0,54.0,260.0,76.0,336.0,52.0,879.0,886.0,54.0,20.0,34.0,0.3703703703703703,110.64125896742628,3403.1085568672647,20.0,15.0,5.0,0.75,475.9142901198955,1387.541008197037,38.0,20.0,18.0,0.5263157894736842,504.94595204867375,20160.638818082814,177.0,105.0,72.0,0.5932203389830508,84.50895458931136,7929.815667983872,48.0,21.0,27.0,0.4375,118.05714344950982,5577.044262156086,0.0,0.0,0.0,0.0,100474.0,100526.0,100580.0,100599.0,100611.0,100649.0,100666.0,100840.0,100868.0,100916.0,0.030996101617903473,-0.11683971025830696,0.02084309708467682,-0.011502359134880135,0.013881301068173181
113,113,101382.52059170186,4017.822192005293,21.216794944708845,101477.37859403407,-2050.6946115364267,5.864609992632343,101525.69887300034,25700.390566759248,11.901541398926454,101669.06911749422,-8270.599718882464,82.53266721541046,101775.36815233772,8696.352510319368,25.90784955106254,0.9559686499286384,105.0,51.0,266.0,60.0,326.0,54.0,887.0,895.0,54.0,19.0,35.0,0.3518518518518518,84.55542858930352,4192.534401452393,21.0,9.0,12.0,0.4285714285714285,179.27410665001264,1922.7359578371013,27.0,14.0,13.0,0.5185185185185185,991.7833519021896,23501.198757530547,179.0,114.0,65.0,0.6368715083798883,74.83368397929111,8256.01775860372,38.0,18.0,20.0,0.4736842105263157,162.35991132089845,5715.358084530828,0.0,0.0,0.0,0.0,101364.0,101418.0,101469.0,101488.0,101512.0,101539.0,101555.0,101735.0,101758.0,101795.0,0.021045089739798056,-0.08742116239126237,0.038590205441661925,-0.009048156907949446,0.018669886153791147
114,114,102261.945252602,4184.31330790724,21.357552284573615,102360.12330450072,-4164.617562210266,6.851268386575684,102394.76205586069,18843.48891914073,17.50727291470246,102530.41479271888,-6010.579864202765,83.94623908623201,102650.08364698898,9945.3064322602,28.55824289555064,0.969389939047079,107.0,55.0,247.0,83.0,330.0,52.0,879.0,866.0,55.0,21.0,34.0,0.3818181818181818,88.01304343519266,3869.9396661681426,15.0,11.0,4.0,0.7333333333333333,448.4464753177368,2717.0712695798693,43.0,22.0,21.0,0.5116279069767442,229.6055196668618,15357.892629684797,164.0,97.0,67.0,0.5914634146341463,87.78909949038261,6148.552880012212,54.0,25.0,29.0,0.4629629629629629,117.22721868904172,8071.933640481136,0.0,0.0,0.0,0.0,102242.0,102294.0,102349.0,102363.0,102373.0,102416.0,102433.0,102596.0,102626.0,102679.0,0.02103404715628521,-0.10768010954641777,0.01218487301646323,-0.014605762085157292,0.011787190217566811
115,115,103125.36991350216,3719.2464256891726,18.706434298139857,103219.972626301,-6874.2835466637025,9.308303582327763,103254.71861438184,19999.203312031423,17.46215520950268,103315.36991350216,-5963.543260160729,38.21948101296085,103517.91493146926,7114.864112925959,19.274275388676113,0.838239075223928,106.0,57.0,255.0,77.0,332.0,49.0,863.0,858.0,51.0,22.0,29.0,0.4313725490196078,83.10824605770189,3567.287691914579,17.0,10.0,7.0,0.5882352941176471,465.29959589084064,163.0427722605382,36.0,19.0,17.0,0.5277777777777778,543.7662012437405,16782.295185159935,173.0,22.0,151.0,0.1271676300578034,114.16070617739334,4592.984238132842,52.0,26.0,26.0,0.5,133.02344069979182,6031.432545447939,0.0,0.0,0.0,0.0,103104.0,103153.0,103210.0,103227.0,103237.0,103271.0,103294.0,103465.0,103493.0,103542.0,0.02234545296156385,-0.06768699497661318,0.027189393135306217,-0.01914310020018476,0.01869655394515841
116,116,103986.94205283363,5727.936136900197,37.05350111364368,104084.54796540084,-5222.299637114796,7.186374055703226,104118.44424095156,22804.711067036376,15.641702718761955,104284.53415569612,-4138.2099296342485,68.79506582332952,104375.57617569588,8972.674874075026,28.854636174409393,0.9417458869984494,116.0,54.0,248.0,84.0,332.0,62.0,861.0,866.0,68.0,32.0,36.0,0.4705882352941176,94.65670578660249,5705.360799923447,14.0,11.0,3.0,0.7857142857142857,590.206020763149,3116.078123607205,40.0,19.0,21.0,0.475,458.6863057038051,22144.770729245334,85.0,46.0,39.0,0.5411764705882353,72.56982064141894,5068.786786995326,57.0,25.0,32.0,0.4385964912280701,146.12617417821073,7466.704578790688,0.0,0.0,0.0,0.0,103959.0,104021.0,104075.0,104088.0,104099.0,104138.0,104246.0,104323.0,104352.0,104407.0,0.016525447128645558,-0.11301649881760226,0.02011366442466462,-0.017536524699179035,0.01628568695834692
117,117,104861.50678199712,5100.1011789930035,50.95930801725833,104945.7260172996,-2723.2173134881955,6.780743023027025,104988.99611410932,24612.5983621933,14.746174835604425,105140.88957929856,-4698.0795725949165,82.10262303608077,105251.9351024834,9519.520711537998,39.72732022283501,0.9239484402147262,113.0,49.0,251.0,93.0,344.0,64.0,890.0,874.0,68.0,38.0,30.0,0.5588235294117647,75.28727992898276,5832.137747671646,11.0,7.0,4.0,0.6363636363636364,301.9061626466309,1247.5203378816334,36.0,19.0,17.0,0.5277777777777778,665.7314733326544,23756.104874841567,168.0,118.0,50.0,0.7023809523809523,75.06677877281324,4630.465066637617,70.0,34.0,36.0,0.4857142857142857,115.33225595745974,7366.596041758194,0.0,0.0,0.0,0.0,104826.0,104890.0,104939.0,104950.0,104970.0,105006.0,105086.0,105190.0,105218.0,105283.0,0.0147619188888029,-0.1108637790863324,0.02704840275439042,-0.01597818376910785,0.01211534272073939
118,118,105703.07597703506,5069.604508045426,47.273495556466514,105798.25677227294,-1816.8384160997143,5.017896439222306,105844.39994271316,23051.13540235715,12.939709560917835,106001.58078567528,-5221.975231926169,75.84334781942164,106098.49130150798,8412.199582462224,35.539343489672405,0.9168708580744656,115.0,54.0,249.0,90.0,339.0,61.0,829.0,855.0,62.0,25.0,37.0,0.4032258064516129,110.67851035385598,6253.147549550913,11.0,4.0,7.0,0.3636363636363636,221.1898638881588,440.9579506492778,30.0,14.0,16.0,0.4666666666666667,818.1642849484175,23080.106466175792,98.0,61.0,37.0,0.6224489795918368,86.51122789092527,6024.940791463536,63.0,26.0,37.0,0.4126984126984127,92.72860077571136,6477.463042117937,0.0,0.0,0.0,0.0,105679.0,105740.0,105794.0,105805.0,105830.0,105859.0,105876.0,106043.0,106073.0,106133.0,0.02183178395439131,-0.12174437854688072,0.035493448399281625,-0.01656676335077424,0.011023109932987347
119,119,106552.37255008012,3622.1476755719577,16.094106491555493,106649.39728720114,-11404.227085518633,11.13435209597314,106680.48602601912,18653.38205759764,22.871211779016264,106737.52059170186,-9450.850656049535,33.12355021123273,106944.78672812492,7768.233976982648,19.660056181826015,0.7657985906679561,103.0,56.0,253.0,79.0,332.0,47.0,849.0,831.0,49.0,22.0,27.0,0.4489795918367347,90.6841805193304,2980.802256049804,22.0,16.0,6.0,0.7272727272727273,518.7245384693584,1313.3498136700557,38.0,17.0,21.0,0.4473684210526316,418.7721893423933,16796.760559502185,170.0,20.0,150.0,0.1176470588235294,138.45542432385398,7497.137577882408,49.0,25.0,24.0,0.5102040816326531,159.82440054594016,6848.993101069993,0.0,0.0,0.0,0.0,106531.0,106578.0,106634.0,106654.0,106663.0,106700.0,106719.0,106887.0,106920.0,106966.0,0.025036025209825508,-0.045485286690585776,0.02245020168724978,-0.01465004890699738,0.020574097152519018
120,120,107399.49321800288,5467.512911786641,32.4483867755914,107491.54796540084,-3437.3543602854056,6.35696602334011,107529.97640326856,24172.690480266763,15.702614544524502,107670.34376001896,-6957.495910952746,78.3262228720759,107786.84337019204,8611.116871447486,26.091070223547423,0.9279671402011246,112.0,52.0,256.0,78.0,334.0,60.0,843.0,857.0,63.0,29.0,34.0,0.4603174603174603,84.46244314054599,5346.556850085288,14.0,9.0,5.0,0.6428571428571429,443.4550942624264,1725.5638201596876,40.0,21.0,19.0,0.525,468.35117901207167,21058.596333966143,176.0,104.0,72.0,0.5909090909090909,86.89866673847861,7444.059549186888,52.0,22.0,30.0,0.4230769230769231,113.7548700738862,6553.096373404924,0.0,0.0,0.0,0.0,107371.0,107431.0,107483.0,107497.0,107509.0,107549.0,107567.0,107739.0,107765.0,107817.0,0.015448055542487207,-0.12901058424060943,0.019375219295279,-0.01248993428823717,0.013210234139438008
121,121,108254.58941120644,4943.491951807308,27.30648824737263,108347.8058433628,-2419.350962066604,5.394031876388217,108394.62446750852,25991.59943201408,12.66487203286928,108543.7417175437,-7715.337004427573,80.68552075627125,108654.7269394318,8434.842206930027,33.288109749653685,0.9551043729624622,110.0,55.0,270.0,83.0,353.0,55.0,859.0,863.0,57.0,27.0,30.0,0.4736842105263157,67.01128557885303,4862.043239920026,17.0,9.0,8.0,0.5294117647058824,235.56509671675423,1752.1540104265332,28.0,14.0,14.0,0.5,951.0993712442532,24448.14457998629,177.0,117.0,60.0,0.6610169491525424,80.40253622462232,8175.713799936955,74.0,27.0,47.0,0.3648648648648648,76.89564752379259,4543.006855913101,0.0,0.0,0.0,0.0,108229.0,108284.0,108339.0,108356.0,108381.0,108409.0,108425.0,108609.0,108629.0,108692.0,0.013555455583244986,-0.09736706265862935,0.03659256806153975,-0.010421130817549772,0.009116429879460637
122,122,109123.28515056516,5498.904677319407,58.60320421987331,109210.35797895848,-3114.54772051685,7.843981416203099,109254.96219415544,23067.046207837717,15.47837161197972,109305.09593080172,-4021.4507912152862,30.57558481036868,109517.41978582572,8355.057211534195,31.20163059660933,0.8577452444113325,113.0,47.0,247.0,96.0,343.0,66.0,865.0,860.0,68.0,32.0,36.0,0.4705882352941176,67.9214988227212,6937.323280662737,11.0,5.0,6.0,0.4545454545454545,262.0776855801706,759.5591235159127,38.0,21.0,17.0,0.5526315789473685,612.350411276341,21490.84910930439,166.0,18.0,148.0,0.108433734939759,133.39572435975376,2876.40525287543,80.0,41.0,39.0,0.5125,111.00566479600704,6673.669918487927,0.0,0.0,0.0,0.0,109092.0,109158.0,109205.0,109216.0,109234.0,109271.0,109288.0,109452.0,109477.0,109548.0,0.012351823282710808,-0.08414630601218709,0.02654654634836933,-0.033171044800834534,0.01328604484512245
123,123,109970.68429028452,4213.645912270672,16.970170136783903,110069.07416483724,-6579.342251702192,8.679181064464546,110104.83999044025,20983.841989812085,16.016603230748487,110256.86288579454,-9211.425598059286,96.82268523283416,110360.19321899324,10603.882191622695,35.236980229706546,0.97115027294181,104.0,61.0,256.0,83.0,339.0,43.0,851.0,848.0,47.0,21.0,26.0,0.4468085106382978,110.7478467415726,3566.90575225491,21.0,14.0,7.0,0.6666666666666666,529.5203502325829,1582.0700884664377,37.0,19.0,18.0,0.5135135135135135,370.80481485736624,16925.38648851818,172.0,117.0,55.0,0.6802325581395349,71.59409315942966,8745.484828458912,54.0,20.0,34.0,0.3703703703703703,120.1217454457478,6494.553159679477,0.0,0.0,0.0,0.0,109951.0,109994.0,110055.0,110076.0,110086.0,110123.0,110141.0,110311.0,110340.0,110394.0,0.026283140313015103,-0.08048226250816891,0.01767096869283502,-0.007772314111131017,0.011328091285345161
124,124,110853.64389620256,5057.775164646652,23.543938215719123,110947.73176684062,-3615.846950310933,6.4426724701748785,110990.04951647586,26497.805249938316,14.181397583059097,111137.15096104462,-6394.467317130522,77.93241421259944,111245.86198793269,8993.502609144272,27.89413096627804,0.9710260577987344,110.0,54.0,259.0,80.0,339.0,56.0,880.0,887.0,59.0,28.0,31.0,0.4745762711864407,78.33159942114216,4158.20313671099,18.0,11.0,7.0,0.6111111111111112,367.6974699556279,596.5389346655452,34.0,18.0,16.0,0.5294117647058824,769.1617023945317,25033.42458615484,171.0,111.0,60.0,0.6491228070175439,74.92305823258712,6637.01805640884,53.0,22.0,31.0,0.4150943396226415,113.44828593706848,6988.737449157685,0.0,0.0,0.0,0.0,110828.0,110884.0,110938.0,110955.0,110972.0,111006.0,111026.0,111197.0,111224.0,111277.0,0.015487362895976927,-0.10169055134482641,0.029027373970767722,-0.011716856857157006,0.012614471899048353
125,125,111748.32584210532,4561.7977647792,31.133662032558824,111844.44683811428,-1667.7299038713943,4.579962359200817,111891.15647403304,29893.944649000947,12.1811718183402,112035.56893000066,-6630.877542864625,82.6105727625722,112153.4029735458,7350.567928678895,33.40160701478576,0.9410150318758784,111.0,58.0,269.0,75.0,344.0,53.0,897.0,900.0,55.0,23.0,32.0,0.4181818181818181,108.33885918289592,4982.984289583379,16.0,7.0,9.0,0.4375,218.05434736029355,1233.178731957188,27.0,13.0,14.0,0.4814814814814814,1160.3922642353234,29056.89346498692,184.0,114.0,70.0,0.6195652173913043,66.62515536248526,5970.983564449207,56.0,27.0,29.0,0.4821428571428571,92.51528376312343,4646.629002405835,0.0,0.0,0.0,0.0,111726.0,111779.0,111837.0,111853.0,111878.0,111905.0,111922.0,112106.0,112126.0,112181.0,0.02374915872408029,-0.1307491979691147,0.038816967043327405,-0.010047713131752744,0.012586140916019131
126,126,112653.4880081953,3920.4651973340096,48.41134261641708,112746.21324918886,-2174.009100039667,5.4663851796802065,112793.03162263733,26391.705303835384,12.922860932967565,112908.90431490877,-7679.040434931911,88.35906378748946,113051.98736342012,8865.60573751342,32.058346409730945,0.9473689131709524,111.0,54.0,259.0,82.0,341.0,57.0,904.0,902.0,59.0,26.0,33.0,0.4406779661016949,87.95476393164071,4401.7886165601685,19.0,8.0,11.0,0.4210526315789473,255.442346813311,2404.3618908296567,26.0,13.0,13.0,0.5,983.7343430091148,23436.515840022013,177.0,87.0,90.0,0.4915254237288136,69.93289583006657,6255.560587367569,61.0,29.0,32.0,0.4754098360655737,112.91965839590424,6214.282726243095,0.0,0.0,0.0,0.0,112628.0,112685.0,112739.0,112757.0,112780.0,112806.0,112822.0,112998.0,113024.0,113080.0,0.022434777380870928,-0.11749828775263645,0.03727437585725668,-0.00910698366842063,0.01273682382672426
127,127,113527.36991350216,3865.246913400641,22.62426373821814,113625.39728720114,-8282.840710563398,9.048253894346615,113658.38106642978,18976.956288800407,18.942380511640284,113717.945252602,-6161.694415931189,35.6715156120968,113925.39072949442,8096.945551000525,23.987538859851263,0.8532841089474565,108.0,54.0,248.0,93.0,341.0,54.0,874.0,860.0,57.0,21.0,36.0,0.3684210526315789,107.87787065076026,3841.887271550155,17.0,11.0,6.0,0.6470588235294118,520.2969090777055,851.9125505441377,37.0,18.0,19.0,0.4864864864864865,447.68568531179307,17115.03739676618,167.0,21.0,146.0,0.1257485029940119,120.73413937995107,4960.407620067004,65.0,34.0,31.0,0.5230769230769231,104.93114723255428,7048.054171136564,0.0,0.0,0.0,0.0,113506.0,113560.0,113614.0,113631.0,113640.0,113677.0,113698.0,113862.0,113892.0,113955.0,0.027909697120965915,-0.06281623989389928,0.023591016309396404,-0.019594308193504443,0.012959349494401397
128,128,114387.33061691478,3861.0405696015464,13.819715505900346,114484.82194810128,-14554.352859541008,12.64780527058557,114512.5298101294,21363.977717473183,21.46960773202112,114571.09593080172,-8612.743173927389,30.57558481036868,114782.92935518335,5771.760924345706,18.671310335420465,0.7615117136868381,96.0,63.0,261.0,79.0,340.0,33.0,862.0,858.0,42.0,18.0,24.0,0.4285714285714285,126.12344889821443,3457.1182654418462,25.0,20.0,5.0,0.8,620.210911504553,1653.8099909437765,33.0,14.0,19.0,0.4242424242424242,702.9634854177682,22392.641148104856,173.0,17.0,156.0,0.0982658959537572,184.74429251278175,8123.854498644834,50.0,26.0,24.0,0.52,86.15724540677171,5126.299830413409,0.0,0.0,0.0,0.0,114370.0,114403.0,114466.0,114490.0,114499.0,114532.0,114554.0,114727.0,114758.0,114806.0,0.03266566269497401,-0.04261343101201356,0.03290414803432546,-0.021450110467945004,0.014927375983879408
129,129,115249.12327792954,6071.307418613272,24.984317081342855,115343.972626301,-4763.758334989918,6.903050554173635,115379.44919951186,25629.77519653959,15.688701221043583,115518.49305471152,-5392.101312384297,85.32730104996187,115645.07171859096,9183.07828249975,31.100509304805612,0.9385546496245925,109.0,55.0,256.0,87.0,343.0,54.0,862.0,868.0,57.0,26.0,31.0,0.4561403508771929,89.09161844315592,5398.927627266159,17.0,12.0,5.0,0.7058823529411765,559.5569883604072,2327.5940451830065,38.0,19.0,19.0,0.5,516.6793920291221,23358.61702411834,175.0,102.0,73.0,0.5828571428571429,82.74896122763354,5748.402398441904,63.0,28.0,35.0,0.4444444444444444,101.46473781033134,6786.7616712822255,0.0,0.0,0.0,0.0,115224.0,115278.0,115333.0,115348.0,115360.0,115398.0,115416.0,115589.0,115617.0,115676.0,0.014674206443577694,-0.11746124572492435,0.020159341549701993,-0.01534632909021573,0.01104909864524332
130,130,0.0,0.0,0.0,0.0,0.0,0.0,0.0,0.0,0.0,0.0,0.0,0.0,0.0,0.0,0.0,0.0,0.0,0.0,0.0,0.0,0.0,0.0,0.0,0.0,0.0,0.0,0.0,0.0,0.0,0.0,0.0,0.0,0.0,0.0,0.0,0.0,0.0,0.0,0.0,0.0,0.0,0.0,0.0,0.0,0.0,0.0,0.0,0.0,0.0,0.0,0.0,0.0,0.0,0.0,0.0,0.0,0.0,0.0,116092.0,116146.0,116198.0,116216.0,116236.0,116267.0,116284.0,116468.0,116695.0,,,,,,
131,131,116970.79457440229,4785.923242956106,29.39955874575747,117068.99776563184,-3271.0167917141493,6.433497812489344,117112.3017303374,21758.41246496048,15.35409395467559,117162.52059170186,-5405.380704244771,33.12355021123273,117368.19186160344,8164.431396092084,27.223973064700264,0.8445247874576608,111.0,55.0,248.0,91.0,339.0,56.0,1719.0,1734.0,58.0,24.0,34.0,0.4137931034482758,99.2560230830524,5311.023323677659,17.0,10.0,7.0,0.5882352941176471,327.4487279021887,280.02727212479385,35.0,19.0,16.0,0.5428571428571428,628.5717792845302,19611.9270480511,166.0,20.0,146.0,0.1204819277108433,112.92340790784888,4406.041967719406,68.0,36.0,32.0,0.5294117647058824,105.14815989851635,7344.732343514592,0.0,0.0,0.0,0.0,116948.0,117004.0,117059.0,117076.0,117094.0,117128.0,117144.0,117307.0,117334.0,117398.0,0.020739158996989103,-0.10010609811959782,0.028888678358164947,-0.02089092592852372,0.012878809900815098
132,132,117818.34253980315,6137.255286837428,54.45280320985893,118006.94598973352,-3246.8597239425885,117.96575476831929,117942.88869403453,23789.17340711315,16.92603025472119,117992.70758375508,-1291.1910653802015,3.6979904945147126,118207.09100790114,9276.78145690254,32.357460439930115,0.9336363066550164,-112.0,-175.0,467.0,100.0,567.0,63.0,845.0,824.0,66.0,33.0,33.0,0.5,60.86512905089524,5593.945563005102,165.0,26.0,139.0,0.1575757575757575,97.5224699744886,1895.270523089088,39.0,20.0,19.0,0.5128205128205128,511.8984591148257,18944.57449948405,159.0,10.0,149.0,0.0628930817610062,214.3788622690976,5427.321123125237,72.0,36.0,36.0,0.5,109.75181588818889,7935.616094288167,0.0,0.0,0.0,0.0,117787.0,117850.0,117675.0,118153.0,117923.0,117961.0,117983.0,118142.0,118171.0,118242.0,0.009917320725020627,-0.030035935724401813,0.021518127189815012,-0.16603186624899083,0.011830807527165175
133,133,118665.99077731944,4662.822771980419,21.42733661346787,118763.54796540084,-5942.793560193125,8.401970599343176,118798.19407327012,20300.866316484717,17.368044265894845,118854.945252602,-5342.8810808500775,35.6715156120968,119063.01484579578,7994.120999190066,23.44225329448689,0.862709432539812,110.0,60.0,247.0,89.0,336.0,50.0,853.0,855.0,52.0,22.0,30.0,0.4230769230769231,109.13338470349898,4458.477805783286,16.0,10.0,6.0,0.625,491.518176227117,1522.7526179116328,37.0,19.0,18.0,0.5135135135135135,494.0799483287079,17758.49547730713,168.0,20.0,148.0,0.119047619047619,138.5770686813267,4418.4942210456775,60.0,31.0,29.0,0.5166666666666667,112.89968813728476,7052.597964836673,0.0,0.0,0.0,0.0,118645.0,118695.0,118755.0,118769.0,118780.0,118816.0,118835.0,119002.0,119032.0,119091.0,0.023405003801409176,-0.08270827031910966,0.024337875075188538,-0.025936768306151114,0.014122839540297591
134,134,119564.21923530244,4175.767996122992,30.746892480439794,119660.972626301,-4137.782385939244,6.973692724693464,119695.789529066,21650.48614763269,16.002756553544465,119836.7081550487,-7956.643971412798,81.81716798771575,119957.43298738346,9223.94800716034,29.975166971334588,0.9653480745000552,111.0,55.0,252.0,86.0,338.0,56.0,895.0,902.0,60.0,26.0,34.0,0.4333333333333333,75.65474651405866,3913.494125658008,15.0,10.0,5.0,0.6666666666666666,455.2550402356484,1725.2268454928976,38.0,20.0,18.0,0.5263157894736842,416.8593691783557,18336.164340782747,170.0,103.0,67.0,0.6058823529411764,72.8885167436459,7815.955971871926,55.0,21.0,34.0,0.3818181818181818,133.57768279502878,7083.272049271791,0.0,0.0,0.0,0.0,119540.0,119596.0,119651.0,119666.0,119676.0,119714.0,119734.0,119903.0,119936.0,119989.0,0.018117564621478156,-0.11002392049003541,0.019254041980204493,-0.009160711099494333,0.014481617057179364
135,135,120480.08223155276,3256.952762538435,18.537246772354067,120576.08242171966,-4230.285248564218,8.943758493994663,120622.11000122972,23196.256976585428,15.66374440304583,120671.945252602,-8015.091908262668,35.6715156120968,120880.37400591282,4957.933961999971,15.708723843038568,0.7425120230078731,104.0,57.0,268.0,67.0,335.0,47.0,918.0,928.0,50.0,20.0,30.0,0.4,94.19149771160951,2824.32950203988,21.0,11.0,10.0,0.5238095238095238,281.9438967463993,2402.971165358196,33.0,19.0,14.0,0.5757575757575758,683.3090540077351,19280.926527592663,185.0,21.0,164.0,0.1135135135135135,120.31149819027756,6196.300039979349,44.0,23.0,21.0,0.5227272727272727,104.79853852065428,4430.6978061135815,0.0,0.0,0.0,0.0,120461.0,120508.0,120565.0,120586.0,120603.0,120636.0,120652.0,120833.0,120857.0,120900.0,0.02892013012746235,-0.06664890904037561,0.029457729093856615,-0.015010619911451022,0.021137542235108716
136,136,121421.06855710271,4956.445718629597,47.41676724594517,121515.84932180028,-1457.1337849374154,4.350157956929992,121555.69676798231,21820.46531065604,15.6397444123306,121693.72546911222,-6001.595533915584,84.49831722875979,121816.3206057617,9930.456842519525,38.97433941060382,0.9510854889299342,119.0,60.0,239.0,98.0,337.0,59.0,938.0,936.0,63.0,28.0,35.0,0.4444444444444444,63.3373659909875,5535.674915944924,5.0,3.0,2.0,0.6,354.9513540740785,2267.409157002714,40.0,22.0,18.0,0.55,484.0735074839415,19134.57595093734,163.0,104.0,59.0,0.6380368098159509,82.65282858973812,5892.033405364896,65.0,30.0,35.0,0.4615384615384615,103.86659706622862,8117.427765539427,0.0,0.0,0.0,0.0,121394.0,121453.0,121513.0,121518.0,121534.0,121574.0,121590.0,121752.0,121786.0,121850.0,0.012778787378407847,-0.24359558315321322,0.02218438060748154,-0.013771809200180046,0.010459397660488288
