Unnamed: 0,cycle,p_center,p_height,p_width,q_center,q_height,q_width,r_center,r_height,r_width,s_center,s_height,s_width,t_center,t_height,t_width,r_squared,pr_interval,pr_segment,qrs_duration,st_segment,qt_interval,p_duration,pp_interval,rr_interval,fwhm_p,rise_time_p,decay_time_p,rise_decay_symmetry_p,sharpness_deriv_p,sharpness_diff_p,fwhm_q,rise_time_q,decay_time_q,rise_decay_symmetry_q,sharpness_deriv_q,sharpness_diff_q,fwhm_r,rise_time_r,decay_time_r,rise_decay_symmetry_r,sharpness_deriv_r,sharpness_diff_r,fwhm_s,rise_time_s,decay_time_s,rise_decay_symmetry_s,sharpness_deriv_s,sharpness_diff_s,fwhm_t,rise_time_t,decay_time_t,rise_decay_symmetry_t,sharpness_deriv_t,sharpness_diff_t,Average_Heart_Rate,SDNN,RMSSD,NN50,p_on,p_off,q_on,q_off,r_on,r_off,s_on,s_off,t_on,t_off,sharpness_deriv_p_norm,sharpness_deriv_q_norm,sharpness_deriv_r_norm,sharpness_deriv_s_norm,sharpness_deriv_t_norm
0,0,0.0,0.0,0.0,0.0,0.0,0.0,0.0,0.0,0.0,0.0,0.0,0.0,0.0,0.0,0.0,0.0,0.0,0.0,0.0,0.0,0.0,0.0,0.0,0.0,0.0,0.0,0.0,0.0,0.0,0.0,0.0,0.0,0.0,0.0,0.0,0.0,0.0,0.0,0.0,0.0,0.0,0.0,0.0,0.0,0.0,0.0,0.0,0.0,0.0,0.0,0.0,0.0,0.0,0.0,73.19112187649931,114.69134750311812,155.0559718737148,118.0,,,,,,,,,,,,,,,
1,1,1688.389596792084,4307.454559306843,14.888128135863324,1787.4312943089178,-7662.618931034502,10.471715769709895,1813.8202231159385,42466.53369037313,9.473033430296324,1838.602712798848,-5472.01704092982,19.728080083033376,2065.5681507697263,7418.841967091022,29.89814565242485,0.9940721642538428,103.0,67.0,87.0,239.0,326.0,36.0,,,37.0,17.0,20.0,0.4594594594594595,128.74437265747622,4417.557210771614,19.0,13.0,6.0,0.6842105263157895,926.1150580397576,2120.4963424945386,22.0,11.0,11.0,0.5,2130.403712990332,38633.187899187214,28.0,5.0,23.0,0.1785714285714285,879.5230614076049,16642.518240897924,71.0,36.0,35.0,0.5070422535211268,64.27565790516437,7886.743780697722,0.0,0.0,0.0,0.0,1671.0,1707.0,1774.0,1793.0,1803.0,1825.0,1834.0,1861.0,2031.0,2100.0,0.029888736116625174,-0.12086142693183964,0.05016664954392734,-0.16073105307035995,0.008663839746187138
2,2,2467.7471403899526,3730.2412117293534,10.527027249387949,2572.397287201152,-8466.692330012416,14.061104868128211,2596.6340483054155,45841.600814339065,9.698739562091584,2623.980245993782,-5559.4097461395595,20.383723206912453,2848.29692744485,7493.555679029668,27.396079220878335,0.9921060315337668,101.0,76.0,90.0,234.0,324.0,25.0,780.0,783.0,26.0,14.0,12.0,0.5384615384615384,157.1387434521358,3717.786984619438,22.0,17.0,5.0,0.7727272727272727,1135.106259674103,5903.308821583019,22.0,11.0,11.0,0.5,2223.7052280231,41391.62718833165,28.0,6.0,22.0,0.2142857142857142,754.1983535746458,14913.720743382046,66.0,33.0,33.0,0.5,82.68071489320579,8028.738414642057,0.0,0.0,0.0,0.0,2455.0,2480.0,2556.0,2577.0,2586.0,2608.0,2618.0,2646.0,2816.0,2880.0,0.04212562527003065,-0.1340672620936538,0.048508454951850945,-0.13566158783283772,0.011033575839648932
3,3,3297.84929267517,4199.475450575031,14.365558825089837,3399.4617670884695,-7044.897552536189,9.547720672452916,3425.4767876247297,37720.64697864968,9.410343097159924,3450.1780518987043,-5496.446763133608,19.856343959202945,3672.239602879513,8264.292949260509,35.1375083612,0.9855683124315884,105.0,74.0,88.0,238.0,326.0,31.0,829.0,828.0,33.0,17.0,16.0,0.5151515151515151,141.58740049833716,4199.218990667152,18.0,12.0,6.0,0.6666666666666666,865.5087957348059,1975.9438336307005,22.0,11.0,11.0,0.5,1914.561026986692,35277.12828947972,30.0,5.0,25.0,0.1666666666666666,815.9615776780672,16046.67983201523,84.0,41.0,43.0,0.4880952380952381,58.66450887849078,8796.53407854655,0.0,0.0,0.0,0.0,3282.0,3313.0,3387.0,3405.0,3414.0,3436.0,3445.0,3475.0,3634.0,3713.0,0.03371549665302835,-0.12285612236095889,0.05075631465362605,-0.1484525572322427,0.007098551471815879
4,4,4123.4851822783185,3962.450323458813,14.21825491947088,4223.959539276687,-7482.084914474578,9.974225061822091,4250.800048856116,40513.05204467534,9.420750578512964,4276.352550061719,-6088.141917769354,17.835757806047415,4502.322604973225,7485.582079252491,29.745838288276687,0.9926356075020244,104.0,72.0,88.0,238.0,326.0,32.0,826.0,826.0,32.0,16.0,16.0,0.5,133.58629233656836,4084.046784561157,19.0,13.0,6.0,0.6842105263157895,903.6536943181566,2239.3323173322296,22.0,11.0,11.0,0.5,2064.2726594596993,36586.238200775144,29.0,5.0,24.0,0.1724137931034483,846.1529829608676,16635.902517863142,71.0,35.0,36.0,0.4929577464788732,64.45035886596149,7930.147843653913,0.0,0.0,0.0,0.0,4107.0,4139.0,4211.0,4230.0,4240.0,4262.0,4271.0,4299.0,4468.0,4537.0,0.03371305163012397,-0.12077565339708722,0.05095327444556249,-0.13898378099420047,0.008609932826011774
5,5,4958.022281353211,3869.0509999852497,12.113014147374612,5061.397287201151,-8764.475170922742,12.866187750279575,5085.932230093224,44787.906920379726,9.599383140919493,5115.585131345233,-5417.827131909821,20.383723206912453,5340.42537951657,7501.049345378658,27.26625722588583,0.9895938569143056,103.0,73.0,89.0,238.0,327.0,30.0,835.0,835.0,30.0,15.0,15.0,0.5,134.440130509031,3831.2529560033663,20.0,15.0,5.0,0.75,1124.3597392489914,4712.247404463023,22.0,11.0,11.0,0.5,2223.238036198405,41979.3046419919,28.0,9.0,19.0,0.3214285714285714,522.6261635299763,11058.446810344429,65.0,32.0,33.0,0.4923076923076923,83.48832637805808,8024.899796748895,0.0,0.0,0.0,0.0,4943.0,4973.0,5046.0,5066.0,5075.0,5097.0,5107.0,5135.0,5308.0,5373.0,0.034747572598433966,-0.12828603165871214,0.049639248383513336,-0.09646416373306231,0.011130219591142222
6,6,5795.065888292345,4624.644178914257,16.163484442204613,5893.540367782172,-6577.2496431673735,8.898858415559811,5919.205565924253,35079.36136688633,9.45404464780598,5944.178051898705,-6235.33061488123,15.842537425225428,6167.350030186854,8635.164403956813,34.894484851929676,0.9882073961538091,103.0,67.0,85.0,241.0,326.0,36.0,837.0,833.0,37.0,18.0,19.0,0.4864864864864865,135.1595039248999,4752.25043991971,18.0,13.0,5.0,0.7222222222222222,919.2038821315056,4262.919873006767,22.0,11.0,11.0,0.5,1822.7287298153965,32417.412303748253,28.0,5.0,23.0,0.1785714285714285,774.7590492224699,15656.141055334789,80.0,39.0,41.0,0.4875,74.13975921459766,9534.078852824154,0.0,0.0,0.0,0.0,5778.0,5814.0,5881.0,5899.0,5908.0,5930.0,5939.0,5966.0,6129.0,6207.0,0.02922592500005735,-0.13975505446815442,0.051960145760691856,-0.12425308248666578,0.008585795909180984
7,7,6575.402101424714,4242.502027797724,15.568389101561928,6675.213034378222,-7057.633044702349,9.317588731688996,6702.012088321785,40086.62034058558,9.31755302554544,6726.027373698993,-5332.274300128239,17.835757806043006,6951.101012641319,8083.583062651374,33.03766859795279,0.991635523786116,104.0,70.0,85.0,240.0,325.0,34.0,780.0,783.0,34.0,16.0,18.0,0.4705882352941176,135.4794010895052,4471.528890345831,18.0,12.0,6.0,0.6666666666666666,870.3890951284565,2050.5955957659194,22.0,11.0,11.0,0.5,2041.6248107482627,36728.72873048163,27.0,4.0,23.0,0.1481481481481481,933.9767659685834,17100.177701924436,76.0,38.0,38.0,0.5,76.17147675429757,8914.416366743224,0.0,0.0,0.0,0.0,6559.0,6593.0,6663.0,6681.0,6691.0,6713.0,6722.0,6748.0,6915.0,6988.0,0.03193384474581674,-0.12332592097315036,0.050930330204994254,-0.1751554240084989,0.009422984357794638
8,8,7375.356176209923,3865.7784602732418,14.118161997206329,7476.684349040912,-7725.178445336895,10.373133695452976,7503.246075815476,43665.17809582063,9.477505853627902,7528.602712798849,-5213.3623382033475,20.38372320691235,7757.224149590146,7780.750675320273,29.05583997960371,0.9932552470454712,105.0,72.0,86.0,241.0,327.0,33.0,800.0,801.0,33.0,16.0,17.0,0.4848484848484848,127.89386106247692,3953.6205899661377,20.0,14.0,6.0,0.7,1003.2736671222306,3457.9195384875807,22.0,11.0,11.0,0.5,2181.3672920981244,41068.97613495575,27.0,5.0,22.0,0.1851851851851851,856.6942609599685,16059.028727716754,70.0,35.0,35.0,0.5,73.72372627240547,8278.823547386897,0.0,0.0,0.0,0.0,7359.0,7392.0,7464.0,7483.0,7492.0,7514.0,7524.0,7550.0,7722.0,7791.0,0.03308359813599797,-0.12987061389214005,0.04995667914857106,-0.16432662941574983,0.009475143125489088
9,9,8169.457164605503,4082.129899595016,13.214446566040538,8273.360366742118,-8087.613431965319,12.538780804335774,8297.63350250986,44208.34256692262,9.73111022555409,8323.60271279885,-5344.624493568259,20.383723206912453,8549.707989724608,8264.414175202635,28.572567617289195,0.9923638080435702,104.0,74.0,87.0,239.0,326.0,30.0,795.0,795.0,31.0,15.0,16.0,0.4838709677419355,143.3585857111115,4215.576533523737,21.0,16.0,5.0,0.7619047619047619,1109.193887856994,6014.176675161166,22.0,11.0,11.0,0.5,2158.3288949966704,40139.94677323804,27.0,5.0,22.0,0.1851851851851851,824.0623371605578,15655.576803662556,69.0,35.0,34.0,0.5072463768115942,76.39653082394037,8653.874814155068,0.0,0.0,0.0,0.0,8154.0,8184.0,8258.0,8278.0,8287.0,8309.0,8319.0,8345.0,8516.0,8584.0,0.035118575164728084,-0.13714724339729673,0.04882175557089458,-0.1541852637453272,0.009244034628996216
10,10,8972.547116894955,4209.024217037767,15.498642460486217,9071.281456162478,-6541.707155066411,9.083838179938578,9097.382637725626,35231.360412865186,9.391540150565794,9121.60271279885,-5921.247759101329,17.924084810681443,9344.434865580186,8972.176574070052,34.812435008850024,0.9875299118716504,104.0,67.0,87.0,238.0,325.0,37.0,802.0,799.0,38.0,18.0,20.0,0.4736842105263157,114.40092296266258,4097.218162922281,18.0,12.0,6.0,0.6666666666666666,824.5766903806527,2214.5985802632104,22.0,11.0,11.0,0.5,1806.077147407353,32330.477485627336,29.0,5.0,24.0,0.1724137931034483,764.1500429096161,15465.37111975661,80.0,39.0,41.0,0.4875,69.8566962494168,9808.03454995091,0.0,0.0,0.0,0.0,8955.0,8992.0,9059.0,9077.0,9086.0,9108.0,9117.0,9146.0,9307.0,9384.0,0.027179915596488496,-0.12604915977353645,0.0512633382941364,-0.12905219879290974,0.007785925262695502
11,11,9780.32004252665,4234.7366906338875,14.520037352481552,9880.456888706938,-7238.987981231928,9.93341851857462,9907.121568289878,40210.25011366385,9.309065080107224,9933.457768027482,-6094.104577798036,17.8357578060484,10159.620798340851,7704.090695058604,28.588607501078,0.9901759219568192,104.0,71.0,88.0,238.0,326.0,33.0,808.0,810.0,33.0,16.0,17.0,0.4848484848484848,137.78021987892285,4374.860098368315,19.0,12.0,7.0,0.631578947368421,858.8176547969088,1609.5080163895268,22.0,11.0,11.0,0.5,2074.6020242527575,37153.91154120759,29.0,6.0,23.0,0.2068965517241379,782.5713010864878,15775.327670894676,69.0,35.0,34.0,0.5072463768115942,73.99512189055855,8245.913341593008,0.0,0.0,0.0,0.0,9764.0,9797.0,9868.0,9887.0,9896.0,9918.0,9927.0,9956.0,10126.0,10194.0,0.03253572298453788,-0.118637806420388,0.05159386023186627,-0.1284144850315732,0.009604653530106927
12,12,10600.500270920616,3784.6040768456664,13.102290211571296,10700.721996334234,-7030.532235774887,8.98597191985038,10726.945597860322,37142.68691777573,9.384923506548596,10750.60271279885,-6031.694194147536,19.099283857263707,10974.992440781183,8642.736914943996,32.85648042252495,0.9849445564120338,104.0,73.0,86.0,238.0,324.0,31.0,821.0,820.0,32.0,17.0,15.0,0.53125,125.20533158809504,3635.820074587909,18.0,12.0,6.0,0.6666666666666666,908.31771214875,2740.7341110255284,21.0,11.0,10.0,0.5238095238095238,1885.7626236491917,32923.21078455221,30.0,5.0,25.0,0.1666666666666666,850.9346574764153,16701.233600434098,79.0,40.0,39.0,0.5063291139240507,66.70785213336124,9272.603520020602,0.0,0.0,0.0,0.0,10585.0,10616.0,10689.0,10707.0,10716.0,10737.0,10746.0,10775.0,10937.0,11013.0,0.033082808411613096,-0.12919615211018765,0.0507707648567208,-0.141077221438392,0.00771837125089599
13,13,11401.62797189955,4457.734880239217,16.04001286165479,11502.517338082533,-6929.979480581172,9.71185470701672,11528.991545334033,39597.51328419081,9.410564907759966,11553.027373699206,-6181.591491971427,17.835757801109928,11779.488990424888,8016.459986897616,32.14342570532713,0.990589461833598,105.0,71.0,87.0,241.0,328.0,34.0,801.0,802.0,35.0,17.0,18.0,0.4857142857142857,140.61406384965812,4588.628621378926,20.0,14.0,6.0,0.7,928.399550470822,3735.636772697824,22.0,11.0,11.0,0.5,2015.865857925358,35665.131875218416,30.0,5.0,25.0,0.1666666666666666,916.4060007829922,17642.619567451944,77.0,37.0,40.0,0.4805194805194805,79.30390505161795,8869.757059053525,0.0,0.0,0.0,0.0,11385.0,11419.0,11490.0,11508.0,11518.0,11540.0,11549.0,11577.0,11743.0,11818.0,0.03154383731365206,-0.13396858577609572,0.05090890035082547,-0.14824758348609882,0.009892634053090148
14,14,12243.954491210226,3577.024825980662,11.78329916877092,12347.39728720115,-7869.632834788813,12.378942479650178,12372.15362729281,43587.21323995208,9.568861289291393,12398.173476697582,-6066.662824164356,17.835757806047148,12628.729478014502,7884.472814359262,27.47464467433621,0.9911962172616962,103.0,74.0,89.0,240.0,329.0,29.0,842.0,843.0,29.0,15.0,14.0,0.5172413793103449,132.11927201890273,3563.703207547248,20.0,15.0,5.0,0.75,1051.9509868204077,5014.435667159469,22.0,11.0,11.0,0.5,2188.6555790910634,40669.24103287747,29.0,6.0,23.0,0.2068965517241379,858.2828190459259,16663.39880578153,67.0,34.0,33.0,0.5074626865671642,82.37092060718153,8369.397666284382,0.0,0.0,0.0,0.0,12229.0,12258.0,12332.0,12352.0,12361.0,12383.0,12393.0,12421.0,12596.0,12661.0,0.03693552000514323,-0.13367218127002206,0.05021324871223792,-0.14147527956016723,0.010447232496910508
15,15,13104.651692246602,3931.52407445954,14.83654523395619,13204.554053907106,-6770.64974311518,9.84893586256551,13231.030770136713,38366.14320630874,9.460036695240795,13255.60271279885,-5944.254160921993,20.383723206859095,13482.166078526188,8735.76025146598,31.90303513929504,0.9865925367461074,104.0,70.0,88.0,239.0,327.0,34.0,860.0,859.0,36.0,18.0,18.0,0.5,119.91770706306195,3832.0171707830505,19.0,13.0,6.0,0.6842105263157895,894.2349624084696,3208.266173503146,22.0,11.0,11.0,0.5,1926.0076691213771,34360.261012698415,30.0,5.0,25.0,0.1666666666666666,798.6014796408721,16139.859328354753,76.0,38.0,38.0,0.5,83.02678063229071,9474.123101903284,0.0,0.0,0.0,0.0,13088.0,13122.0,13192.0,13211.0,13220.0,13242.0,13251.0,13280.0,13445.0,13519.0,0.030501582793829602,-0.13207520641837714,0.05020071104787707,-0.13434847468181,0.009504242131457041
16,16,13935.837080856378,3688.034831946106,14.326226212943126,14036.67640610494,-7278.592110670951,10.316261841654434,14063.552258950062,40669.1790078572,9.42554402719855,14087.60271279885,-5919.587642645631,20.383723206912254,14316.060364048251,8158.036565295157,30.10495494943833,0.9910507959661786,104.0,74.0,88.0,239.0,327.0,30.0,831.0,832.0,31.0,16.0,15.0,0.5161290322580645,132.56618557851473,3765.266645726032,19.0,13.0,6.0,0.6842105263157895,904.305088624988,2373.656904500908,22.0,12.0,10.0,0.5454545454545454,2037.646907174311,35395.350819185885,30.0,5.0,25.0,0.1666666666666666,898.6685409032997,17345.070722360266,72.0,36.0,36.0,0.5,75.83919553900627,8784.727790190334,0.0,0.0,0.0,0.0,13920.0,13950.0,14024.0,14043.0,14052.0,14074.0,14083.0,14112.0,14281.0,14351.0,0.03594493859716669,-0.12424175924066555,0.0501029761820528,-0.1518126929026528,0.009296255898340954
17,17,14780.71656139081,3585.554448616943,12.542855137412834,14883.473173454366,-8047.67686971214,11.139291210654156,14909.47172595688,44233.14585215374,9.564913191103235,14934.60271279885,-5477.407251044252,20.383723206912453,15165.164078591535,8129.87043910749,27.633727665951376,0.9920108535732912,104.0,76.0,88.0,239.0,327.0,28.0,846.0,846.0,29.0,15.0,14.0,0.5172413793103449,135.72178590531635,3585.103560032978,20.0,14.0,6.0,0.7,985.7826651249256,2704.6692845764537,23.0,11.0,12.0,0.4782608695652174,2200.6507779697345,42074.91524211103,29.0,5.0,24.0,0.1724137931034483,878.3565593393507,16677.91673505585,68.0,35.0,33.0,0.5147058823529411,90.1744522040876,8709.679824848023,0.0,0.0,0.0,0.0,14766.0,14794.0,14870.0,14889.0,14898.0,14921.0,14930.0,14958.0,15131.0,15197.0,0.037852384575464575,-0.12249282384025273,0.04975117043054678,-0.1603599146606991,0.011091745296495413
18,18,15606.256798868286,4304.733325036302,15.33061587808184,15705.883774444084,-6980.696994082076,9.766741870562797,15731.838405321556,36530.68239779664,9.44526594970153,15755.602712798853,-5905.422802882783,18.678344358931557,15981.255246011617,9034.843150321722,34.1846309340586,0.986707516677134,104.0,69.0,87.0,240.0,327.0,35.0,824.0,823.0,35.0,17.0,18.0,0.4857142857142857,131.8717465254628,4331.370499642399,19.0,13.0,6.0,0.6842105263157895,888.505410109475,2783.4722394138107,21.0,11.0,10.0,0.5238095238095238,1856.7579740960305,32397.889580634623,30.0,5.0,25.0,0.1666666666666666,827.5880005653431,16288.04533404022,78.0,38.0,40.0,0.4871794871794871,69.55814917598964,9861.792243487567,0.0,0.0,0.0,0.0,15589.0,15624.0,15693.0,15712.0,15721.0,15742.0,15751.0,15780.0,15944.0,16020.0,0.03063412680142056,-0.12728032900764927,0.05082735531400917,-0.14014034696403938,0.00769887733729088
19,19,16404.744237630715,3897.3531401599,11.453570196609276,16504.216232086812,-8263.773179752961,10.255286094134105,16533.786085768566,40258.24132198461,9.43825406624591,16563.630086497844,-6198.251681247635,24.30142304056796,16790.086465458888,8225.717568374672,29.73766440073724,0.98692723920421,100.0,71.0,94.0,238.0,332.0,29.0,801.0,802.0,30.0,15.0,15.0,0.5,140.935445343458,3867.6228242836783,22.0,13.0,9.0,0.5909090909090909,717.619611960383,2840.200730931992,22.0,11.0,11.0,0.5,1995.2782761665903,35589.47139453725,31.0,10.0,21.0,0.3225806451612903,441.01512885085936,11457.576361720432,65.0,32.0,33.0,0.4923076923076923,67.1262587330202,8708.735460816502,0.0,0.0,0.0,0.0,16391.0,16420.0,16491.0,16513.0,16523.0,16545.0,16554.0,16585.0,16758.0,16823.0,0.03616183606540611,-0.08683921936756687,0.04956198310324573,-0.07115153619610493,0.008160535318049309
20,20,17197.193860092273,3415.8846675939512,14.955741328206356,17302.717688549586,-8460.201850623043,12.035348481867754,17328.44223203024,42778.94463649817,9.516819571847654,17361.397287201147,-4188.972923663309,20.383723206912453,17580.510941750585,7722.640537683389,27.211626230955236,0.9902850629676478,109.0,71.0,127.0,198.0,325.0,38.0,792.0,795.0,38.0,18.0,20.0,0.4736842105263157,94.25140459877755,3480.463595681136,20.0,15.0,5.0,0.75,1058.1944246084756,4055.47753746153,22.0,10.0,12.0,0.4545454545454545,2153.803795682474,42564.07515483213,65.0,11.0,54.0,0.1692307692307692,290.5189784103134,6967.723747430195,68.0,35.0,33.0,0.5147058823529411,69.79340143916895,7975.781650795006,0.0,0.0,0.0,0.0,17179.0,17217.0,17288.0,17308.0,17318.0,17340.0,17350.0,17415.0,17547.0,17613.0,0.027592092172469475,-0.12507909897333547,0.050347286824951036,-0.06935327196057665,0.00903750486619248
21,21,17966.034914124935,4488.990877702664,21.24642361147733,18064.66234718081,-6040.66025348594,8.658133754469842,18090.82673444719,37365.24230602691,9.408647961712829,18114.876695499283,-4043.5220417029295,12.644551002495202,18336.260172995684,7623.514019324053,41.688333032858345,0.983742963349736,108.0,62.0,83.0,243.0,326.0,46.0,766.0,762.0,47.0,22.0,25.0,0.4680851063829787,107.33280609922446,4602.021932425033,18.0,13.0,5.0,0.7222222222222222,907.0474942556588,4749.143370542968,23.0,12.0,11.0,0.5217391304347826,1917.5118530562904,35536.41684246485,26.0,4.0,22.0,0.1538461538461538,856.6209579137843,14667.070862283814,94.0,47.0,47.0,0.5,66.57887809848495,8300.446466764875,0.0,0.0,0.0,0.0,17945.0,17991.0,18053.0,18070.0,18079.0,18102.0,18112.0,18136.0,18297.0,18379.0,0.02391023038882946,-0.15015701201407916,0.051318062849735654,-0.21185020115607392,0.008733358124576287
22,22,18761.223411264877,2933.564187505859,10.799833150575786,18864.397287201147,-9560.94999389388,14.226617783346766,18888.526906003222,46883.83609780023,9.743836321614848,18923.821948101293,-4334.323306511727,22.93168860777651,19146.713954176834,7037.759990720019,24.4758084336296,0.9878085781228496,101.0,73.0,151.0,180.0,331.0,28.0,796.0,798.0,30.0,15.0,15.0,0.5,108.29159483917722,2896.7741078717754,22.0,17.0,5.0,0.7727272727272727,1208.6092724455602,5709.314185538426,22.0,11.0,11.0,0.5,2263.4266769381397,43841.74521607131,89.0,13.0,76.0,0.146067415730337,193.72428426212863,5551.066265368767,66.0,34.0,32.0,0.5151515151515151,69.33984264920603,6789.685960849635,0.0,0.0,0.0,0.0,18747.0,18775.0,18848.0,18869.0,18878.0,18900.0,18911.0,18999.0,19113.0,19179.0,0.03691468395353151,-0.12641100238129485,0.04827733533187441,-0.04469539315885467,0.009852544380688949
23,23,19536.471908268944,4603.66286391779,13.204931804387972,19635.018369416102,-7296.328861123308,8.770964063730519,19661.376567634474,37276.1867930495,9.388942200456489,19686.602712798853,-3865.500400423407,20.383723206912453,19910.541026617448,8409.121195958583,31.6151414324973,0.987505035634744,102.0,70.0,88.0,236.0,324.0,32.0,777.0,772.0,32.0,15.0,17.0,0.46875,156.134648185186,4811.6970903460515,18.0,12.0,6.0,0.6666666666666666,903.578749418644,2162.187643044877,22.0,11.0,11.0,0.5,1887.3408405864989,35927.76880884298,30.0,5.0,25.0,0.1666666666666666,687.7951717408633,13055.780617634377,72.0,36.0,36.0,0.5,74.36803583423377,9007.526973600618,0.0,0.0,0.0,0.0,19521.0,19553.0,19623.0,19641.0,19650.0,19672.0,19682.0,19711.0,19875.0,19947.0,0.03391530891823667,-0.12384018958261885,0.05063127435927571,-0.17793172952860795,0.008843734571214764
24,24,20300.589664864976,4245.994212409502,31.44170915912331,20397.06336397806,-5619.478995105508,7.440489485771029,20423.15385347269,41158.59289181941,9.551708626588956,20449.027373698995,-4095.0652787411022,9.418473064925964,20674.25702167519,9346.167477988576,39.48049645805419,0.9868826846729796,107.0,61.0,77.0,252.0,329.0,46.0,764.0,762.0,46.0,22.0,24.0,0.4782608695652174,110.2756881736429,5116.410568366084,15.0,11.0,4.0,0.7333333333333333,967.8786595890964,5971.85033095204,23.0,11.0,12.0,0.4782608695652174,2054.932167118417,40922.15303044809,19.0,4.0,15.0,0.2105263157894736,858.3247517416389,13953.23082017829,83.0,41.0,42.0,0.4939759036144578,91.42130062314124,10759.67797453601,0.0,0.0,0.0,0.0,20279.0,20325.0,20386.0,20401.0,20412.0,20435.0,20445.0,20463.0,20634.0,20715.0,0.025971700067641882,-0.17223636932037756,0.049927172498816175,-0.2095997727307301,0.009781688680247827
25,25,21066.06862153088,2309.9514188801218,7.568471561618379,21172.397287201147,-10240.029851851585,20.383723206912453,21196.281142150903,53905.863617493145,9.899938773946946,21233.246609001435,-7114.350213450418,25.47965400864057,21450.371503552116,8461.011321811242,23.178628852877036,0.9640380439332612,100.0,77.0,138.0,188.0,326.0,23.0,766.0,773.0,24.0,12.0,12.0,0.5,119.01791190621203,2232.123258526591,24.0,19.0,5.0,0.7916666666666666,1376.8966564657487,6613.310116674786,23.0,11.0,12.0,0.4782608695652174,2434.238666754102,48186.307087305846,75.0,14.0,61.0,0.1866666666666666,222.86234030999324,8255.322497318522,68.0,37.0,31.0,0.5441176470588235,118.989815342473,9593.212788736557,0.0,0.0,0.0,0.0,21055.0,21078.0,21155.0,21177.0,21185.0,21208.0,21219.0,21293.0,21415.0,21481.0,0.05152398917718912,-0.13446217212118583,0.045157214881613734,-0.031325747766626506,0.014063308842967123
26,26,21829.988827509787,4534.961397521728,45.86337721555302,21930.588668791563,-5742.77356325337,11.2922709049296,21958.373034426688,47351.39935354599,9.48975711619098,21984.45203459914,-3957.1622009405983,7.292733402866173,22196.646597705963,8560.886252577657,58.7979845295824,0.9732274529291024,97.0,59.0,80.0,252.0,332.0,38.0,771.0,763.0,42.0,14.0,28.0,0.3333333333333333,169.1382181546882,7447.203933853496,21.0,16.0,5.0,0.7619047619047619,836.6463660917391,5934.442007493847,23.0,11.0,12.0,0.4782608695652174,2346.2548039232715,48300.10921932215,15.0,3.0,12.0,0.2,1018.8676123101096,15374.177540451012,85.0,35.0,50.0,0.4117647058823529,97.85180305936792,11250.666084381814,0.0,0.0,0.0,0.0,21818.0,21856.0,21915.0,21936.0,21947.0,21970.0,21981.0,21995.0,22162.0,22247.0,0.037296506701715054,-0.1456868108896437,0.04954985145011492,-0.25747431127991915,0.011430101997898295
27,27,22605.05463886118,3685.125515831612,11.693699081828228,22704.97262630055,-9278.09608492322,10.5089071278607,22730.462534875533,49873.309726244814,10.011816959173508,22758.602712798853,-5254.0893535488485,13.308716324312504,22982.944543652116,9225.088226512156,24.244764296797477,0.9927871818986695,99.0,73.0,84.0,238.0,322.0,26.0,768.0,772.0,26.0,13.0,13.0,0.5,162.19016952108822,3987.475914016059,20.0,15.0,5.0,0.75,1271.3786300937693,7193.895216180394,23.0,11.0,12.0,0.4782608695652174,2447.6057232375347,50982.96443888405,21.0,5.0,16.0,0.238095238095238,802.0007837798469,14246.720887929694,59.0,29.0,30.0,0.4915254237288136,61.81686487980448,9600.213469301303,0.0,0.0,0.0,0.0,22592.0,22618.0,22691.0,22709.0,22719.0,22742.0,22754.0,22775.0,22954.0,23013.0,0.044012115414876776,-0.13703012109992505,0.049076464679654735,-0.15264315656111546,0.00670095107623446
28,28,23381.546555798068,5824.49911121733,12.93195231203715,23483.79413324555,-8667.923236155855,8.056270723922523,23509.981925758264,45499.74400619909,9.537644646719842,23537.027373698995,-4020.188532609736,11.508829621755211,23760.802361233546,8281.857711138151,33.70869293184291,0.9933575220155778,107.0,74.0,81.0,251.0,332.0,33.0,776.0,779.0,33.0,17.0,16.0,0.5151515151515151,166.39591412978376,5441.459165709476,17.0,12.0,5.0,0.7058823529411765,1185.1034214431943,4669.0336131511685,22.0,11.0,11.0,0.5,2304.99090480378,45314.55051569959,22.0,5.0,17.0,0.2272727272727272,798.0628479637817,13563.856550368842,90.0,46.0,44.0,0.5111111111111111,30.035371027706788,7883.894412354803,0.0,0.0,0.0,0.0,23365.0,23398.0,23472.0,23489.0,23499.0,23521.0,23533.0,23553.0,23715.0,23804.0,0.02856827873993902,-0.13672287918977657,0.05065942578687338,-0.1985137864779971,0.003626646590089643
29,29,24167.286808834026,4158.071143528575,19.75413460904238,24269.972626301005,-8804.550688207253,11.0737490528506,24295.359291130284,50074.36485098773,9.900537524858075,24327.32873009842,-3762.139327925543,15.34202386791693,24541.81396973991,8756.120543709349,34.99207951561977,0.9878759286958292,107.0,61.0,89.0,239.0,328.0,46.0,782.0,786.0,49.0,20.0,29.0,0.4081632653061224,118.6185073442894,4059.592163995507,21.0,16.0,5.0,0.7619047619047619,1240.456279988271,7620.40257202464,23.0,11.0,12.0,0.4782608695652174,2450.953055449542,51376.48131130877,24.0,6.0,18.0,0.25,492.9859470312869,9222.795670317108,85.0,42.0,43.0,0.4941176470588235,103.30048445662894,9896.79101934588,0.0,0.0,0.0,0.0,24148.0,24194.0,24255.0,24274.0,24284.0,24307.0,24321.0,24344.0,24501.0,24583.0,0.028527291441105242,-0.14088808434594266,0.04894626347719308,-0.13103872665532595,0.01179751739836919
30,30,24942.945252602018,4355.882963829181,13.588661102163716,25034.107874490244,-9292.380546151637,7.831587559801439,25061.874757049576,47060.061735385854,9.005191445802792,25131.273830122176,-3291.7343283858336,7.973894814918537,25313.99973528081,7631.402039671112,33.581700276229114,0.9733547440905066,100.0,56.0,120.0,207.0,327.0,44.0,775.0,766.0,45.0,21.0,24.0,0.4666666666666667,52.7093203561348,3933.694511188449,18.0,11.0,7.0,0.6111111111111112,1060.957047975089,197.35345212318043,23.0,11.0,12.0,0.4782608695652174,2350.651542418609,46770.49475334793,23.0,11.0,12.0,0.4782608695652174,174.1249360733648,3213.857806550257,81.0,43.0,38.0,0.5308641975308642,156.1282769752315,9624.042148832614,0.0,0.0,0.0,0.0,24923.0,24967.0,25023.0,25041.0,25051.0,25074.0,25120.0,25143.0,25272.0,25350.0,0.012100720059245796,-0.11417494609758266,0.04995003099732622,-0.05289762742145426,0.020458662269870413
31,31,25687.74840496551,3629.715620473827,12.88088539903065,25783.972626301005,-6738.2086814119675,11.98321014392893,25807.265869104023,36719.68312120244,9.093270617406024,25830.876695499283,-3443.86584074081,9.881481875278684,26059.93144289727,6768.33381404228,27.445188318002767,0.9735140695993796,98.0,58.0,75.0,244.0,319.0,40.0,746.0,746.0,41.0,18.0,23.0,0.4390243902439024,82.5869356193554,3279.1055073082407,20.0,16.0,4.0,0.8,1018.526346794921,6618.642730892928,21.0,10.0,11.0,0.4761904761904761,1973.8350270829687,36847.22432732695,15.0,3.0,12.0,0.2,878.1591847215174,14206.455885956086,71.0,38.0,33.0,0.5352112676056338,129.7655880423006,7595.032730396426,0.0,0.0,0.0,0.0,25670.0,25710.0,25768.0,25788.0,25797.0,25818.0,25828.0,25843.0,26025.0,26087.0,0.022753004437459045,-0.15115684226352757,0.05375414108471022,-0.25499227476660835,0.01917245685682281
32,32,26413.15731380487,5110.98420667028,11.260951038520734,26511.972626301005,-7117.644725255958,17.81413272074292,26536.2564094378,43017.5791130587,9.473204996509638,26560.027373698995,-5878.410492114014,14.406615529869132,26783.96878820368,7542.228601226071,33.781080192268504,0.9814068578161816,98.0,68.0,87.0,238.0,325.0,30.0,728.0,728.0,30.0,15.0,15.0,0.5,179.76908200666497,5081.619731129447,22.0,17.0,5.0,0.7727272727272727,1083.1783083531466,6181.687126882108,21.0,10.0,11.0,0.4761904761904761,2110.2405614948975,38955.92752678334,28.0,4.0,24.0,0.1428571428571428,1013.3744374060852,18236.10113841961,72.0,35.0,37.0,0.4861111111111111,53.45365626599726,8238.596698186448,0.0,0.0,0.0,0.0,26398.0,26428.0,26496.0,26516.0,26526.0,26547.0,26556.0,26583.0,26750.0,26821.0,0.03517308501404693,-0.1521821262741088,0.04905530727214491,-0.17238919241273537,0.007087249550790304
33,33,27121.93144289727,3394.6356466934817,48.41134261641227,27230.803714417503,-7445.562448082888,9.21444051455246,27256.603291389587,42638.933388035635,9.628676619621924,27283.602712798853,-4297.92156528634,11.799766063712733,27506.503885259714,7654.729633111497,38.598337737130414,0.9789771615309502,108.0,64.0,83.0,246.0,329.0,44.0,719.0,721.0,50.0,14.0,36.0,0.28,116.4798510806432,5787.952477428652,17.0,12.0,5.0,0.7058823529411765,1081.8718901459513,5709.091125922444,23.0,12.0,11.0,0.5217391304347826,2157.9855710660577,41366.129225173536,23.0,5.0,18.0,0.217391304347826,715.0191691502456,12771.317313214971,81.0,39.0,42.0,0.4814814814814814,68.94793159854662,8670.680089062143,0.0,0.0,0.0,0.0,27111.0,27155.0,27219.0,27236.0,27245.0,27268.0,27279.0,27302.0,27469.0,27548.0,0.03431291696771625,-0.14530425306210623,0.050610683701379416,-0.1663639408697792,0.009007232770221389
34,34,27851.126923320993,4304.0728291136,14.117192926935934,27951.397287201147,-7039.773345813756,12.047270411752958,27976.112251625367,40948.91755531627,9.723290222964552,28002.17805189871,-5451.788655252711,13.584684345528622,28221.765974005157,8307.32153444394,34.77811278056463,0.988350165816589,102.0,68.0,86.0,241.0,327.0,34.0,718.0,719.0,34.0,17.0,17.0,0.5,127.8003678385416,4217.99834662996,20.0,15.0,5.0,0.75,1005.510655521368,5861.944727096449,22.0,11.0,11.0,0.5,2067.9276534715073,39614.87422956173,26.0,5.0,21.0,0.1923076923076923,828.808445788627,15425.866098229211,84.0,43.0,41.0,0.5119047619047619,77.0004917758905,9305.55405084983,0.0,0.0,0.0,0.0,27834.0,27868.0,27936.0,27956.0,27965.0,27987.0,27997.0,28022.0,28179.0,28263.0,0.029692891573319724,-0.14283281664448771,0.050500178684284525,-0.15202505052907422,0.009268991389899851
35,35,28546.77987640479,5507.951320223408,17.49223098835682,28645.66470823999,-6262.692829834419,8.096103550445742,28671.86457549372,33950.850814130754,9.532363552366128,28696.602712798853,-5809.961625286068,14.24200016749226,28914.918096402256,7886.08201314408,37.56978862618063,0.9866051625623063,105.0,68.0,83.0,239.0,322.0,37.0,698.0,695.0,37.0,18.0,19.0,0.4864864864864865,155.42248286309203,5828.517429477235,17.0,12.0,5.0,0.7058823529411765,872.6607363229583,3702.893024257786,22.0,12.0,10.0,0.5454545454545454,1745.0929546431348,31009.727526617684,25.0,5.0,20.0,0.2,750.1954262936758,14479.705501061104,83.0,41.0,42.0,0.4939759036144578,56.6940110430628,8921.92251827827,0.0,0.0,0.0,0.0,28529.0,28566.0,28634.0,28651.0,28660.0,28682.0,28692.0,28717.0,28874.0,28956.0,0.028217838870948468,-0.13934273323541413,0.05140056619484794,-0.1291222687304304,0.007189122678228352
36,36,29260.38043833327,4493.168573067546,16.00028406695058,29360.946489430993,-7896.2631981788,10.634644638871537,29387.741151785536,43094.11164273464,9.469948538246404,29412.602712798853,-5060.609964070037,20.383723206911306,29639.49870727699,7393.766178766295,32.91760847415616,0.9937946705463792,105.0,67.0,90.0,235.0,325.0,38.0,715.0,717.0,38.0,18.0,20.0,0.4736842105263157,114.18930641970957,4773.1339692230795,20.0,14.0,6.0,0.7,944.3913032288,2347.591793854076,22.0,11.0,11.0,0.5,2153.3175714513727,39295.873102106125,30.0,5.0,25.0,0.1666666666666666,877.2582386942947,16338.96898623617,72.0,37.0,35.0,0.5138888888888888,100.3512917221662,8603.209121182968,0.0,0.0,0.0,0.0,29242.0,29280.0,29347.0,29367.0,29377.0,29399.0,29408.0,29437.0,29604.0,29672.0,0.025413982262800124,-0.11959977517550519,0.049967791175349746,-0.17335029668809976,0.01357241888583912
37,37,29989.657287020396,4618.478507154557,15.101157714061772,30089.460358825098,-8517.066630519204,9.939449277452248,30115.62678645496,44719.00029195773,9.63116561599916,30143.753390998565,-3895.322100008045,19.374470740543536,30365.720431712856,6968.225962466652,31.72093567476749,0.9960490731249624,102.0,70.0,87.0,238.0,325.0,32.0,726.0,728.0,35.0,17.0,18.0,0.4857142857142857,157.13785045615285,4750.700615901045,19.0,13.0,6.0,0.6842105263157895,1034.1880672736015,3009.3887571984324,23.0,12.0,11.0,0.5217391304347826,2219.225446610881,42538.45800789178,26.0,6.0,20.0,0.2307692307692307,642.6524921867323,11862.207054846427,72.0,36.0,36.0,0.5,63.966854176585095,7398.249694993564,0.0,0.0,0.0,0.0,29974.0,30006.0,30076.0,30095.0,30104.0,30127.0,30138.0,30163.0,30331.0,30401.0,0.034023726691101444,-0.12142538178200878,0.049626007561040825,-0.16498057816204853,0.009179790454720236
38,38,30767.32627990081,4358.102192001403,14.613801676687848,30868.682123841747,-8358.925490963136,9.67583481875555,30894.69737725653,44772.50041142684,9.75739163605778,30923.178051898707,-3545.9782659887815,22.93168860777651,31147.082195072144,7702.496162316349,29.13718829447826,0.9954233349397033,105.0,70.0,84.0,239.0,323.0,35.0,777.0,779.0,37.0,17.0,20.0,0.4594594594594595,138.16125973273577,4367.989883252811,19.0,14.0,5.0,0.7368421052631579,1127.882948162376,5048.087415400123,23.0,12.0,11.0,0.5217391304347826,2175.363911327795,42689.73098762069,23.0,5.0,18.0,0.217391304347826,679.0420483037692,12047.436494693684,67.0,34.0,33.0,0.5074626865671642,92.451602524006,8267.244906364442,0.0,0.0,0.0,0.0,30751.0,30786.0,30856.0,30874.0,30883.0,30906.0,30918.0,30940.0,31114.0,31179.0,0.031702161547819734,-0.13493157097544822,0.04858705436010446,-0.19149639320037432,0.012002810592274713
39,39,31559.668973916898,3956.141474413462,16.35831991734546,31659.969611664324,-7539.895393179399,9.151060703226673,31686.25055823429,36243.0685665607,9.5445243079899,31715.47940829813,-4732.709105954399,15.314068682519595,31934.6696883118,6701.441870050284,31.99958304542509,0.9925330572353618,104.0,71.0,88.0,236.0,324.0,33.0,792.0,791.0,41.0,18.0,23.0,0.4390243902439024,131.6478035694038,3953.311501897274,19.0,13.0,6.0,0.6842105263157895,919.1333365694716,2479.5298813672134,22.0,11.0,11.0,0.5,1866.373470316254,35854.16576673256,27.0,7.0,20.0,0.2592592592592592,515.6096888693434,10650.444589473118,78.0,41.0,37.0,0.5256410256410257,63.20380865945053,7354.47439684463,0.0,0.0,0.0,0.0,31543.0,31576.0,31647.0,31666.0,31675.0,31697.0,31708.0,31735.0,31897.0,31971.0,0.03327681894614801,-0.12190266424663145,0.05149601135148486,-0.10894599210009241,0.009431374603414457
40,40,32383.217537613047,3703.5336596380967,14.125545062925903,32486.97262550382,-9132.495860520046,11.17099976511055,32511.532643008304,46383.86102310397,9.752804775028071,32538.602712798853,-3923.148009128062,20.383723206912453,32767.798099143187,7205.43309734024,26.074090527156493,0.994589982985246,108.0,69.0,90.0,232.0,322.0,39.0,823.0,826.0,40.0,18.0,22.0,0.45,94.43223562689175,3505.996217826886,20.0,15.0,5.0,0.75,1238.434818719988,6530.3516260421,22.0,11.0,11.0,0.5,2281.744499653868,43848.448208137015,30.0,5.0,25.0,0.1666666666666666,734.3296287994709,13356.899039531192,60.0,32.0,28.0,0.5333333333333333,110.53773419739224,7867.012854985386,0.0,0.0,0.0,0.0,32365.0,32404.0,32473.0,32491.0,32501.0,32523.0,32534.0,32563.0,32738.0,32795.0,0.025497874275056412,-0.13560748755154275,0.04919263832989933,-0.18717867057039206,0.015340886897998583
41,41,33180.90032950517,3821.306837645307,13.838200372567352,33283.83406054492,-8818.271787959726,10.276556847092204,33310.45870816169,44940.15487414516,9.70404587859121,33344.94355103933,-3457.7206924134093,22.93168860777651,33562.78942134606,7504.868748570146,27.28022734428396,0.9950084531812428,105.0,74.0,90.0,235.0,325.0,31.0,800.0,799.0,31.0,16.0,15.0,0.5161290322580645,132.49364198834087,3881.227688668106,20.0,14.0,6.0,0.7,1075.3092779383378,3354.440981737843,23.0,11.0,12.0,0.4782608695652174,2207.289870462509,45415.07783321277,26.0,11.0,15.0,0.4230769230769231,264.9203178585086,5666.97313978581,65.0,33.0,32.0,0.5076923076923077,78.9513136526156,7536.6394346552415,0.0,0.0,0.0,0.0,33165.0,33196.0,33270.0,33290.0,33299.0,33322.0,33334.0,33360.0,33530.0,33595.0,0.03467233792457859,-0.1219410451157268,0.049116205243262316,-0.07661703805046217,0.010520012580853954
42,42,34015.74224038422,4079.852152690717,14.954054717593294,34114.80441319262,-7433.45063394665,9.396313661319445,34141.41556088426,38723.56737373655,9.734141790325364,34168.178051898714,-4429.820330974657,16.888934737020456,34390.99476271321,8000.148202807295,33.76820258084621,0.9907691038929022,102.0,69.0,86.0,240.0,326.0,33.0,833.0,830.0,36.0,17.0,19.0,0.4722222222222222,137.76997476683638,4153.8747838888485,18.0,13.0,5.0,0.7222222222222222,945.6125121353072,3308.640201183533,23.0,11.0,12.0,0.4782608695652174,1922.4728731430512,37990.82870999989,26.0,5.0,21.0,0.1923076923076923,719.5407957582513,13242.645284432172,75.0,37.0,38.0,0.4933333333333333,94.53973675034268,9276.007898532916,0.0,0.0,0.0,0.0,34000.0,34033.0,34102.0,34120.0,34130.0,34153.0,34163.0,34188.0,34356.0,34428.0,0.0337683743456182,-0.1272104381533038,0.04964606836422122,-0.16243114663748376,0.011817248175123578
43,43,34820.50646902438,4037.492415417228,15.2701658800041,34921.31206118715,-8174.516986410715,10.202206448653474,34946.8067342113,42580.23680748901,9.636590708252232,34974.178051898714,-4493.639103029814,19.887064469894895,35198.006251759805,7316.33376759783,31.935407474975182,0.9937366427818332,105.0,66.0,88.0,238.0,326.0,39.0,804.0,806.0,40.0,18.0,22.0,0.45,106.24444312585888,3867.346544558769,19.0,13.0,6.0,0.6842105263157895,1048.1893952598996,3797.404972196698,22.0,11.0,11.0,0.5,2125.7441328564755,40280.60530999873,28.0,5.0,23.0,0.1785714285714285,694.054868002305,13485.20402169886,74.0,38.0,36.0,0.5135135135135135,89.42852289908657,8392.657948159935,0.0,0.0,0.0,0.0,34803.0,34842.0,34908.0,34927.0,34936.0,34958.0,34969.0,34996.0,35161.0,35234.0,0.026314462590731516,-0.12822646243226427,0.049923257648078645,-0.154452739102778,0.012223133298694303
44,44,35630.57236376785,4063.067189948081,16.567281451597744,35734.084091527315,-8835.156513110262,10.20454352137006,35760.05178629993,45606.285616431225,9.85244766228395,35791.32873009842,-3207.602939971061,22.240713489531377,36013.66862713646,7498.624391206465,28.017789447122126,0.9967945323321932,106.0,73.0,90.0,237.0,327.0,33.0,812.0,813.0,35.0,18.0,17.0,0.5142857142857142,135.67038478469442,4116.263112532555,19.0,14.0,5.0,0.7368421052631579,1121.8937868254948,4472.8747950356155,23.0,11.0,12.0,0.4782608695652174,2223.4934979642185,45269.22866165417,26.0,6.0,20.0,0.2307692307692307,465.0586931030555,9016.561765817183,68.0,35.0,33.0,0.5147058823529411,50.139140513016294,7523.699437353123,0.0,0.0,0.0,0.0,35614.0,35647.0,35720.0,35739.0,35749.0,35772.0,35785.0,35810.0,35979.0,36047.0,0.033391125089031096,-0.12698063527915385,0.048754101938157594,-0.14498636577108612,0.0066864451260972325
45,45,36431.466015887665,3656.0545603356113,13.020616952758866,36532.26632199312,-7953.814500988877,10.27648147358403,36559.294264079406,41737.944801026264,9.702732033209855,36587.32873009842,-4385.961748891236,28.027619409504627,36810.1966191089,7434.760915349721,28.327768000782847,0.9914984369618878,103.0,75.0,91.0,232.0,323.0,28.0,800.0,799.0,29.0,15.0,14.0,0.5172413793103449,138.54633202277125,3697.3420481063145,20.0,13.0,7.0,0.65,910.097130151629,963.1398636553222,23.0,11.0,12.0,0.4782608695652174,2023.5265794803229,39714.96132407271,31.0,6.0,25.0,0.1935483870967742,654.9794391433329,13153.50076834891,65.0,32.0,33.0,0.4923076923076923,65.99595096737933,7776.351152123872,0.0,0.0,0.0,0.0,36416.0,36444.0,36519.0,36539.0,36548.0,36571.0,36581.0,36610.0,36779.0,36842.0,0.03789503951222578,-0.11442272510107937,0.0484817014619888,-0.1493354198332693,0.008876674276253438
46,46,37246.290226123005,4090.155278626401,13.74799508789878,37349.825317407136,-8582.776130605787,11.636345698887546,37374.47260271304,42991.960931518,9.89516791492119,37403.178051898714,-4742.130369470755,13.466512846000922,37626.4967999155,7248.836287702344,29.884928495781836,0.9931039886477984,105.0,71.0,85.0,241.0,326.0,34.0,815.0,816.0,37.0,17.0,20.0,0.4594594594594595,128.15241770958676,4027.934304340013,20.0,16.0,4.0,0.8,1158.822594391216,6988.704287694158,22.0,10.0,12.0,0.4545454545454545,2147.1623575059757,43885.573331592415,24.0,6.0,18.0,0.25,675.6124311365904,12347.987958987173,68.0,33.0,35.0,0.4852941176470588,66.5568010099572,7772.027958448739,0.0,0.0,0.0,0.0,37230.0,37264.0,37335.0,37354.0,37364.0,37386.0,37398.0,37420.0,37593.0,37661.0,0.031331919934498,-0.13501722248806042,0.04994334547629023,-0.1424702356320904,0.009181722192135979
47,47,38098.76611211537,3431.8616045397584,13.77146779237921,38201.59029768513,-8735.48741732191,9.690211117209431,38228.72211906304,45960.555736108654,9.655272125829985,38257.753390998565,-3548.4845961313827,25.47965400864057,38482.710472696126,7831.285259711818,28.81450562411611,0.9943346765541448,107.0,74.0,87.0,240.0,327.0,33.0,853.0,854.0,34.0,17.0,17.0,0.5,108.19999507679648,3320.87137010477,20.0,14.0,6.0,0.7,1068.0858251030832,2975.6744594094266,23.0,12.0,11.0,0.5217391304347826,2237.847622585365,43596.41551592107,24.0,6.0,18.0,0.25,589.6462630992387,10930.414486448608,71.0,37.0,34.0,0.5211267605633803,74.27032148141424,8065.279497935429,0.0,0.0,0.0,0.0,38082.0,38115.0,38189.0,38208.0,38217.0,38240.0,38252.0,38276.0,38447.0,38516.0,0.03152807646254343,-0.12226974570247078,0.04869061278184703,-0.1661684719561925,0.00948379723357789
48,48,38965.06371919755,4084.470283653726,15.112379060945376,39066.60321179962,-7433.425895190978,8.886058648138116,39092.95170868193,37534.58341202586,9.5527110787182,39118.60271279886,-4715.980477010011,16.88599189009177,39341.01627697295,8294.46478115293,35.421818663903174,0.9892357894037276,105.0,76.0,85.0,243.0,328.0,29.0,867.0,864.0,30.0,16.0,14.0,0.5333333333333333,151.37547442371553,4185.097514472345,18.0,13.0,5.0,0.7222222222222222,959.0548134327944,3327.794151267757,22.0,11.0,11.0,0.5,1895.0849627705832,35312.55962967444,26.0,5.0,21.0,0.1923076923076923,724.3195763133753,13574.860839284169,83.0,41.0,42.0,0.4939759036144578,72.6611553805421,9079.026168673148,0.0,0.0,0.0,0.0,38949.0,38978.0,39054.0,39072.0,39082.0,39104.0,39114.0,39139.0,39302.0,39382.0,0.0370612255472952,-0.12901922033732127,0.05048903678956003,-0.15358833223427648,0.00876019819213003
49,49,39781.123574854195,3676.342285085949,16.275866108071835,39883.44250220743,-8128.159935136704,9.250598843714988,39910.40958943278,42330.84560674,9.45664548348022,39941.32634874732,-4053.825529933379,17.8357578060484,40163.07039434406,7502.986347627955,30.274008630166183,0.9946791631700942,107.0,70.0,89.0,238.0,327.0,37.0,816.0,817.0,38.0,17.0,21.0,0.4473684210526316,113.10756285231771,3795.9047182487784,19.0,12.0,7.0,0.631578947368421,944.9136822039288,1489.4453421159574,23.0,11.0,12.0,0.4782608695652174,2132.560083811164,42230.614826176985,45.0,9.0,36.0,0.2,450.44246650110506,8811.212558003575,71.0,35.0,36.0,0.4929577464788732,57.373605874499205,7806.439260448325,0.0,0.0,0.0,0.0,39764.0,39801.0,39871.0,39890.0,39899.0,39922.0,39932.0,39960.0,40128.0,40198.0,0.030766330793291025,-0.11625185647728482,0.050378395546901475,-0.11111540523267356,0.007646769328407172
50,50,40582.46737568112,3589.919653269532,14.338496191653132,40683.64872010102,-8816.558565196157,9.584030986843262,40710.48422243071,43644.29653495702,9.712161517383464,40737.60271279886,-4484.085285296839,20.383723206911796,40963.848290737944,7783.701995229518,27.020430294489262,0.9931491708038857,105.0,75.0,86.0,239.0,325.0,30.0,799.0,800.0,39.0,17.0,22.0,0.4358974358974359,124.02994073044152,3548.8077586811755,19.0,13.0,6.0,0.6842105263157895,1066.6192093807597,2992.073255454266,23.0,11.0,12.0,0.4782608695652174,2147.742058589503,42850.2185321223,25.0,5.0,20.0,0.2,723.0602123830663,13458.88418281208,65.0,33.0,32.0,0.5076923076923077,79.32887101251703,8060.004451936224,0.0,0.0,0.0,0.0,40566.0,40596.0,40671.0,40690.0,40699.0,40722.0,40733.0,40757.0,40931.0,40996.0,0.03454950325071505,-0.12097908741754371,0.04921014265562197,-0.16125032562470562,0.010191663434845807
51,51,41336.4850104153,4813.569948476058,19.127196158283255,41435.914882904464,-6539.717998281778,8.055677199672315,41461.88937997504,36542.188482188045,9.339753745137148,41486.60271279886,-4594.648916905565,16.26078759751716,41705.69420257371,8689.011832427406,39.538885810240984,0.9861353839086852,105.0,70.0,86.0,237.0,323.0,35.0,756.0,752.0,36.0,17.0,19.0,0.4722222222222222,162.1374886575823,5438.766239385992,17.0,12.0,5.0,0.7058823529411765,914.9925865466925,3557.156246845386,22.0,11.0,11.0,0.5,1870.6527371853288,33896.29636932629,28.0,5.0,23.0,0.1785714285714285,742.0758074135315,13987.452934555484,81.0,39.0,42.0,0.4814814814814814,86.40305314041544,10048.946472664458,0.0,0.0,0.0,0.0,41319.0,41354.0,41424.0,41441.0,41451.0,41473.0,41482.0,41510.0,41669.0,41747.0,0.033683418002248805,-0.13991315631455276,0.05119159018341638,-0.16150870737547227,0.009943944697826178
52,52,42079.750415275485,4385.1537637768115,15.720519944201545,42180.95303563288,-7827.046151980579,9.354332154586878,42207.92524063661,41289.40898298512,9.403072776163077,42233.027373699,-4705.82322823619,17.83575780429458,42457.17173218361,7956.391751174011,32.139895568362796,0.9918012392904724,106.0,72.0,85.0,239.0,324.0,34.0,743.0,746.0,35.0,17.0,18.0,0.4857142857142857,138.20261259418348,4406.237546842875,18.0,12.0,6.0,0.6666666666666666,944.4555109638524,1992.6047001669804,22.0,11.0,11.0,0.5,2091.706048655573,38582.742144197255,27.0,5.0,22.0,0.1851851851851851,862.9099949678919,15598.437062362036,75.0,38.0,37.0,0.5066666666666667,55.31738011108227,8557.389644321764,0.0,0.0,0.0,0.0,42063.0,42097.0,42169.0,42187.0,42197.0,42219.0,42229.0,42254.0,42420.0,42493.0,0.031516024303593265,-0.12066563715417271,0.05065962677057306,-0.183370677799838,0.006952571195720708
53,53,42821.45777036796,4605.5477301604105,14.388605762952812,42924.626380333735,-7977.033108025857,10.504111381954178,42949.71256854496,43317.08649900667,9.58472598523672,42975.60271279886,-4524.78191999562,14.257279878045592,43198.41895331363,8281.098820261222,32.25011973356082,0.992417530634064,106.0,72.0,82.0,240.0,322.0,34.0,743.0,742.0,34.0,16.0,18.0,0.4705882352941176,145.06230394785987,4818.007236760029,20.0,15.0,5.0,0.75,1142.1417700035172,6616.336329051313,22.0,11.0,11.0,0.5,2208.2301458566053,41606.60009871761,23.0,5.0,18.0,0.217391304347826,823.3488007051002,14401.654472156326,74.0,38.0,36.0,0.5135135135135135,77.60475606592384,9127.543517881975,0.0,0.0,0.0,0.0,42805.0,42839.0,42911.0,42929.0,42939.0,42961.0,42971.0,42993.0,43162.0,43233.0,0.031497296835702834,-0.14317876766167423,0.050978270339286175,-0.1819643057418107,0.009371311434667294
54,54,43586.73381450238,4734.699847690016,19.986933323256434,43687.32030235979,-6422.943374039726,8.46859459973471,43713.05039201007,35603.43394852704,9.377826348269926,43737.41319095048,-5165.292044655503,14.746243546821589,43958.10949479597,9199.532390181246,39.86305482286929,0.9819186025053972,106.0,68.0,86.0,237.0,323.0,38.0,764.0,763.0,39.0,18.0,21.0,0.4615384615384615,143.02040730227492,5192.217961920022,18.0,12.0,6.0,0.6666666666666666,872.1347905057443,3227.3728906679953,22.0,11.0,11.0,0.5,1852.2017174121277,33373.56143332581,28.0,4.0,24.0,0.1428571428571428,821.8286643500352,15518.236006736282,90.0,48.0,42.0,0.5333333333333333,65.79449300868212,10251.36973598876,0.0,0.0,0.0,0.0,43569.0,43607.0,43675.0,43693.0,43702.0,43724.0,43733.0,43761.0,43914.0,43998.0,0.030206858281006402,-0.13578428762594133,0.05202312001954395,-0.15910594352557014,0.00715193883972899
55,55,44384.42190019485,4112.854938190307,14.00612423100985,44487.4002038705,-7676.066520444816,11.505908266582518,44513.036058299986,41252.72967643259,9.655786315538844,44538.60271279886,-5793.753329911842,20.04241717223025,44763.15030120204,8071.086151116271,29.771225657244564,0.9925401683523314,105.0,75.0,88.0,237.0,325.0,30.0,797.0,800.0,31.0,16.0,15.0,0.5161290322580645,149.68939229003237,4190.159703259256,20.0,14.0,6.0,0.7,954.7868991641354,3096.9172038962665,22.0,11.0,11.0,0.5,2042.4959145007183,37878.94321196375,29.0,6.0,23.0,0.2068965517241379,808.8306506182266,15863.751645045246,72.0,37.0,35.0,0.5138888888888888,68.47337409563364,8610.376761583246,0.0,0.0,0.0,0.0,44368.0,44398.0,44473.0,44493.0,44502.0,44524.0,44534.0,44561.0,44727.0,44798.0,0.036395495231323925,-0.12438491727776312,0.04951177608175545,-0.1396039155554684,0.008483786793201735
56,56,45227.01000892954,3486.314867620119,13.039640010254743,45332.972626301,-8265.587380067604,12.850163357190524,45357.05102652392,44504.494316978926,9.52239661115569,45387.0231152349,-5255.598425985704,20.383723206912453,45609.87604510325,7949.72378267088,28.5046160548349,0.9916390944636088,107.0,76.0,92.0,233.0,325.0,31.0,843.0,844.0,32.0,16.0,16.0,0.5,119.29956527652942,3416.616641629152,21.0,16.0,5.0,0.7619047619047619,1174.314445809542,6646.163683913419,22.0,11.0,11.0,0.5,2222.4388616642755,42025.471181283945,32.0,9.0,23.0,0.28125,482.34555569445,10853.403009147383,67.0,33.0,34.0,0.4925373134328358,88.7384285240026,8496.188180195182,0.0,0.0,0.0,0.0,45211.0,45242.0,45318.0,45337.0,45346.0,45368.0,45378.0,45410.0,45578.0,45643.0,0.03421938918499565,-0.1420727156839926,0.049937402857229904,-0.09177747548396158,0.011162454312870355
57,57,46138.83901515459,3437.9967423742505,14.173783790312877,46240.43562352254,-7625.365276179393,9.488885803042397,46266.53698094449,38556.59076546749,9.359881942468302,46291.178051898714,-5650.14245038131,20.704879963313253,46518.22672556885,8488.494413507377,31.481943904673265,0.9883406914857544,105.0,75.0,87.0,241.0,328.0,30.0,912.0,909.0,32.0,17.0,15.0,0.53125,119.3609887447396,3394.9409227809792,19.0,12.0,7.0,0.631578947368421,897.4668382655334,1277.2146111540892,21.0,11.0,10.0,0.5238095238095238,1959.2001138177477,33789.192007750215,30.0,5.0,25.0,0.1666666666666666,839.1539144446696,16570.260913573366,76.0,36.0,40.0,0.4736842105263157,52.20475703488825,8588.801856673148,0.0,0.0,0.0,0.0,46123.0,46153.0,46228.0,46247.0,46256.0,46277.0,46286.0,46315.0,46484.0,46556.0,0.0347181797101733,-0.1176949307686411,0.050813624205915786,-0.14851907218516902,0.006150060834323819
58,58,46995.96082368486,2959.1221174810107,18.284222025307248,47096.008062586945,-7797.265380704562,10.096197601627836,47122.42702388878,37024.37272695242,9.58267872630161,47148.178051898714,-6268.347245783356,17.225721274824295,47373.12131770451,8096.934467960148,29.530194247040452,0.9870082800820752,108.0,59.0,88.0,238.0,326.0,49.0,854.0,856.0,51.0,22.0,29.0,0.4313725490196078,59.64061445840136,2600.542282478352,19.0,13.0,6.0,0.6842105263157895,893.1001919682683,1911.8991804078632,22.0,11.0,11.0,0.5,1897.7236752655544,34906.192133228324,29.0,6.0,23.0,0.2068965517241379,752.8990730037979,15496.5310667437,73.0,36.0,37.0,0.4931506849315068,85.65135610899627,8789.250963162809,0.0,0.0,0.0,0.0,46975.0,47024.0,47083.0,47102.0,47111.0,47133.0,47143.0,47171.0,47338.0,47409.0,0.020154833795494445,-0.11454018150752843,0.05125606554528011,-0.12011125795723335,0.010578244945407631
59,59,47833.63377289753,3133.487790605462,11.197577107659326,47935.12036118811,-7989.360837074536,11.242908216304608,47961.61094660554,40735.641101818524,9.349253601968568,47990.53352782193,-5839.585755522221,20.383723206912453,48216.919538979826,7913.501675337712,26.58525452423215,0.987251405709076,103.0,74.0,90.0,237.0,327.0,29.0,842.0,840.0,30.0,15.0,15.0,0.5,107.149632365282,2981.822541356788,21.0,14.0,7.0,0.6666666666666666,916.524380861242,1438.2483844691287,21.0,11.0,10.0,0.5238095238095238,2083.571797176622,36719.49099786541,31.0,9.0,22.0,0.2903225806451613,497.30032790553247,11225.099760456962,62.0,30.0,32.0,0.4838709677419355,87.898702225533,8497.693759012505,0.0,0.0,0.0,0.0,47819.0,47848.0,47922.0,47942.0,47951.0,47972.0,47982.0,48012.0,48187.0,48249.0,0.03419500554191667,-0.11471811069142368,0.05114861926362581,-0.0851602063443043,0.011107434588592778
60,60,48679.1958878488,3353.5722640965687,13.709628932301596,48782.17761573383,-7915.235059412604,8.73344682386175,48809.0787182585,41741.72463465534,9.223467365534017,48837.68409836096,-4726.169926456823,20.383723206912453,49065.76561171513,8034.963301793259,27.918704301764492,0.992211717336706,108.0,77.0,89.0,238.0,327.0,31.0,845.0,847.0,31.0,16.0,15.0,0.5161290322580645,118.0669009925228,3427.6040634746964,18.0,11.0,7.0,0.6111111111111112,947.6095638197326,1351.4317237766609,22.0,11.0,11.0,0.5,2137.221095474981,39344.26400385889,31.0,9.0,22.0,0.2903225806451613,503.49860875518823,10752.938885571712,65.0,32.0,33.0,0.4923076923076923,98.83348935457498,8556.76443336665,0.0,0.0,0.0,0.0,48663.0,48694.0,48771.0,48789.0,48798.0,48820.0,48829.0,48860.0,49035.0,49098.0,0.035206308883380895,-0.11971969963075935,0.05120107312721312,-0.10653417388499563,0.012300428221310871
61,61,49503.80199041374,3637.036046215429,18.870458329189212,49604.46206401226,-6819.965007238888,9.493444162266975,49630.81199774822,37864.93439975192,9.38214875042965,49655.178051898714,-5724.643203257914,20.70769186798331,49881.56067810094,8333.366848758908,33.26614309820634,0.987358438923338,107.0,68.0,88.0,242.0,330.0,39.0,827.0,822.0,39.0,19.0,20.0,0.4871794871794871,104.71750238096446,3935.805066633307,19.0,12.0,7.0,0.631578947368421,828.081778615696,1653.8527027912623,21.0,11.0,10.0,0.5238095238095238,1908.8991725653564,33456.560624182355,31.0,5.0,26.0,0.1612903225806451,849.2896500346458,16713.89070671382,80.0,40.0,40.0,0.5,74.77536676122818,9180.442622906488,0.0,0.0,0.0,0.0,49485.0,49524.0,49592.0,49611.0,49620.0,49641.0,49650.0,49680.0,49843.0,49922.0,0.028791989150046996,-0.12142023862831386,0.0504133759327961,-0.1483567831007026,0.008973007923245875
62,62,50287.5186030124,4243.916043041914,15.050171938057591,50386.60474363081,-6962.920095786819,9.249120319940682,50413.24652396961,39434.355017898866,9.318691676887886,50437.027373699,-5164.3983827364855,17.835757806048395,50664.32997292769,8151.821073150803,32.79048943773398,0.9912389522184484,104.0,68.0,87.0,241.0,328.0,36.0,781.0,782.0,37.0,19.0,18.0,0.5135135135135135,120.01170670012152,4038.734302691954,19.0,13.0,6.0,0.6842105263157895,914.9852612925966,3253.550239210616,22.0,11.0,11.0,0.5,2013.056322352802,36724.21436778817,29.0,4.0,25.0,0.1379310344827586,922.8656936348896,16871.10514292277,78.0,39.0,39.0,0.5,99.60050593166494,9290.299111270377,0.0,0.0,0.0,0.0,50270.0,50306.0,50374.0,50393.0,50402.0,50424.0,50433.0,50461.0,50627.0,50702.0,0.028278529896199514,-0.13140826674806214,0.0510482882613167,-0.17869761882039126,0.012218190884943924
63,63,51073.53131645989,4532.408188528965,18.356165041676046,51174.906778622,-6781.998331895002,9.421344409350548,51200.84898740613,40504.867891955255,9.394967360512716,51225.60271279886,-4807.659167238942,14.313210284753431,51454.64305019551,7874.396364434961,31.80454698415796,0.994908747382262,105.0,68.0,83.0,246.0,329.0,37.0,785.0,788.0,39.0,18.0,21.0,0.4615384615384615,134.20184829884096,4841.05797426581,18.0,13.0,5.0,0.7222222222222222,965.0412253887778,4631.824337265602,22.0,11.0,11.0,0.5,2088.7524015884364,38283.83400303947,25.0,5.0,20.0,0.2,847.1325842431913,15191.129147752374,77.0,40.0,37.0,0.5194805194805194,73.36551586846147,8268.96625692871,0.0,0.0,0.0,0.0,51057.0,51094.0,51162.0,51180.0,51190.0,51212.0,51221.0,51245.0,51417.0,51491.0,0.02960939145739153,-0.14229452414494023,0.051567935171646054,-0.1762047921399767,0.009316970148952608
64,64,51872.48519197347,3706.850259510503,10.248555453882084,51978.39728720114,-7552.169195195693,14.274199568657616,52003.44045360432,43390.44293011498,9.669191580989748,52029.178051898714,-5445.790971075262,22.93168860777651,52257.38442183807,7721.834215886464,28.68275732456444,0.9893471394033836,103.0,79.0,90.0,239.0,329.0,24.0,801.0,803.0,24.0,12.0,12.0,0.5,168.81023517778215,3888.123936113304,21.0,16.0,5.0,0.7619047619047619,997.090466386748,3963.897881718939,22.0,10.0,12.0,0.4545454545454545,2082.503714589127,40088.0893065452,30.0,5.0,25.0,0.1666666666666666,860.2211885803474,16547.61389413072,72.0,36.0,36.0,0.5,52.751641162903766,7920.161431730563,0.0,0.0,0.0,0.0,51860.0,51884.0,51963.0,51983.0,51993.0,52015.0,52024.0,52053.0,52221.0,52292.0,0.045540074014231664,-0.13202702966732344,0.04799452538300255,-0.15796074310404504,0.006831491027659662
65,65,52671.47771323578,3679.382666755113,15.167207241498083,52772.54797072195,-7200.564876816083,9.060693339543784,52798.749406222465,36601.478863434015,9.36116662432515,52822.60271279886,-6114.682202579669,19.42895589408567,53050.2327992967,8062.962267275266,31.631473284249388,0.984988306229434,108.0,71.0,86.0,236.0,322.0,37.0,798.0,794.0,38.0,18.0,20.0,0.4736842105263157,105.02216439970351,3609.5534009880066,19.0,13.0,6.0,0.6842105263157895,918.1287263620015,2649.958450245037,21.0,11.0,10.0,0.5238095238095238,1866.0960754139885,31878.147521091407,30.0,5.0,25.0,0.1666666666666666,821.4948619761634,16480.15343773387,75.0,41.0,34.0,0.5466666666666666,72.07460813962079,8747.580043820199,0.0,0.0,0.0,0.0,52653.0,52690.0,52761.0,52779.0,52788.0,52809.0,52818.0,52847.0,53012.0,53083.0,0.02854341989177323,-0.12750787501660232,0.05098417149691389,-0.13434792434995071,0.008938973760567667
66,66,53468.757544813,4365.23276555043,15.809716605290005,53570.77996979895,-7030.570926445286,10.135164719532698,53596.73018716167,42201.52572537558,9.420248539555304,53621.60271279886,-4960.469048075976,18.66153836856312,53850.631924766334,7875.209796494534,30.083546579518977,0.9948308983875148,107.0,68.0,86.0,241.0,327.0,39.0,797.0,799.0,40.0,18.0,22.0,0.45,116.92966085652088,4276.287785017319,19.0,14.0,5.0,0.7368421052631579,991.707685307809,4615.496884051167,22.0,11.0,11.0,0.5,2129.6200409816606,38667.265555970574,28.0,5.0,23.0,0.1785714285714285,846.4966285526106,15850.436039846363,70.0,36.0,34.0,0.5142857142857142,80.39693918873611,8460.241843320544,0.0,0.0,0.0,0.0,53451.0,53490.0,53558.0,53576.0,53586.0,53608.0,53617.0,53644.0,53816.0,53885.0,0.0267865809537826,-0.14105649394383174,0.050463105406189854,-0.17064850528216527,0.010208863162543673
67,67,54300.699730079694,3836.758624425054,11.20328872790612,54405.444418437815,-9031.164014990683,11.50848186163789,54429.82586412033,44558.90500472494,9.713605477585128,54456.957086233255,-4953.982940902963,20.383723206912453,54686.641140262254,7213.740246373645,26.353858420786626,0.99203176193523,104.0,78.0,88.0,241.0,329.0,26.0,834.0,833.0,26.0,14.0,12.0,0.5384615384615384,165.08085129158405,3877.719464935313,19.0,14.0,5.0,0.7368421052631579,1163.1078030292576,4919.230466299899,22.0,11.0,11.0,0.5,2211.44296342126,41938.89779883779,29.0,6.0,23.0,0.2068965517241379,745.1184317169851,14348.099301811926,65.0,32.0,33.0,0.4923076923076923,60.09744548976017,7247.193149302567,0.0,0.0,0.0,0.0,54287.0,54313.0,54391.0,54410.0,54419.0,54441.0,54452.0,54479.0,54655.0,54720.0,0.04302612372867781,-0.12878824934400857,0.0496296523262132,-0.15040795267275836,0.008330968878449875
68,68,55182.458643015925,3985.0044388252313,15.009818335263011,55282.925984683825,-7118.461399309435,10.12657207660315,55308.44775856173,37980.41435949163,9.497194420918971,55334.178051898714,-5292.418215323393,17.512697101549573,55560.800256309376,8460.944900399447,32.151291418066855,0.9909847162428432,104.0,73.0,86.0,243.0,329.0,31.0,880.0,878.0,32.0,17.0,15.0,0.53125,137.97194957952573,4063.026385269998,19.0,14.0,5.0,0.7368421052631579,948.0552069497094,3963.905872592128,22.0,11.0,11.0,0.5,1941.3011201878255,36442.20586826252,28.0,5.0,23.0,0.1785714285714285,754.5902793816749,14844.330142672825,77.0,39.0,38.0,0.5064935064935064,60.18114167533658,8847.229206554266,0.0,0.0,0.0,0.0,55166.0,55197.0,55270.0,55288.0,55297.0,55319.0,55329.0,55356.0,55523.0,55599.0,0.03462278441531661,-0.13318260137530288,0.05111321592790042,-0.1425794879922515,0.007112815694201648
69,69,55979.06307341638,4075.977309510629,14.64490476127573,56080.862958999,-7224.304080462335,9.344243296126098,56106.635666486865,37549.94882147263,9.48337025160947,56131.60271279886,-5455.755134927287,18.31218321943907,56357.95881659626,7931.872635451818,33.10137930435965,0.9887633334646484,105.0,74.0,86.0,241.0,327.0,31.0,795.0,798.0,33.0,17.0,16.0,0.5151515151515151,139.05847929304213,4065.097671434584,18.0,13.0,5.0,0.7222222222222222,946.7693686448584,3455.379702348702,22.0,12.0,10.0,0.5454545454545454,1905.415314670158,33697.23784052102,28.0,5.0,23.0,0.1785714285714285,763.0594238683568,14995.93384139178,77.0,39.0,38.0,0.5064935064935064,47.59868814825962,8223.258632600864,0.0,0.0,0.0,0.0,55963.0,55994.0,56068.0,56086.0,56095.0,56117.0,56127.0,56154.0,56321.0,56395.0,0.034116597991988774,-0.13105336626199543,0.05074348632881656,-0.13986320958272383,0.0060009395430172955
70,70,56781.52451127812,3539.6406757473846,14.929283673341562,56882.08949417088,-7400.252616032236,11.42772562402717,56908.13737270549,42258.01844248685,9.636256427710022,56934.178051898714,-5152.044234718758,18.650183453143956,57163.13393971945,7848.960768876237,28.657215519901225,0.9946781203412188,103.0,73.0,89.0,239.0,328.0,30.0,803.0,802.0,33.0,17.0,16.0,0.5151515151515151,123.89036679659166,3405.324321863196,21.0,15.0,6.0,0.7142857142857143,960.0738380522766,3932.80449236758,22.0,11.0,11.0,0.5,2101.7984602041574,39886.75910343955,28.0,5.0,23.0,0.1785714285714285,811.110903797303,15557.328997087605,66.0,33.0,33.0,0.5,70.8357962142489,8384.580555679346,0.0,0.0,0.0,0.0,56765.0,56795.0,56868.0,56887.0,56897.0,56919.0,56929.0,56957.0,57131.0,57196.0,0.03500083148141374,-0.1297352790325468,0.049737269698642034,-0.15743477090731545,0.009024863074247562
71,71,57572.52219925126,3149.138691787473,9.791337418369473,57678.39728720114,-8438.935232593685,14.259782390401066,57702.89525187431,45283.14156369851,9.700627251471532,57730.46905046298,-5142.62422233062,22.93168860777651,57956.6662890105,7291.533131750251,27.79954409268463,0.9905049298330134,102.0,78.0,91.0,237.0,328.0,24.0,793.0,795.0,24.0,13.0,11.0,0.5416666666666666,140.9329212094516,3094.293176120612,21.0,16.0,5.0,0.7619047619047619,1096.3188710827496,4949.908777680621,22.0,11.0,11.0,0.5,2180.165434796965,41485.93222498275,30.0,6.0,24.0,0.2,759.3828286334327,14883.022902444967,67.0,34.0,33.0,0.5074626865671642,99.07301943600682,7965.267673070612,0.0,0.0,0.0,0.0,57560.0,57584.0,57662.0,57683.0,57692.0,57714.0,57725.0,57753.0,57923.0,57990.0,0.04475284673138898,-0.12991199018194133,0.04814518956751683,-0.14766445997278857,0.01358740578227688
72,72,58363.95282285548,4134.349197829505,19.35604479200543,58463.11194887954,-6148.805929504522,9.315774129344616,58488.49648994542,35906.3509034982,9.388755219703013,58513.60271279886,-4950.332944641553,16.2249823341362,58737.18217627907,8572.508770444674,36.22614700059557,0.9885710719595284,106.0,63.0,87.0,238.0,325.0,43.0,789.0,785.0,44.0,20.0,24.0,0.4545454545454545,100.5657630131618,4159.745000750829,18.0,13.0,5.0,0.7222222222222222,873.4191085173825,4300.491687081068,22.0,11.0,11.0,0.5,1853.5217565547553,34591.473176175015,28.0,5.0,23.0,0.1785714285714285,702.109706323541,13776.74958474821,80.0,41.0,39.0,0.5125,85.98722883648576,9737.298404098963,0.0,0.0,0.0,0.0,58344.0,58387.0,58450.0,58468.0,58477.0,58499.0,58509.0,58537.0,58698.0,58775.0,0.024324448226569224,-0.14204694676186724,0.05162100046134665,-0.1418308049529343,0.010030579278372137
73,73,59147.63478985975,3893.21915743561,15.08840152468365,59249.548267436345,-7521.109115785079,9.200266272587587,59275.8569672592,40189.775558054345,9.314376204911987,59300.027373699,-5512.813516925774,17.83575780604835,59526.722390830975,7928.670805776044,32.619742344506115,0.990604742457763,107.0,73.0,85.0,241.0,326.0,34.0,785.0,788.0,35.0,18.0,17.0,0.5142857142857142,121.04222450832512,3808.642905666068,19.0,13.0,6.0,0.6842105263157895,984.8496455560348,3445.9771330629296,21.0,11.0,10.0,0.5238095238095238,2061.7492282727017,36558.206763862036,28.0,5.0,23.0,0.1785714285714285,915.6490943226996,17045.803981627956,74.0,38.0,36.0,0.5135135135135135,58.70021116966006,8540.850464718877,0.0,0.0,0.0,0.0,59130.0,59164.0,59237.0,59256.0,59265.0,59286.0,59296.0,59322.0,59490.0,59563.0,0.031090524220078415,-0.13094473572907775,0.05130034193135749,-0.1660946976550936,0.007403537441218634
74,74,59997.49557772704,3618.10255628763,12.054703960377603,60101.972626301,-8245.001005605081,12.809787102065028,60126.488419699155,45404.76146241202,9.749343700517088,60153.7829193221,-4877.289398843059,22.93168860777651,60381.828040501154,7805.364045696357,27.957944471215544,0.9923943856683412,103.0,74.0,90.0,237.0,327.0,29.0,850.0,851.0,30.0,15.0,15.0,0.5,133.84180449221245,3697.012112253085,21.0,16.0,5.0,0.7619047619047619,1149.1022385162132,6449.840872448796,22.0,10.0,12.0,0.4545454545454545,2196.533276401932,43568.404588669066,29.0,6.0,23.0,0.2068965517241379,730.0409557955766,14102.16544589892,67.0,35.0,32.0,0.5223880597014925,95.7689928524748,8651.260052030948,0.0,0.0,0.0,0.0,59983.0,60012.0,60086.0,60106.0,60116.0,60138.0,60148.0,60176.0,60349.0,60413.0,0.03699226387588676,-0.13936956923777638,0.04837671657454506,-0.14968169737246872,0.012269638199038127
75,75,60966.07090015476,3450.103550326056,14.327107364341211,61066.11891231107,-7329.345459413899,9.724830494905785,61092.6718378401,38155.811447291206,9.485028283057526,61118.178051898714,-5395.293295517231,18.502178562937157,61346.43769089371,8411.086279562469,33.350243752833606,0.988041596475526,102.0,73.0,86.0,244.0,330.0,29.0,968.0,965.0,30.0,16.0,14.0,0.5333333333333333,130.4778435864494,3577.873047984095,19.0,13.0,6.0,0.6842105263157895,876.7623011948041,2054.642002774471,22.0,12.0,10.0,0.5454545454545454,1926.675164994688,34376.00001894038,27.0,5.0,22.0,0.1851851851851851,797.1954877429279,15289.85170200465,77.0,38.0,39.0,0.4935064935064935,85.13431784704241,9300.064425423116,0.0,0.0,0.0,0.0,60951.0,60980.0,61053.0,61072.0,61081.0,61103.0,61113.0,61139.0,61311.0,61383.0,0.03781852970010667,-0.11962354702065245,0.0504949335871474,-0.14775758129873884,0.010121679295325332
76,76,61878.39957917054,2976.2171043274916,13.660427207897984,61977.26809263507,-7504.4091766948495,9.61500993685027,62004.24896008135,40753.31603195666,9.46259392552363,62029.602712798995,-5594.915453328936,20.383723205520592,62259.64716701544,7417.531417133433,29.10577973228087,0.990474922548391,103.0,71.0,88.0,240.0,328.0,32.0,913.0,912.0,32.0,16.0,16.0,0.5,99.2636960335508,3019.766531381634,19.0,12.0,7.0,0.631578947368421,878.9911834845589,1374.4540479719049,22.0,11.0,11.0,0.5,2043.9292730668303,37752.79232805607,30.0,6.0,24.0,0.2,780.7595668468741,15559.74074931075,69.0,35.0,34.0,0.5072463768115942,87.15842706093105,8049.920421275696,0.0,0.0,0.0,0.0,61862.0,61894.0,61965.0,61984.0,61993.0,62015.0,62025.0,62053.0,62226.0,62293.0,0.03335230346241173,-0.11712996490307195,0.050153692314610324,-0.1395480545434029,0.01175032799451413
77,77,62799.9034192614,3195.128293228917,12.384313011375294,62901.72610544135,-9106.27428575421,10.184658669724817,62928.52707878136,45348.16556051462,9.448230473862212,62964.246609001435,-4619.445949668884,25.47965400864057,63190.16705702971,7447.139901177679,25.19820827065774,0.9928161245103448,103.0,77.0,93.0,239.0,332.0,26.0,921.0,925.0,27.0,15.0,12.0,0.5555555555555556,133.03477046872507,3312.6219094690377,19.0,13.0,6.0,0.6842105263157895,1072.1766801002125,2199.731954867101,22.0,11.0,11.0,0.5,2268.454182742791,42358.60558995677,34.0,14.0,20.0,0.4117647058823529,213.39389883351856,5656.779170977377,63.0,32.0,31.0,0.5079365079365079,70.84208790338222,7569.013811991921,0.0,0.0,0.0,0.0,62786.0,62812.0,62889.0,62908.0,62918.0,62940.0,62950.0,62982.0,63158.0,63221.0,0.04163675391396677,-0.11774043329416486,0.050023063881507276,-0.046194695458838385,0.009512657052700105
78,78,63705.37457765457,3339.8794802746343,15.734863878759592,63803.60136665983,-7494.001308634069,9.741973932332712,63829.87445025357,38910.24250904123,9.524633780806768,63854.60271279886,-5846.525444722972,19.086663432907415,64083.23641043543,8122.352379324625,32.15525598859848,0.9865426605352422,104.0,66.0,87.0,243.0,330.0,38.0,906.0,901.0,38.0,18.0,20.0,0.4736842105263157,92.30103517967096,3339.7023293319353,19.0,13.0,6.0,0.6842105263157895,958.1901830766232,3155.1899493500823,22.0,11.0,11.0,0.5,1957.0842192697432,35065.15407833098,29.0,5.0,24.0,0.1724137931034483,815.4136054007769,16079.272010657296,79.0,40.0,39.0,0.5063291139240507,65.1703167390987,8553.875247078213,0.0,0.0,0.0,0.0,63687.0,63725.0,63791.0,63810.0,63819.0,63841.0,63850.0,63878.0,64045.0,64121.0,0.027636037684833213,-0.12786095753314894,0.05029740482380681,-0.13946977792370044,0.008023576630951048
79,79,64536.29456339218,3072.8446782680826,13.231076398127778,64636.75723980128,-7540.289592752817,10.073017840920818,64663.422331070746,37793.48111685064,9.46297719836254,64688.178051898714,-5817.58261774205,22.931688607638144,64915.92946083956,8352.236924126555,30.650085919615723,0.9888049803535915,104.0,71.0,90.0,238.0,328.0,33.0,830.0,833.0,33.0,16.0,17.0,0.4848484848484848,93.6841662899157,3003.977921240746,19.0,13.0,6.0,0.6842105263157895,895.7124739128344,1124.681230896193,22.0,11.0,11.0,0.5,1888.8006344166583,34511.27163947873,32.0,5.0,27.0,0.15625,828.9979251103682,16544.298471801034,74.0,37.0,37.0,0.5,61.445044371505446,8799.650331703198,0.0,0.0,0.0,0.0,64520.0,64553.0,64624.0,64643.0,64652.0,64674.0,64683.0,64714.0,64880.0,64952.0,0.03048776495358626,-0.11879019537574906,0.04997688962752139,-0.1424986939733609,0.007356717120178094
80,80,65337.72855830613,3186.032010008461,12.906270859879314,65440.124305666985,-7706.658194825513,11.259957223517029,65466.542478599345,44632.23468045229,9.53627503308426,65494.32873009842,-4867.177301984934,28.027619409504627,65722.31053752899,7497.960671528215,24.999720457799626,0.990693362292472,104.0,71.0,92.0,235.0,327.0,33.0,801.0,804.0,36.0,17.0,19.0,0.4722222222222222,101.39468493119072,3012.744310455795,20.0,14.0,6.0,0.7,975.8519710156036,2286.187442587061,22.0,11.0,11.0,0.5,2189.161437247461,40170.593675151285,31.0,6.0,25.0,0.1935483870967742,689.4114180221763,14253.288871795392,62.0,31.0,31.0,0.5,92.84929078543573,7819.928742228752,0.0,0.0,0.0,0.0,65322.0,65355.0,65426.0,65446.0,65456.0,65478.0,65488.0,65518.0,65692.0,65753.0,0.03182475399263847,-0.12662452989946024,0.049048887041415704,-0.14164501830270707,0.012383272579437447
81,81,66132.39008041857,4084.0697482297137,16.262858487747597,66234.36301515943,-7869.02539610606,9.783349504331506,66260.85464136497,42722.019404197636,9.513245214145968,66287.60271279886,-4137.488825544861,20.383723206908357,66514.92614157136,8524.242850199189,29.990089534495695,0.9941384292908938,105.0,72.0,87.0,241.0,328.0,33.0,795.0,794.0,34.0,16.0,18.0,0.4705882352941176,142.8764970085741,4378.2186232298245,19.0,13.0,6.0,0.6842105263157895,959.57847555798,2356.28380058379,22.0,11.0,11.0,0.5,2132.695522830499,40385.9184241705,26.0,6.0,20.0,0.2307692307692307,707.1576655630413,13060.965987583517,71.0,37.0,34.0,0.5211267605633803,94.62964564893542,9282.664993210556,0.0,0.0,0.0,0.0,66116.0,66149.0,66221.0,66240.0,66250.0,66272.0,66283.0,66308.0,66479.0,66549.0,0.03498385331702661,-0.12194375125956788,0.04992028823948692,-0.17091470101309977,0.011101237647954173
82,82,66919.78458708014,4154.831206055213,21.05272262103268,67023.17260885601,-6813.697471353408,8.818669456315343,67049.32500617339,35688.46151350448,9.378273259808957,67073.60271279886,-4975.09493575846,15.947864826469235,67299.1074948724,8796.52748562321,34.854824703267276,0.9867600281026548,111.0,66.0,86.0,242.0,328.0,45.0,789.0,788.0,46.0,20.0,26.0,0.4347826086956521,108.2962801525648,4423.862628299139,18.0,12.0,6.0,0.6666666666666666,861.6212236288551,2497.8827229411163,22.0,11.0,11.0,0.5,1844.4740180910333,33852.76497547513,28.0,5.0,23.0,0.1785714285714285,762.743880063161,14558.222894428898,80.0,39.0,41.0,0.4875,78.46702140298773,9814.539319742702,0.0,0.0,0.0,0.0,66900.0,66945.0,67011.0,67029.0,67038.0,67060.0,67069.0,67097.0,67261.0,67339.0,0.0260651455574741,-0.12645428231167283,0.05168264306919159,-0.15331242718223217,0.008920226934006851
83,83,67759.29022815144,3772.9364913642153,14.527568973403651,67860.98852758156,-7637.464205730792,9.85297374172366,67887.7766345171,42687.509101457115,9.46393153480202,67912.60271279886,-5327.995503946978,20.383723206912453,68142.21347519259,7586.622465603815,30.78973178923719,0.9932888296882608,107.0,69.0,88.0,242.0,330.0,38.0,838.0,839.0,38.0,18.0,20.0,0.4736842105263157,100.23119197439048,3660.765084849226,19.0,13.0,6.0,0.6842105263157895,946.7481306909672,2428.828297299709,22.0,11.0,11.0,0.5,2132.526380519876,38694.5978253886,29.0,5.0,24.0,0.1724137931034483,872.3410471099419,16459.090869752967,76.0,40.0,36.0,0.5263157894736842,81.36581434243777,8404.200809423379,0.0,0.0,0.0,0.0,67741.0,67779.0,67848.0,67867.0,67877.0,67899.0,67908.0,67936.0,68102.0,68178.0,0.026565830674279114,-0.12396105633864342,0.04995668347505157,-0.16372781216945695,0.010724906203166644
84,84,68658.45434501453,3251.2787908152623,10.942694858288744,68762.02518026675,-7583.066691308183,12.204865807955096,68787.74184467913,41487.27691820149,9.65505969004401,68813.17805189872,-5623.949969691617,22.931688607775193,69042.41458947983,8739.388904026242,30.0334732282421,0.9888507787499468,101.0,77.0,90.0,242.0,332.0,24.0,902.0,900.0,24.0,12.0,12.0,0.5,149.4561304553983,3416.6747009479313,21.0,15.0,6.0,0.7142857142857143,963.2416725739256,3285.398200485025,22.0,11.0,11.0,0.5,2026.399830925812,36987.007068278646,31.0,5.0,26.0,0.1612903225806451,865.5740773609793,16666.891750340772,72.0,35.0,37.0,0.4861111111111111,79.36287354599784,9301.285206669216,0.0,0.0,0.0,0.0,68646.0,68670.0,68747.0,68768.0,68777.0,68799.0,68808.0,68837.0,69007.0,69079.0,0.04596841429827738,-0.1270253463124631,0.04884388616107944,-0.15390856640363074,0.00908105525655636
85,85,69526.06353041084,3811.476686180154,17.856087567585973,69625.13049399554,-6541.651194753675,8.723487747929662,69652.01003669325,36116.179718473046,9.39746538855996,69676.60271279886,-5111.443406409201,19.31336626521407,69904.992899115,8585.369653873557,33.14298038917089,0.990384795480974,106.0,64.0,87.0,241.0,328.0,42.0,865.0,864.0,43.0,19.0,24.0,0.4418604651162791,106.1466974448512,3789.4030900520793,18.0,12.0,6.0,0.6666666666666666,810.746263157282,1693.8834387393126,22.0,11.0,11.0,0.5,1815.738211673946,32688.8242487554,29.0,5.0,24.0,0.1724137931034483,746.0502058636424,14669.319590531602,75.0,38.0,37.0,0.5066666666666667,78.55635508437763,9498.528859166045,0.0,0.0,0.0,0.0,69507.0,69549.0,69613.0,69631.0,69641.0,69663.0,69672.0,69700.0,69868.0,69941.0,0.027849231724208962,-0.12393602762059382,0.050274924585814236,-0.14595685534308678,0.009150025945468113
86,86,70387.90509313576,3566.064269457299,15.760645156783529,70489.86685710892,-7768.241785564947,9.1183907265627,70516.23201826749,42561.38456872002,9.427226220470292,70541.02737377303,-4876.595048639585,17.83575780575141,70772.15620747948,8192.98643575115,29.265342664709372,0.9934404210546316,106.0,77.0,85.0,243.0,328.0,29.0,862.0,864.0,31.0,17.0,14.0,0.5483870967741935,131.82658857731587,3685.24551388332,19.0,13.0,6.0,0.6842105263157895,1016.6327934325112,3525.6475372565765,22.0,11.0,11.0,0.5,2156.911625517817,40535.83574629792,27.0,4.0,23.0,0.1481481481481481,906.4077921655498,16375.31406858153,72.0,37.0,35.0,0.5138888888888888,90.1304177648048,8817.291862389164,0.0,0.0,0.0,0.0,70372.0,70401.0,70478.0,70496.0,70505.0,70527.0,70537.0,70563.0,70737.0,70806.0,0.036966969357896035,-0.13087038502349813,0.05067766585542457,-0.18586898914610694,0.011000923591367017
87,87,71295.13921107154,3312.4829657745,11.75671611660729,71394.18243954226,-7248.753612510737,10.020593974144084,71421.28621526524,40543.8202116951,9.406558128022168,71447.75339099858,-4443.3307468215835,25.47965400862764,71676.82809444307,8851.231913401893,30.94058986298679,0.9896939210054322,102.0,72.0,88.0,244.0,332.0,30.0,908.0,905.0,31.0,15.0,16.0,0.4838709677419355,115.68905107893556,3303.635564746639,20.0,13.0,7.0,0.65,856.9982243605425,948.9344058508392,22.0,11.0,11.0,0.5,2016.9816992106907,38137.4366180312,28.0,6.0,22.0,0.2142857142857142,685.4430756014442,13599.61704295587,75.0,38.0,37.0,0.5066666666666667,82.23309474106482,9373.630375618175,0.0,0.0,0.0,0.0,71280.0,71310.0,71382.0,71401.0,71410.0,71432.0,71442.0,71470.0,71639.0,71714.0,0.03492517615162619,-0.11822697668761094,0.049748190690449064,-0.154263347623122,0.009290581869915016
88,88,72176.0000560358,3097.1820900530793,17.041701681196002,72276.31555250968,-6749.473018225163,8.755207351658077,72302.26830877113,36724.524625919315,9.313516503984175,72326.027373699,-5346.8616567887875,17.37341772100122,72557.80813839656,8521.02315943984,31.11566874719195,0.986451988046177,108.0,63.0,86.0,242.0,328.0,45.0,878.0,881.0,46.0,21.0,25.0,0.4565217391304347,67.92504611367264,2872.209954908325,18.0,12.0,6.0,0.6666666666666666,873.1899217519973,2493.562252067844,22.0,11.0,11.0,0.5,1892.781271706187,34062.01830590338,29.0,4.0,25.0,0.1379310344827586,852.0600070984333,16258.344354764538,73.0,38.0,35.0,0.5205479452054794,51.68221606422482,8874.079795716245,0.0,0.0,0.0,0.0,72156.0,72201.0,72264.0,72282.0,72291.0,72313.0,72322.0,72350.0,72522.0,72592.0,0.0219312407661858,-0.1293715701054259,0.051539980189976534,-0.159357032553216,0.006065259429200089
89,89,73067.88492759201,3092.0322099800587,12.886235770278912,73166.33090809811,-7940.483762353672,10.41379208582483,73192.85049872071,43264.827927827086,9.420661278934409,73223.616717565,-4871.300617558347,22.93168860777651,73451.6965347899,7981.109052437531,27.497933726801925,0.991431773618012,101.0,69.0,96.0,236.0,332.0,32.0,894.0,891.0,33.0,16.0,17.0,0.4848484848484848,101.9708515150485,2984.206868667915,20.0,13.0,7.0,0.65,952.9832907327478,1946.5685758695215,22.0,11.0,11.0,0.5,2179.998376004452,40472.414822234154,35.0,10.0,25.0,0.2857142857142857,367.85438383070226,8965.851640909605,67.0,34.0,33.0,0.5074626865671642,71.44359852022247,8273.364241156847,0.0,0.0,0.0,0.0,73052.0,73084.0,73153.0,73173.0,73182.0,73204.0,73214.0,73249.0,73419.0,73485.0,0.032978586440956296,-0.1200157722443689,0.05038731182846841,-0.07551461359309061,0.008951587812022528
90,90,73947.44977353637,2919.5376009363,12.890113772044671,74047.62067782709,-8181.212552053124,9.606222946129137,74075.48734288779,40805.58102007143,9.266189017087331,74106.21804094182,-4709.098668072359,22.93168860777651,74331.89321357268,8425.015907816847,27.48187573666632,0.9876155026622832,103.0,74.0,89.0,241.0,330.0,29.0,880.0,882.0,29.0,15.0,14.0,0.5172413793103449,110.3027650352112,3029.643458355566,20.0,13.0,7.0,0.65,890.223174178625,437.21933185791704,22.0,11.0,11.0,0.5,2069.99514759117,39335.151494476995,28.0,10.0,18.0,0.3571428571428571,419.2619001354068,9104.396543870464,67.0,34.0,33.0,0.5074626865671642,89.2742190472728,8968.865892201646,0.0,0.0,0.0,0.0,73932.0,73961.0,74035.0,74055.0,74064.0,74086.0,74096.0,74124.0,74298.0,74365.0,0.03778090235927667,-0.10881310912221906,0.050728236085475206,-0.08903230314072588,0.010596326466807372
91,91,74806.58085172992,3403.4662238225173,16.90985977272647,74906.64033978632,-7483.765473846156,8.40012533625791,74932.8407970185,34748.634156605964,9.42882467980781,74958.17805189872,-5623.004903509147,16.486963012965337,75185.98737112788,8422.873718144801,32.56978946081894,0.9839397983670098,105.0,71.0,85.0,243.0,328.0,34.0,859.0,857.0,37.0,18.0,19.0,0.4864864864864865,109.17922880899091,3499.118113622114,18.0,12.0,6.0,0.6666666666666666,930.4673718068592,2424.0449419631022,21.0,11.0,10.0,0.5238095238095238,1797.161571654305,31648.154217613366,28.0,5.0,23.0,0.1785714285714285,722.8719804620422,14601.632717079345,72.0,35.0,37.0,0.4861111111111111,76.10975824834829,9266.697508727011,0.0,0.0,0.0,0.0,74790.0,74824.0,74895.0,74912.0,74922.0,74943.0,74953.0,74980.0,75152.0,75223.0,0.032078834232228404,-0.12433144451928703,0.051718912563723074,-0.1285561710982894,0.009036079703342864
92,92,75627.4444335847,3109.4436834735284,12.332745000945517,75731.39728720114,-8242.560352394628,13.691624613567967,75755.77267090413,42729.54882007691,9.491959966119309,75786.07885817815,-5175.432717717371,20.383723206912453,76013.37842735706,7972.343036017212,27.393673983170306,0.989544234599632,102.0,75.0,93.0,238.0,331.0,27.0,820.0,824.0,27.0,14.0,13.0,0.5185185185185185,126.259238432979,3227.409866316315,21.0,16.0,5.0,0.7619047619047619,1058.03542382443,4632.180242691782,22.0,11.0,11.0,0.5,2133.624251366929,39429.19812716855,31.0,9.0,22.0,0.2903225806451613,447.6821737074162,10119.26060388732,67.0,33.0,34.0,0.4925373134328358,103.2698263891895,8608.913532691507,0.0,0.0,0.0,0.0,75613.0,75640.0,75715.0,75736.0,75745.0,75767.0,75777.0,75808.0,75981.0,76046.0,0.04060508929749648,-0.1283624721676499,0.049933226778290346,-0.08650139961724145,0.012953510144086898
93,93,76483.09133968783,3110.1623703691384,13.405928999678093,76581.77152006375,-7001.743349326096,9.832051106144371,76609.19886876945,42925.11315337836,9.383190261932985,76639.054747398,-4130.223257877709,35.671515607706134,76866.27282255593,8334.653808208954,27.311624808624945,0.990903323853398,102.0,71.0,93.0,238.0,331.0,31.0,856.0,853.0,33.0,16.0,17.0,0.4848484848484848,108.63702298382084,3101.4818300091324,20.0,13.0,7.0,0.65,901.40774070101,1182.5859636950904,22.0,11.0,11.0,0.5,2115.0638575697963,40225.095177860145,31.0,8.0,23.0,0.2580645161290322,458.2774791053841,10239.831141394854,66.0,32.0,34.0,0.4848484848484848,96.56596113177795,8857.27184292546,0.0,0.0,0.0,0.0,76467.0,76498.0,76569.0,76589.0,76598.0,76620.0,76631.0,76662.0,76834.0,76900.0,0.0349296949956111,-0.12874047158380472,0.049273343788572704,-0.11095707192856864,0.011586079440596364
94,94,77303.32241222734,3847.788890286292,12.362403710214632,77406.40617469729,-7026.009057189066,10.230415387482124,77432.46433095631,35535.208915090894,9.555695836055207,77457.75339099858,-5941.793261978096,21.165789000397613,77684.83137952012,8321.866366858389,31.902302628970997,0.9836676045999668,105.0,78.0,88.0,239.0,327.0,27.0,823.0,823.0,27.0,14.0,13.0,0.5185185185185185,159.466014554482,4055.3390584754097,18.0,12.0,6.0,0.6666666666666666,830.6470503444106,1301.0474348803778,22.0,11.0,11.0,0.5,1780.1809309601124,32565.5542355641,31.0,6.0,25.0,0.1935483870967742,707.4934707423217,15020.354756847417,73.0,35.0,38.0,0.4794520547945205,72.48669317640939,9004.328607899353,0.0,0.0,0.0,0.0,77289.0,77316.0,77394.0,77412.0,77421.0,77443.0,77452.0,77482.0,77652.0,77721.0,0.04144354565736506,-0.11822459145487241,0.05009625622896268,-0.1190706979439383,0.008710388989792688
95,95,78120.4898259992,4084.750385502961,17.299082941541656,78222.25916274812,-6926.304974789842,9.481138938101092,78249.19023175274,39610.100133626234,9.432914464559076,78274.60271279886,-4934.018945469083,16.574925918863478,78503.50195922758,8537.298319115716,31.09853692492087,0.9924758795469464,107.0,71.0,87.0,243.0,330.0,36.0,814.0,817.0,38.0,18.0,20.0,0.4736842105263157,126.36230524405222,4274.236098792331,19.0,13.0,6.0,0.6842105263157895,852.0243272368928,2234.9204112960683,22.0,11.0,11.0,0.5,2017.7094152041489,37592.53725015519,27.0,5.0,22.0,0.1851851851851851,747.8372096149328,14408.870127414571,73.0,37.0,36.0,0.5068493150684932,46.00707866999998,8773.339280267588,0.0,0.0,0.0,0.0,78103.0,78139.0,78210.0,78228.0,78238.0,78260.0,78270.0,78297.0,78467.0,78540.0,0.030935135153550654,-0.12301282290313023,0.05093926570236699,-0.15156755940340944,0.0053889505731557165
96,96,78963.8955382736,3272.9031067948636,10.716957822632631,79068.972626301,-7867.83136167131,13.004911448116422,79092.66810363684,42974.86768968175,9.522775783284583,79120.15241129693,-5396.3893442762555,20.383723206912453,79349.37136874223,8068.468410703009,27.745206598257763,0.987153405270933,103.0,77.0,90.0,240.0,330.0,26.0,845.0,844.0,26.0,14.0,12.0,0.5384615384615384,136.8038317172486,3287.4480020717147,21.0,17.0,4.0,0.8095238095238095,1144.0792434030775,7050.85993166173,22.0,11.0,11.0,0.5,2137.918937989209,38944.82843429063,31.0,7.0,24.0,0.2258064516129032,688.694325230562,14063.92650616514,69.0,34.0,35.0,0.4927536231884058,92.63883569091443,8636.460108063522,0.0,0.0,0.0,0.0,78950.0,78976.0,79053.0,79073.0,79082.0,79104.0,79113.0,79143.0,79316.0,79383.0,0.04179892506846005,-0.14541227319341635,0.04974812147013364,-0.12762131886592537,0.01148158869507711
97,97,79804.32416633057,3975.252538828268,18.24476190093424,79903.62274308813,-6856.281435001171,8.823287701647937,79930.0192218251,35768.82098998275,9.458647105893649,79955.75339099858,-5106.677319228584,15.274902608192166,80181.589006012,9009.00204731394,36.501320308869936,0.9884392534591976,103.0,70.0,87.0,246.0,333.0,33.0,840.0,837.0,33.0,16.0,17.0,0.4848484848484848,145.7005340783333,4579.933087741198,18.0,13.0,5.0,0.7222222222222222,896.3692471786977,3280.7017704286504,22.0,11.0,11.0,0.5,1843.1700386740197,33674.941405055535,29.0,6.0,23.0,0.2068965517241379,671.5696156610902,13438.92341162834,84.0,41.0,43.0,0.4880952380952381,63.6483713499539,9718.586308120892,0.0,0.0,0.0,0.0,79788.0,79821.0,79891.0,79909.0,79919.0,79941.0,79950.0,79978.0,80142.0,80224.0,0.03665189384956144,-0.13073693891892357,0.05153007529071784,-0.13150813605010347,0.007064974679291015
98,98,80643.606996168,3588.606137346561,13.365492764528586,80745.50845173678,-7797.1590952499955,12.304212119050698,80770.91183517287,42753.143480660474,9.662804572878722,80795.27933457949,-6234.215745773319,17.8357578060484,81028.96748757946,7892.433956755192,28.15726880403793,0.989809131251213,103.0,74.0,87.0,244.0,331.0,29.0,838.0,841.0,31.0,16.0,15.0,0.5161290322580645,130.2167659959815,3481.7565627287177,21.0,16.0,5.0,0.7619047619047619,1063.180630898299,5635.084490572544,22.0,11.0,11.0,0.5,2124.2976245181003,38764.66735135413,29.0,4.0,25.0,0.1379310344827586,1008.2844003142566,18574.460202403327,69.0,36.0,33.0,0.5217391304347826,98.01247826652708,8758.300528651314,0.0,0.0,0.0,0.0,80628.0,80657.0,80731.0,80750.0,80760.0,80782.0,80791.0,80818.0,80994.0,81062.0,0.03628616822582392,-0.13635487206436317,0.049687518895049985,-0.1617339600410612,0.012418536386058382
99,99,81508.35048588831,3728.765004778699,12.890909899337556,81609.81676279956,-8044.240560046619,10.397267326845975,81636.67412680484,41156.02797757632,9.34618104298778,81666.11352516692,-5137.90432066261,20.383723206912453,81894.03955779901,8270.844437349768,28.83863093045293,0.9896675186117596,104.0,75.0,89.0,242.0,331.0,29.0,866.0,866.0,29.0,15.0,14.0,0.5172413793103449,140.22853392126532,3841.8424196359406,19.0,13.0,6.0,0.6842105263157895,940.9962451311412,1775.8017605681491,22.0,11.0,11.0,0.5,2096.689094657273,37888.08315589512,29.0,9.0,20.0,0.3103448275862069,514.6625873763879,10870.714792240164,73.0,38.0,35.0,0.5205479452054794,79.66780226847341,8769.493816825132,0.0,0.0,0.0,0.0,81493.0,81522.0,81597.0,81616.0,81626.0,81648.0,81657.0,81686.0,81857.0,81928.0,0.03760723288851715,-0.11697763612450793,0.050944884569512995,-0.10016974923153385,0.009632366183639818
100,100,82336.76431341868,4179.3149740700355,15.973508716687824,82436.63702711642,-7038.852265752989,9.53531827114627,82463.1619146999,37202.86355419393,9.421514625399992,82487.60271279886,-5617.24507420165,18.33902111688479,82717.97142236709,8319.038420947856,30.54541656452604,0.9912350052275632,105.0,68.0,87.0,243.0,330.0,37.0,827.0,826.0,38.0,18.0,20.0,0.4736842105263157,122.18153147895562,4062.458993165243,19.0,13.0,6.0,0.6842105263157895,885.027622735978,2753.9289967719856,22.0,11.0,11.0,0.5,1895.106337567812,34130.82139042104,29.0,5.0,24.0,0.1724137931034483,788.4509002770303,15567.12260748886,72.0,36.0,36.0,0.5,78.26382576173849,8952.74598033354,0.0,0.0,0.0,0.0,82319.0,82356.0,82424.0,82443.0,82452.0,82474.0,82483.0,82511.0,82683.0,82754.0,0.029234822509672884,-0.12573464953114782,0.05093979754561592,-0.1403625602696512,0.0094077971276903
101,101,83157.02345147445,3747.2055039643233,12.643317835889189,83258.52386762528,-8116.14485319207,10.85353588251108,83284.81919425803,42672.60033646169,9.437003526061046,83313.3646091957,-5109.025034554907,17.8357578060484,83542.17500866026,8028.262775346545,28.444911776073617,0.9911337275795392,103.0,74.0,90.0,242.0,332.0,29.0,821.0,822.0,29.0,15.0,14.0,0.5172413793103449,137.55613687051,3720.405242404091,20.0,14.0,6.0,0.7,1034.9557179536534,3825.219690115463,22.0,11.0,11.0,0.5,2178.192430736586,40250.78076876537,29.0,7.0,22.0,0.2413793103448276,616.6697827794148,12556.981155995058,69.0,34.0,35.0,0.4927536231884058,84.522999601701,8477.394384257972,0.0,0.0,0.0,0.0,83142.0,83171.0,83245.0,83264.0,83274.0,83296.0,83306.0,83335.0,83508.0,83577.0,0.03670899200083467,-0.12751814274810616,0.05104428634679254,-0.12070204757435457,0.010528180500177078
102,102,83979.18374060618,3486.151327317959,11.26097866120728,84081.39728720114,-7450.180702795079,13.283744386912112,84105.71286716558,39434.724183840095,9.682445349680703,84130.6027127989,-6297.32289067378,20.383723206285925,84359.37069513049,8512.813972046535,30.457551109705435,0.984799724554252,101.0,73.0,89.0,241.0,330.0,28.0,824.0,821.0,28.0,14.0,14.0,0.5,130.7595135955348,3483.4037608607923,21.0,16.0,5.0,0.7619047619047619,971.2004201301502,4368.494814621406,22.0,11.0,11.0,0.5,1929.8179130473936,34323.98020367112,30.0,5.0,25.0,0.1666666666666666,812.3275091447109,16446.17138059179,74.0,37.0,37.0,0.5,70.58199028249759,8979.213890030056,0.0,0.0,0.0,0.0,83965.0,83993.0,84066.0,84086.0,84095.0,84117.0,84126.0,84155.0,84323.0,84396.0,0.037508272395086625,-0.13035931058233066,0.048937020683872595,-0.1289956896362664,0.00829126426517332
103,103,84822.88949893999,3645.074518752151,14.764243319657956,84921.91468116282,-7832.324043654951,9.564954220569902,84948.72409140656,39075.07372451394,9.463311430717686,84973.60271279886,-5796.670090100713,18.485049828275983,85202.70818666446,8384.15574521179,31.69808615975849,0.9885619178252036,104.0,69.0,87.0,242.0,329.0,35.0,841.0,842.0,40.0,18.0,22.0,0.45,111.46307676599706,3444.911681584188,19.0,13.0,6.0,0.6842105263157895,918.4590074209832,1613.1534961103885,21.0,11.0,10.0,0.5238095238095238,1979.4093048016955,35011.04546786468,28.0,5.0,23.0,0.1785714285714285,801.1841076826194,15813.40271704434,74.0,37.0,37.0,0.5,79.2033620944237,9119.922737851964,0.0,0.0,0.0,0.0,84806.0,84841.0,84910.0,84928.0,84938.0,84959.0,84969.0,84997.0,85167.0,85239.0,0.03057909411524326,-0.11726519514537151,0.05065657249316726,-0.13821454304443592,0.009446790410549912
104,104,85690.91963523118,3508.6100993703735,12.607689373787704,85793.41704302485,-8071.17980923587,11.567867909371095,85818.72040387256,43980.46493372746,9.546029169540288,85845.30558112406,-5193.649844370252,17.8357578060484,86076.02258284095,7989.911738373648,29.09283726947628,0.9927979231334892,103.0,74.0,88.0,243.0,331.0,29.0,870.0,871.0,30.0,15.0,15.0,0.5,125.60304313010892,3521.7448649254857,20.0,14.0,6.0,0.7,1038.994372713626,4115.614215686613,22.0,11.0,11.0,0.5,2217.1807548761285,40936.04679888849,28.0,5.0,23.0,0.1785714285714285,811.4330477039933,15400.16512968217,70.0,35.0,35.0,0.5,70.29679821358874,8424.32825225517,0.0,0.0,0.0,0.0,85676.0,85705.0,85779.0,85798.0,85808.0,85830.0,85840.0,85867.0,86041.0,86110.0,0.03579851837987031,-0.12872893396882354,0.050412853939064,-0.1562356092572472,0.008798194587803758
105,105,86580.12447148033,3507.259211595981,14.638370922302224,86680.75022099828,-7229.477074734275,9.231660545594726,86707.16847797271,37674.76529765906,9.386030232700804,86731.60271279886,-5725.936813815369,20.15086444877971,86962.30978932169,8611.021371937686,31.97579309948788,0.9857669145636776,104.0,73.0,88.0,243.0,331.0,31.0,888.0,888.0,32.0,16.0,16.0,0.5,121.5874237347532,3546.9876856862784,19.0,13.0,6.0,0.6842105263157895,901.0066222806228,2326.620622291812,22.0,11.0,11.0,0.5,1912.6537627580449,34258.85232366432,29.0,5.0,24.0,0.1724137931034483,785.9886262225774,15874.9212087867,73.0,36.0,37.0,0.4931506849315068,71.94687698064578,9378.394637787416,0.0,0.0,0.0,0.0,86564.0,86595.0,86668.0,86687.0,86696.0,86718.0,86727.0,86756.0,86927.0,86999.0,0.03466736172015776,-0.12462957043317548,0.050767503065955094,-0.1372681277806223,0.008355208270079581
106,106,87419.24517222204,3553.792523601345,14.6600329257613,87519.30798360328,-7855.869212551907,10.16234933404208,87545.67806752732,41532.12237852194,9.460449336781409,87570.027373699,-5420.0076440913635,17.8357578060484,87801.79895457669,8154.732827628962,29.21635589701832,0.991747238110735,104.0,68.0,86.0,244.0,330.0,36.0,839.0,839.0,38.0,17.0,21.0,0.4473684210526316,112.7971417401851,3556.6021527436333,19.0,13.0,6.0,0.6842105263157895,944.3328054881164,2123.8779165466312,22.0,11.0,11.0,0.5,2104.4225206398637,37709.94172104952,27.0,4.0,23.0,0.1481481481481481,929.4297318095304,17198.24094602176,69.0,35.0,34.0,0.5072463768115942,74.29336161433609,8709.443697217066,0.0,0.0,0.0,0.0,87402.0,87438.0,87506.0,87525.0,87535.0,87557.0,87566.0,87592.0,87768.0,87836.0,0.031739934447799066,-0.12020729723698627,0.05066975632644653,-0.17148125848544712,0.009110459310527447
107,107,88256.3340880044,4086.591236380335,17.587295746690387,88356.38416372903,-7385.153273438917,9.754002460255911,88383.43639921838,42698.598901787525,9.453231163406675,88408.027373699,-4418.788745241206,17.83575779795309,88638.82144311309,8733.503224333757,31.907645866004497,0.9933400815180564,105.0,65.0,84.0,247.0,331.0,40.0,837.0,837.0,42.0,18.0,24.0,0.4285714285714285,124.23736739413064,4228.94007606824,20.0,13.0,7.0,0.65,887.6117985773504,2072.948582562499,23.0,11.0,12.0,0.4782608695652174,2138.9883389667693,41294.97734064341,25.0,4.0,21.0,0.16,947.863157413414,16351.27450528086,72.0,36.0,36.0,0.5,92.83360992375972,9686.663038715258,0.0,0.0,0.0,0.0,88238.0,88278.0,88343.0,88363.0,88372.0,88395.0,88404.0,88427.0,88603.0,88674.0,0.030401221998452892,-0.1201886766209297,0.05009504747185564,-0.21450746167356627,0.010629595883711557
108,108,89178.1234121803,3269.109585861872,12.26261304974109,89280.11621222727,-7411.495897432077,9.955657229361336,89306.63857705353,38375.25542984427,9.345010056492582,89334.35987049835,-4941.159531451715,22.93168860777565,89563.40991937042,8690.288326647978,31.233682462360765,0.9895305334924432,103.0,77.0,93.0,242.0,335.0,26.0,924.0,924.0,26.0,14.0,12.0,0.5384615384615384,141.99163888890303,3437.7798749328917,20.0,13.0,7.0,0.65,873.4646115049594,1361.454187002225,21.0,11.0,10.0,0.5238095238095238,1944.8354940304448,34571.94107330511,33.0,7.0,26.0,0.2121212121212121,581.5568898486914,12556.989147773696,76.0,37.0,39.0,0.4868421052631579,48.50955366657397,8893.712301580112,0.0,0.0,0.0,0.0,89164.0,89190.0,89267.0,89287.0,89296.0,89317.0,89327.0,89360.0,89526.0,89602.0,0.043434346619331266,-0.11785267422297245,0.05067941495753419,-0.11769644071334602,0.00558204191198396
109,109,90039.35660896618,3285.587527779003,16.94560134260709,90140.92945809048,-6910.880969475349,9.300925202193554,90167.1963057824,36570.249007507504,9.4147927023729,90191.60271279886,-4903.4903578561725,20.383723206826385,90423.5123150071,8631.830160932654,30.387663373275313,0.9854379829780912,107.0,70.0,86.0,245.0,331.0,37.0,862.0,860.0,37.0,17.0,20.0,0.4594594594594595,106.84231830284786,3598.1804209986713,18.0,12.0,6.0,0.6666666666666666,876.5257554997332,2301.6849408387043,22.0,11.0,11.0,0.5,1844.083767219649,33785.942290229716,29.0,5.0,24.0,0.1724137931034483,773.0990571830938,14848.45865231042,71.0,35.0,36.0,0.4929577464788732,59.39317779383682,9136.221774856223,0.0,0.0,0.0,0.0,90022.0,90059.0,90129.0,90147.0,90156.0,90178.0,90187.0,90215.0,90390.0,90460.0,0.032518481823879855,-0.12683270908170136,0.05042579192832614,-0.15766301160243254,0.00688071668307935
110,110,90894.01884140552,3534.3787906309008,14.300487139155074,90993.59573561473,-7363.63623562603,9.787850395860907,91020.61108291772,40476.225997283254,9.173871566633984,91050.44397413648,-4954.380635594621,17.8357578060484,91277.38667176076,8617.456527605622,29.139969917902615,0.9916062772028206,103.0,74.0,91.0,239.0,330.0,29.0,852.0,854.0,30.0,16.0,14.0,0.5333333333333333,130.8341264422849,3563.122741251489,19.0,13.0,6.0,0.6842105263157895,913.9577881256004,2477.7931215850963,22.0,11.0,11.0,0.5,2100.141263697362,37474.67324873773,31.0,9.0,22.0,0.2903225806451613,470.85979913680006,10180.284364170806,69.0,34.0,35.0,0.4927536231884058,73.72914654443288,9176.9704026877,0.0,0.0,0.0,0.0,90878.0,90907.0,90981.0,91000.0,91010.0,91032.0,91041.0,91072.0,91244.0,91311.0,0.03701757343867789,-0.12411772647103052,0.05188579745152926,-0.09503908435171894,0.008555789786492683
111,111,91737.11276062168,3532.838877251677,15.406088984090816,91837.85079811425,-7259.836956664673,10.324371930641927,91864.25008232683,39245.742167512726,9.36055346740348,91891.80547864066,-4923.663129152471,17.835757806046633,92120.7308904493,8987.20863415337,30.02981787123253,0.98994345662031,105.0,69.0,90.0,242.0,332.0,36.0,842.0,843.0,39.0,18.0,21.0,0.4615384615384615,106.57012178098354,3486.9238706953893,20.0,14.0,6.0,0.7,909.2056372353744,2914.389671064605,22.0,11.0,11.0,0.5,2018.4306282375712,37640.44099006725,30.0,7.0,23.0,0.2333333333333333,585.3801425649403,12079.117738597555,71.0,35.0,36.0,0.4929577464788732,103.9338341182749,9876.117900972122,0.0,0.0,0.0,0.0,91720.0,91756.0,91825.0,91844.0,91853.0,91875.0,91885.0,91915.0,92087.0,92157.0,0.0301655766039034,-0.1252377488175827,0.05143056333658559,-0.11889118471549537,0.011564640184640141
112,112,92578.0024411804,3244.0209891773443,15.391945176200707,92677.42184086202,-7177.311866558526,10.007384544095231,92703.87318748658,36570.23675293497,9.359483794703348,92730.05597660715,-5324.407185994779,17.83575780604834,92958.470994464,8523.320695246997,31.23206796230304,0.98921141625562,102.0,70.0,90.0,241.0,331.0,32.0,842.0,840.0,33.0,16.0,17.0,0.4848484848484848,112.95440306958383,3334.1797416975523,20.0,13.0,7.0,0.65,822.3014073270572,1292.5172731754292,22.0,11.0,11.0,0.5,1885.728994702546,33561.994900645535,30.0,6.0,24.0,0.2,671.3063079736917,13766.387066898664,73.0,36.0,37.0,0.4931506849315068,101.00909795677444,9490.907071258143,0.0,0.0,0.0,0.0,92562.0,92594.0,92664.0,92684.0,92693.0,92715.0,92724.0,92754.0,92923.0,92995.0,0.03481925778113664,-0.11456955230807676,0.051564582626094306,-0.12608094845553572,0.011850909002297877
113,113,93436.65184664392,3283.017007175599,11.692712773332952,93539.972626301,-7663.564922224359,13.61860020015724,93564.209797016,41026.898095390825,9.450402781655566,93594.66697630612,-5377.172857719678,20.383723206912453,93823.0053252296,8470.584748883679,27.767598352809824,0.9846329802179268,103.0,77.0,91.0,240.0,331.0,26.0,860.0,861.0,27.0,15.0,12.0,0.5555555555555556,134.86604543096433,3256.63958495592,21.0,16.0,5.0,0.7619047619047619,1060.8537009022266,5517.554990879451,21.0,10.0,11.0,0.4761904761904761,2048.080871965484,38467.20103976254,32.0,10.0,22.0,0.3125,404.2989983218636,9363.087142013412,66.0,33.0,33.0,0.5,92.71130827392322,9090.267155956928,0.0,0.0,0.0,0.0,93422.0,93448.0,93525.0,93544.0,93554.0,93575.0,93585.0,93616.0,93790.0,93856.0,0.04107991068465115,-0.13842822650666767,0.04992044163815485,-0.0751880233385907,0.0109450895094511
114,114,94321.53317093286,3127.3682144111726,14.75856626059903,94424.19138690876,-7675.329250775645,11.06783473417139,94449.94932125336,41287.13842449933,9.467898285633764,94476.78017846803,-4801.816053020909,20.38372320691244,94709.9966325602,8830.243144154427,29.30511678027714,0.9917324544971914,104.0,75.0,90.0,244.0,334.0,29.0,885.0,885.0,30.0,16.0,14.0,0.5333333333333333,119.70021529958308,3238.5668706953893,20.0,14.0,6.0,0.7,965.9624489172764,3145.09757930031,22.0,11.0,11.0,0.5,2086.111071940193,38639.9980156439,30.0,6.0,24.0,0.2,663.1915937882509,13367.552698315309,70.0,35.0,35.0,0.5,97.1906320863866,9438.559621714252,0.0,0.0,0.0,0.0,94306.0,94335.0,94410.0,94430.0,94439.0,94461.0,94471.0,94500.0,94675.0,94744.0,0.03827506295804713,-0.1258529005540263,0.05052689897012378,-0.13811266122346047,0.011006563522628058
115,115,95232.60069721135,3469.864980014134,15.134625018749295,95331.148099579,-6712.057236638557,9.5890099493763,95358.14290857122,38389.92856068736,9.36300989349357,95383.17805189872,-5011.591115354957,22.88532944693885,95615.04009209402,9079.208415630808,30.43461142689923,0.9879052404855608,103.0,67.0,87.0,243.0,330.0,36.0,910.0,908.0,38.0,18.0,20.0,0.4736842105263157,107.0055147053834,3445.6913388752,19.0,12.0,7.0,0.631578947368421,814.8805823098782,1299.3676970840124,22.0,11.0,11.0,0.5,1919.2821947537484,35050.14108792181,29.0,5.0,24.0,0.1724137931034483,804.0439797474108,15687.757268894897,72.0,37.0,35.0,0.5138888888888888,87.84482904821235,9997.71894930434,0.0,0.0,0.0,0.0,95216.0,95252.0,95319.0,95338.0,95347.0,95369.0,95378.0,95406.0,95580.0,95649.0,0.030838524069875348,-0.12140548770379316,0.049994419544691755,-0.16043686750180192,0.00967538413337646
116,116,96101.63558707522,3390.039866392675,13.861438351282262,96202.30489583084,-7018.536012656635,10.00149561345818,96228.36662362132,39645.47449488123,9.415626038509355,96252.60271279886,-5465.880888894457,16.665706960641913,96484.96635043142,8733.706338560918,31.55205570741019,0.9869659030941166,103.0,75.0,86.0,248.0,334.0,28.0,869.0,870.0,31.0,17.0,14.0,0.5483870967741935,124.00823211038616,3274.35353352724,19.0,13.0,6.0,0.6842105263157895,901.4077187949874,3004.896600064863,22.0,11.0,11.0,0.5,2031.4512127900025,37511.81706013656,27.0,5.0,22.0,0.1851851851851851,861.1961530327847,16263.184588582102,76.0,36.0,40.0,0.4736842105263157,47.663345649660336,8784.532105318185,0.0,0.0,0.0,0.0,96086.0,96114.0,96189.0,96208.0,96217.0,96239.0,96248.0,96275.0,96451.0,96523.0,0.036580169259880335,-0.12843244191801037,0.05124043131460794,-0.15755852908953025,0.0054574019095670655
117,117,96953.94613132544,3512.9168409136205,10.413110926372026,97055.0584192391,-7602.569692542377,11.598428761235732,97081.14938355522,40251.704096691334,9.401213993632568,97110.66525955332,-5475.102640379083,20.383723206912453,97340.53357348932,8263.04353074007,26.33553797124041,0.9844415393558908,101.0,74.0,92.0,239.0,331.0,27.0,854.0,853.0,27.0,14.0,13.0,0.5185185185185185,139.97414810398465,3450.327188303584,20.0,14.0,6.0,0.7,931.0013163598956,2417.4290087847166,22.0,11.0,11.0,0.5,2044.621363928826,37788.83873743018,32.0,10.0,22.0,0.3125,459.9943652652204,10422.1188493448,64.0,32.0,32.0,0.5,85.31561126430594,8611.060558401789,0.0,0.0,0.0,0.0,96940.0,96967.0,97041.0,97061.0,97070.0,97092.0,97101.0,97133.0,97310.0,97372.0,0.03984556265999765,-0.12245876776021493,0.05079589572201224,-0.08401566061478831,0.010324962097430068
118,118,97849.02419224496,3382.7656502108243,13.26986642818498,97947.21594607113,-7538.88547803675,10.087205964112128,97974.27224503362,40714.12080073679,9.457885853518835,98000.17805189872,-4681.297094576701,22.93168860777083,98232.16825788864,8950.826569834804,30.26734648541206,0.9909290252804764,101.0,67.0,91.0,243.0,334.0,34.0,893.0,893.0,36.0,17.0,19.0,0.4722222222222222,102.13130890494222,3308.5184605379454,20.0,13.0,7.0,0.65,870.9860801485013,1045.220780429289,22.0,11.0,11.0,0.5,2032.0735863079244,38305.6277672891,30.0,5.0,25.0,0.1666666666666666,761.3007152836324,14880.907767944043,73.0,36.0,37.0,0.4931506849315068,56.949701267451566,9193.900358672952,0.0,0.0,0.0,0.0,97833.0,97867.0,97934.0,97954.0,97963.0,97985.0,97995.0,98025.0,98197.0,98268.0,0.030191659566655787,-0.11553247262953786,0.04991078147685681,-0.16262602007584648,0.006362507509572116
119,119,98727.80210533016,3297.1906773146034,12.208911485288969,98825.44528567916,-7224.573819659795,10.289750474707455,98852.52425992744,36450.87446866164,9.385940441703472,98879.38826911803,-5567.233632169279,20.383723206911675,99108.95601831832,9055.271931209794,31.130074017084773,0.9836702896766396,101.0,68.0,91.0,242.0,333.0,33.0,879.0,878.0,34.0,16.0,18.0,0.4705882352941176,102.46028851006513,3177.703069159077,20.0,13.0,7.0,0.65,773.5519085561001,146.5216434986046,22.0,12.0,10.0,0.5454545454545454,1851.9209887566967,32017.977509804103,32.0,7.0,25.0,0.21875,641.9125446441831,13768.794741860338,75.0,37.0,38.0,0.4933333333333333,55.3542445399247,9378.61754256575,0.0,0.0,0.0,0.0,98712.0,98745.0,98813.0,98832.0,98842.0,98863.0,98872.0,98904.0,99072.0,99146.0,0.031075026753840607,-0.10707232396893505,0.050805941304614556,-0.11530188726677545,0.006112930120755557
120,120,99576.09035593484,3614.5765991184257,12.958359037604437,99676.65319974611,-7460.987363756858,9.80194154667216,99703.33825084344,38587.74216444676,9.374791457334712,99728.32347892152,-5777.560869564035,20.383723206879896,99959.57431104154,9026.212799602814,30.288324682140075,0.9852104907792394,103.0,74.0,88.0,244.0,332.0,29.0,850.0,851.0,29.0,15.0,14.0,0.5172413793103449,138.9630996197738,3737.222115395393,19.0,13.0,6.0,0.6842105263157895,905.7402068738996,1995.0631266316605,22.0,11.0,11.0,0.5,1959.764370650824,35550.438726721244,30.0,5.0,25.0,0.1666666666666666,838.1654331918269,16456.32527079025,71.0,35.0,36.0,0.4929577464788732,95.66994772279608,9715.868564481938,0.0,0.0,0.0,0.0,99561.0,99590.0,99664.0,99683.0,99692.0,99714.0,99723.0,99752.0,99926.0,99996.0,0.038445194287393465,-0.12139682896042717,0.050787225702375365,-0.14507254049148138,0.010599123890255047
121,121,100406.580048667,3342.872705690801,13.205840332689366,100508.27934305088,-7650.183818146506,12.319629613390374,100533.49534143004,40120.082925686795,9.387056661798674,100562.32486145083,-5441.07645036684,17.8357578060484,100791.298509833,8805.864791609469,28.710044329478524,0.988309523949277,103.0,74.0,90.0,243.0,333.0,29.0,828.0,831.0,33.0,17.0,16.0,0.5151515151515151,115.23292075438891,3142.152305843837,20.0,14.0,6.0,0.7,970.4837881528606,3303.222638972159,22.0,10.0,12.0,0.4545454545454545,2051.5579799746183,38736.94986197684,30.0,8.0,22.0,0.2666666666666666,572.7328682016977,11897.246056920809,72.0,36.0,36.0,0.5,52.69983584619786,8847.866084763351,0.0,0.0,0.0,0.0,100391.0,100420.0,100494.0,100514.0,100523.0,100545.0,100554.0,100584.0,100756.0,100827.0,0.03447122606799237,-0.12685757770301398,0.05113543717680386,-0.1052609485321758,0.005984629232146748
122,122,101356.60711788296,3437.692885965539,14.20164700059428,101457.74079337872,-8218.26961079235,10.293124912188674,101484.31342025548,40971.0848662415,9.355458687244663,101513.00000962304,-4761.668644805409,20.383723206912453,101745.19368517892,9223.295699173392,27.779313570571468,0.9888969798629026,104.0,75.0,91.0,241.0,332.0,29.0,952.0,950.0,31.0,17.0,14.0,0.5483870967741935,124.66161356390984,3415.189070840785,19.0,13.0,6.0,0.6842105263157895,979.0018238126692,2074.012692673601,22.0,11.0,11.0,0.5,2095.4141086832374,39478.67736997691,31.0,8.0,23.0,0.2580645161290322,530.894067224887,11216.406867417036,66.0,33.0,33.0,0.5,91.04382916013093,9745.570995074104,0.0,0.0,0.0,0.0,101341.0,101370.0,101445.0,101464.0,101473.0,101495.0,101505.0,101536.0,101713.0,101777.0,0.036263161864413127,-0.11912505553809405,0.05114373015808944,-0.11149328246602144,0.009871073435094403
123,123,102265.76834888793,3276.1114519745497,11.02771155999543,102368.39728720114,-7397.359549530898,13.997762093744257,102392.38911720784,38225.53415333922,9.585396228485063,102419.9928553491,-6037.90107042566,22.931688607776263,102648.93228681214,8784.34046603548,29.96979861646512,0.9825769819539106,99.0,73.0,93.0,241.0,334.0,26.0,910.0,909.0,26.0,13.0,13.0,0.5,138.95457281454375,3318.7092733509885,21.0,16.0,5.0,0.7619047619047619,956.8315301294234,4074.549561859551,21.0,10.0,11.0,0.4761904761904761,1864.1644057072112,34485.1869811259,33.0,8.0,25.0,0.2424242424242424,603.9725994712906,13511.07939102425,76.0,39.0,37.0,0.5131578947368421,53.01562560812332,8968.325482459706,0.0,0.0,0.0,0.0,102253.0,102279.0,102352.0,102373.0,102382.0,102403.0,102412.0,102445.0,102611.0,102686.0,0.04241448279508142,-0.1293477116696458,0.048767517498362174,-0.10003022448142095,0.006035242578894504
124,124,103113.56626694096,3481.51796870288,13.386479276611189,103216.06460290948,-7026.167487342205,10.318382222844122,103242.46402390931,37827.28029217314,9.440032288444176,103267.75339099858,-5575.924883955559,22.076106328948587,103498.205934898,9412.098781860152,29.957379730103774,0.9811668189848984,104.0,76.0,89.0,243.0,332.0,28.0,848.0,849.0,28.0,15.0,13.0,0.5357142857142857,141.79720615091622,3528.228952045106,19.0,13.0,6.0,0.6842105263157895,854.9310399124781,1773.4858152124657,21.0,10.0,11.0,0.4761904761904761,1900.245083249302,35001.61143071828,31.0,6.0,25.0,0.1935483870967742,730.15142566798,15242.541572429547,71.0,34.0,37.0,0.4788732394366197,83.10627959739583,9880.869901702374,0.0,0.0,0.0,0.0,103099.0,103127.0,103203.0,103222.0,103232.0,103253.0,103262.0,103292.0,103464.0,103535.0,0.04072855789503395,-0.12167814693467742,0.05023477946529723,-0.13094714166056176,0.008829728790943606
125,125,103968.84551664014,3597.1377932931555,14.65696113461541,104070.15948584874,-7355.815852614893,9.696714507155235,104097.28324943432,41568.244663226855,9.412411324255284,104121.60271280551,-5625.86095006588,20.383723203238397,104356.12647321,8871.31694028313,28.333389808373948,0.9892525043311172,106.0,73.0,88.0,243.0,331.0,33.0,854.0,855.0,34.0,17.0,17.0,0.5,111.6867284945312,3561.2765392375554,19.0,12.0,7.0,0.631578947368421,878.9652831569517,1521.539320195384,22.0,11.0,11.0,0.5,2082.5787685562686,38304.517530470504,30.0,5.0,25.0,0.1666666666666666,890.5045870159862,16996.400390969648,68.0,34.0,34.0,0.5,78.87710062569423,9368.479201067405,0.0,0.0,0.0,0.0,103952.0,103985.0,104058.0,104077.0,104086.0,104108.0,104117.0,104146.0,104323.0,104389.0,0.0310487768088202,-0.11949256218050802,0.050100233614112935,-0.15828769941524384,0.0088912504374099
126,126,104838.12227195724,2621.858338948132,10.137858846541622,104942.39728720114,-8107.295771730147,14.942571189937611,104966.652597268,43205.38505713244,9.4964967484013,105000.82194810128,-5277.160686795189,22.93168860777651,105225.82060592994,8514.574666431388,26.583724237078847,0.9820044390849572,101.0,76.0,98.0,236.0,334.0,25.0,870.0,870.0,25.0,13.0,12.0,0.52,116.68928157871164,2655.396046057275,21.0,16.0,5.0,0.7619047619047619,1067.7051333926709,4762.149341735732,22.0,11.0,11.0,0.5,2118.9510266797643,39275.152626374336,39.0,13.0,26.0,0.3333333333333333,231.2561408334215,6649.012531628212,68.0,34.0,34.0,0.5,85.27036080701795,8756.211558737054,0.0,0.0,0.0,0.0,104825.0,104850.0,104926.0,104947.0,104956.0,104978.0,104988.0,105024.0,105192.0,105260.0,0.04450632585493785,-0.13169682758037776,0.0490436787885996,-0.0438220767868759,0.010014635392557583
127,127,105697.45399416832,2656.972816008736,13.729146266237088,105795.67500201197,-7150.17134927975,9.331494086860586,105822.18335461762,36604.02728030657,9.337506404724111,105849.09103125444,-5688.158926136721,25.47965400864056,106077.46739355352,8999.534432742283,30.586021374281653,0.9830286638234754,103.0,71.0,91.0,240.0,331.0,32.0,858.0,855.0,33.0,16.0,17.0,0.4848484848484848,86.45641318700048,2656.505210716994,18.0,12.0,6.0,0.6666666666666666,884.6212328559933,1235.6941189949275,22.0,11.0,11.0,0.5,1846.9652135085453,32876.66440925364,33.0,7.0,26.0,0.2121212121212121,596.5299578503497,13604.746291917085,77.0,38.0,39.0,0.4935064935064935,70.64631595126805,9375.51466684198,0.0,0.0,0.0,0.0,105681.0,105713.0,105784.0,105802.0,105811.0,105833.0,105842.0,105875.0,106040.0,106115.0,0.03253944212981222,-0.12372028440200987,0.05045797828104658,-0.10487223820511295,0.007849996739191446
128,128,106533.0108021896,4032.6167205328215,14.653627758218414,106635.14364353818,-7091.496980642048,8.964404234575827,106661.50451694622,39703.04712397761,9.340233824305557,106686.02737379124,-4840.602849745556,17.835757806029598,106918.26614333558,9452.960889524402,31.753919536362947,0.9893062748739352,105.0,77.0,87.0,246.0,333.0,28.0,836.0,839.0,28.0,15.0,13.0,0.5357142857142857,164.95497555438735,4250.0992632317375,18.0,12.0,6.0,0.6666666666666666,917.339270198906,2736.4679778896916,22.0,12.0,10.0,0.5454545454545454,2021.563864991487,35707.1992513778,29.0,4.0,25.0,0.1379310344827586,848.3334840058739,15797.652722747289,75.0,37.0,38.0,0.4933333333333333,70.08362581524243,10095.70734548656,0.0,0.0,0.0,0.0,106518.0,106546.0,106623.0,106641.0,106650.0,106672.0,106682.0,106710.0,106881.0,106956.0,0.04090519555565206,-0.1293576338963416,0.050917096077762174,-0.17525368437331437,0.0074139337541222474
129,129,107397.61872070844,2963.391024695142,12.880116941394716,107498.9074866394,-8029.164115378631,11.000781700473947,107525.89667561224,41252.61839299876,9.243374052138458,107558.82194810074,-4873.873929572577,22.93168860777651,107785.43369251172,8561.363284385106,27.989937664538186,0.9864093549567302,103.0,75.0,92.0,241.0,333.0,28.0,865.0,865.0,29.0,16.0,13.0,0.5517241379310345,110.66411129564948,2956.3279707491774,20.0,13.0,7.0,0.65,904.7209425115514,1119.3134802667828,22.0,11.0,11.0,0.5,2114.570262777923,38742.42943596592,33.0,13.0,20.0,0.3939393939393939,266.6856892333515,6604.671969332952,72.0,37.0,35.0,0.5138888888888888,93.08731166559856,9176.836718971908,0.0,0.0,0.0,0.0,107383.0,107411.0,107486.0,107506.0,107515.0,107537.0,107546.0,107578.0,107750.0,107819.0,0.03734374248063805,-0.11267934364159991,0.05125905567091954,-0.054717395871735026,0.010872954291681395
130,130,108270.41317761628,3401.182099568205,11.485684608820634,108372.68050943996,-7170.0195768066405,11.513140254286489,108398.35358222724,38115.54541369559,9.577765512834125,108423.17805189872,-6412.885660034001,22.93168860777651,108654.92207255444,8994.45289935301,29.664211382364023,0.9806488037251956,103.0,75.0,91.0,242.0,333.0,28.0,873.0,872.0,28.0,14.0,14.0,0.5,132.95276248585893,3477.7151820876793,20.0,14.0,6.0,0.7,927.5891443946456,2912.497271028992,21.0,10.0,11.0,0.4761904761904761,1886.4152740806835,34155.207771059766,33.0,5.0,28.0,0.1515151515151515,816.9725495988889,17041.209611527727,72.0,35.0,37.0,0.4861111111111111,54.428336039752836,9139.812801723525,0.0,0.0,0.0,0.0,108256.0,108284.0,108359.0,108378.0,108388.0,108409.0,108418.0,108450.0,108621.0,108692.0,0.039090162947387576,-0.12937051767545832,0.049492018377437705,-0.1273954648358033,0.006051322592802502
131,131,109089.5826256134,3443.074854190874,16.14975339162221,109188.19012383735,-7256.495999803545,9.845704381166977,109214.96125647228,38504.36717153096,9.45712098590796,109240.17805189872,-5933.085426063593,21.971530265296217,109470.69148987778,9086.94138072423,30.42957242006507,0.9863679075262912,105.0,62.0,89.0,242.0,331.0,43.0,816.0,817.0,46.0,20.0,26.0,0.4347826086956521,89.01372476509935,3176.1895635921373,19.0,12.0,7.0,0.631578947368421,854.9814775457708,1061.6525668503018,22.0,11.0,11.0,0.5,1927.134838267616,34259.73139372103,31.0,5.0,26.0,0.1612903225806451,792.7430901644657,16318.088294363091,72.0,36.0,36.0,0.5,83.55742326800637,9781.306385366195,0.0,0.0,0.0,0.0,109071.0,109114.0,109176.0,109195.0,109204.0,109226.0,109235.0,109265.0,109436.0,109507.0,0.025852974023133073,-0.11782291033701633,0.05004977304736708,-0.13361396865819689,0.00919532984390693
132,132,109900.87691512932,3948.03236791962,13.368457213943469,110003.39728720114,-7375.616992459052,12.575239016684204,110028.00230686791,42002.15258590658,9.538728697288365,110053.02603898132,-5770.270663005273,17.835757806045198,110285.56707554802,8450.34959136919,29.9940631439416,0.990623505778208,103.0,73.0,89.0,243.0,332.0,30.0,813.0,813.0,30.0,16.0,14.0,0.5333333333333333,141.91042947140872,3902.308032361628,20.0,15.0,5.0,0.75,1012.798271676131,5108.882588419867,22.0,11.0,11.0,0.5,2106.687431687833,38565.737322255765,29.0,5.0,24.0,0.1724137931034483,892.5749596216177,16891.696413486097,72.0,37.0,35.0,0.5138888888888888,88.33382917400283,9163.219596024592,0.0,0.0,0.0,0.0,109885.0,109915.0,109988.0,110008.0,110017.0,110039.0,110048.0,110077.0,110250.0,110320.0,0.03594459625623261,-0.1373170912632302,0.0501566539328918,-0.15468511127981419,0.010453275124170373
133,133,110779.93542054616,3342.3039649765124,10.796963536384728,110883.5925853678,-7796.384173423127,12.60891013412428,110908.79039240057,41115.45439183194,9.524110952929844,110935.6571369598,-5754.917829254558,20.383723206912453,111167.5176321,9110.51048448093,28.34310658782781,0.9841930953467694,102.0,78.0,89.0,242.0,331.0,24.0,880.0,881.0,24.0,13.0,11.0,0.5416666666666666,153.6309793912523,3481.3542651189437,21.0,16.0,5.0,0.7619047619047619,1027.2093180067686,4755.105863129069,22.0,11.0,11.0,0.5,2057.166617394896,37138.09707264074,29.0,7.0,22.0,0.2413793103448276,685.3816908418501,14096.04854645199,67.0,34.0,33.0,0.5074626865671642,79.2002691946333,9489.901181355626,0.0,0.0,0.0,0.0,110767.0,110791.0,110869.0,110889.0,110898.0,110920.0,110929.0,110958.0,111135.0,111200.0,0.04596559169995537,-0.1317545794508682,0.05003390204058102,-0.11909495690064935,0.00869328555513382
134,134,111657.7655937816,2863.266883995115,13.347884987867886,111759.08030642792,-7422.096759162495,10.97185688042006,111784.95136077004,36841.04989016986,9.518816295727822,111809.17805189872,-6235.5778825325115,20.336375085439503,112041.38347749642,9447.59353316428,30.601960226510133,0.9776524301145736,104.0,70.0,90.0,242.0,332.0,34.0,877.0,876.0,35.0,17.0,18.0,0.4857142857142857,81.06410253111402,2688.2479396755753,20.0,14.0,6.0,0.7,873.9206185418548,1912.8818247574543,22.0,11.0,11.0,0.5,1859.9162944358452,32595.569653884995,31.0,5.0,26.0,0.1612903225806451,835.3677457121507,17005.75348266521,73.0,37.0,36.0,0.5068493150684932,60.85356802473931,9839.823408676002,0.0,0.0,0.0,0.0,111641.0,111675.0,111745.0,111765.0,111774.0,111796.0,111804.0,111835.0,112005.0,112077.0,0.028311752210120666,-0.11774578625144028,0.05048488845949308,-0.13396797561493615,0.00644117126875987
135,135,112546.45461610467,3208.851986681687,13.187526279277677,112646.59930687035,-7166.266285100448,10.341488116640104,112673.50661665124,39437.90385512549,9.385552033405908,112698.61632461131,-5521.780766457231,20.38372320690019,112932.04497371752,9174.797013919846,30.097146450136098,0.9883027420206892,103.0,73.0,90.0,245.0,335.0,30.0,889.0,888.0,31.0,15.0,16.0,0.4838709677419355,116.49218473100736,3353.4731019768587,19.0,13.0,6.0,0.6842105263157895,885.0782440420553,2302.97359228958,22.0,12.0,10.0,0.5454545454545454,1988.6215577321393,34572.45709200649,31.0,6.0,25.0,0.1935483870967742,769.6137967495526,15420.768732335497,75.0,37.0,38.0,0.4933333333333333,55.00276410829347,9373.072140558064,0.0,0.0,0.0,0.0,112531.0,112561.0,112634.0,112653.0,112662.0,112684.0,112693.0,112724.0,112896.0,112969.0,0.03630338364452682,-0.12350618981075853,0.05042411901599306,-0.13937782561464063,0.005994984305902813
136,136,113478.3524935907,3251.0123086750955,12.007637578339397,113581.29485133242,-7578.371801450716,11.682629578781915,113606.75091903048,40399.30099183846,9.299857809803775,113636.972626301,-4955.9314398281795,17.8357578060484,113868.44253633678,9274.312782278555,29.736536453816008,0.9897548889232172,103.0,76.0,96.0,242.0,338.0,27.0,932.0,934.0,27.0,14.0,13.0,0.5185185185185185,138.42582867371306,3431.532357517629,20.0,14.0,6.0,0.7,958.1921989923804,3082.026223547615,22.0,11.0,11.0,0.5,2090.8150377704865,38034.02383348444,38.0,10.0,28.0,0.2631578947368421,408.3105087239367,9163.955321334392,73.0,36.0,37.0,0.4931506849315068,50.713838637271145,9325.99723451162,0.0,0.0,0.0,0.0,113464.0,113491.0,113567.0,113587.0,113596.0,113618.0,113627.0,113663.0,113833.0,113905.0,0.04257930008580206,-0.12643773941111666,0.05175374292225691,-0.08238824803801013,0.005468204472699651
