Unnamed: 0,cycle,p_center,p_height,p_width,q_center,q_height,q_width,r_center,r_height,r_width,s_center,s_height,s_width,t_center,t_height,t_width,r_squared,pr_interval,pr_segment,qrs_duration,st_segment,qt_interval,p_duration,pp_interval,rr_interval,fwhm_p,rise_time_p,decay_time_p,rise_decay_symmetry_p,sharpness_deriv_p,sharpness_diff_p,fwhm_q,rise_time_q,decay_time_q,rise_decay_symmetry_q,sharpness_deriv_q,sharpness_diff_q,fwhm_r,rise_time_r,decay_time_r,rise_decay_symmetry_r,sharpness_deriv_r,sharpness_diff_r,fwhm_s,rise_time_s,decay_time_s,rise_decay_symmetry_s,sharpness_deriv_s,sharpness_diff_s,fwhm_t,rise_time_t,decay_time_t,rise_decay_symmetry_t,sharpness_deriv_t,sharpness_diff_t,Average_Heart_Rate,SDNN,RMSSD,NN50,p_on,p_off,q_on,q_off,r_on,r_off,s_on,s_off,t_on,t_off,sharpness_deriv_p_norm,sharpness_deriv_q_norm,sharpness_deriv_r_norm,sharpness_deriv_s_norm,sharpness_deriv_t_norm
0,0,0.0,0.0,0.0,0.0,0.0,0.0,0.0,0.0,0.0,0.0,0.0,0.0,0.0,0.0,0.0,0.0,0.0,0.0,0.0,0.0,0.0,0.0,0.0,0.0,0.0,0.0,0.0,0.0,0.0,0.0,0.0,0.0,0.0,0.0,0.0,0.0,0.0,0.0,0.0,0.0,0.0,0.0,0.0,0.0,0.0,0.0,0.0,0.0,0.0,0.0,0.0,0.0,0.0,0.0,73.43313701976092,507.457465809862,819.5181266143144,378.0,,,,,,,,,,,,,,,
1,1,1493.059018503415,3255.9555510696077,16.670907047555495,1610.141766423797,-4278.218739259785,6.923674682216664,1639.98470682913,43990.133583981995,10.358465651791562,1666.301356399424,-3769.337708246015,5.380474952763362,1876.0458311081677,13238.087142193,31.654179737115857,0.9862496757544464,127.0,85.0,73.0,241.0,314.0,42.0,,,42.0,20.0,22.0,0.4761904761904761,61.58687772545055,3380.999887689162,15.0,10.0,5.0,0.6666666666666666,739.1474466739736,4473.194694923239,26.0,13.0,13.0,0.5,1895.30959759638,42970.09808173115,9.0,2.0,7.0,0.2222222222222222,1003.4600278255972,14226.160164496609,79.0,40.0,39.0,0.5063291139240507,98.04555726205848,13885.288766814016,0.0,0.0,0.0,0.0,1473.0,1515.0,1600.0,1615.0,1627.0,1653.0,1664.0,1673.0,1837.0,1914.0,0.018915146954392163,-0.17276990535595205,0.04308487933954613,-0.26621653603241,0.007406323603170995
2,2,0.0,0.0,0.0,0.0,0.0,0.0,0.0,0.0,0.0,0.0,0.0,0.0,0.0,0.0,0.0,0.0,0.0,0.0,0.0,0.0,0.0,0.0,0.0,0.0,0.0,0.0,0.0,0.0,0.0,0.0,0.0,0.0,0.0,0.0,0.0,0.0,0.0,0.0,0.0,0.0,0.0,0.0,0.0,0.0,0.0,0.0,0.0,0.0,0.0,0.0,0.0,0.0,0.0,0.0,0.0,0.0,0.0,0.0,,2019.0,2291.0,2378.0,2389.0,2413.0,2421.0,2439.0,2604.0,2673.0,,,,,
3,3,3046.0058675381274,3011.9545544283587,13.449247349602835,3158.4575980912527,-4264.986257113755,8.21839432247398,3188.183672979144,40747.87601450759,10.142958122860676,3213.3013563994245,-4800.190110383375,5.339731317875032,3423.6292682669227,13851.806294165564,35.25714674165887,0.9709200823280406,119.0,84.0,73.0,245.0,318.0,35.0,1553.0,1549.0,35.0,17.0,18.0,0.4857142857142857,76.72062327397933,2991.808238896876,16.0,10.0,6.0,0.625,645.7235158771223,3141.3633505265434,25.0,12.0,13.0,0.48,1835.4022788073032,40192.291125030475,11.0,3.0,8.0,0.2727272727272727,1095.6983547396276,15123.952415091204,86.0,44.0,42.0,0.5116279069767442,89.18190707532018,14627.363688266702,0.0,0.0,0.0,0.0,3029.0,3064.0,3148.0,3164.0,3176.0,3201.0,3211.0,3221.0,3382.0,3466.0,0.025472038799914828,-0.15140107774089356,0.04504289446040916,-0.22826144997247158,0.006438287193843012
4,4,0.0,0.0,0.0,0.0,0.0,0.0,0.0,0.0,0.0,0.0,0.0,0.0,0.0,0.0,0.0,0.0,0.0,0.0,0.0,0.0,0.0,0.0,0.0,0.0,0.0,0.0,0.0,0.0,0.0,0.0,0.0,0.0,0.0,0.0,0.0,0.0,0.0,0.0,0.0,0.0,0.0,0.0,0.0,0.0,0.0,0.0,0.0,0.0,0.0,0.0,0.0,0.0,0.0,0.0,0.0,0.0,0.0,0.0,,3632.0,3957.0,3985.0,3996.0,4021.0,4030.0,4046.0,4212.0,4284.0,,,,,
5,5,4749.2730354314945,2830.8460571896153,11.75873801125739,4859.972626301007,-4944.920208279417,17.83575780604514,4887.93001158259,44019.51961467846,10.502596415075727,4913.301356399425,-5401.375706910665,6.141673712156177,5127.556612853758,14112.882736493731,32.204969018468105,0.9759730125236136,112.0,79.0,77.0,245.0,322.0,33.0,1702.0,1700.0,33.0,16.0,17.0,0.4848484848484848,77.11022837792775,2767.3620074972105,20.0,16.0,4.0,0.8,859.5171988281365,5433.957127357409,25.0,12.0,13.0,0.48,1925.820836721264,42417.872839392425,12.0,3.0,9.0,0.25,1139.044497025306,16618.140986992465,81.0,41.0,40.0,0.5061728395061729,100.652251115355,14789.026547871086,0.0,0.0,0.0,0.0,4733.0,4766.0,4845.0,4864.0,4876.0,4901.0,4911.0,4922.0,5088.0,5167.0,0.02723928706122601,-0.17381821397017144,0.043749247006300646,-0.21088044210070075,0.007131941290427069
6,6,5627.691605366392,2011.652156105539,8.239670640754923,5733.668056969617,-5502.29069838094,20.383723206912453,5765.955971493376,42565.32490699082,10.384617140886784,5790.876695499281,-6381.252007599547,7.252449735035992,6006.943851108983,13566.674880837249,31.162548888765773,0.9697226389419294,106.0,80.0,80.0,245.0,325.0,26.0,879.0,878.0,26.0,13.0,13.0,0.5,88.91380529092831,1766.8281448852645,22.0,13.0,9.0,0.5909090909090909,562.2895214513374,886.5654669747178,24.0,12.0,12.0,0.5,1911.1680944360696,40393.05298913497,13.0,3.0,10.0,0.2307692307692307,1130.108907285151,17438.579848269805,79.0,40.0,39.0,0.5063291139240507,89.43425724502116,13973.889807255871,0.0,0.0,0.0,0.0,5615.0,5641.0,5721.0,5743.0,5754.0,5778.0,5788.0,5801.0,5968.0,6046.0,0.044199393528879825,-0.10219189647991375,0.04489964774407688,-0.17709830389699138,0.00659220170237483
7,7,6427.602319873416,2761.342263123663,12.735775310344982,6539.203830537449,-4598.8214283911775,9.659576923247554,6568.994499301788,40591.02432655499,10.202600174911517,6593.876695499281,-5726.090736839888,5.73128376145078,6806.60344885889,14150.81658745011,34.05839491429253,0.9655437783050866,117.0,82.0,74.0,245.0,319.0,35.0,800.0,802.0,35.0,17.0,18.0,0.4857142857142857,69.105779623463,2650.9166951365496,17.0,11.0,6.0,0.6470588235294118,663.6033917150779,2899.500697381323,24.0,12.0,12.0,0.5,1855.7697490045991,39658.572692223715,11.0,3.0,8.0,0.2727272727272727,1118.749793148184,15805.755916978058,82.0,41.0,41.0,0.5,95.45051537040672,14955.832142540236,0.0,0.0,0.0,0.0,6411.0,6446.0,6528.0,6545.0,6557.0,6581.0,6591.0,6602.0,6767.0,6847.0,0.025026155050149313,-0.14429857780914723,0.045718721805956965,-0.19537758735650054,0.006745230197885443
8,8,0.0,0.0,0.0,0.0,0.0,0.0,0.0,0.0,0.0,0.0,0.0,0.0,0.0,0.0,0.0,0.0,0.0,0.0,0.0,0.0,0.0,0.0,0.0,0.0,0.0,0.0,0.0,0.0,0.0,0.0,0.0,0.0,0.0,0.0,0.0,0.0,0.0,0.0,0.0,0.0,0.0,0.0,0.0,0.0,0.0,0.0,0.0,0.0,0.0,0.0,0.0,0.0,0.0,0.0,0.0,0.0,0.0,0.0,,6963.0,7238.0,7321.0,7332.0,7356.0,7365.0,7383.0,7551.0,7617.0,,,,,
9,9,7973.981790650134,1513.7474359253004,7.170597824495989,8081.483531635385,-5737.952918910732,20.383723206912453,8115.544820735767,43641.81264370616,10.406083141415383,8140.452034599137,-6307.929665276702,7.825873272422979,8354.305687116987,13452.225603546904,28.773076478557968,0.9658020702829032,106.0,84.0,82.0,240.0,322.0,22.0,1546.0,1547.0,22.0,11.0,11.0,0.5,82.62934196091098,1367.6114319929495,26.0,15.0,11.0,0.5769230769230769,420.33627697824,3028.0297421387877,25.0,13.0,12.0,0.52,1963.5119914769907,40397.77416781387,15.0,3.0,12.0,0.2,1191.0491211495912,18368.5914830334,74.0,37.0,37.0,0.5,102.09151537824891,13898.832308242878,0.0,0.0,0.0,0.0,7963.0,7985.0,8069.0,8092.0,8103.0,8128.0,8137.0,8151.0,8318.0,8391.0,0.054585950073238326,-0.07325544195263889,0.04499153157333762,-0.18881775548417518,0.007589191438428656
10,10,8752.580212892148,1377.3903250970056,6.858675814600907,8859.60271279885,-5749.624500008174,20.383723206912453,8894.577292863512,43431.8174892945,10.368593581308868,8919.452034599139,-6521.13923568867,8.312054169189945,9133.390110579738,13413.515202765868,28.75501586574511,0.9669997502975448,105.0,83.0,83.0,240.0,323.0,22.0,778.0,779.0,22.0,11.0,11.0,0.5,80.7104142258789,1191.900737567189,26.0,15.0,11.0,0.5769230769230769,418.9850388217494,3098.906529217469,25.0,13.0,12.0,0.52,1967.743187681927,40068.7392370842,15.0,3.0,12.0,0.2,1195.4573387482444,18658.67797782177,74.0,37.0,37.0,0.5,103.18239157808443,13857.517041052612,0.0,0.0,0.0,0.0,8742.0,8764.0,8847.0,8871.0,8882.0,8907.0,8916.0,8930.0,9097.0,9170.0,0.05859661764372761,-0.07287172211353171,0.04530648960677171,-0.18332032111901336,0.007692419922617169
11,11,9568.652637832878,1527.778650494707,7.124253455100337,9676.21511355912,-5339.303242286708,20.383723206912453,9709.285172734548,42663.14970289193,10.31040257614427,9733.876695499284,-6392.787634638621,6.813981274350112,9948.558344708676,13635.325031678114,30.23049265217436,0.9627273644715288,105.0,83.0,81.0,243.0,324.0,22.0,816.0,815.0,22.0,11.0,11.0,0.5,84.80787263308538,1362.5446439741434,24.0,14.0,10.0,0.5833333333333334,463.6327833331499,1876.5910629690668,25.0,12.0,13.0,0.48,1926.650837617625,41335.7895058664,13.0,3.0,10.0,0.2307692307692307,1165.580164218152,17592.209752609087,77.0,39.0,38.0,0.5064935064935064,97.09941294971787,14075.55901682303,0.0,0.0,0.0,0.0,9558.0,9580.0,9663.0,9686.0,9697.0,9722.0,9731.0,9744.0,9911.0,9987.0,0.05551057583218872,-0.08683394860610802,0.04515960146015723,-0.1823273712241876,0.007121165995246374
12,12,10369.31600970989,2436.9368995324085,10.856343197808082,10482.972626300862,-4679.148986195898,17.835757778446073,10510.455581225053,41461.72062232027,10.516464029934468,10534.876695499284,-6481.558391829774,6.266328440255381,10749.080640893775,14289.464954259329,33.171941484723334,0.961986454593241,114.0,83.0,76.0,245.0,321.0,31.0,802.0,801.0,31.0,15.0,16.0,0.4838709677419355,74.94293943548779,2367.7999264911978,21.0,17.0,4.0,0.8095238095238095,828.2652017007317,5951.307688100438,25.0,12.0,13.0,0.48,1843.5958939788227,40733.794075294645,13.0,3.0,10.0,0.2307692307692307,1180.544279955853,17043.002593308247,82.0,41.0,41.0,0.5,101.59916542065682,15096.272906682409,0.0,0.0,0.0,0.0,10354.0,10385.0,10468.0,10487.0,10498.0,10523.0,10532.0,10544.0,10709.0,10789.0,0.030752925711727535,-0.17701193190133985,0.044465011733892,-0.1821389561874455,0.007110074852058941
13,13,0.0,0.0,0.0,0.0,0.0,0.0,0.0,0.0,0.0,0.0,0.0,0.0,0.0,0.0,0.0,0.0,0.0,0.0,0.0,0.0,0.0,0.0,0.0,0.0,0.0,0.0,0.0,0.0,0.0,0.0,0.0,0.0,0.0,0.0,0.0,0.0,0.0,0.0,0.0,0.0,0.0,0.0,0.0,0.0,0.0,0.0,0.0,0.0,0.0,0.0,0.0,0.0,0.0,0.0,0.0,0.0,0.0,0.0,,10935.0,11210.0,11291.0,11301.0,11325.0,11334.0,11352.0,11520.0,11588.0,,,,,
14,14,12025.96921056382,1404.461616092745,6.991689548811088,12131.60271279885,-6168.908801405051,20.383723206912453,12166.507921230124,45067.696154947786,10.417561166229383,12191.624055819457,-5427.965344304606,15.28779240518434,12407.47729950271,13227.4462539819,28.18030555286104,0.9651039925222132,104.0,82.0,83.0,242.0,325.0,22.0,1655.0,1656.0,22.0,11.0,11.0,0.5,80.56057409174015,1286.4227755291242,26.0,15.0,11.0,0.5769230769230769,456.1977969918855,3336.5361186892223,25.0,13.0,12.0,0.52,1951.885724254866,39435.32082646487,15.0,4.0,11.0,0.2666666666666666,1068.8769040721966,17382.871441594983,74.0,37.0,37.0,0.5,101.57217485929542,13605.31058118166,0.0,0.0,0.0,0.0,12015.0,12037.0,12119.0,12143.0,12154.0,12179.0,12188.0,12202.0,12371.0,12444.0,0.05736046693526742,-0.0739511332843793,0.0433100844015648,-0.1969203626537033,0.007678895299137491
15,15,12860.569091991403,2852.346949663743,12.728364879082187,12973.972626301009,-4620.58467042373,15.5663416386806,13001.38897134868,42164.11586460675,10.479154397445024,13025.876695499284,-6355.494898022006,6.182893875052012,13241.068413321926,14421.041771235066,33.42816230911641,0.9755491873911154,116.0,81.0,75.0,247.0,322.0,35.0,835.0,835.0,35.0,17.0,18.0,0.4857142857142857,75.46780844410848,2747.42465936187,20.0,16.0,4.0,0.8,851.7400180819241,6341.126952806075,25.0,12.0,13.0,0.48,1893.607813785785,41747.59133812623,13.0,3.0,10.0,0.2307692307692307,1191.3759760693813,17139.11878243726,82.0,41.0,41.0,0.5,100.95079319255328,15188.392825158257,0.0,0.0,0.0,0.0,12844.0,12879.0,12960.0,12978.0,12989.0,13014.0,13023.0,13035.0,13201.0,13282.0,0.026458144740423396,-0.18433598317846978,0.0449104119689442,-0.18745605105279342,0.007000242755964746
16,16,13624.0615553746,2499.587655427128,10.927376954508198,13736.016285072326,-4394.998042319713,9.675039964898051,13766.379302028805,41245.75380811353,10.2275803706301,13791.301356399426,-5468.169534652197,5.52875505037457,14003.374032790029,14942.672882696786,34.70685246211187,0.9630761604055276,116.0,85.0,74.0,246.0,320.0,31.0,764.0,765.0,31.0,15.0,16.0,0.4838709677419355,75.28984309018864,2383.054607396183,17.0,11.0,6.0,0.6470588235294118,643.8201022880708,2853.334188526639,25.0,12.0,13.0,0.48,1863.098272727194,41106.069630134894,11.0,3.0,8.0,0.2727272727272727,1156.719865716174,16055.173258323315,85.0,42.0,43.0,0.4941176470588235,101.1512376200814,15842.329704960244,0.0,0.0,0.0,0.0,13609.0,13640.0,13725.0,13742.0,13754.0,13779.0,13789.0,13799.0,13963.0,14045.0,0.030120905312809747,-0.1464892807889074,0.04517066851038374,-0.21153694273485013,0.0067692867543939755
17,17,0.0,0.0,0.0,0.0,0.0,0.0,0.0,0.0,0.0,0.0,0.0,0.0,0.0,0.0,0.0,0.0,0.0,0.0,0.0,0.0,0.0,0.0,0.0,0.0,0.0,0.0,0.0,0.0,0.0,0.0,0.0,0.0,0.0,0.0,0.0,0.0,0.0,0.0,0.0,0.0,0.0,0.0,0.0,0.0,0.0,0.0,0.0,0.0,0.0,0.0,0.0,0.0,0.0,0.0,0.0,0.0,0.0,0.0,,14130.0,14404.0,14492.0,14502.0,14526.0,14535.0,14645.0,14720.0,14788.0,,,,,
18,18,15125.258730885964,399.0518602187363,3.5169003147999303,15232.60271279885,-6516.992246664514,20.383723206912453,15267.38394024027,43818.29712821028,10.320631153976716,15291.868850104083,-6447.132703347996,15.28779240518434,15506.241623009131,12987.430132160687,27.787841350147744,0.9506002400330384,42.0,30.0,142.0,239.0,381.0,12.0,1501.0,1501.0,12.0,6.0,6.0,0.5,83.78560401669901,446.7500564933015,86.0,75.0,11.0,0.872093023255814,424.9200006870138,3424.210023109299,24.0,12.0,12.0,0.5,1929.2102229978584,39560.3193219074,16.0,4.0,12.0,0.25,1144.303289928531,18806.10188399432,72.0,36.0,36.0,0.5,105.98223026699482,13369.335932161055,0.0,0.0,0.0,0.0,15119.0,15131.0,15161.0,15244.0,15255.0,15279.0,15288.0,15303.0,15471.0,15542.0,0.2099616926250457,-0.06520185763677924,0.044027503336176665,-0.17749026467755105,0.008160369618047201
19,19,15870.41492789817,2044.475094817752,9.23290177359577,15983.97450890117,-4988.431065962478,17.8357578060484,16013.69689886195,40410.39676507839,10.492429816519763,16037.876695499284,-7102.566313880609,6.832337019877148,16252.400613977274,13783.04295499711,32.40108604752889,0.9632307867473858,112.0,85.0,79.0,243.0,322.0,27.0,745.0,746.0,27.0,13.0,14.0,0.4814814814814814,78.59365572034227,1978.70688115894,21.0,15.0,6.0,0.7142857142857143,666.2815777632676,2275.666983094492,24.0,12.0,12.0,0.5,1841.3467288054755,37913.39997894973,13.0,3.0,10.0,0.2307692307692307,1192.367789990474,17735.170314160594,79.0,39.0,40.0,0.4936708860759494,103.5862410216608,14593.30456038182,0.0,0.0,0.0,0.0,15857.0,15884.0,15969.0,15990.0,16002.0,16026.0,16035.0,16048.0,16214.0,16291.0,0.03844197267042191,-0.13356535731434707,0.045566163072091374,-0.16787844524030968,0.007515484161217468
20,20,16639.350774606613,825.7773722833166,5.531997343626534,16747.602712798853,-6561.5436002598335,20.383723206912453,16781.793624415986,42744.617331624846,10.218103314807228,16811.54796540086,-5798.936143003854,15.28779240518434,17022.33952532624,12574.433226158846,26.19769968913139,0.953142940813176,71.0,53.0,118.0,237.0,355.0,18.0,769.0,768.0,18.0,9.0,9.0,0.5,73.05742487903659,842.492740134035,66.0,55.0,11.0,0.8333333333333334,451.2951991376867,3262.1094645770213,24.0,12.0,12.0,0.5,1904.1913097809136,38647.454367779545,17.0,9.0,8.0,0.5294117647058824,645.5002884475876,11448.358849911983,70.0,35.0,35.0,0.5,103.74855144223407,12808.754243922496,0.0,0.0,0.0,0.0,16630.0,16648.0,16701.0,16759.0,16770.0,16794.0,16803.0,16819.0,16988.0,17056.0,0.08847109079415567,-0.06877881587494376,0.04454809584579172,-0.11131357071871771,0.0082507536980994
21,21,17449.91967821517,1384.131449668365,6.953233780204326,17557.027373698995,-6197.292228420625,17.8357578060484,17591.130012704965,43981.3819973465,10.456334989795195,17615.876695499283,-5692.969770087343,12.739827004320285,17831.155393013607,13430.557170582237,28.170675873809515,0.960400980432883,105.0,83.0,83.0,240.0,323.0,22.0,810.0,809.0,22.0,11.0,11.0,0.5,79.12965201915313,1256.756056958588,26.0,15.0,11.0,0.5769230769230769,472.81062651194503,2819.647194468992,24.0,12.0,12.0,0.5,1944.5448984081552,40910.21298892568,14.0,3.0,11.0,0.2142857142857142,1124.6934650630897,17885.457151441115,74.0,37.0,37.0,0.5,102.7052872290514,13796.50313538453,0.0,0.0,0.0,0.0,17439.0,17461.0,17544.0,17567.0,17579.0,17603.0,17613.0,17627.0,17795.0,17867.0,0.057169174241443924,-0.07629309851545284,0.04421291032931785,-0.19755830620646953,0.007647135254672309
22,22,18387.76483169911,2712.143477456604,11.242718070477611,18496.972626301005,-5149.016347695245,17.835757806006495,18524.837504481897,43091.61117800442,10.51086757471628,18549.876695499283,-6080.921328783109,6.500579305942312,18767.526616826108,14502.001231381391,32.95652382884428,0.9759319932598892,109.0,78.0,77.0,249.0,326.0,31.0,939.0,935.0,31.0,15.0,16.0,0.4838709677419355,82.23899653850016,2588.33645468186,20.0,16.0,4.0,0.8,851.795392927257,5164.722906042426,25.0,12.0,13.0,0.48,1908.638689991548,41124.99208725157,13.0,3.0,10.0,0.2307692307692307,1136.8462218654813,16910.368402937693,81.0,41.0,40.0,0.5061728395061729,99.04830259554232,15158.881261443265,0.0,0.0,0.0,0.0,18373.0,18404.0,18482.0,18501.0,18513.0,18538.0,18547.0,18559.0,18728.0,18808.0,0.03032250956561572,-0.1654287606425118,0.04429258126616043,-0.1869529566982546,0.006829974774875085
23,23,19260.21351578626,3273.6397029259538,17.00413181943101,19371.06815080134,-3941.3219819692818,7.3011198850326995,19400.913368737052,42019.28443258663,10.203512882772078,19425.72601729957,-4681.53061074796,4.759318065297429,19638.388053727947,15484.30256358579,38.27933213396641,0.961522259746982,119.0,81.0,71.0,251.0,322.0,38.0,872.0,875.0,38.0,18.0,20.0,0.4736842105263157,85.26796908581693,3553.6162198172096,15.0,10.0,5.0,0.6666666666666666,682.006361880684,4249.591676491507,26.0,13.0,13.0,0.5,1863.6292983704911,40709.122810376895,10.0,3.0,7.0,0.3,1120.5664131128938,14400.645687310833,90.0,44.0,46.0,0.4888888888888889,99.88965273199196,16638.095277762222,0.0,0.0,0.0,0.0,19242.0,19280.0,19361.0,19376.0,19388.0,19414.0,19424.0,19432.0,19596.0,19683.0,0.02604683985522447,-0.17304000155296104,0.044351761900191154,-0.23935898454669355,0.006451026923673076
24,24,20123.410041943425,483.7057309076893,3.2802961680204135,20228.602712798853,-6405.949396179592,20.383723206912453,20263.143681963604,43803.61811871507,10.511982825876387,20287.876695499283,-6197.619394692897,12.739827004320285,20505.11786684513,13602.152662300134,28.124870898966876,0.9583090872285394,96.0,85.0,85.0,242.0,327.0,11.0,863.0,862.0,11.0,5.0,6.0,0.4545454545454545,88.45973244861001,498.0589311801608,30.0,19.0,11.0,0.6333333333333333,465.1618692978181,3114.5502525409456,24.0,12.0,12.0,0.5,1924.4783740032492,40172.31939678304,16.0,4.0,12.0,0.25,1117.08648834601,18169.75674452193,74.0,37.0,37.0,0.5,102.41091306852243,13915.550523302889,0.0,0.0,0.0,0.0,20118.0,20129.0,20214.0,20240.0,20251.0,20275.0,20285.0,20299.0,20469.0,20541.0,0.18287923172341267,-0.07261404056286072,0.04393423321305545,-0.18024444826389077,0.007529022472477138
25,25,21006.318597596954,1938.0150932035544,9.003009892295506,21113.972626301005,-5101.108013612827,17.835757806048342,21141.426739290073,44811.25363247505,10.554616166892206,21166.876695499283,-5538.190549939051,6.112507934058667,21383.739520115196,14840.95788684508,31.810880870222572,0.9778921393266516,105.0,80.0,76.0,248.0,324.0,25.0,884.0,879.0,25.0,12.0,13.0,0.48,82.32046969565211,1856.8313537807453,21.0,17.0,4.0,0.8095238095238095,907.7357969598148,6533.0009060149705,25.0,12.0,13.0,0.48,1945.8272231850144,44281.68619425191,12.0,3.0,9.0,0.25,1120.1752160069504,16390.472542235748,79.0,40.0,39.0,0.5063291139240507,103.94231048197332,15493.002096003189,0.0,0.0,0.0,0.0,20994.0,21019.0,21099.0,21118.0,21129.0,21154.0,21164.0,21175.0,21345.0,21423.0,0.042476691736995566,-0.1779487504552794,0.0434227357070604,-0.20226375490443863,0.007003746744279023
26,26,21871.810524267832,1473.189230766874,8.641641340082892,21978.972626301005,-4360.60109038253,17.82336088655949,22006.5906825537,43578.42234896884,10.377399444275964,22031.876695499283,-5605.524337668081,5.753403288884948,22248.95291670653,15039.857621266929,33.146075616355546,0.976962598262954,106.0,80.0,75.0,249.0,324.0,26.0,863.0,865.0,26.0,13.0,13.0,0.5,63.14485078214128,1423.4032730082458,20.0,16.0,4.0,0.8,852.3081900601062,6225.314791443687,25.0,13.0,12.0,0.52,1926.9800559343028,41150.83366432305,11.0,3.0,8.0,0.2727272727272727,1127.6506817174836,16096.206706808796,81.0,41.0,40.0,0.5061728395061729,100.96743014221616,15790.165377571231,0.0,0.0,0.0,0.0,21859.0,21885.0,21965.0,21983.0,21994.0,22019.0,22029.0,22040.0,22209.0,22289.0,0.04286268828429529,-0.19545658325406193,0.04421867410672565,-0.20116774342408628,0.006713323535685895
27,27,22705.361103734376,2432.7749093728626,12.784905469579362,22811.58326912547,-4002.0750834098512,7.475929607727951,22841.29934587406,42150.021112885675,10.137487112903608,22866.30135639943,-5085.526783015947,5.053606352851617,23081.37241373425,15616.436833719565,36.929853224778554,0.970269127634403,112.0,79.0,72.0,251.0,323.0,33.0,834.0,835.0,34.0,16.0,18.0,0.4705882352941176,68.85651268185553,2375.082549525142,16.0,11.0,5.0,0.6875,721.9899986710329,4889.249625228629,25.0,12.0,13.0,0.48,1884.9169816795827,41662.99597573432,11.0,3.0,8.0,0.2727272727272727,1168.81704714846,15544.194174662587,87.0,43.0,44.0,0.4942528735632184,105.4448625094524,16777.88629291334,0.0,0.0,0.0,0.0,22689.0,22722.0,22801.0,22816.0,22829.0,22854.0,22864.0,22873.0,23040.0,23124.0,0.028303692387063397,-0.18040391137686562,0.04471924169697142,-0.22983205025130132,0.006752171678610586
28,28,0.0,0.0,0.0,0.0,0.0,0.0,0.0,0.0,0.0,0.0,0.0,0.0,0.0,0.0,0.0,0.0,0.0,0.0,0.0,0.0,0.0,0.0,0.0,0.0,0.0,0.0,0.0,0.0,0.0,0.0,0.0,0.0,0.0,0.0,0.0,0.0,0.0,0.0,0.0,0.0,0.0,0.0,0.0,0.0,0.0,0.0,0.0,0.0,0.0,0.0,0.0,0.0,0.0,0.0,0.0,0.0,0.0,0.0,,23276.0,23544.0,23632.0,23642.0,23666.0,23675.0,23790.0,23864.0,23931.0,,,,,
29,29,24265.894950191378,2325.390495414943,10.143655911259168,24379.752919258517,-4714.325586474925,17.835757806044285,24408.188152031264,40894.13479127624,10.464678700352284,24432.876695499283,-6697.104203110209,6.295933354407655,24647.461469968144,13899.794664908011,32.14574235037531,0.96816742537665,113.0,84.0,77.0,245.0,322.0,29.0,1562.0,1567.0,29.0,14.0,15.0,0.4827586206896552,80.3736015347287,2201.0494967109275,21.0,16.0,5.0,0.7619047619047619,767.916163091116,4628.07234517273,25.0,12.0,13.0,0.48,1833.91155132099,39641.65376214481,12.0,3.0,9.0,0.25,1166.4535961333706,16987.184353087272,80.0,39.0,41.0,0.4875,98.32331169571007,14537.809478639,0.0,0.0,0.0,0.0,24252.0,24281.0,24365.0,24384.0,24396.0,24421.0,24430.0,24442.0,24609.0,24687.0,0.03456348587181562,-0.1628899296421559,0.04484534422066339,-0.17417283063800273,0.007073724041689704
30,30,25017.90813569796,1321.9267356781097,6.915554682845693,25125.602712798853,-5737.078449660315,20.383723206912453,25160.464110234105,41346.100967010425,10.394150061321277,25185.45203459914,-6436.77175631684,8.019061964041823,25400.707009053043,13050.92109349922,29.4274267562269,0.9637326947732532,104.0,82.0,85.0,242.0,327.0,22.0,751.0,752.0,22.0,11.0,11.0,0.5,76.66212281657636,1211.8893295064706,44.0,33.0,11.0,0.75,403.1127585203045,2970.613024339493,25.0,12.0,13.0,0.48,1863.2176841294,40223.82936629349,15.0,3.0,12.0,0.2,1145.0527719270644,17854.569941810925,76.0,39.0,37.0,0.5131578947368421,98.80416750120578,13472.8973363986,0.0,0.0,0.0,0.0,25007.0,25029.0,25111.0,25137.0,25148.0,25173.0,25182.0,25196.0,25363.0,25438.0,0.05799271680306166,-0.07026446684621723,0.045063927203584195,-0.17789239936981557,0.007570666222970347
31,31,25796.153644536113,748.4628529626557,5.407933613007314,25903.602712798853,-6234.849323081678,20.383723206912453,25938.36587533183,42909.795115179055,10.15573521475397,25968.547965400656,-5444.298383020019,15.28779240518434,26180.039198798775,12858.41490273585,27.033598861515273,0.9544093720672744,100.0,82.0,88.0,240.0,328.0,18.0,779.0,778.0,18.0,9.0,9.0,0.5,70.52650193299196,766.2078130881525,78.0,67.0,11.0,0.8589743589743589,419.4376637309126,3466.2932446838677,25.0,12.0,13.0,0.48,1907.915491932465,40332.30060819616,18.0,10.0,8.0,0.5555555555555556,612.7261727878994,10592.666525795565,72.0,36.0,36.0,0.5,102.258328151275,13122.08348648517,0.0,0.0,0.0,0.0,25787.0,25805.0,25887.0,25915.0,25926.0,25951.0,25960.0,25975.0,26145.0,26215.0,0.09422845990796401,-0.06727310348593935,0.0444634025124383,-0.11254456124207003,0.007952638713619184
32,32,26696.489738753327,2479.806161506717,10.8826174932565,26806.972626301005,-5012.94538071974,17.835757806047578,26834.612858308177,44562.56336338641,10.575268782059885,26860.30135639943,-5439.48791981583,6.409380184839844,27078.33140255274,14343.30578386504,31.268809901395223,0.9747944700238084,111.0,79.0,77.0,248.0,325.0,32.0,900.0,896.0,32.0,15.0,17.0,0.46875,75.86506188302705,2444.735626315319,21.0,17.0,4.0,0.8095238095238095,890.5577303334056,6283.099694663251,26.0,13.0,13.0,0.5,1938.2453891086905,42212.39814668763,13.0,3.0,10.0,0.2307692307692307,1123.5554539139443,16643.48668829443,80.0,40.0,40.0,0.5,105.69296421972273,15004.952365281535,0.0,0.0,0.0,0.0,26681.0,26713.0,26792.0,26811.0,26822.0,26848.0,26858.0,26869.0,27040.0,27117.0,0.030593141940147388,-0.177651592566433,0.04349492584848016,-0.20655537257852497,0.0073688008756404005
33,33,27648.603946914944,1816.4095927334183,11.17015181466354,27752.152796585997,-4944.189717509102,8.934750181207308,27782.74178361511,44087.24886599771,10.25628558103937,27808.30135639943,-4681.351913786614,5.422187914914223,28026.72501009094,14927.077906080403,32.796558646303595,0.985304473282646,108.0,76.0,74.0,252.0,326.0,32.0,952.0,948.0,32.0,16.0,16.0,0.5,56.34087124840085,1697.1444437680898,17.0,11.0,6.0,0.6470588235294118,683.629475923441,2564.3278643436224,25.0,13.0,12.0,0.52,1961.9117641663547,42550.13364392946,11.0,3.0,8.0,0.2727272727272727,1115.2092298219536,15679.460613662504,81.0,41.0,40.0,0.5061728395061729,103.52563871189288,15634.359337420155,0.0,0.0,0.0,0.0,27633.0,27665.0,27741.0,27758.0,27770.0,27795.0,27806.0,27815.0,27987.0,28067.0,0.031017712895700173,-0.1382692645273037,0.04450066208779653,-0.23822375466746146,0.0069354256314105986
34,34,28523.141790276455,1288.5766930922762,7.602472935087602,28632.972626301005,-4525.486308181494,17.8357578060484,28660.989053317106,43542.258457323,10.371718934668545,28685.876695499283,-5833.335898047676,5.826237389033572,28903.223840763058,14999.63431067859,32.973121868348315,0.9734502022630074,107.0,85.0,75.0,250.0,325.0,22.0,874.0,879.0,22.0,11.0,11.0,0.5,66.91148884352081,1295.522474106172,19.0,15.0,4.0,0.7894736842105263,825.6894976012678,5365.244150077862,25.0,12.0,13.0,0.48,1935.046482524766,42004.07657633328,12.0,3.0,9.0,0.25,1166.1897702076712,16616.692241880526,82.0,41.0,41.0,0.5,99.56640715564366,15682.633793684694,0.0,0.0,0.0,0.0,28512.0,28534.0,28619.0,28637.0,28649.0,28674.0,28683.0,28694.0,28863.0,28944.0,0.05192666389374871,-0.18245320864379327,0.04444065491966522,-0.1999181584242348,0.006637922304863126
35,35,29377.62686089153,2734.2031725257,17.841499868302407,29481.92658379765,-3501.9078590502595,6.515118459156987,29511.499266237603,43290.31798806769,10.230191138006036,29536.72601729957,-3857.060858828516,4.3494996465957225,29752.36933533203,16161.628850633891,37.466051515604555,0.9739755651125608,114.0,73.0,70.0,254.0,324.0,41.0,852.0,850.0,42.0,21.0,21.0,0.5,59.2964251515664,2607.3658448229035,14.0,10.0,4.0,0.7142857142857143,717.24692616379,5508.441330107949,25.0,12.0,13.0,0.48,1883.0493416804864,43280.65131239526,7.0,2.0,5.0,0.2857142857142857,1078.2780359416154,13438.864019481736,89.0,44.0,45.0,0.4943820224719101,107.41657787010313,17336.545088142004,0.0,0.0,0.0,0.0,29358.0,29399.0,29472.0,29486.0,29499.0,29524.0,29535.0,29542.0,29710.0,29796.0,0.021686912570140778,-0.20481604743258783,0.043498163774161235,-0.27955950797963686,0.006646395537408349
36,36,30243.19323077129,580.8875680068014,4.903631777101465,30349.226179338755,-5131.477129896699,17.8357578060484,30379.577361834235,43943.10730911989,10.43005377174118,30404.876695499283,-5673.823025266652,6.329595092525137,30623.428906511926,14754.42868126996,31.18866385341878,0.9745724301292183,101.0,85.0,78.0,248.0,326.0,16.0,869.0,868.0,16.0,8.0,8.0,0.5,60.60376260186862,695.0129915612192,20.0,13.0,7.0,0.65,658.4574094973541,1535.4025407867475,25.0,13.0,12.0,0.52,1952.1532807356068,41586.51029176664,12.0,3.0,9.0,0.25,1116.5054918000203,16602.746849781826,79.0,39.0,40.0,0.4936708860759494,105.9631567607139,15386.97050699293,0.0,0.0,0.0,0.0,30235.0,30251.0,30336.0,30356.0,30367.0,30392.0,30402.0,30414.0,30585.0,30662.0,0.10432959136966592,-0.12831732322474745,0.044424561672507384,-0.19678186768039846,0.007181786502870766
37,37,31115.223596653243,1211.0100701131353,7.908388569485773,31222.972626301005,-4539.119794941865,17.835757805742254,31251.099670454663,45046.95901604486,10.419218640946054,31276.876695499283,-5198.863298147642,5.772071078771238,31495.180565700717,15003.189029240484,32.29312147214875,0.9787049199231226,106.0,82.0,76.0,250.0,326.0,24.0,871.0,872.0,24.0,12.0,12.0,0.5,58.9742219430945,1210.687455572723,19.0,15.0,4.0,0.7894736842105263,848.6729117994349,5693.117509499103,25.0,12.0,13.0,0.48,1965.5414742315604,43882.142961496415,11.0,3.0,8.0,0.2727272727272727,1091.040385495717,15772.369287983633,80.0,40.0,40.0,0.5,105.08543822367338,15716.532999365523,0.0,0.0,0.0,0.0,31103.0,31127.0,31209.0,31227.0,31239.0,31264.0,31274.0,31285.0,31456.0,31535.0,0.048698374521018634,-0.18696860848333358,0.043633166747870204,-0.20986133370432247,0.007004206773564406
38,38,31984.644489169357,491.76183331710826,4.397473731478369,32090.368533790468,-5435.430401385549,20.383723206912453,32122.13210389937,44166.84579629025,10.401399730786531,32146.876695499283,-6393.0020002153815,6.8661102994729255,32366.19957979575,14627.389735656136,30.8785144471941,0.9710515067431,100.0,85.0,80.0,247.0,327.0,15.0,870.0,871.0,15.0,8.0,7.0,0.5333333333333333,61.748547221797345,569.8690334413205,22.0,13.0,9.0,0.5909090909090909,556.4422562993293,725.9435574352947,25.0,12.0,13.0,0.48,1973.3721448384956,42432.03508405766,13.0,3.0,10.0,0.2307692307692307,1180.1687777771342,17872.79149226033,78.0,39.0,39.0,0.5,105.82600489754866,15220.645694412076,0.0,0.0,0.0,0.0,31977.0,31992.0,32077.0,32099.0,32110.0,32135.0,32144.0,32157.0,32328.0,32404.0,0.12556596107770596,-0.10237317290595539,0.044679942822728066,-0.18460322360877943,0.007234783977867508
39,39,32848.219235302444,2358.592214081444,38.16862601236728,32950.69864360057,-2802.5889095019756,5.424225460342769,32979.50149102096,44362.84455574613,10.234844897516304,33004.726017299574,-3700.147238684008,4.014150237858119,33219.28754669468,19173.08438633624,42.55812754155567,0.9170724491036236,118.0,71.0,68.0,262.0,330.0,47.0,857.0,857.0,49.0,25.0,24.0,0.5102040816326531,55.02611718979242,2635.546292037933,12.0,9.0,3.0,0.75,785.9304754500396,7650.914064381768,25.0,13.0,12.0,0.52,1925.954402978223,41956.19732285215,7.0,2.0,5.0,0.2857142857142857,1119.4428026233031,13083.61305524176,104.0,50.0,54.0,0.4807692307692308,131.65150781470376,20689.079552160896,0.0,0.0,0.0,0.0,32824.0,32871.0,32942.0,32953.0,32967.0,32992.0,33003.0,33010.0,33173.0,33272.0,0.02333006819121651,-0.28043016683088945,0.04341368147748231,-0.3025400694653015,0.006866475167058965
40,40,0.0,0.0,0.0,0.0,0.0,0.0,0.0,0.0,0.0,0.0,0.0,0.0,0.0,0.0,0.0,0.0,0.0,0.0,0.0,0.0,0.0,0.0,0.0,0.0,0.0,0.0,0.0,0.0,0.0,0.0,0.0,0.0,0.0,0.0,0.0,0.0,0.0,0.0,0.0,0.0,0.0,0.0,0.0,0.0,0.0,0.0,0.0,0.0,0.0,0.0,0.0,0.0,0.0,0.0,0.0,0.0,0.0,0.0,,33277.0,33525.0,33796.0,33805.0,33825.0,33832.0,34008.0,34055.0,34078.0,,,,,
41,41,34520.77489365676,1201.1541138768764,7.845695148479661,34626.972626301,-5141.261939254707,17.8357578060484,34655.11064846765,44408.92236039577,10.503991209631629,34680.30135639943,-5869.9649433262,6.392572157067388,34900.26797312385,14779.277533498707,32.55406829304067,0.9782074449320036,103.0,79.0,77.0,250.0,327.0,24.0,1679.0,1676.0,24.0,12.0,12.0,0.5,57.96170366751133,1147.6888495601006,21.0,16.0,5.0,0.7619047619047619,845.239690558508,5165.011322933017,25.0,12.0,13.0,0.48,1958.9190329403923,43140.85472399338,13.0,3.0,10.0,0.2307692307692307,1178.030533425915,17348.352514808477,80.0,40.0,40.0,0.5,108.62879155081816,15630.483317937502,0.0,0.0,0.0,0.0,34509.0,34533.0,34612.0,34631.0,34643.0,34668.0,34678.0,34689.0,34861.0,34939.0,0.048255009909122,-0.164403156373907,0.04411093376783607,-0.20068783115396038,0.007350074542182469
42,42,0.0,0.0,0.0,0.0,0.0,0.0,0.0,0.0,0.0,0.0,0.0,0.0,0.0,0.0,0.0,0.0,0.0,0.0,0.0,0.0,0.0,0.0,0.0,0.0,0.0,0.0,0.0,0.0,0.0,0.0,0.0,0.0,0.0,0.0,0.0,0.0,0.0,0.0,0.0,0.0,0.0,0.0,0.0,0.0,0.0,0.0,0.0,0.0,0.0,0.0,0.0,0.0,0.0,0.0,0.0,0.0,0.0,0.0,,35104.0,35375.0,35455.0,35466.0,35490.0,35500.0,35515.0,35687.0,35759.0,,,,,
43,43,36141.81691622273,1500.645268312703,7.299998827765981,36249.84462128871,-5419.860502251128,20.383723206912453,36282.80531820771,41577.54044795382,10.25817366611628,36307.45203459914,-7119.136726285252,7.179457929593407,36526.18375299327,14166.2438181861,29.857728480983756,0.9545844515157884,106.0,84.0,80.0,247.0,327.0,22.0,1621.0,1627.0,22.0,11.0,11.0,0.5,79.57143886142254,1330.0441298088467,24.0,14.0,10.0,0.5833333333333334,483.01723055148415,1773.041117134263,24.0,12.0,12.0,0.5,1910.1470449388005,38914.4995407375,14.0,3.0,11.0,0.2142857142857142,1218.7173137234945,18618.91494414043,76.0,38.0,38.0,0.5,104.89595416025034,14672.496050014232,0.0,0.0,0.0,0.0,36131.0,36153.0,36237.0,36260.0,36271.0,36295.0,36304.0,36317.0,36489.0,36564.0,0.05302481575202057,-0.08911986394315202,0.04594179993234318,-0.17118891806414543,0.007404641308346592
44,44,36933.64800241949,3381.0950449231427,16.516755500022985,37044.96794353138,-3883.7803308627,6.954905972972165,37074.601924530514,42854.85894419097,10.256768538721063,37099.30135639943,-4963.918253480724,5.209761538437104,37315.92007666733,14756.94103781767,32.7129924097371,0.975332575241998,121.0,81.0,72.0,249.0,321.0,40.0,792.0,792.0,40.0,20.0,20.0,0.5,71.94360576969687,3413.9580696900757,14.0,10.0,4.0,0.7142857142857143,720.0969786791592,4924.453707154265,25.0,13.0,12.0,0.52,1905.0555903577615,40684.06448423164,10.0,2.0,8.0,0.2,1181.7751031011232,16008.037038021885,80.0,40.0,40.0,0.5,107.00687181214988,15573.481063147552,0.0,0.0,0.0,0.0,36914.0,36954.0,37035.0,37049.0,37062.0,37087.0,37097.0,37107.0,37277.0,37356.0,0.021278196801276923,-0.18541135629038133,0.044453666102102385,-0.2380730388282395,0.007251290869694671
45,45,37805.27157171472,1773.5259548743536,8.400684527717049,37911.05058430056,-5960.344836404205,17.8357578060484,37944.03484583639,43431.5541754383,10.510529158568689,37968.87669549929,-6361.794719460942,7.8449306793362465,38189.00693864612,14307.97546604614,29.600131369379863,0.9654088921639788,105.0,80.0,81.0,247.0,328.0,25.0,872.0,870.0,25.0,12.0,13.0,0.48,76.16632806396342,1694.3650457546894,22.0,13.0,9.0,0.5909090909090909,525.4816356969593,1774.6507459469894,25.0,12.0,13.0,0.48,1948.91857440082,41757.643732637225,14.0,3.0,11.0,0.2142857142857142,1147.006241620464,17858.420444371568,76.0,38.0,38.0,0.5,105.9247496949043,14809.372601072944,0.0,0.0,0.0,0.0,37793.0,37818.0,37898.0,37920.0,37932.0,37957.0,37966.0,37979.0,38152.0,38226.0,0.04294627200387347,-0.0881629587079353,0.04487333256664772,-0.18029601585724442,0.007403196206638136
46,46,38704.79886117849,1958.892169980006,9.624707753424262,38812.972626301,-4783.164182470334,17.83575780522478,38840.845981263745,44816.03761253,10.461508065971246,38866.30135639943,-5673.16669386752,6.247937011594355,39085.903622475955,15054.526940905696,31.76051470110414,0.9786066662829532,106.0,80.0,77.0,250.0,327.0,26.0,901.0,897.0,26.0,13.0,13.0,0.5,78.12563741563163,1834.1041258481991,20.0,16.0,4.0,0.8,868.3479122023967,5892.6375046651265,25.0,12.0,13.0,0.48,1970.9618327906776,42947.092401481896,12.0,3.0,9.0,0.25,1161.8707639957424,17065.789477833212,80.0,40.0,40.0,0.5,105.38104448902736,15717.67007081614,0.0,0.0,0.0,0.0,38692.0,38718.0,38798.0,38817.0,38829.0,38854.0,38864.0,38875.0,39047.0,39125.0,0.0398825614870006,-0.18154256870060564,0.04397894008013822,-0.20480109728693166,0.006999957215705612
47,47,39577.82638501382,1711.3035109976302,9.656148092530394,39684.972626301,-4512.6929162766355,14.274415147288623,39713.064281482555,42905.55070515849,10.427418874591382,39737.87669549929,-6134.363200149458,5.869957314670756,39960.21279129508,14877.145065836025,34.13515869737308,0.9766795552270136,107.0,79.0,75.0,254.0,329.0,28.0,870.0,872.0,28.0,14.0,14.0,0.5,63.53317574324008,1616.438413356109,19.0,15.0,4.0,0.7894736842105263,816.4508708931982,5670.048982167615,25.0,12.0,13.0,0.48,1931.500467122107,42055.37070780109,12.0,3.0,9.0,0.25,1187.1422561156046,16830.375466482536,81.0,40.0,41.0,0.4938271604938271,107.6113562153268,15772.908969795064,0.0,0.0,0.0,0.0,39564.0,39592.0,39671.0,39689.0,39701.0,39726.0,39735.0,39746.0,39921.0,40000.0,0.03712560357350197,-0.18092320617438362,0.045017496230152915,-0.1935233075352762,0.007233333797520482
48,48,40406.52274683563,2288.3006986412283,12.996723291586347,40511.71824140511,-3647.975674083883,6.782533742189736,40540.85490720493,42269.74767051952,10.229316598869122,40565.30135639943,-4961.145109773904,4.919348856719228,40782.45182072949,15474.31403855185,37.33043986137653,0.967897504934465,113.0,78.0,70.0,254.0,324.0,35.0,827.0,827.0,36.0,18.0,18.0,0.5,60.072463066418486,2059.139910270847,15.0,11.0,4.0,0.7333333333333333,751.9810102204593,5977.317781216583,25.0,13.0,12.0,0.52,1880.822298746339,40762.99062152575,10.0,2.0,8.0,0.2,1209.0411427975164,15636.498967457012,88.0,43.0,45.0,0.4886363636363636,110.0755891069734,16784.718989953297,0.0,0.0,0.0,0.0,40389.0,40424.0,40502.0,40516.0,40528.0,40553.0,40563.0,40572.0,40740.0,40826.0,0.02625199699588824,-0.2061365199232872,0.044495706797372095,-0.2437020316973991,0.007113439008200115
49,49,0.0,0.0,0.0,0.0,0.0,0.0,0.0,0.0,0.0,0.0,0.0,0.0,0.0,0.0,0.0,0.0,0.0,0.0,0.0,0.0,0.0,0.0,0.0,0.0,0.0,0.0,0.0,0.0,0.0,0.0,0.0,0.0,0.0,0.0,0.0,0.0,0.0,0.0,0.0,0.0,0.0,0.0,0.0,0.0,0.0,0.0,0.0,0.0,0.0,0.0,0.0,0.0,0.0,0.0,0.0,0.0,0.0,0.0,,41014.0,41330.0,41355.0,41366.0,41390.0,41400.0,41414.0,41589.0,41660.0,,,,,
50,50,42090.092639107905,1059.1253288850771,6.853382598039112,42197.8653093672,-5356.918873947358,17.8357578060484,42225.75553687092,44664.44143621628,10.59552535993334,42250.87669549929,-5834.263719019741,6.513963932690871,42471.313336103434,14744.499872427836,30.852282239577303,0.9770559226254286,103.0,81.0,78.0,250.0,328.0,22.0,1686.0,1686.0,22.0,11.0,11.0,0.5,62.66947712226159,1074.4451428686127,21.0,17.0,4.0,0.8095238095238095,882.2331011166665,5830.8045158879995,25.0,12.0,13.0,0.48,1958.6644232277135,42585.35916273355,13.0,3.0,10.0,0.2307692307692307,1145.2433323363673,17002.414162445733,78.0,39.0,39.0,0.5,108.07685599148876,15390.953232210428,0.0,0.0,0.0,0.0,42079.0,42101.0,42182.0,42202.0,42214.0,42239.0,42248.0,42260.0,42433.0,42510.0,0.059170973833882964,-0.16469039794634308,0.04385288073119225,-0.1962961202118557,0.007329977749438088
51,51,42946.03493259859,1450.8959100992215,8.244501956616013,43052.972626301,-4346.5738924676125,17.835757806047784,43080.5851944437,43615.99588405085,10.384849685990096,43105.87669549929,-5664.3683767955035,5.819232912848047,43325.71243567895,14879.177627654515,33.37477109746971,0.9741279197501708,105.0,81.0,75.0,252.0,327.0,24.0,856.0,854.0,25.0,12.0,13.0,0.48,66.51799227728412,1432.9829332215536,20.0,16.0,4.0,0.8,854.2601674371159,6258.469344665498,25.0,13.0,12.0,0.52,1928.5483961769216,41155.87264356972,11.0,3.0,8.0,0.2727272727272727,1129.082170057755,16191.573154979622,83.0,42.0,41.0,0.5060240963855421,104.980015495495,15692.897982659342,0.0,0.0,0.0,0.0,42934.0,42958.0,43039.0,43057.0,43068.0,43093.0,43103.0,43114.0,43286.0,43366.0,0.045846150515880355,-0.1965364419359129,0.044216539301401986,-0.19933063934950315,0.007055498504190084
52,52,43766.60402255525,2369.2336954281914,14.448670088458329,43871.186647897106,-3564.4931126548336,6.614616358676883,43900.53460560697,43127.4810621028,10.221947543370511,43925.30135639943,-4532.306226913326,4.678670682708106,44142.88608136643,15904.036762418442,38.20396257659901,0.966324426758192,113.0,75.0,71.0,255.0,326.0,38.0,817.0,820.0,38.0,19.0,19.0,0.5,56.54154512767646,2116.4757748951397,14.0,10.0,4.0,0.7142857142857143,711.751478494405,5294.742797983917,25.0,13.0,12.0,0.52,1906.987207410197,40858.155685716745,9.0,2.0,7.0,0.2222222222222222,1187.1736619052767,15164.754968531017,89.0,44.0,45.0,0.4943820224719101,110.14768984509962,17256.156384872265,0.0,0.0,0.0,0.0,43748.0,43786.0,43861.0,43875.0,43888.0,43913.0,43923.0,43932.0,44101.0,44187.0,0.023864908403414258,-0.19967817470807026,0.04421744930254956,-0.2619358892511964,0.006925769318226227
53,53,0.0,0.0,0.0,0.0,0.0,0.0,0.0,0.0,0.0,0.0,0.0,0.0,0.0,0.0,0.0,0.0,0.0,0.0,0.0,0.0,0.0,0.0,0.0,0.0,0.0,0.0,0.0,0.0,0.0,0.0,0.0,0.0,0.0,0.0,0.0,0.0,0.0,0.0,0.0,0.0,0.0,0.0,0.0,0.0,0.0,0.0,0.0,0.0,0.0,0.0,0.0,0.0,0.0,0.0,0.0,0.0,0.0,0.0,,44373.0,44691.0,44714.0,44725.0,44750.0,44760.0,44772.0,44947.0,45021.0,,,,,
54,54,45439.17421156892,1045.0394389643925,6.814925333786993,45546.972626301,-4872.590907365736,17.8357578060484,45574.78283730043,45041.79444226148,10.519642951249418,45600.30135639943,-5534.594035544028,6.06848233383506,45820.37076885138,14818.940353584543,31.682222819117477,0.9754976796853704,103.0,83.0,77.0,251.0,328.0,20.0,1676.0,1675.0,20.0,10.0,10.0,0.5,63.072738991672246,1077.8569818523106,21.0,17.0,4.0,0.8095238095238095,872.902274092222,6222.31716929928,25.0,12.0,13.0,0.48,1967.0788351158485,43106.79969142374,12.0,3.0,9.0,0.25,1160.6750756297158,16835.792267495704,79.0,39.0,40.0,0.4936708860759494,107.67048403719164,15546.99706942584,0.0,0.0,0.0,0.0,45429.0,45449.0,45532.0,45551.0,45563.0,45588.0,45598.0,45609.0,45782.0,45860.0,0.060354410216494535,-0.17914540553213368,0.04367230168055188,-0.20971277535003996,0.007265734355368217
55,55,46284.56922992785,900.8178659605856,6.333559653519166,46391.99814701979,-5172.303603816221,17.8357578060484,46421.38062379148,43692.88026593067,10.480166358747022,46445.87669549929,-6433.3894874288635,6.605786392074421,46667.785501454,14586.20201322346,31.05708803026337,0.9734256692456764,102.0,83.0,79.0,251.0,330.0,19.0,846.0,846.0,19.0,10.0,9.0,0.5263157894736842,60.941867396836024,907.0640178065694,21.0,15.0,6.0,0.7142857142857143,733.6916056695995,3116.0570640533133,25.0,12.0,13.0,0.48,1955.97003741206,42917.441108751154,13.0,3.0,10.0,0.2307692307692307,1202.2716322258625,17796.740544431443,78.0,39.0,39.0,0.5,103.2100783720541,15142.954802179218,0.0,0.0,0.0,0.0,46275.0,46294.0,46377.0,46398.0,46409.0,46434.0,46443.0,46456.0,46630.0,46707.0,0.06765170818615011,-0.14185006563193012,0.04476633322196475,-0.18687996966065185,0.007075870626122319
56,56,47107.69131700294,2056.2196964442787,11.559860352977877,47214.74965337075,-4322.779431233872,8.759714559404298,47244.4692359477,41612.42334752371,10.253710068949491,47268.87669549929,-5888.600092161657,5.609253539871457,47488.85128425976,15481.4403199518,34.97791526720789,0.9731968669679256,112.0,80.0,73.0,253.0,326.0,32.0,821.0,823.0,32.0,16.0,16.0,0.5,62.96984133797088,1925.4499050786555,17.0,12.0,5.0,0.7058823529411765,711.975499799617,4274.7560013119,25.0,12.0,13.0,0.48,1885.084079353155,41558.90256471674,12.0,3.0,9.0,0.25,1188.9524550065728,16416.28270836102,84.0,42.0,42.0,0.5,104.21029183539837,16454.15201922744,0.0,0.0,0.0,0.0,47092.0,47124.0,47204.0,47220.0,47232.0,47257.0,47266.0,47277.0,47448.0,47530.0,0.030624082361851497,-0.1647031756131944,0.04530099253316698,-0.20190748843501752,0.006731304690113149
57,57,47927.290193688605,311.9243906454661,3.373294827552732,48030.60271279886,-5558.050567918037,20.383723206912453,48065.67145264506,42969.2522486576,10.15224658612194,48095.547965309896,-5145.60992644624,15.28779240518434,48313.46237891764,13080.545188350274,27.035798405511983,0.9624158813226464,97.0,86.0,83.0,247.0,330.0,11.0,822.0,821.0,11.0,5.0,6.0,0.4545454545454545,64.50352014562125,480.6603111671251,26.0,15.0,11.0,0.5769230769230769,407.12471928985366,3188.5736351669957,25.0,13.0,12.0,0.52,1905.513274881323,38787.197846524985,16.0,9.0,7.0,0.5625,642.0705060850688,10742.155394355135,72.0,36.0,36.0,0.5,105.97497586841244,13363.160224587496,0.0,0.0,0.0,0.0,47922.0,47933.0,48019.0,48042.0,48053.0,48078.0,48087.0,48102.0,48278.0,48349.0,0.20679216528128475,-0.07324955293495225,0.04434597241428266,-0.12478025253820743,0.008101724686735177
58,58,48752.77250990568,1852.8624496772743,9.663482940300058,48861.54796540086,-4435.862300226399,15.287792405182534,48889.208241816654,41877.472557943795,10.493632778437636,48913.87669549929,-6217.29331508673,5.8760795885571895,49134.385676690545,14866.139438550148,33.80115918013592,0.9729567443866556,108.0,80.0,75.0,253.0,328.0,28.0,824.0,824.0,28.0,14.0,14.0,0.5,70.31570867067158,1748.9392333028743,21.0,17.0,4.0,0.8095238095238095,856.537385673024,6914.527140304042,25.0,12.0,13.0,0.48,1870.5655133968264,41196.04929810559,12.0,3.0,9.0,0.25,1183.095492351437,16633.501509359638,83.0,41.0,42.0,0.4939759036144578,107.2842127134376,15821.53966463522,0.0,0.0,0.0,0.0,48739.0,48767.0,48847.0,48865.0,48877.0,48902.0,48911.0,48922.0,49095.0,49175.0,0.037949772625009995,-0.19309377246207748,0.04466758376615535,-0.1902910852670513,0.007216682794944961
59,59,49564.62201534953,1704.2991219607864,10.033090496932102,49669.1059435061,-4617.823061848187,9.63105958229427,49699.54135806194,42161.87206576718,10.256208951705446,49724.87669549929,-4776.462931189323,5.467878110571966,49944.48847522366,14786.162186039255,32.24248496215104,0.9812197542690708,108.0,79.0,74.0,252.0,326.0,29.0,812.0,810.0,29.0,15.0,14.0,0.5172413793103449,59.121594630349904,1565.3418904852117,17.0,11.0,6.0,0.6470588235294118,655.728132186562,2649.453922650395,25.0,13.0,12.0,0.52,1892.01082555173,40237.35672811886,10.0,3.0,7.0,0.3,1061.6251582340649,14967.797804254871,81.0,40.0,41.0,0.4938271604938271,111.8708835097934,15616.185319789012,0.0,0.0,0.0,0.0,49550.0,49579.0,49658.0,49675.0,49687.0,49712.0,49722.0,49732.0,49905.0,49984.0,0.03468968203324006,-0.14199940608467587,0.04487492449577269,-0.22226178105599237,0.007565917518165684
60,60,50386.01099889816,612.4143871897853,4.828597669129031,50492.354589977695,-5624.999917319738,17.8357578060484,50523.00033996617,43947.65298325198,10.553585414407394,50547.87669549929,-6058.24051100571,6.7773685949645595,50769.163236104905,14442.4351781831,30.43207085951035,0.9705900779870384,100.0,84.0,79.0,250.0,329.0,16.0,822.0,824.0,16.0,8.0,8.0,0.5,62.270891460325295,718.4440165968255,21.0,14.0,7.0,0.6666666666666666,648.6744433215775,751.4544157963737,25.0,12.0,13.0,0.48,1950.034138430273,42473.6245158565,13.0,3.0,10.0,0.2307692307692307,1155.813408999698,17362.200344532128,78.0,39.0,39.0,0.5,105.52105832359528,14981.759257951237,0.0,0.0,0.0,0.0,50378.0,50394.0,50478.0,50499.0,50511.0,50536.0,50545.0,50557.0,50731.0,50807.0,0.10168097412941368,-0.1153199027300013,0.04437174697755559,-0.19078367834687118,0.007306320369226691
61,61,0.0,0.0,0.0,0.0,0.0,0.0,0.0,0.0,0.0,0.0,0.0,0.0,0.0,0.0,0.0,0.0,0.0,0.0,0.0,0.0,0.0,0.0,0.0,0.0,0.0,0.0,0.0,0.0,0.0,0.0,0.0,0.0,0.0,0.0,0.0,0.0,0.0,0.0,0.0,0.0,0.0,0.0,0.0,0.0,0.0,0.0,0.0,0.0,0.0,0.0,0.0,0.0,0.0,0.0,0.0,0.0,0.0,0.0,,50992.0,51311.0,51334.0,51346.0,51370.0,51380.0,51393.0,51567.0,51642.0,,,,,
62,62,52049.44132970252,1802.4935702862297,10.086516845581809,52156.00404093387,-4451.968449409261,10.127894187897056,52185.939603195286,41682.24630900304,10.224384731556944,52210.87669549929,-5578.678123000921,5.57875949308856,52431.25658223041,14979.856800535064,34.092252261071835,0.973442496479134,109.0,80.0,75.0,253.0,328.0,29.0,1663.0,1662.0,29.0,14.0,15.0,0.4827586206896552,64.6443145201587,1776.992047292128,18.0,12.0,6.0,0.6666666666666666,674.2959691134897,3299.0457591205177,25.0,13.0,12.0,0.52,1894.5109117075856,40637.08262453603,11.0,3.0,8.0,0.2727272727272727,1131.6980616464082,15860.14209511456,83.0,41.0,42.0,0.4939759036144578,108.4812821102251,15933.055307524355,0.0,0.0,0.0,0.0,52035.0,52064.0,52144.0,52162.0,52173.0,52198.0,52208.0,52219.0,52391.0,52472.0,0.0358638253061249,-0.15146018593257624,0.045451267133325916,-0.20286132963656942,0.007241810356047613
63,63,52861.6572106252,1920.2471696398693,10.849540109742913,52967.70215848638,-4428.460331815149,8.846500082243294,52998.024145115334,41680.3858575229,10.222010877785603,53022.87669549929,-5105.166375707209,5.364557297218527,53242.2239514701,15037.554364711206,33.13097848527319,0.9785213578941128,110.0,80.0,73.0,253.0,326.0,30.0,812.0,812.0,32.0,16.0,16.0,0.5,61.505812480684895,1774.9444529232542,16.0,11.0,5.0,0.6875,680.2987919773997,3478.2532413803583,26.0,13.0,13.0,0.5,1873.5756752106631,40742.2869274352,11.0,3.0,8.0,0.2727272727272727,1114.8370641163433,15389.54347643978,82.0,41.0,41.0,0.5,105.94958013575112,15876.648099651493,0.0,0.0,0.0,0.0,52847.0,52877.0,52957.0,52973.0,52985.0,53011.0,53020.0,53030.0,53203.0,53283.0,0.03203015395784697,-0.1536197100129735,0.04495101560756067,-0.21837428637414524,0.007045665642571784
64,64,53692.71597354117,1174.0408782086276,7.17659067711835,53800.972626301,-4867.636882239994,17.8357578060484,53828.92788801863,42141.36599355075,10.474490506658263,53853.87669549929,-6430.8092437788155,6.301491644108328,54075.35554695235,14134.05306918918,31.49217883676127,0.9721186638197722,104.0,83.0,77.0,251.0,328.0,21.0,831.0,832.0,22.0,11.0,11.0,0.5,65.29860383570737,1153.8054803385576,21.0,17.0,4.0,0.8095238095238095,808.6000663604076,5142.444902944683,25.0,12.0,13.0,0.48,1878.1313662575392,40384.11201964773,12.0,3.0,9.0,0.25,1156.877679921402,16896.97988731928,79.0,39.0,40.0,0.4936708860759494,101.7559867742182,14804.66828362807,0.0,0.0,0.0,0.0,53682.0,53703.0,53786.0,53805.0,53817.0,53842.0,53851.0,53863.0,54037.0,54114.0,0.05561867993501311,-0.16611758147175212,0.04456740596745168,-0.17989612754266798,0.007199349420587366
65,65,54469.30488242299,2196.2204871689355,10.31113032680433,54581.972626301,-4697.1698260790745,17.83575780599442,54610.30047847402,42465.82575954877,10.469063798458793,54635.87669549929,-5668.09233418713,5.970680447764808,54854.63162533077,14525.11074398228,32.118614665671025,0.959830982042397,112.0,82.0,77.0,250.0,327.0,30.0,778.0,781.0,30.0,14.0,16.0,0.4666666666666667,72.1967457863433,2127.736203035113,21.0,16.0,5.0,0.7619047619047619,794.7639806890329,4812.245973157918,25.0,12.0,13.0,0.48,1860.431794287532,41663.33595919824,11.0,3.0,8.0,0.2727272727272727,1084.9098073753423,15757.329382682718,80.0,40.0,40.0,0.5,106.52823362228156,15314.504877836844,0.0,0.0,0.0,0.0,54455.0,54485.0,54567.0,54586.0,54598.0,54623.0,54633.0,54644.0,54816.0,54894.0,0.0328731774465001,-0.16920060592155678,0.04381009343422928,-0.19140651623328414,0.007334073763700284
66,66,0.0,0.0,0.0,0.0,0.0,0.0,0.0,0.0,0.0,0.0,0.0,0.0,0.0,0.0,0.0,0.0,0.0,0.0,0.0,0.0,0.0,0.0,0.0,0.0,0.0,0.0,0.0,0.0,0.0,0.0,0.0,0.0,0.0,0.0,0.0,0.0,0.0,0.0,0.0,0.0,0.0,0.0,0.0,0.0,0.0,0.0,0.0,0.0,0.0,0.0,0.0,0.0,0.0,0.0,0.0,0.0,0.0,0.0,,54981.0,55252.0,55343.0,55354.0,55378.0,55386.0,55503.0,55579.0,55645.0,,,,,
67,67,56006.12658801011,597.6798850639051,4.4377209680112175,56115.60271279886,-6604.186776517282,20.383723206912453,56150.05715072609,45143.100332880145,10.38910710252764,56175.37529729806,-5954.946864939761,15.28779240518434,56395.89935990149,13399.908563632218,27.70284278167769,0.9493975812494384,100.0,85.0,87.0,246.0,333.0,15.0,1536.0,1539.0,15.0,7.0,8.0,0.4666666666666667,74.69711705556146,602.6956221845718,54.0,43.0,11.0,0.7962962962962963,474.03623734743354,3253.8670341179895,24.0,12.0,12.0,0.5,1970.215025259714,40595.24532242915,15.0,4.0,11.0,0.2666666666666666,1140.8395449543527,18572.43620308988,73.0,37.0,36.0,0.5068493150684932,108.32591358702206,13774.030616551558,0.0,0.0,0.0,0.0,55999.0,56014.0,56099.0,56127.0,56138.0,56162.0,56171.0,56186.0,56360.0,56432.0,0.12497846911407216,-0.07177813913939857,0.04364376860985555,-0.19157845919182576,0.008084078564612155
68,68,56848.50510356114,536.3691266038047,4.400230548057302,56955.60271279886,-7104.100612446048,20.383723206912453,56989.88751616799,43735.39116427921,10.199843666446816,57019.547965341066,-6366.23749246944,15.28779240518434,57237.892056169374,13205.882541823616,27.563761168572068,0.940982260323475,56.0,41.0,130.0,247.0,377.0,15.0,844.0,840.0,15.0,8.0,7.0,0.5333333333333333,79.53243409039855,428.0893150846399,76.0,65.0,11.0,0.8552631578947368,464.9345874305167,3828.5715289964264,24.0,12.0,12.0,0.5,1957.779305430483,39550.12096629029,18.0,9.0,9.0,0.5,681.2554200352648,12225.880062616376,73.0,37.0,36.0,0.5068493150684932,100.26050969857891,13426.512099543852,0.0,0.0,0.0,0.0,56841.0,56856.0,56897.0,56967.0,56978.0,57002.0,57011.0,57027.0,57202.0,57274.0,0.14827929152817573,-0.06544594633358279,0.0447641887568047,-0.10701068265849571,0.007592109757227465
69,69,57655.587445104706,2643.810443594755,11.73902771158278,57769.972626301,-3996.432787581155,16.388734335478574,57797.67375742038,41963.87815872444,10.308275681834903,57822.87669549929,-5870.307957181258,5.565427046625473,58041.66845097501,15195.174558877396,34.43286277935442,0.960454522683816,116.0,83.0,75.0,252.0,327.0,33.0,807.0,808.0,33.0,16.0,17.0,0.4848484848484848,73.74188398379786,2489.5525536910827,19.0,15.0,4.0,0.7894736842105263,807.5332421845545,6063.556160262723,24.0,12.0,12.0,0.5,1878.129840485862,39950.14176438027,11.0,3.0,8.0,0.2727272727272727,1135.3128358241734,15849.848511253878,85.0,43.0,42.0,0.5058823529411764,106.34953968175112,16139.350330481824,0.0,0.0,0.0,0.0,57640.0,57673.0,57756.0,57774.0,57786.0,57810.0,57820.0,57831.0,58001.0,58083.0,0.02789227350336508,-0.20206351141296558,0.044755869163998895,-0.19339919542642117,0.006998902136311366
70,70,58422.2196421973,116.83719679369818,1.961969632890201,58531.60271279886,-6952.012487538425,20.383723206912453,58566.413560323395,42627.97898094317,10.195206023267486,58594.49761977574,-6128.338168555944,15.28779240518434,58812.017424118465,12831.35080038986,26.93326703032729,0.9388199429578448,50.0,43.0,134.0,244.0,378.0,7.0,766.0,769.0,7.0,3.0,4.0,0.4285714285714285,71.64476943107336,192.67064505981784,84.0,72.0,12.0,0.8571428571428571,424.561177525209,4126.799706183471,24.0,12.0,12.0,0.5,1904.436463054371,39429.56859566892,16.0,7.0,9.0,0.4375,884.0246521165559,15419.59493414881,72.0,36.0,36.0,0.5,102.4001947579119,13088.291619952335,0.0,0.0,0.0,0.0,58419.0,58426.0,58469.0,58543.0,58554.0,58578.0,58587.0,58603.0,58777.0,58847.0,0.6132017148406769,-0.06107025530898291,0.04467573900010012,-0.14425193711607198,0.007980468802614346
71,71,0.0,0.0,0.0,0.0,0.0,0.0,0.0,0.0,0.0,0.0,0.0,0.0,0.0,0.0,0.0,0.0,0.0,0.0,0.0,0.0,0.0,0.0,0.0,0.0,0.0,0.0,0.0,0.0,0.0,0.0,0.0,0.0,0.0,0.0,0.0,0.0,0.0,0.0,0.0,0.0,0.0,0.0,0.0,0.0,0.0,0.0,0.0,0.0,0.0,0.0,0.0,0.0,0.0,0.0,0.0,0.0,0.0,0.0,,58965.0,59295.0,59324.0,59335.0,59359.0,59368.0,59383.0,59557.0,59628.0,,,,,
72,72,60010.558461228895,1093.426728843827,6.1868868406799296,60119.027373699,-6472.482085221543,17.8357578060484,60152.962241931134,43224.04597569854,10.46648466731246,60177.87669549929,-6811.97498839495,8.565000581705357,60398.51317521105,13768.428265125282,28.859497417651095,0.9580376158635048,102.0,82.0,85.0,248.0,333.0,20.0,1588.0,1586.0,20.0,10.0,10.0,0.5,78.53832531033967,950.665342558076,40.0,29.0,11.0,0.725,463.16970826277833,2853.080889674039,24.0,12.0,12.0,0.5,1966.159137731849,41102.04551645926,15.0,4.0,11.0,0.2666666666666666,1153.7360367581482,18327.274010052224,75.0,38.0,37.0,0.5066666666666667,105.06484111265188,14190.479736690384,0.0,0.0,0.0,0.0,60001.0,60021.0,60103.0,60129.0,60141.0,60165.0,60175.0,60188.0,60362.0,60436.0,0.07182769840772496,-0.07155982854248794,0.0454876236906944,-0.1693688010780547,0.00763085219964981
73,73,60852.54750198931,861.5872005926855,5.456398676247098,60959.60271279886,-6735.995768484518,20.383723206912453,60994.03341502388,44291.22578570425,10.246053884504809,61021.31883918085,-6032.0945674696795,15.28779240518434,61241.243410645766,13677.69137929334,28.39237536999347,0.9473012580898676,100.0,83.0,86.0,248.0,334.0,17.0,843.0,841.0,17.0,9.0,8.0,0.5294117647058824,78.2095657618077,736.7691860266696,59.0,48.0,11.0,0.8135593220338984,465.8021797011115,3637.1197406692386,24.0,12.0,12.0,0.5,1961.2385730470587,40037.902960071544,15.0,6.0,9.0,0.4,959.9080824840496,16394.266828396685,74.0,37.0,37.0,0.5,106.21112181075252,14091.21970700601,0.0,0.0,0.0,0.0,60844.0,60861.0,60944.0,60971.0,60982.0,61006.0,61015.0,61030.0,61205.0,61278.0,0.09077382499183759,-0.0691511983841268,0.04428052144088733,-0.15913346048331406,0.007765281352344707
74,74,61664.284775893815,2461.3354165339715,10.795224564784506,61778.97262557596,-5105.309545561045,17.83575780409496,61806.56536340881,41974.51405126765,10.455360367735016,61830.87669549929,-7146.688212901767,6.63461917649498,62051.54256849046,14419.1317021588,31.93799672462526,0.9640197996097573,114.0,83.0,78.0,250.0,328.0,31.0,812.0,813.0,31.0,15.0,16.0,0.4838709677419355,75.77817699414423,2368.432518195738,21.0,17.0,4.0,0.8095238095238095,830.4042203653285,5337.072862343808,24.0,12.0,12.0,0.5,1910.8098193074727,39100.667393780815,13.0,3.0,10.0,0.2307692307692307,1220.3855043928534,18028.715101087917,80.0,40.0,40.0,0.5,100.14988297417992,15042.152185994057,0.0,0.0,0.0,0.0,61649.0,61680.0,61763.0,61783.0,61795.0,61819.0,61828.0,61841.0,62013.0,62091.0,0.030787423967130138,-0.1626550188494147,0.045523095680717364,-0.17076238224436838,0.006945625093304731
75,75,62421.516742153995,1998.4421464314237,8.865963707312163,62534.8427582903,-5210.874580703712,17.8357578060484,62565.70238069689,41742.14023063512,10.400006573221471,62590.45203459914,-6768.50839975864,6.807350937039681,62810.08505538906,13696.25297840268,29.54653636773366,0.9682872422032084,112.0,86.0,79.0,247.0,326.0,26.0,756.0,759.0,26.0,13.0,13.0,0.5,80.40926496836495,1791.723504824492,21.0,14.0,7.0,0.6666666666666666,621.9093213959703,973.1742767175278,24.0,12.0,12.0,0.5,1898.9696602215488,39405.26139573971,14.0,3.0,11.0,0.2142857142857142,1210.9885201755444,18111.439228341165,76.0,38.0,38.0,0.5,109.506132529817,14298.477604652197,0.0,0.0,0.0,0.0,62409.0,62435.0,62521.0,62542.0,62554.0,62578.0,62587.0,62600.0,62773.0,62847.0,0.04023597336152567,-0.11934835731778128,0.04549286763278777,-0.17891512407943932,0.007995335125781834
76,76,0.0,0.0,0.0,0.0,0.0,0.0,0.0,0.0,0.0,0.0,0.0,0.0,0.0,0.0,0.0,0.0,0.0,0.0,0.0,0.0,0.0,0.0,0.0,0.0,0.0,0.0,0.0,0.0,0.0,0.0,0.0,0.0,0.0,0.0,0.0,0.0,0.0,0.0,0.0,0.0,0.0,0.0,0.0,0.0,0.0,0.0,0.0,0.0,0.0,0.0,0.0,0.0,0.0,0.0,0.0,0.0,0.0,0.0,,62964.0,63252.0,63323.0,63334.0,63358.0,63367.0,63383.0,63557.0,63626.0,,,,,
77,77,64027.21160607683,1955.5183584574468,8.877416130017103,64137.87656527734,-5406.859123364691,20.383723206912453,64168.45269931343,44500.5550046905,10.47602570268091,64193.87669549929,-6148.1498741782625,6.885194557501128,64414.68403474895,14311.00643069832,30.326087574176434,0.968475184286144,110.0,83.0,79.0,250.0,329.0,27.0,1606.0,1603.0,27.0,13.0,14.0,0.4814814814814814,75.6598480270822,1830.011457022852,21.0,14.0,7.0,0.6666666666666666,685.3384608768442,1318.4686193741231,25.0,12.0,13.0,0.48,1953.782046670785,43498.21442053492,13.0,3.0,10.0,0.2307692307692307,1124.2407918539795,17225.782865275447,77.0,39.0,38.0,0.5064935064935064,106.37383535848288,14886.803980716672,0.0,0.0,0.0,0.0,64014.0,64041.0,64124.0,64145.0,64156.0,64181.0,64191.0,64203.0,64377.0,64453.0,0.03869043095395139,-0.126753526444824,0.04390466695224026,-0.18285839071290388,0.007433008703727643
78,78,64810.36215177277,655.2198400502716,4.467345828217102,64920.60271279886,-6450.254536145987,20.383723206912453,64954.863063674165,43350.50958625491,10.368214697058802,64978.87669549929,-6762.963081864423,12.739827004320285,65199.70568218618,13354.712820089118,28.678288274355772,0.943538655612515,63.0,48.0,124.0,247.0,371.0,15.0,783.0,786.0,15.0,7.0,8.0,0.4666666666666667,81.75914316680637,706.1381625455629,75.0,64.0,11.0,0.8533333333333334,455.21497873216214,3003.457217120036,24.0,12.0,12.0,0.5,1947.3822958264204,38494.1491768189,16.0,4.0,12.0,0.25,1200.5385290784986,19234.095635564976,75.0,38.0,37.0,0.5066666666666667,102.83105521332594,13782.163852655924,0.0,0.0,0.0,0.0,64803.0,64818.0,64866.0,64932.0,64943.0,64967.0,64976.0,64990.0,65163.0,65237.0,0.12478123855427427,-0.0705731806677124,0.04492178556636562,-0.17751664685230437,0.007699982515433809
79,79,65560.01388114374,1766.494907182666,8.151617482114759,65673.45560566346,-5032.289271894295,17.8357578060484,65703.99215075893,40714.11875177367,10.39937429525059,65728.45203459915,-7076.026814009949,6.853124295938639,65947.3775722476,13975.638202033197,31.886721291995816,0.9545322599419542,111.0,86.0,79.0,249.0,328.0,25.0,750.0,750.0,25.0,12.0,13.0,0.48,79.47536039897308,1618.1837453201929,21.0,14.0,7.0,0.6666666666666666,580.7148273315244,661.2021622566833,24.0,12.0,12.0,0.5,1861.4659803547593,38922.57167677269,14.0,3.0,11.0,0.2142857142857142,1225.5898862382865,18242.27423634343,79.0,39.0,40.0,0.4936708860759494,102.5337851694015,14732.88171694288,0.0,0.0,0.0,0.0,65548.0,65573.0,65659.0,65680.0,65692.0,65716.0,65725.0,65738.0,65909.0,65987.0,0.04499042713105023,-0.11539774364221456,0.045720404553117495,-0.17320311503225505,0.007336608438710493
80,80,66281.66781992273,862.3218255388223,5.318006072589457,66392.60271279886,-6884.387140300014,20.383723206912453,66427.48770659861,42593.99608890735,10.168958891309591,66457.54796540085,-6252.819813430698,15.28779240518434,66672.46966820375,12422.200756084549,25.92650174256936,0.947945570783148,70.0,52.0,122.0,241.0,363.0,18.0,722.0,723.0,18.0,9.0,9.0,0.5,76.0503444782841,675.7707400755352,80.0,68.0,12.0,0.85,422.2813837403273,4127.099283053337,25.0,12.0,13.0,0.48,1905.0079592702384,39913.97933513744,19.0,10.0,9.0,0.5263157894736842,635.7481125772543,11351.775094199882,69.0,34.0,35.0,0.4927536231884058,106.49351588879362,12684.20295326507,0.0,0.0,0.0,0.0,66273.0,66291.0,66343.0,66404.0,66416.0,66440.0,66449.0,66465.0,66638.0,66706.0,0.08819253117102076,-0.061338994326505115,0.04472480007026988,-0.10167382581722632,0.008572838096875207
81,81,67012.02528639349,4426.057390005567,15.944812808578748,67129.972626301,-5180.52922643154,14.640210664150503,67158.06691746206,43081.71983038795,10.359424572646644,67183.30135639943,-5308.395585625485,5.399254805932925,67399.57152673806,13947.795000378415,31.24645736192396,0.9601676585466516,123.0,82.0,76.0,248.0,324.0,41.0,732.0,731.0,41.0,20.0,21.0,0.4878048780487805,87.98419451226995,4450.872799191398,21.0,16.0,5.0,0.7619047619047619,829.4621619762615,4940.47833259447,25.0,12.0,13.0,0.48,1934.489879356144,42466.34943676897,11.0,3.0,8.0,0.2727272727272727,1163.59115393654,16035.122778431052,81.0,41.0,40.0,0.5061728395061729,93.43999952333694,14398.624682012787,0.0,0.0,0.0,0.0,66992.0,67033.0,67115.0,67134.0,67146.0,67171.0,67181.0,67191.0,67360.0,67439.0,0.019878683613761116,-0.1601114723461589,0.0449028006999767,-0.21919827472681366,0.006699266767313531
82,82,67755.61752732072,1342.1400058578054,7.533015817861429,67866.60271279886,-6015.376962040808,20.383723206912453,67901.26914656964,43454.32368466292,10.40525738687704,67925.87669549929,-6291.32331558294,12.739827004320285,68145.96914628356,12765.225895935866,28.3669828949858,0.9624679628966673,109.0,85.0,84.0,245.0,329.0,24.0,741.0,742.0,24.0,12.0,12.0,0.5,65.55233925255085,1182.5060603439665,27.0,16.0,11.0,0.5925925925925926,444.66748795630855,3026.242515429236,24.0,12.0,12.0,0.5,1928.35647278672,40017.418820009865,16.0,4.0,12.0,0.25,1120.8169568653543,18302.6056471816,73.0,37.0,36.0,0.5068493150684932,108.92579266178647,13306.222017403794,0.0,0.0,0.0,0.0,67744.0,67768.0,67853.0,67878.0,67889.0,67913.0,67923.0,67937.0,68110.0,68182.0,0.04884165509294555,-0.07392179920931312,0.04437663066120456,-0.1781528147010359,0.008533009407727424
83,83,68495.70997518832,3876.8799386913215,17.03230989424148,68612.4621248274,-3448.379408292597,6.191343690535423,68641.78801956716,43144.38633563461,10.210910247565922,68666.72601729959,-4335.424869067639,4.558209528887367,68880.12411380676,14946.77375045878,36.565923915063806,0.9549034389881036,127.0,86.0,70.0,251.0,321.0,41.0,743.0,741.0,41.0,20.0,21.0,0.4878048780487805,83.18248243023575,4045.613286797161,13.0,9.0,4.0,0.6923076923076923,696.7653788247529,5030.702846290518,25.0,13.0,12.0,0.52,1897.1490427389117,41438.267821943635,8.0,2.0,6.0,0.25,1115.3738332595954,14206.710638605717,90.0,45.0,45.0,0.5,97.7317198471194,15897.78116268514,0.0,0.0,0.0,0.0,68476.0,68517.0,68603.0,68616.0,68629.0,68654.0,68665.0,68673.0,68838.0,68924.0,0.021456037779265046,-0.20205589244303712,0.043972094723525666,-0.25726978714763515,0.006538649843690823
84,84,0.0,0.0,0.0,0.0,0.0,0.0,0.0,0.0,0.0,0.0,0.0,0.0,0.0,0.0,0.0,0.0,0.0,0.0,0.0,0.0,0.0,0.0,0.0,0.0,0.0,0.0,0.0,0.0,0.0,0.0,0.0,0.0,0.0,0.0,0.0,0.0,0.0,0.0,0.0,0.0,0.0,0.0,0.0,0.0,0.0,0.0,0.0,0.0,0.0,0.0,0.0,0.0,0.0,0.0,0.0,0.0,0.0,0.0,,68988.0,69256.0,69353.0,69363.0,69387.0,69395.0,69515.0,69589.0,69652.0,,,,,
85,85,69955.62044871652,2297.779379347826,10.403604436908225,70071.00425724307,-4836.069016346149,17.8357578060484,70101.5279959029,40973.56416856338,10.410081145582415,70125.87669549929,-7088.486675225535,6.7493432470399775,70343.39634521224,13127.979768153147,31.41844434691762,0.9693155984589182,116.0,86.0,79.0,246.0,325.0,30.0,1459.0,1460.0,30.0,15.0,15.0,0.5,72.90444632624988,2137.3080495443364,21.0,14.0,7.0,0.6666666666666666,609.3600998272722,1465.6003995552987,25.0,13.0,12.0,0.52,1876.531645622675,38121.46475594194,13.0,3.0,10.0,0.2307692307692307,1196.0785874481662,17838.34272347886,79.0,39.0,40.0,0.4936708860759494,98.1442402061483,13797.81170683248,0.0,0.0,0.0,0.0,69941.0,69971.0,70057.0,70078.0,70089.0,70114.0,70123.0,70136.0,70305.0,70382.0,0.031728218549398855,-0.1260031851835872,0.04579859437911501,-0.16873539335673654,0.0074759591299976
86,86,70663.35596411147,2503.849107748046,11.366339705203156,70781.75113745936,-4688.039528146164,17.8357578060484,70810.45889090908,41974.65125233797,10.416391255843736,70835.87669549929,-5966.267379752421,5.989705710788077,71051.45453297017,13665.866111343666,33.21812191362226,0.9649467942890552,120.0,87.0,77.0,248.0,325.0,33.0,707.0,709.0,33.0,16.0,17.0,0.4848484848484848,68.07636295991614,2424.794427478455,20.0,15.0,5.0,0.75,772.2194129587026,4381.002015241182,25.0,12.0,13.0,0.48,1852.0520086844945,41461.16356803755,11.0,3.0,8.0,0.2727272727272727,1104.558189638174,16012.725212180538,82.0,41.0,41.0,0.5,96.71829156202918,14439.206497193516,0.0,0.0,0.0,0.0,70647.0,70680.0,70767.0,70787.0,70798.0,70823.0,70833.0,70844.0,71012.0,71092.0,0.027188684313785905,-0.16472118213219689,0.04412310652804616,-0.1851338733806478,0.0070773627353004675
87,87,0.0,0.0,0.0,0.0,0.0,0.0,0.0,0.0,0.0,0.0,0.0,0.0,0.0,0.0,0.0,0.0,0.0,0.0,0.0,0.0,0.0,0.0,0.0,0.0,0.0,0.0,0.0,0.0,0.0,0.0,0.0,0.0,0.0,0.0,0.0,0.0,0.0,0.0,0.0,0.0,0.0,0.0,0.0,0.0,0.0,0.0,0.0,0.0,0.0,0.0,0.0,0.0,0.0,0.0,0.0,0.0,0.0,0.0,,71143.0,71417.0,71512.0,71522.0,71546.0,71555.0,71671.0,71744.0,71810.0,,,,,
88,88,72111.33970432078,2744.9993195733173,13.01984485938344,72229.972626301,-5199.445785449418,17.835757805992436,72257.1245911545,42555.05905785262,10.486342782850931,72281.87669549929,-6712.035191352895,6.626911551278405,72498.3354202287,13603.237528565409,32.90804027801943,0.9748061494895316,120.0,84.0,77.0,247.0,324.0,36.0,1447.0,1447.0,36.0,17.0,19.0,0.4722222222222222,67.07933864604873,2711.1914759853407,22.0,18.0,4.0,0.8181818181818182,878.3713862287888,6148.916841996252,25.0,12.0,13.0,0.48,1908.226394723303,41028.29971471689,13.0,3.0,10.0,0.2307692307692307,1176.9674623545047,17539.360893603905,81.0,40.0,41.0,0.4938271604938271,104.77683273733432,14493.65254606216,0.0,0.0,0.0,0.0,72094.0,72130.0,72214.0,72234.0,72245.0,72270.0,72279.0,72291.0,72459.0,72538.0,0.02443692359693391,-0.16893557938172946,0.04484135228502711,-0.17535180147308974,0.007702345306939887
89,89,72834.04098651429,2072.101575314988,9.51952949298803,72949.26938901603,-4276.50276242183,17.8357578060484,72980.38340930908,41743.50368449754,10.342019920160064,73005.30135639943,-5556.107713862847,5.586665055046064,73219.73371424597,13375.8986574787,33.33356977224294,0.9597863126760432,117.0,88.0,76.0,247.0,323.0,29.0,723.0,723.0,29.0,14.0,15.0,0.4827586206896552,73.4442040012152,1929.190581783515,19.0,12.0,7.0,0.631578947368421,554.4291334846588,1126.4145197958314,25.0,12.0,13.0,0.48,1851.479951919516,41242.71524344922,12.0,3.0,9.0,0.25,1162.76951167803,16201.035248311697,83.0,42.0,41.0,0.5060240963855421,96.78388539798648,14183.249817154774,0.0,0.0,0.0,0.0,72820.0,72849.0,72937.0,72956.0,72968.0,72993.0,73003.0,73013.0,73180.0,73260.0,0.03544430682171103,-0.1296454519698894,0.04435372665201335,-0.20927771230511696,0.007235692186100177
90,90,73571.944376349,1572.953641636592,8.127238097918688,73683.60271279886,-6143.301280447064,20.383723206912453,73717.98727788859,43358.59103892834,10.35538243264118,73743.56185720842,-5691.804199434127,15.28779240518434,73960.88493001055,12756.338700540702,28.054168660024132,0.9573136474244592,110.0,84.0,85.0,243.0,328.0,26.0,738.0,737.0,26.0,13.0,13.0,0.5,68.00220769791608,1427.7346311343142,29.0,18.0,11.0,0.6206896551724138,456.8600552216732,2957.2800841212197,24.0,12.0,12.0,0.5,1897.3400154975816,38878.10169902704,15.0,5.0,10.0,0.3333333333333333,1002.700919626199,16681.3087913047,73.0,37.0,36.0,0.5068493150684932,99.63362551175253,13112.746021007932,0.0,0.0,0.0,0.0,73559.0,73585.0,73669.0,73695.0,73706.0,73730.0,73739.0,73754.0,73925.0,73997.0,0.043232175378775085,-0.07436719027207246,0.043759263620769095,-0.1761657436715561,0.007810518978108457
91,91,74376.02228305381,841.0112618814861,5.221120099164754,74484.60271279886,-6248.578214242365,20.383723206912453,74518.78247504191,44110.2001619629,10.221545394816564,74547.91858903991,-5140.519376518741,15.28779240518434,74762.87357036774,12832.128436022746,27.777089826956757,0.9512183136457844,104.0,86.0,84.0,244.0,328.0,18.0,804.0,801.0,18.0,9.0,9.0,0.5,78.26333348470277,773.3250315439241,26.0,15.0,11.0,0.5769230769230769,481.5675877937134,3189.1805889703664,24.0,12.0,12.0,0.5,1945.4595917432744,40055.05137851603,15.0,8.0,7.0,0.5333333333333333,738.7039589383913,12536.233344724698,73.0,37.0,36.0,0.5068493150684932,102.61666410648904,13203.043048105432,0.0,0.0,0.0,0.0,74367.0,74385.0,74471.0,74496.0,74507.0,74531.0,74540.0,74555.0,74727.0,74799.0,0.09305860341229474,-0.07706834599526624,0.044104528762054514,-0.14370220299386477,0.007996854506102073
92,92,75207.85265276027,2448.4016958370753,10.746593338821793,75320.86744594088,-5213.826785921722,17.835757806048388,75349.3112251224,42695.57172634905,10.481966608102692,75373.87669549929,-6390.515590222263,6.176406233516681,75593.88795167809,13752.743213657468,31.710707752035365,0.9682010353340916,112.0,81.0,78.0,250.0,328.0,31.0,831.0,831.0,31.0,15.0,16.0,0.4838709677419355,75.13664361166201,2309.2564249436373,21.0,16.0,5.0,0.7619047619047619,798.1176143355823,4378.510313439926,25.0,12.0,13.0,0.48,1905.57586858573,41798.44374537748,12.0,3.0,9.0,0.25,1191.7486564020958,17207.29766132924,78.0,39.0,39.0,0.5,106.34584553789028,14539.73770685054,0.0,0.0,0.0,0.0,75193.0,75224.0,75305.0,75326.0,75337.0,75362.0,75371.0,75383.0,75556.0,75633.0,0.030688037726576484,-0.15307712494221032,0.04463169812549265,-0.18648709005976255,0.0077327005882201864
93,93,75936.94400873662,1992.4690481522305,8.77942859307449,76052.92339739273,-5413.422478556129,17.8357578060484,76082.9790453922,41643.69252209464,10.497325433875332,76107.87669549929,-6749.416575096399,7.165246019363305,76325.05697221706,13025.625656217022,30.113535998831026,0.9673326227319888,115.0,89.0,79.0,245.0,324.0,26.0,730.0,734.0,26.0,13.0,13.0,0.5,80.73382652591702,1826.0038010504325,20.0,14.0,6.0,0.7,683.4179436169384,1665.0008465173617,25.0,12.0,13.0,0.48,1878.1529636348705,39857.652058363616,13.0,3.0,10.0,0.2307692307692307,1141.1339732757883,17496.09631735726,76.0,38.0,38.0,0.5,99.5563096078357,13560.898775120251,0.0,0.0,0.0,0.0,75924.0,75950.0,76039.0,76059.0,76071.0,76096.0,76105.0,76118.0,76288.0,76363.0,0.04051948842105613,-0.1262450781043086,0.04510053863831576,-0.16907149834050508,0.007643111527646145
94,94,0.0,0.0,0.0,0.0,0.0,0.0,0.0,0.0,0.0,0.0,0.0,0.0,0.0,0.0,0.0,0.0,0.0,0.0,0.0,0.0,0.0,0.0,0.0,0.0,0.0,0.0,0.0,0.0,0.0,0.0,0.0,0.0,0.0,0.0,0.0,0.0,0.0,0.0,0.0,0.0,0.0,0.0,0.0,0.0,0.0,0.0,0.0,0.0,0.0,0.0,0.0,0.0,0.0,0.0,0.0,0.0,0.0,0.0,,76373.0,76646.0,76746.0,76757.0,76780.0,76789.0,76909.0,76981.0,77041.0,,,,,
95,95,0.0,0.0,0.0,0.0,0.0,0.0,0.0,0.0,0.0,0.0,0.0,0.0,0.0,0.0,0.0,0.0,0.0,0.0,0.0,0.0,0.0,0.0,0.0,0.0,0.0,0.0,0.0,0.0,0.0,0.0,0.0,0.0,0.0,0.0,0.0,0.0,0.0,0.0,0.0,0.0,0.0,0.0,0.0,0.0,0.0,0.0,0.0,0.0,0.0,0.0,0.0,0.0,0.0,0.0,0.0,0.0,0.0,0.0,,77037.0,77285.0,77407.0,77417.0,77438.0,77445.0,77596.0,77652.0,77690.0,,,,,
96,96,0.0,0.0,0.0,0.0,0.0,0.0,0.0,0.0,0.0,0.0,0.0,0.0,0.0,0.0,0.0,0.0,0.0,0.0,0.0,0.0,0.0,0.0,0.0,0.0,0.0,0.0,0.0,0.0,0.0,0.0,0.0,0.0,0.0,0.0,0.0,0.0,0.0,0.0,0.0,0.0,0.0,0.0,0.0,0.0,0.0,0.0,0.0,0.0,0.0,0.0,0.0,0.0,0.0,0.0,0.0,0.0,0.0,0.0,,77719.0,77994.0,78092.0,78103.0,78126.0,78135.0,78250.0,78325.0,78388.0,,,,,
97,97,78866.80813839656,3759.7067198783793,59.44877348485372,78986.02674017764,-3245.7962780197604,6.124486344971142,79015.17395712361,42491.330514523885,10.276916641124464,79040.30135639943,-3936.7984464952906,4.27552546179584,79256.32236730639,16013.919845839297,43.45438134701865,0.9575051369935624,143.0,77.0,68.0,259.0,327.0,66.0,2940.0,2932.0,71.0,36.0,35.0,0.5070422535211268,71.36189085334021,5775.0287755311265,11.0,8.0,3.0,0.7272727272727273,727.2702296326246,6306.012104913105,26.0,13.0,13.0,0.5,1838.3130294622472,41831.01857270111,8.0,2.0,6.0,0.25,1139.7496678889397,13800.338042639669,99.0,49.0,50.0,0.494949494949495,111.787464042472,17613.039632673936,0.0,0.0,0.0,0.0,78835.0,78901.0,78978.0,78989.0,79002.0,79028.0,79038.0,79046.0,79211.0,79305.0,0.01898070678652527,-0.2240652731527339,0.043263249401754945,-0.2895118161062054,0.006980643410146478
98,98,79641.2715456272,989.571277995828,6.087593476088196,79751.60271279886,-6088.953923843332,20.383723206912453,79786.81262328518,43097.29946214342,10.403650141389372,79810.87669549929,-6572.6782291099225,12.739827004320285,80029.85503097507,12127.74995420205,26.93269466355279,0.9545383139363288,107.0,88.0,84.0,242.0,326.0,19.0,764.0,771.0,19.0,9.0,10.0,0.4736842105263157,71.03571989068041,953.6482567240262,27.0,16.0,11.0,0.5925925925925926,423.6995416063924,3610.301311765571,25.0,13.0,12.0,0.52,1921.1126270881468,38241.57804497008,16.0,3.0,13.0,0.1875,1168.6923491992568,18872.906504979983,71.0,36.0,35.0,0.5070422535211268,96.38306677957196,12398.726862955868,0.0,0.0,0.0,0.0,79632.0,79651.0,79739.0,79763.0,79774.0,79799.0,79808.0,79823.0,79995.0,80065.0,0.071784338804324,-0.06958494790825324,0.04457617184983129,-0.17781067450148433,0.007947316455529077
99,99,80447.3263535624,912.5386482571096,5.513406306945983,80555.60271279886,-6670.124283163879,20.383723206912453,80590.55313443166,43827.291791806696,10.159780351701343,80620.54796540085,-5079.032286993025,15.28779240518434,80834.49241692737,12790.451523636231,27.60997614410699,0.9501179942783636,103.0,85.0,86.0,243.0,329.0,18.0,806.0,804.0,18.0,9.0,9.0,0.5,78.0098865586469,873.5845095030127,50.0,38.0,12.0,0.76,433.5993161172224,4107.145910131735,24.0,12.0,12.0,0.5,1951.5059013184775,39455.74374111368,16.0,9.0,7.0,0.5625,630.0642794773611,10638.397766508902,73.0,36.0,37.0,0.4931506849315068,101.22934647107844,13124.364186544117,0.0,0.0,0.0,0.0,80438.0,80456.0,80541.0,80567.0,80579.0,80603.0,80612.0,80627.0,80799.0,80870.0,0.08548666591561989,-0.06500618245025423,0.044527184353273276,-0.12405203272499424,0.007914446670159435
100,100,81328.58815565819,1803.0427779737815,7.95040403139116,81438.16277719755,-5903.53962338334,20.383723206912453,81469.39491098012,43181.1913895987,10.39816530759494,81494.45203459915,-6327.481735953158,7.027009686548204,81714.8265151706,13778.826977422632,30.40046631360819,0.9591490321247648,107.0,83.0,80.0,249.0,329.0,24.0,881.0,879.0,25.0,13.0,12.0,0.52,84.44985247195767,1574.3047545286745,22.0,14.0,8.0,0.6363636363636364,609.6226172189855,680.1778799253177,25.0,12.0,13.0,0.48,1928.9895869987504,41991.039159499946,14.0,3.0,11.0,0.2142857142857142,1180.473902493875,17919.916992504193,77.0,39.0,38.0,0.5064935064935064,105.977355796203,14419.003296214889,0.0,0.0,0.0,0.0,81317.0,81341.0,81424.0,81446.0,81457.0,81482.0,81491.0,81504.0,81677.0,81753.0,0.04683740924153807,-0.10326391556759106,0.04467198622647075,-0.18656298852454148,0.007691319150015654
101,101,82134.5035046788,2555.6606133502532,11.068052205289074,82250.972626301,-5088.104507594074,17.83575780604789,82277.97660498085,41945.59589614492,10.42501826087765,82302.87669549929,-6899.090774367184,6.3512514060834935,82520.39585978411,14063.3222871969,32.626610042601314,0.9596175786072464,117.0,85.0,76.0,248.0,324.0,32.0,806.0,809.0,32.0,16.0,16.0,0.5,77.00492056099827,2368.702775024753,21.0,17.0,4.0,0.8095238095238095,883.1901504143847,6091.002627372414,25.0,12.0,13.0,0.48,1885.5095717310176,40090.914419454646,12.0,3.0,9.0,0.25,1179.7818717626224,17314.88322622994,81.0,40.0,41.0,0.4938271604938271,102.77709299563,14889.3362670182,0.0,0.0,0.0,0.0,82119.0,82151.0,82236.0,82255.0,82266.0,82291.0,82300.0,82312.0,82482.0,82560.0,0.030131121542015464,-0.17357940449065262,0.044951312085288755,-0.17100541366203972,0.007308165943775404
102,102,82939.15339405794,1174.1789303077758,6.522737296511832,83047.60271279886,-6464.488587794843,20.383723206912453,83081.92503380253,42741.77381191217,10.191169086466877,83110.8902519409,-5463.989143477899,15.28779240518434,83326.4201087915,12865.565953470536,27.320617491626106,0.9520242563062734,102.0,81.0,87.0,244.0,331.0,21.0,804.0,803.0,21.0,10.0,11.0,0.4761904761904761,74.64808101325956,1097.7477175951467,38.0,27.0,11.0,0.7105263157894737,452.32227787835376,3447.132077519461,24.0,12.0,12.0,0.5,1899.5649711176384,38899.086932053375,16.0,8.0,8.0,0.5,741.6069975264356,12736.23952912567,72.0,36.0,36.0,0.5,105.74385415842134,13274.70848998366,0.0,0.0,0.0,0.0,82929.0,82950.0,83031.0,83059.0,83070.0,83094.0,83103.0,83118.0,83291.0,83362.0,0.06357470661962296,-0.06997031114454319,0.04444282026002926,-0.13572629411455844,0.008219137388969393
103,103,83794.59067505786,2132.312281766351,9.176483164424411,83905.13173117086,-5744.771569722549,17.8357578060484,83935.75496572972,43290.88900978551,10.448871389978605,83960.87669549929,-6387.317145117405,6.995173719367735,84180.81659139572,13966.928272202204,29.541388341481845,0.9652527454171186,110.0,82.0,79.0,248.0,327.0,28.0,857.0,854.0,28.0,14.0,14.0,0.5,81.34423736256771,1935.692501372372,21.0,14.0,7.0,0.6666666666666666,658.2085144779973,571.304736180494,24.0,12.0,12.0,0.5,1947.3848016613783,41144.38636138527,13.0,3.0,10.0,0.2307692307692307,1139.201585304224,17434.657632203474,76.0,38.0,38.0,0.5,104.96508498535133,14449.006733151396,0.0,0.0,0.0,0.0,83781.0,83809.0,83891.0,83912.0,83924.0,83948.0,83958.0,83970.0,84144.0,84218.0,0.03814836975716535,-0.11457522836017416,0.04498371011094713,-0.17835369051230732,0.007515259113505936
104,104,84651.51010574457,2037.50083272606,9.024063399913988,84761.26643269298,-5949.805838658682,17.8357578060484,84792.84265282979,43171.424656626805,10.447651562558413,84817.87669549929,-6646.810228282829,7.671615484079998,85038.74925284521,14054.075831909511,29.174061692649644,0.9684757242807566,109.0,81.0,81.0,248.0,329.0,28.0,856.0,857.0,28.0,14.0,14.0,0.5,78.1281383253849,1820.2243970223672,22.0,14.0,8.0,0.6363636363636364,588.690577908085,804.1279516115414,24.0,12.0,12.0,0.5,1955.9810857591576,41025.78589341822,13.0,3.0,10.0,0.2307692307692307,1144.0491610635777,17910.5138183603,75.0,38.0,37.0,0.5066666666666667,105.99027844448986,14505.25726319512,0.0,0.0,0.0,0.0,84638.0,84666.0,84747.0,84769.0,84781.0,84805.0,84815.0,84828.0,85002.0,85076.0,0.03834508289297428,-0.09894282164353765,0.04530730920548657,-0.17212002776843793,0.007541604279937138
105,105,85459.33368867692,1536.0405340622713,7.581231016197037,85568.67143206626,-5530.6091777552365,17.8357578060484,85600.72455013686,41624.58603948512,10.325816332262336,85625.45203459915,-7106.515673984697,7.016052383276501,85844.04495141002,13884.34473743305,30.50919551693765,0.9607618064426582,108.0,84.0,80.0,247.0,327.0,24.0,808.0,808.0,24.0,12.0,12.0,0.5,76.22564368007956,1434.937577405104,22.0,14.0,8.0,0.6363636363636364,561.1540207283981,569.6418560507077,24.0,12.0,12.0,0.5,1915.387376488608,39242.643997624466,14.0,3.0,11.0,0.2142857142857142,1224.3091862109954,18532.12291418668,78.0,39.0,39.0,0.5,108.02085928637176,14559.142333239624,0.0,0.0,0.0,0.0,85447.0,85471.0,85555.0,85577.0,85589.0,85613.0,85622.0,85635.0,85807.0,85882.0,0.049624760538376105,-0.10146332938972182,0.046015769974785334,-0.17227981227043612,0.007780047335985606
106,106,86234.21809519724,2590.341629067111,11.52348552252412,86347.19057712209,-4517.024745271848,10.640857393306474,86377.47122989646,40937.97842001032,10.281368055349777,86402.30135639943,-5589.983552629184,5.453443785507092,86617.78853886829,14546.89049376562,34.50427453067333,0.9587777043442048,117.0,84.0,75.0,249.0,324.0,33.0,775.0,777.0,33.0,16.0,17.0,0.4848484848484848,74.386386046483,2511.6102476814976,18.0,12.0,6.0,0.6666666666666666,637.9406634052843,2463.804585824789,25.0,12.0,13.0,0.48,1849.0511107555544,41073.36769725004,11.0,3.0,8.0,0.2727272727272727,1170.263513593614,16042.735488367767,84.0,42.0,42.0,0.5,104.82566340128244,15562.699985916915,0.0,0.0,0.0,0.0,86218.0,86251.0,86335.0,86353.0,86365.0,86390.0,86400.0,86410.0,86578.0,86659.0,0.028716824534558632,-0.14123027864149795,0.04516713287072685,-0.20935008172666167,0.007206052966866542
107,107,0.0,0.0,0.0,0.0,0.0,0.0,0.0,0.0,0.0,0.0,0.0,0.0,0.0,0.0,0.0,0.0,0.0,0.0,0.0,0.0,0.0,0.0,0.0,0.0,0.0,0.0,0.0,0.0,0.0,0.0,0.0,0.0,0.0,0.0,0.0,0.0,0.0,0.0,0.0,0.0,0.0,0.0,0.0,0.0,0.0,0.0,0.0,0.0,0.0,0.0,0.0,0.0,0.0,0.0,0.0,0.0,0.0,0.0,,86784.0,87060.0,87140.0,87151.0,87175.0,87184.0,87201.0,87374.0,87441.0,,,,,
108,108,87846.70993760036,1772.961328224044,7.955502275817535,87954.25281554063,-5682.50968086705,20.383723206912453,87988.32365242319,43763.05244873329,10.397370638586144,88013.45203459915,-6330.924224322158,7.514106326523505,88232.1514800467,14042.626595957903,29.74818040911595,0.9627281728952336,107.0,83.0,81.0,247.0,328.0,24.0,1612.0,1611.0,24.0,12.0,12.0,0.5,83.09407872974717,1589.4018646526993,25.0,14.0,11.0,0.56,439.097411846463,2861.451933229665,25.0,12.0,13.0,0.48,1956.8800259433183,42462.36699167324,14.0,3.0,11.0,0.2142857142857142,1183.091225187875,18244.72259535543,76.0,38.0,38.0,0.5,105.69556219112474,14589.418874908217,0.0,0.0,0.0,0.0,87835.0,87859.0,87942.0,87965.0,87976.0,88001.0,88010.0,88023.0,88195.0,88270.0,0.04686739490983799,-0.07727174021804123,0.04471534585563306,-0.18687496221210048,0.007526765841765575
109,109,88740.9015482811,1757.53700695814,8.130450715273525,88848.12027734688,-5662.212635898354,17.8357578060484,88879.74943416043,43231.480007401464,10.40705001795991,88904.87669549929,-6445.76110429838,7.105809975075052,89125.5910536651,14319.891828091057,30.607048569597666,0.9677867958565076,106.0,81.0,79.0,250.0,329.0,25.0,895.0,891.0,25.0,12.0,13.0,0.48,78.2988154396523,1581.0448262047228,21.0,13.0,8.0,0.6190476190476191,586.6608893366798,446.6526532170003,24.0,12.0,12.0,0.5,1953.2733666492888,41037.41833342047,13.0,3.0,10.0,0.2307692307692307,1138.7788446813893,17545.751712260037,77.0,39.0,38.0,0.5064935064935064,106.3879777614841,14925.294620098502,0.0,0.0,0.0,0.0,88729.0,88754.0,88835.0,88856.0,88868.0,88892.0,88902.0,88914.0,89088.0,89164.0,0.04455030826074502,-0.1036098301249334,0.04518173715808198,-0.1766709665863959,0.007429384176826311
110,110,89596.47372413236,3131.0183782922513,13.61784664731029,89709.972626301,-4730.414081959751,14.325946715564315,89737.68343366601,41484.41513748777,10.36464474687148,89762.87669549929,-6631.184682014387,6.076168345705461,89980.96120034698,14748.932178671104,34.05884186947127,0.9697132149240698,116.0,81.0,75.0,251.0,326.0,35.0,856.0,858.0,36.0,17.0,19.0,0.4722222222222222,79.17103804852765,3215.1621909189407,19.0,15.0,4.0,0.7894736842105263,823.5645742342723,5536.783430327669,24.0,12.0,12.0,0.5,1890.5737136197397,39727.09018200904,13.0,4.0,9.0,0.3076923076923077,1156.7879634873798,16752.188259387953,84.0,42.0,42.0,0.5,105.4103991951714,15661.439305774202,0.0,0.0,0.0,0.0,89580.0,89615.0,89696.0,89714.0,89726.0,89750.0,89760.0,89771.0,89941.0,90022.0,0.02528603428118804,-0.17409989061530104,0.045573107571939844,-0.17444665153496774,0.007146985145650659
111,111,90417.35721281242,2175.9203237229963,9.787730448555369,90529.13849429856,-5549.933386138857,20.383723206912453,90559.44713961532,42681.1086055446,10.511305484256654,90584.45203459916,-6489.724432625035,7.21492674486196,90804.1091708239,13844.009742632596,29.028582946058837,0.967792057277966,111.0,82.0,80.0,247.0,327.0,29.0,820.0,822.0,29.0,14.0,15.0,0.4827586206896552,74.95695851121633,2090.5563609784317,22.0,15.0,7.0,0.6818181818181818,662.5334201721488,959.8379470520574,25.0,12.0,13.0,0.48,1890.77936046074,41460.00735228935,14.0,3.0,11.0,0.2142857142857142,1179.9784475901472,17963.213971558183,74.0,37.0,37.0,0.5,109.04650125061974,14378.89718048671,0.0,0.0,0.0,0.0,90403.0,90432.0,90514.0,90536.0,90547.0,90572.0,90581.0,90594.0,90768.0,90841.0,0.03444839302891619,-0.1193768238420389,0.04430014641688837,-0.18182258119592554,0.007876800383548654
112,112,91271.63904716498,1765.5974153290367,8.22961521618517,91379.55718150087,-5865.349232622192,20.383723206912453,91413.26363249333,43518.45580916776,10.497153217610276,91437.87669549928,-6704.541513847319,8.57864345420726,91658.30103719472,14142.051999864632,28.9330173195252,0.9607142683428443,108.0,82.0,82.0,246.0,328.0,26.0,854.0,854.0,26.0,13.0,13.0,0.5,79.20615262091768,1586.1205573555462,24.0,14.0,10.0,0.5833333333333334,509.59619965452447,2139.955862145436,25.0,12.0,13.0,0.48,1950.4573320651907,41579.788428739645,14.0,3.0,11.0,0.2142857142857142,1168.6060419537127,18426.99819283577,76.0,38.0,38.0,0.5,109.14534681650026,14636.711941860704,0.0,0.0,0.0,0.0,91259.0,91285.0,91367.0,91390.0,91401.0,91426.0,91435.0,91449.0,91622.0,91695.0,0.04486082270694581,-0.08688249913922037,0.04481908412876865,-0.17430066463756183,0.0077177871229397975
113,113,92180.45244813449,2529.7005089589175,11.064097398790013,92292.39728720114,-5375.718742255903,20.383723206905767,92320.1762271944,44763.54005066634,10.492193600280189,92345.87669549928,-6112.135233602985,6.717032670410508,92566.68493266832,14680.273624972464,30.537429690281225,0.9736135672479538,111.0,79.0,79.0,250.0,329.0,32.0,910.0,907.0,32.0,15.0,17.0,0.46875,76.79228786872156,2493.1136716426163,22.0,17.0,5.0,0.7727272727272727,847.557922081214,4629.42310588284,25.0,12.0,13.0,0.48,1954.4439908184663,42968.90093303785,13.0,4.0,9.0,0.3076923076923077,1106.9888679759226,16917.92727474471,78.0,39.0,39.0,0.5,104.45721827780224,15192.446418671634,0.0,0.0,0.0,0.0,92165.0,92197.0,92276.0,92297.0,92308.0,92333.0,92343.0,92355.0,92529.0,92605.0,0.030356276403772774,-0.15766411204123731,0.04366151534499499,-0.18111328131124713,0.007115481696479494
114,114,93086.3505824401,2772.2422252773913,11.600565092106525,93199.54796540084,-4869.47360691335,14.963794218950602,93227.32603967108,42670.7338849119,10.47511540064164,93251.87669549928,-6343.770128909667,5.951361192417953,93472.81988974758,14928.91360324648,33.00551308327993,0.9707669779792726,114.0,82.0,76.0,252.0,328.0,32.0,905.0,907.0,32.0,15.0,17.0,0.46875,87.25518318778934,2782.5585428410923,20.0,16.0,4.0,0.8,880.0048219459354,6437.885735365364,25.0,12.0,13.0,0.48,1918.4711004636056,42293.51503474538,12.0,3.0,9.0,0.25,1207.854810154881,17123.556419529406,82.0,41.0,41.0,0.5,103.03410830851232,15676.186680627092,0.0,0.0,0.0,0.0,93071.0,93103.0,93185.0,93203.0,93215.0,93240.0,93249.0,93261.0,93433.0,93513.0,0.03147458847289528,-0.18071867577155856,0.04495988059727196,-0.19040015410559663,0.006901648106939695
115,115,93912.6485058284,3040.1493182188597,14.47035662798278,94024.78145016222,-4383.758949073369,8.927842568096171,94054.76433196152,41311.70481808208,10.217693586379209,94079.30135639945,-5813.367606003986,5.543590629163402,94297.57610714065,15101.360501677444,34.666999006838125,0.961296680795472,119.0,82.0,73.0,252.0,325.0,37.0,827.0,827.0,37.0,18.0,19.0,0.4864864864864865,74.16605893843176,3055.505780824411,17.0,12.0,5.0,0.7058823529411765,687.0864487481816,3725.827588578634,25.0,13.0,12.0,0.52,1882.0347914742888,39676.948347250334,12.0,3.0,9.0,0.25,1205.7666379669922,16584.014354384544,84.0,42.0,42.0,0.5,108.8539168275752,16171.24477831828,0.0,0.0,0.0,0.0,93895.0,93932.0,94014.0,94030.0,94042.0,94067.0,94077.0,94087.0,94258.0,94339.0,0.0243955316582554,-0.1567345414586303,0.045556938397045395,-0.20741276308102188,0.0072082192075001335
116,116,94743.5563570018,450.6238581608072,4.0959609094386735,94850.60271279886,-7198.91203213666,20.383723206912453,94885.1030834538,43261.30491163983,10.239716742445962,94914.5479654001,-5983.318694855474,15.28779240518434,95131.67476086944,13397.219622833809,27.03772075082878,0.944448832214844,55.0,42.0,130.0,245.0,375.0,13.0,830.0,831.0,13.0,7.0,6.0,0.5384615384615384,75.60068324209512,408.16836943525794,77.0,66.0,11.0,0.8571428571428571,452.3395085309623,4022.137559229217,24.0,12.0,12.0,0.5,1925.5810302404311,39763.50953197605,17.0,9.0,8.0,0.5294117647058824,683.3027723533716,12133.741727384346,71.0,36.0,35.0,0.5070422535211268,108.16423926877954,13713.631624923588,0.0,0.0,0.0,0.0,94737.0,94750.0,94792.0,94862.0,94873.0,94897.0,94906.0,94922.0,95097.0,95167.0,0.1677689316110659,-0.06283442643995005,0.044510470365454385,-0.11420129984733775,0.008073633359299994
117,117,95600.67118994155,2216.7451246926894,9.495964166109168,95712.15061276311,-5585.14869773097,17.8357578060484,95741.79440216144,43982.87853281114,10.537827803302154,95766.87669549928,-6204.381861481952,6.862967133298003,95987.19266947042,14768.711483487306,30.321252975825622,0.9667907258094796,110.0,82.0,79.0,249.0,328.0,28.0,857.0,857.0,28.0,14.0,14.0,0.5,80.73665679511431,2033.900149820291,21.0,15.0,6.0,0.7142857142857143,730.2029772556273,2259.709413982605,25.0,12.0,13.0,0.48,1955.0712016077216,41943.779274391374,13.0,3.0,10.0,0.2307692307692307,1147.194303979117,17397.29846570936,77.0,38.0,39.0,0.4935064935064935,110.59975229907182,15381.431591884922,0.0,0.0,0.0,0.0,95587.0,95615.0,95697.0,95718.0,95730.0,95755.0,95764.0,95776.0,95950.0,96025.0,0.03642126282168184,-0.13074011396550295,0.04445073325860749,-0.18490066046726258,0.00748878820083471
118,118,96472.67661558828,1742.5101311522196,8.282151914296184,96580.834798436,-5778.605621181833,20.383723206912453,96613.46423791944,44172.41808494332,10.493378351205436,96637.87669549928,-6840.385792598646,9.077605109243828,96859.50295533698,14261.2176086821,28.908198334943418,0.9631830094646504,107.0,81.0,82.0,248.0,330.0,26.0,872.0,871.0,26.0,13.0,13.0,0.5,76.34858769544128,1561.6143059569522,23.0,14.0,9.0,0.6086956521739131,553.24231227005,1245.8561100894826,25.0,12.0,13.0,0.48,1982.1571968543028,42371.15329850382,15.0,3.0,12.0,0.2,1196.22799594253,18892.61833106095,75.0,38.0,37.0,0.5066666666666667,105.9568817386451,14635.987297401143,0.0,0.0,0.0,0.0,96460.0,96486.0,96567.0,96590.0,96601.0,96626.0,96635.0,96649.0,96823.0,96897.0,0.04381529055728155,-0.09573975947451863,0.04487318745020083,-0.1748772704073005,0.007429721966667103
119,119,97322.74091544532,2928.6178098116384,12.680035146541195,97434.972626301,-4761.687995142492,15.47860633321656,97462.91797387628,42181.98631692824,10.3608483711876,97487.87669549928,-6428.036531218585,6.085010670681614,97707.26147190698,15176.792943589846,33.45190042460806,0.9678732626994936,115.0,80.0,75.0,252.0,327.0,35.0,851.0,850.0,35.0,17.0,18.0,0.4857142857142857,77.86409754326604,2869.005180098038,20.0,15.0,5.0,0.75,815.4201953006418,5142.947732900639,25.0,12.0,13.0,0.48,1912.1629238491985,40793.71146999055,12.0,3.0,9.0,0.25,1167.6578874512256,16929.557951767645,83.0,41.0,42.0,0.4939759036144578,109.24266267606254,16075.387334945088,0.0,0.0,0.0,0.0,97306.0,97341.0,97421.0,97439.0,97451.0,97476.0,97485.0,97496.0,97668.0,97748.0,0.02658731954794541,-0.1712460363073916,0.045331267937039274,-0.18165078586289066,0.0071980070547251465
120,120,98091.41093772116,1273.4703061701823,6.8360967019095,98201.027373699,-5401.833384000729,17.8357578060484,98234.53485694608,40452.28267554976,10.311473892295442,98258.87669549928,-7062.229454470803,6.785237706856847,98476.18981066658,14365.72729946902,31.100764842387733,0.9457511089843904,107.0,86.0,81.0,247.0,328.0,21.0,768.0,771.0,21.0,10.0,11.0,0.4761904761904761,74.90847352975122,1223.1925061721056,25.0,15.0,10.0,0.6,434.8764094513701,1971.399665294628,25.0,13.0,12.0,0.52,1871.2894614963452,37690.01198069338,13.0,3.0,10.0,0.2307692307692307,1185.5150893807863,17782.160243985112,79.0,39.0,40.0,0.4936708860759494,99.72671649809789,14925.876490079883,0.0,0.0,0.0,0.0,98081.0,98102.0,98188.0,98211.0,98222.0,98247.0,98256.0,98269.0,98438.0,98516.0,0.058822316599615086,-0.08050533560316703,0.046259180884924284,-0.1678669741649765,0.006941988694285179
121,121,0.0,0.0,0.0,0.0,0.0,0.0,0.0,0.0,0.0,0.0,0.0,0.0,0.0,0.0,0.0,0.0,0.0,0.0,0.0,0.0,0.0,0.0,0.0,0.0,0.0,0.0,0.0,0.0,0.0,0.0,0.0,0.0,0.0,0.0,0.0,0.0,0.0,0.0,0.0,0.0,0.0,0.0,0.0,0.0,0.0,0.0,0.0,0.0,0.0,0.0,0.0,0.0,0.0,0.0,0.0,0.0,0.0,0.0,,98634.0,98908.0,98995.0,99006.0,99030.0,99039.0,99058.0,99231.0,99296.0,,,,,
122,122,99701.85702781811,1471.2160643631714,7.057704425379935,99809.027373699,-6002.780662445577,17.8357578060484,99842.8811844886,43150.12196096967,10.395459113415685,99867.87669549928,-6455.387979008482,7.96436822453334,100088.04377938814,14150.838823584889,28.607807127387183,0.96062156537301,103.0,81.0,84.0,246.0,330.0,22.0,1611.0,1608.0,22.0,11.0,11.0,0.5,83.33833423071987,1343.5308367615812,28.0,18.0,10.0,0.6428571428571429,451.1438890751075,2418.9836505935264,24.0,12.0,12.0,0.5,1963.3666219518147,41095.554304624886,14.0,3.0,11.0,0.2142857142857142,1133.7339244565535,17852.12893801193,74.0,37.0,37.0,0.5,111.37489223131992,14620.64212052242,0.0,0.0,0.0,0.0,99691.0,99713.0,99794.0,99819.0,99831.0,99855.0,99865.0,99878.0,100052.0,100124.0,0.05664588380279384,-0.07515581768588363,0.04550083598205649,-0.17562599306861335,0.007870550546141043
123,123,100615.82393553248,2291.4244790974917,10.050518251300806,100725.03180100216,-5797.976349584443,17.8357578060484,100754.77881959036,43944.961143144006,10.52769794702351,100779.87669549928,-6341.193004043026,7.053309491094014,101002.18250038664,14677.899789558533,30.14867425692423,0.972826952643226,108.0,79.0,80.0,250.0,330.0,29.0,914.0,912.0,29.0,14.0,15.0,0.4827586206896552,78.5949712084424,2149.209551226121,21.0,15.0,6.0,0.7142857142857143,735.5761160413058,2031.884636116175,24.0,12.0,12.0,0.5,1960.858927061987,41825.310420519105,13.0,3.0,10.0,0.2307692307692307,1148.7134357000443,17549.472387458947,77.0,38.0,39.0,0.4935064935064935,108.06610656246704,15212.78653624466,0.0,0.0,0.0,0.0,100602.0,100631.0,100710.0,100731.0,100743.0,100767.0,100777.0,100790.0,100964.0,101040.0,0.03429961228283556,-0.12686773310036467,0.044620791008889236,-0.18115099713376429,0.007362504725597213
124,124,101540.36545235496,2882.267750593843,14.50264997054066,101646.43987542282,-4131.453928903178,7.511462622111691,101676.02363660833,42561.858397160366,10.101809408728805,101700.87669549928,-5213.591446091485,5.228298005016243,101921.09640424156,15379.531289758128,35.70818965742101,0.9760608785849396,112.0,78.0,72.0,255.0,327.0,34.0,924.0,921.0,34.0,16.0,18.0,0.4705882352941176,86.32652264934313,3013.2142473507047,15.0,10.0,5.0,0.6666666666666666,675.6755222407592,3764.756743327272,25.0,13.0,12.0,0.52,1922.4987351681816,41451.68913829151,10.0,3.0,7.0,0.3,1143.4115110723085,15602.092991161946,86.0,43.0,43.0,0.5,109.108666965872,16479.277686582376,0.0,0.0,0.0,0.0,101524.0,101558.0,101636.0,101651.0,101663.0,101688.0,101698.0,101708.0,101880.0,101963.0,0.029950903288411355,-0.16354424710240884,0.04516952049482047,-0.2193136004029428,0.007094407814530214
125,125,102389.16926954185,2811.8057444573087,44.34965969739027,102492.9894091975,-2856.9484595339854,5.641013666148529,102521.8184585529,43560.529724686145,10.316261829204995,102546.7260172996,-3719.9193816626102,4.192096523001882,102764.10892292028,15750.316994924631,39.2206770119459,0.9736057464359872,122.0,73.0,67.0,257.0,324.0,49.0,843.0,846.0,52.0,27.0,25.0,0.5192307692307693,63.50883010048812,3318.1515914821753,12.0,9.0,3.0,0.75,756.81638560576,7171.31709175532,26.0,13.0,13.0,0.5,1882.794491867805,42009.54079100425,7.0,2.0,5.0,0.2857142857142857,1108.7134853422924,13432.10737901667,91.0,45.0,46.0,0.4945054945054945,114.47240288290476,17254.60773655684,0.0,0.0,0.0,0.0,102363.0,102412.0,102485.0,102496.0,102509.0,102535.0,102545.0,102552.0,102722.0,102809.0,0.022586492763832663,-0.2649037587920676,0.04322248842627844,-0.2980477186703856,0.007267942792503303
126,126,103249.2204592168,2014.7385386208412,8.85212133037796,103359.16230532526,-5767.699789875597,17.83575780604839,103389.56771019426,43167.36979331669,10.509565837260444,103414.87669549928,-6177.099686694465,7.1470542886227335,103636.38190612088,14748.649831953428,30.230653021923494,0.9672249048328696,108.0,83.0,79.0,250.0,329.0,25.0,866.0,868.0,25.0,12.0,13.0,0.48,85.23971455493569,1947.4840627341512,21.0,14.0,7.0,0.6666666666666666,672.9772264837051,856.1981873264776,25.0,13.0,12.0,0.52,1929.413508434804,40607.89737738065,13.0,3.0,10.0,0.2307692307692307,1109.6395467946286,17101.525324060658,77.0,38.0,39.0,0.4935064935064935,109.99071580164284,15344.138601341949,0.0,0.0,0.0,0.0,103237.0,103262.0,103345.0,103366.0,103377.0,103402.0,103412.0,103424.0,103599.0,103674.0,0.042308077659191076,-0.11668034935955299,0.044696109994024284,-0.17963762980623468,0.007457680333785157
127,127,104096.74645607712,2055.91942498671,9.203011657871208,104205.60105881371,-5385.203671805549,20.383723206912453,104237.54529674878,44065.59748070371,10.37716900962505,104262.87669549928,-6180.462898923341,6.972079636521025,104483.60995592484,14724.49462533568,29.92728960480069,0.9642240518574152,109.0,81.0,80.0,249.0,329.0,28.0,848.0,848.0,28.0,14.0,14.0,0.5,77.656217218407,1880.2663916972133,22.0,14.0,8.0,0.6363636363636364,595.7100071376309,74.52666558116744,25.0,13.0,12.0,0.52,1969.5076361709953,41030.15065647294,13.0,3.0,10.0,0.2307692307692307,1121.257500514915,17282.482927118457,77.0,39.0,38.0,0.5064935064935064,108.05517269466768,15223.57951116513,0.0,0.0,0.0,0.0,104083.0,104111.0,104192.0,104214.0,104225.0,104250.0,104260.0,104272.0,104446.0,104521.0,0.03777201395862534,-0.11061977288927709,0.04469490370653526,-0.18141966368089388,0.007338463929943151
128,128,104982.27095730176,1211.4889388566712,6.471185974386213,105087.60271279886,-6180.090491162745,20.383723206912453,105122.14551541203,43351.613506901245,10.404026810826474,105146.87669549928,-6867.022554840307,8.960976327879445,105369.58346216528,14514.320985500546,29.49155336475312,0.9585027722663342,100.0,79.0,86.0,249.0,335.0,21.0,885.0,885.0,21.0,10.0,11.0,0.4761904761904761,79.08759310418934,1134.981700286476,57.0,46.0,11.0,0.8070175438596491,437.7937948285369,2998.159372243744,24.0,12.0,12.0,0.5,1968.3958445756773,41040.82325232042,15.0,4.0,11.0,0.2666666666666666,1162.996662413564,18538.951013271435,77.0,39.0,38.0,0.5064935064935064,107.43596013364484,14920.97894361984,0.0,0.0,0.0,0.0,104972.0,104993.0,105072.0,105099.0,105110.0,105134.0,105144.0,105158.0,105332.0,105407.0,0.06528131670671905,-0.07083938260363057,0.04540536522965457,-0.16935966834619048,0.007402065879690187
129,129,105808.00187332073,2510.786844814343,11.42493623922238,105922.972626301,-5022.693776670611,17.83575780603997,105949.92810395466,42116.38908989091,10.355981160232092,105974.87669549928,-7006.851490877865,6.416928427290631,106195.30562560834,14674.016356737102,31.596414583106625,0.9656449007883244,115.0,82.0,77.0,250.0,327.0,33.0,827.0,828.0,33.0,16.0,17.0,0.4848484848484848,68.77487602718357,2406.837399623009,21.0,17.0,4.0,0.8095238095238095,879.345931457584,6183.633600833982,25.0,12.0,13.0,0.48,1907.803206974801,40124.17286656733,13.0,4.0,9.0,0.3076923076923077,1181.0453836110426,17494.838690216762,79.0,39.0,40.0,0.4936708860759494,109.89790247459872,15422.161542596325,0.0,0.0,0.0,0.0,105792.0,105825.0,105907.0,105927.0,105938.0,105962.0,105972.0,105984.0,106157.0,106234.0,0.027391762135932744,-0.1750745656727007,0.045298356487848246,-0.1685557893083122,0.0074892858098895764
130,130,106589.47765804856,2077.2053035627273,9.577984244878072,106701.78980726637,-5004.296025420049,17.8357578060484,106732.5239645361,41802.0089838463,10.41309646263556,106757.45203459916,-6534.184749072498,6.770545089249117,106977.6421063154,14277.924181931592,29.687882160110465,0.9675370205566776,112.0,84.0,79.0,248.0,327.0,28.0,780.0,782.0,28.0,13.0,15.0,0.4642857142857143,74.93821173441681,2030.8814186125917,21.0,14.0,7.0,0.6666666666666666,629.6531376793396,1440.275939718808,25.0,13.0,12.0,0.52,1892.9495672772225,39097.86025183833,14.0,3.0,11.0,0.2142857142857142,1188.157525742625,17797.32653004766,75.0,38.0,37.0,0.5066666666666667,109.17884971293296,14834.227802249236,0.0,0.0,0.0,0.0,106576.0,106604.0,106688.0,106709.0,106720.0,106745.0,106754.0,106767.0,106941.0,107015.0,0.036076458887278125,-0.12582252018684045,0.04528369839853203,-0.18183714898959344,0.00764668927511861
131,131,107444.2648129816,1566.4601531538665,7.59871538799357,107551.01185741894,-5784.815147040422,20.383723206912453,107585.47974002216,42981.53562362894,10.37826598863131,107610.45203459916,-6318.918932308989,7.4986736563137,107831.94599525568,14602.053305483376,29.40849576621369,0.9587465524826436,106.0,83.0,81.0,249.0,330.0,23.0,855.0,853.0,23.0,11.0,12.0,0.4782608695652174,77.22772550841817,1467.1857928538025,26.0,15.0,11.0,0.5769230769230769,424.70151500387755,3133.9431634563675,25.0,12.0,13.0,0.48,1927.0646782675433,42016.675891230225,14.0,3.0,11.0,0.2142857142857142,1178.6889737035651,18121.3803647172,76.0,38.0,38.0,0.5,109.53123132017916,15085.62711201168,0.0,0.0,0.0,0.0,107433.0,107456.0,107539.0,107562.0,107573.0,107598.0,107607.0,107620.0,107795.0,107869.0,0.049300791566852215,-0.07341660955599588,0.04483470984243166,-0.18653332735080078,0.007501084198826195
132,132,108386.8507383884,2131.897549812901,9.480720171831384,108495.972626301,-5218.400192512499,17.835757805990223,108523.54719350496,44595.16397806657,10.53919953266934,108548.87669549928,-5591.572101789296,6.140408226427281,108771.79139026505,15548.816990097435,32.11927104629602,0.9746243530627005,106.0,80.0,77.0,254.0,331.0,26.0,943.0,938.0,26.0,13.0,13.0,0.5,90.5846983124324,2038.5385029883996,21.0,17.0,4.0,0.8095238095238095,895.4138252846418,6118.258457805967,25.0,13.0,12.0,0.52,1954.2138543551357,42073.87298364371,12.0,3.0,9.0,0.25,1125.5995182242689,16507.724637371994,80.0,40.0,40.0,0.5,111.98516105100067,16291.372685300372,0.0,0.0,0.0,0.0,108374.0,108400.0,108480.0,108500.0,108511.0,108536.0,108546.0,108557.0,108733.0,108811.0,0.042490174220793236,-0.17158780320631706,0.04382120571002463,-0.20130287113065726,0.007202165999015912
133,133,109278.32231079596,804.4543030855402,5.585621168237853,109388.24913046426,-5423.62987423949,17.8357578060484,109417.50599798854,44098.63616968796,10.434595758094488,109442.87669549928,-6112.168326755977,6.567931935798685,109664.87081283526,15315.532766881612,31.113279929575853,0.9733653043834488,105.0,87.0,78.0,252.0,330.0,18.0,891.0,894.0,18.0,9.0,9.0,0.5,65.9905841310871,896.3066779328022,21.0,15.0,6.0,0.7142857142857143,739.5077958370217,2610.905848101198,25.0,13.0,12.0,0.52,1969.829921036703,41410.97115740168,12.0,3.0,9.0,0.25,1130.640380592646,17047.372363611576,79.0,40.0,39.0,0.5063291139240507,109.5785027127654,15874.787037133416,0.0,0.0,0.0,0.0,109269.0,109287.0,109374.0,109394.0,109405.0,109430.0,109440.0,109452.0,109626.0,109704.0,0.08203148877192358,-0.13634923713165745,0.04466872656689331,-0.1849818787946783,0.007154730062653682
134,134,110183.16767405884,2019.973268768914,10.808555275671738,110291.06658354231,-4675.654278073836,10.454535154894764,110320.70614812932,41576.40081197395,10.242089663155015,110345.30135639945,-5982.32817734263,5.716590310819254,110567.6990891242,15571.323988527762,34.15657877535855,0.9741565344371754,111.0,81.0,75.0,255.0,330.0,30.0,904.0,903.0,30.0,15.0,15.0,0.5,69.7898657403533,1978.4550090746309,18.0,12.0,6.0,0.6666666666666666,694.9272428729392,3275.078631477806,25.0,13.0,12.0,0.52,1912.5726263095353,39988.83360715739,12.0,3.0,9.0,0.25,1209.283026374134,16902.790349942832,84.0,42.0,42.0,0.5,105.98464537325728,16456.64852744977,0.0,0.0,0.0,0.0,110168.0,110198.0,110279.0,110297.0,110308.0,110333.0,110343.0,110354.0,110527.0,110609.0,0.03454989569386094,-0.14862673789457734,0.04600139956700429,-0.20214254225539688,0.006806399086637842
135,135,111059.63862265064,2782.551932454975,20.484126306700563,111164.72027232674,-3420.408985144486,6.34960727795123,111194.12655504428,42319.494059232326,10.206302903115864,111219.30135639945,-4130.752494332977,4.543450282887079,111439.6339109581,16262.34771141945,36.9363192313887,0.9741448351512364,116.0,74.0,70.0,257.0,327.0,42.0,874.0,874.0,44.0,22.0,22.0,0.5,59.53258007515535,2741.2620229195636,14.0,10.0,4.0,0.7142857142857143,729.1308923808799,5821.943324661609,26.0,13.0,13.0,0.5,1851.7903118562267,41446.40237726319,9.0,2.0,7.0,0.2222222222222222,1121.0909465964874,14282.46909992764,86.0,43.0,43.0,0.5,113.23008416188507,17536.729076654356,0.0,0.0,0.0,0.0,111039.0,111081.0,111155.0,111169.0,111181.0,111207.0,111217.0,111225.0,111398.0,111482.0,0.021394957406107157,-0.21317067507062457,0.04375738304584585,-0.27140114256047143,0.006962714496774331
136,136,111954.25807063644,1020.894077255788,6.666374994056005,112061.972626301,-5189.468506090813,17.8357578060484,112090.01502382784,43660.085565544265,10.524932689561318,112115.30135639945,-5732.764739947588,6.171685988613431,112338.62108665371,15283.705213518751,31.209757900110244,0.9763779934268432,103.0,83.0,77.0,253.0,330.0,20.0,897.0,896.0,20.0,10.0,10.0,0.5,63.42167733820282,1040.7900669853948,21.0,17.0,4.0,0.8095238095238095,842.2060550551984,5167.341836071572,25.0,12.0,13.0,0.48,1918.885641732605,42240.54761832463,13.0,3.0,10.0,0.2307692307692307,1157.991698653754,16835.470074061992,79.0,40.0,39.0,0.5063291139240507,110.45950981632724,15918.77628874057,0.0,0.0,0.0,0.0,111944.0,111964.0,112047.0,112066.0,112078.0,112103.0,112113.0,112124.0,112300.0,112377.0,0.06212366077064852,-0.16229138958386813,0.04395056988268833,-0.20199532881308171,0.0072272729860442175
137,137,112841.8218100533,1962.575143618517,11.058645833446786,112946.74791140656,-4076.0857999945415,8.22167644026106,112976.86213305524,41853.269538813045,10.166655716995736,113001.87669549928,-5005.014811879384,5.057527787030792,113221.75713924471,15835.921185610789,37.21041859566558,0.9595838391856776,110.0,78.0,73.0,256.0,329.0,32.0,887.0,886.0,32.0,16.0,16.0,0.5,62.57258967730759,1834.81118431146,16.0,11.0,5.0,0.6875,677.9383210236576,4034.6249490897617,25.0,13.0,12.0,0.52,1875.5583339499824,40450.00469106182,10.0,3.0,7.0,0.3,1119.2075299610003,14937.498138513918,88.0,44.0,44.0,0.5,108.42525576235954,17061.11350538828,0.0,0.0,0.0,0.0,112826.0,112858.0,112936.0,112952.0,112964.0,112989.0,112999.0,113009.0,113180.0,113265.0,0.031882901340500404,-0.16632091528214776,0.044812707695647644,-0.22361722632759556,0.006846791827991634
138,138,113683.15718109877,1358.4356588583612,8.286919507569202,113790.972626301,-4991.672714564384,17.83575780603524,113818.94182232868,42580.54166883492,10.526321479901346,113844.87669549928,-5624.9868425744535,6.644754266767981,114068.36538755256,14980.101458348494,31.22442820576193,0.9768997603431958,105.0,81.0,78.0,252.0,330.0,24.0,842.0,843.0,25.0,12.0,13.0,0.48,61.50968328182061,1313.184872321379,20.0,16.0,4.0,0.8,834.3520549970895,5131.932314832559,25.0,12.0,13.0,0.48,1864.4832756825672,40968.917512928376,13.0,4.0,9.0,0.3076923076923077,1036.8652582343452,15758.164198763485,77.0,38.0,39.0,0.4935064935064935,107.85983950733838,15624.630052993438,0.0,0.0,0.0,0.0,113671.0,113695.0,113776.0,113795.0,113807.0,113832.0,113842.0,113854.0,114031.0,114106.0,0.04527979141353943,-0.1671487901365549,0.0437872136569648,-0.18433203263454942,0.007200207542468111
139,139,114554.0231644174,1284.8596663635165,7.596666057866097,114660.68332490818,-5229.500938937275,17.8357578060484,114689.62060350012,43778.19746131337,10.46646335741565,114714.87669549928,-6149.316338431857,6.617276863332483,114937.6286086384,15247.775788685143,30.95340296706624,0.9741084302547828,103.0,81.0,78.0,252.0,330.0,22.0,871.0,870.0,22.0,11.0,11.0,0.5,65.69970157037287,1259.3836569240364,21.0,16.0,5.0,0.7619047619047619,794.3200100830259,4164.905747255281,24.0,12.0,12.0,0.5,1952.386900999711,41354.54165560588,12.0,3.0,9.0,0.25,1134.7206106263882,17087.33854840847,78.0,39.0,39.0,0.5,110.23844574600844,15871.257653928733,0.0,0.0,0.0,0.0,114543.0,114565.0,114646.0,114666.0,114678.0,114702.0,114712.0,114724.0,114900.0,114976.0,0.05113375669758545,-0.15189212495761506,0.044597242787920356,-0.18452792931380635,0.007229805007220308
140,140,115418.81766385678,1161.2057928649494,7.032683315005901,115527.97262507804,-5229.394023377797,17.835757806045336,115555.97164983038,44709.31246039502,10.52738520135225,115580.87669549928,-6164.728778061163,6.472107778064402,115804.17095808475,14871.919673351264,30.823648167817232,0.9770358399995104,105.0,84.0,77.0,252.0,329.0,21.0,866.0,867.0,21.0,11.0,10.0,0.5238095238095238,66.07495891751074,1153.2471833899622,21.0,17.0,4.0,0.8095238095238095,858.5321079096359,5445.837278211873,25.0,12.0,13.0,0.48,1980.7204746765344,43047.36480699882,13.0,3.0,10.0,0.2307692307692307,1179.9140459124756,17494.278552181007,78.0,39.0,39.0,0.5,108.12997558564795,15495.66076480603,0.0,0.0,0.0,0.0,115408.0,115429.0,115513.0,115532.0,115544.0,115569.0,115578.0,115590.0,115766.0,115842.0,0.05690202315860768,-0.16417430089826898,0.04430219043138098,-0.19139755995616797,0.007270747688303091
141,141,116290.32585180164,986.6380804714096,6.549043441067627,116397.72552424896,-5115.985276268503,17.8357578060484,116426.46378181124,43050.099233199624,10.39505055622782,116451.30135639945,-6339.410567951581,6.1403750786530855,116674.04048958512,15337.86478824665,32.70217682993948,0.968948829059828,102.0,82.0,78.0,254.0,332.0,20.0,871.0,870.0,20.0,10.0,10.0,0.5,63.020365001901,1053.022864370912,21.0,16.0,5.0,0.7619047619047619,784.8480050123388,4207.508926583411,25.0,12.0,13.0,0.48,1926.1808173028385,42505.52254931783,13.0,3.0,10.0,0.2307692307692307,1213.8439489177886,17538.953075352558,82.0,41.0,41.0,0.5,107.42503183069064,16131.467315644008,0.0,0.0,0.0,0.0,116280.0,116300.0,116382.0,116403.0,116414.0,116439.0,116449.0,116460.0,116635.0,116714.0,0.06387384214056512,-0.153410919427976,0.044742772992667,-0.1914758376834412,0.007003910473445433
142,142,117135.85236363552,2423.210175666821,13.908965715822529,117241.0681162018,-4024.363519008858,7.769081299284475,117271.0022460163,41905.24737725214,10.1506081655433,117295.87669549928,-5186.254585512202,5.090279800275061,117516.50740819436,16032.886716389685,36.450354100509095,0.970336915811438,112.0,77.0,72.0,256.0,328.0,35.0,844.0,844.0,35.0,17.0,18.0,0.4857142857142857,67.48923545552046,2345.6836700499407,16.0,11.0,5.0,0.6875,667.69328924795,3922.2939288137904,26.0,13.0,13.0,0.5,1879.703624757021,40755.39013991221,10.0,3.0,7.0,0.3,1140.3674077105345,15220.297665316391,86.0,43.0,43.0,0.5,111.82991367191832,17266.495522558704,0.0,0.0,0.0,0.0,117119.0,117154.0,117231.0,117246.0,117258.0,117284.0,117293.0,117303.0,117475.0,117559.0,0.027851168723715312,-0.16591276759520798,0.044856044109106014,-0.21988265113250516,0.006975032983773267
143,143,117991.182080134,486.305658214492,4.296289985891608,118095.92843418822,-5434.862287474608,17.8357578060484,118128.704502064,42347.17885780056,10.324107709944249,118153.87669549928,-6111.138005205304,6.781402970445782,118377.3507776926,14711.012943828431,30.053823897191833,0.9683591203589552,99.0,85.0,80.0,252.0,332.0,14.0,857.0,858.0,14.0,7.0,7.0,0.5,63.673493795995874,612.5364039852848,22.0,13.0,9.0,0.5909090909090909,509.26070425938474,1282.8508920737709,24.0,12.0,12.0,0.5,1917.9502669349345,40208.42379690918,12.0,3.0,9.0,0.25,1108.4943424402293,16901.012418399638,77.0,38.0,39.0,0.4935064935064935,111.13558426688662,15316.572684285193,0.0,0.0,0.0,0.0,117984.0,117998.0,118083.0,118105.0,118117.0,118141.0,118151.0,118163.0,118340.0,118415.0,0.13093307207195146,-0.09370259581977752,0.04529109892716356,-0.18138918504148385,0.007554584085490201
144,144,118860.91594996408,1041.448547268383,6.9727449786159355,118969.47999093482,-5149.918257217305,17.8357578060484,118997.44812745854,44667.520454903206,10.471886230974269,119022.87669549928,-5538.914239351241,6.00261839907891,119245.54743270706,15467.63806191831,31.90665873056535,0.9746406643598228,104.0,83.0,77.0,254.0,331.0,21.0,869.0,869.0,22.0,11.0,11.0,0.5,60.4520901598016,1028.5586955905374,21.0,16.0,5.0,0.7619047619047619,817.1760382977421,4626.10465766885,25.0,12.0,13.0,0.48,1956.306936531639,44228.60606914878,11.0,3.0,8.0,0.2727272727272727,1121.64792515827,16330.7473390942,79.0,40.0,39.0,0.5063291139240507,106.15975707419602,16138.88514346516,0.0,0.0,0.0,0.0,118850.0,118871.0,118954.0,118974.0,118985.0,119010.0,119020.0,119031.0,119207.0,119285.0,0.05804616110739362,-0.15867747748277722,0.04379707932314593,-0.20250321212585623,0.0068633463395787525
145,145,119734.8781270917,1030.9537098982164,6.721547517617575,119843.972626301,-5209.34944911653,17.8357578060484,119871.62804649158,44915.58273189018,10.531357750882298,119896.87669549928,-6007.437657482447,6.426734896381786,120120.29325197802,14954.708645063936,30.302313209860714,0.9732130991725724,104.0,83.0,78.0,252.0,330.0,21.0,873.0,874.0,21.0,11.0,10.0,0.5238095238095238,62.57476413867474,1011.8111247425744,21.0,17.0,4.0,0.8095238095238095,889.806661038099,6083.1405009629525,24.0,12.0,12.0,0.5,1979.8112306149403,42469.108363715466,12.0,3.0,9.0,0.25,1152.8545664818798,17144.853249757536,78.0,39.0,39.0,0.5,108.05947248042813,15507.252294470498,0.0,0.0,0.0,0.0,119724.0,119745.0,119828.0,119848.0,119860.0,119884.0,119894.0,119906.0,120082.0,120158.0,0.06069599782986628,-0.17080955496064948,0.04407849370301655,-0.19190454103938379,0.00722578253078137
146,146,0.0,0.0,0.0,0.0,0.0,0.0,0.0,0.0,0.0,0.0,0.0,0.0,0.0,0.0,0.0,0.0,0.0,0.0,0.0,0.0,0.0,0.0,0.0,0.0,0.0,0.0,0.0,0.0,0.0,0.0,0.0,0.0,0.0,0.0,0.0,0.0,0.0,0.0,0.0,0.0,0.0,0.0,0.0,0.0,0.0,0.0,0.0,0.0,0.0,0.0,0.0,0.0,0.0,0.0,0.0,0.0,0.0,0.0,,120378.0,120696.0,120718.0,120730.0,120754.0,120764.0,120776.0,120953.0,121029.0,,,,,
147,147,121438.8837349568,2708.1060046785788,16.68330721605562,121544.53467894351,-3676.7164137337113,6.645603285968278,121573.72141734444,42787.1160098746,10.17903438456512,121598.30135639945,-4869.379419855518,4.795165896529472,121819.11463739388,16527.797659152766,38.375882310216106,0.966017307406931,115.0,77.0,70.0,258.0,328.0,38.0,1703.0,1702.0,39.0,19.0,20.0,0.4871794871794871,67.03104895764905,2643.9210957089253,15.0,11.0,4.0,0.7333333333333333,770.5170195488729,6174.486830295134,25.0,13.0,12.0,0.52,1908.1180581488857,40931.88328034895,10.0,2.0,8.0,0.2,1211.0943601903195,15546.0885949811,89.0,44.0,45.0,0.4943820224719101,114.37759964553784,17963.52563971548,0.0,0.0,0.0,0.0,121420.0,121458.0,121535.0,121549.0,121561.0,121586.0,121596.0,121605.0,121777.0,121863.0,0.02475200337130262,-0.20956661674279406,0.044595622142621666,-0.24871636727504273,0.006920317032208935
148,148,0.0,0.0,0.0,0.0,0.0,0.0,0.0,0.0,0.0,0.0,0.0,0.0,0.0,0.0,0.0,0.0,0.0,0.0,0.0,0.0,0.0,0.0,0.0,0.0,0.0,0.0,0.0,0.0,0.0,0.0,0.0,0.0,0.0,0.0,0.0,0.0,0.0,0.0,0.0,0.0,0.0,0.0,0.0,0.0,0.0,0.0,0.0,0.0,0.0,0.0,0.0,0.0,0.0,0.0,0.0,0.0,0.0,0.0,,122053.0,122371.0,122395.0,122406.0,122431.0,122440.0,122453.0,122630.0,122705.0,,,,,
149,149,123131.4763973824,1866.7485161574748,8.059501985446753,123241.9725149858,-5322.339465542965,17.83575780604699,123270.01667392842,44379.86641292831,10.537900400687937,123294.87669549928,-6159.791810543427,6.473278674920615,123517.98192083188,15330.269112756114,31.32757033870784,0.9684555527387638,106.0,83.0,78.0,253.0,331.0,23.0,1696.0,1697.0,23.0,11.0,12.0,0.4782608695652174,92.69531640816832,1831.8128854135264,22.0,17.0,5.0,0.7727272727272727,851.8093055113027,5237.699286542255,25.0,12.0,13.0,0.48,1966.3896793232136,42826.83299564921,13.0,3.0,10.0,0.2307692307692307,1177.0477038712522,17413.394481320945,80.0,40.0,40.0,0.5,109.68453193697955,15977.894933214277,0.0,0.0,0.0,0.0,123120.0,123143.0,123226.0,123246.0,123258.0,123283.0,123292.0,123304.0,123479.0,123557.0,0.049656027904054725,-0.16004415182946327,0.04430814777645171,-0.1910856308254696,0.007154768851755675
150,150,123977.0876675001,975.3451040716913,5.680927103536112,124083.60271279886,-6750.398366630271,20.383723206912453,124117.5365667093,44027.75737985219,10.151530431811445,124147.54796540084,-5981.181055752905,15.28779240518434,124366.27226151236,14102.46705519976,28.04396681126268,0.9463470792593452,63.0,45.0,123.0,249.0,372.0,18.0,845.0,847.0,18.0,9.0,9.0,0.5,79.76522138277602,899.7002874117874,70.0,59.0,11.0,0.8428571428571429,468.01023779850215,3151.209483926892,24.0,12.0,12.0,0.5,1978.293533677312,39174.227846616166,18.0,10.0,8.0,0.5555555555555556,651.6225437389492,11369.394548301569,74.0,37.0,37.0,0.5,109.42106474775755,14492.185760503276,0.0,0.0,0.0,0.0,123968.0,123986.0,124031.0,124095.0,124106.0,124130.0,124139.0,124154.0,124330.0,124403.0,0.08178153665793456,-0.06933075833154541,0.04493287079351925,-0.10894546372445894,0.007759001621451234
151,151,124802.33533025104,2495.8223047963575,10.792670641523356,124914.972626301,-4507.789917782973,17.83575780604766,124942.58293983818,42075.72915881396,10.392214653230278,124967.30135639945,-6492.404450836543,6.111722543051319,125189.24628028332,15032.482078322751,32.46535950556006,0.9634582939080608,113.0,82.0,76.0,253.0,329.0,31.0,826.0,825.0,31.0,15.0,16.0,0.4838709677419355,77.89631952868096,2422.697111358808,20.0,16.0,4.0,0.8,822.9177038279155,5777.790433241522,24.0,12.0,12.0,0.5,1891.52313099228,39469.57964679507,13.0,3.0,10.0,0.2307692307692307,1214.7564675317292,17434.385777656375,81.0,40.0,41.0,0.4938271604938271,115.34324468492414,15936.073427837302,0.0,0.0,0.0,0.0,124787.0,124818.0,124900.0,124919.0,124931.0,124955.0,124965.0,124976.0,125150.0,125229.0,0.031210683300242716,-0.18255458192085489,0.04495520740360233,-0.18710425031749345,0.007672934122519411
152,152,125578.33655170348,1999.4452622524975,9.079151653756526,125690.56730884776,-4928.029671767465,17.8357578060484,125720.96064357569,41282.31503229239,10.387611453007212,125745.87669549928,-6870.872087429814,6.824176702492805,125967.35418978566,14452.89105311419,30.143696714376564,0.9595001789247394,112.0,85.0,78.0,250.0,328.0,27.0,775.0,779.0,27.0,13.0,14.0,0.4814814814814814,75.91605378232558,1893.9724617502184,20.0,14.0,6.0,0.7,660.0549547834661,2015.4274937986197,24.0,12.0,12.0,0.5,1874.3610749358647,39490.65083422744,14.0,4.0,10.0,0.2857142857142857,1149.4733816025614,17438.85618164055,77.0,38.0,39.0,0.4935064935064935,109.17511549708487,15076.288101077513,0.0,0.0,0.0,0.0,125565.0,125592.0,125677.0,125697.0,125709.0,125733.0,125743.0,125755.0,125930.0,126005.0,0.03796855818738518,-0.13393891651361217,0.045403487509595275,-0.16729657705395368,0.007553859992154353
