Unnamed: 0,cycle,p_center,p_height,p_width,q_center,q_height,q_width,r_center,r_height,r_width,s_center,s_height,s_width,t_center,t_height,t_width,r_squared,pr_interval,pr_segment,qrs_duration,st_segment,qt_interval,p_duration,pp_interval,rr_interval,fwhm_p,rise_time_p,decay_time_p,rise_decay_symmetry_p,sharpness_deriv_p,sharpness_diff_p,fwhm_q,rise_time_q,decay_time_q,rise_decay_symmetry_q,sharpness_deriv_q,sharpness_diff_q,fwhm_r,rise_time_r,decay_time_r,rise_decay_symmetry_r,sharpness_deriv_r,sharpness_diff_r,fwhm_s,rise_time_s,decay_time_s,rise_decay_symmetry_s,sharpness_deriv_s,sharpness_diff_s,fwhm_t,rise_time_t,decay_time_t,rise_decay_symmetry_t,sharpness_deriv_t,sharpness_diff_t,Average_Heart_Rate,SDNN,RMSSD,NN50,p_on,p_off,q_on,q_off,r_on,r_off,s_on,s_off,t_on,t_off,sharpness_deriv_p_norm,sharpness_deriv_q_norm,sharpness_deriv_r_norm,sharpness_deriv_s_norm,sharpness_deriv_t_norm
0,0,0.0,0.0,0.0,0.0,0.0,0.0,0.0,0.0,0.0,0.0,0.0,0.0,0.0,0.0,0.0,0.0,0.0,0.0,0.0,0.0,0.0,0.0,0.0,0.0,0.0,0.0,0.0,0.0,0.0,0.0,0.0,0.0,0.0,0.0,0.0,0.0,0.0,0.0,0.0,0.0,0.0,0.0,0.0,0.0,0.0,0.0,0.0,0.0,0.0,0.0,0.0,0.0,0.0,0.0,69.28548538162734,484.53587169053446,701.874768740775,459.0,,,,,,,,,,,,,,,
1,1,0.0,0.0,0.0,0.0,0.0,0.0,0.0,0.0,0.0,0.0,0.0,0.0,0.0,0.0,0.0,0.0,0.0,0.0,0.0,0.0,0.0,0.0,0.0,0.0,0.0,0.0,0.0,0.0,0.0,0.0,0.0,0.0,0.0,0.0,0.0,0.0,0.0,0.0,0.0,0.0,0.0,0.0,0.0,0.0,0.0,0.0,0.0,0.0,0.0,0.0,0.0,0.0,0.0,0.0,0.0,0.0,0.0,0.0,,1190.0,1528.0,1552.0,1563.0,1589.0,1600.0,1614.0,1767.0,1858.0,,,,,
2,2,2242.7644981684866,2048.5062903266876,18.553155182408435,2363.8870444277595,-6411.378175985915,8.610084480911926,2397.34319879387,42563.66030460349,10.601420019595654,2448.507027707632,1294.518340010245,94.60598339496104,2630.5832591414965,6835.373935794226,47.50257138783636,0.9945408993206436,131.0,87.0,377.0,-45.0,332.0,44.0,,,44.0,20.0,24.0,0.4545454545454545,46.681438624069735,2285.7679588393385,17.0,10.0,7.0,0.5882352941176471,632.1087282049388,196.32130738370415,27.0,13.0,14.0,0.4814814814814814,1720.5870941430285,43764.62894941158,290.0,23.0,267.0,0.0793103448275862,50.47443733470848,995.2330372143356,121.0,65.0,56.0,0.5371900826446281,25.901957595148815,7265.52630345474,0.0,0.0,0.0,0.0,2223.0,2267.0,2354.0,2371.0,2384.0,2411.0,2373.0,2731.0,2568.0,2686.0,0.022788037725100255,-0.09859170849920044,0.04042385175123056,0.038990901692678236,0.003789398771515662
3,3,3124.6753972928013,1583.0926133525318,12.8493063448986,3246.5474817702047,-6580.596719720786,9.697550535939984,3279.5084494105968,41613.660912465944,10.781366900558396,3307.3013563994245,-2517.192281730521,5.58783524293082,3513.438224894384,5866.301553204474,43.58816310563447,0.99424929054225,126.0,91.0,79.0,256.0,335.0,35.0,882.0,882.0,35.0,17.0,18.0,0.4857142857142857,43.98913863098763,1500.7574327645475,20.0,13.0,7.0,0.65,664.2228951806246,211.05445562731305,27.0,14.0,13.0,0.5185185185185185,1722.5560154437733,40119.367309715024,8.0,2.0,6.0,0.25,804.8070221228425,11357.302134317237,113.0,56.0,57.0,0.495575221238938,27.42321635628341,5946.993006569653,0.0,0.0,0.0,0.0,3108.0,3143.0,3234.0,3254.0,3266.0,3293.0,3305.0,3313.0,3460.0,3569.0,0.02778683840728141,-0.10093657512700574,0.04139400325934212,-0.3197240941679486,0.004674702810206449
4,4,4033.664383522283,1580.5171358824575,12.394628305871088,4153.4185964279,-6460.249111875225,9.50362906228298,4186.2157603009455,41199.52328245385,10.775964847190192,4213.726017299569,-2526.068117890317,5.36935184869358,4420.6150591353535,5761.63395550938,45.54475173390848,0.9940416507067624,123.0,90.0,78.0,258.0,336.0,33.0,910.0,907.0,33.0,16.0,17.0,0.4848484848484848,46.004715973115374,1505.1453717673412,20.0,12.0,8.0,0.6,616.1789095396332,1015.2364344705576,27.0,13.0,14.0,0.4814814814814814,1702.0297928191103,41287.48133842344,8.0,2.0,6.0,0.25,772.9055208936794,10789.321765097844,113.0,56.0,57.0,0.495575221238938,27.13845804050616,5909.9510236853675,0.0,0.0,0.0,0.0,4018.0,4051.0,4141.0,4161.0,4173.0,4200.0,4212.0,4219.0,4367.0,4477.0,0.02910738196294806,-0.09538005406122399,0.04131188075042545,-0.30597176513956514,0.004710201698001982
5,5,4963.456951412924,1409.3471125926972,10.862399078826636,5083.975980068261,-6719.860572701402,9.778044980164283,5117.299096477787,42262.26749163937,10.865716102489166,5145.726017299569,-1921.684026446333,5.319886519076556,5353.603570662954,5798.962181434842,43.702120830123,0.9927016699886444,123.0,94.0,78.0,258.0,336.0,29.0,930.0,931.0,29.0,14.0,15.0,0.4827586206896552,50.38434247518239,1431.4298269646963,20.0,12.0,8.0,0.6,640.37410682493,959.4536242311596,27.0,13.0,14.0,0.4814814814814814,1719.062040992983,42559.2989739337,6.0,2.0,4.0,0.3333333333333333,701.5128739282845,9683.418373606077,111.0,56.0,55.0,0.5045045045045045,27.039088356851487,5932.861789866304,0.0,0.0,0.0,0.0,4949.0,4978.0,5072.0,5092.0,5104.0,5131.0,5144.0,5150.0,5300.0,5408.0,0.035750129989263704,-0.09529574310311886,0.04067604847120567,-0.3650511032375882,0.004662746110574079
6,6,5909.072147145656,1614.6233180795796,12.24541890919428,6029.4200541723085,-6601.265681531053,9.278064186782336,6062.315223524737,41863.22291393379,10.800406486804585,6090.150678199713,-2188.489705500907,5.0959308017042835,6298.035192118873,5915.744950016014,46.205377161167526,0.9938422658615592,125.0,93.0,77.0,261.0,338.0,32.0,945.0,945.0,33.0,16.0,17.0,0.4848484848484848,50.65402767956626,1589.8215864021513,19.0,11.0,8.0,0.5789473684210527,631.7141751801008,1099.5259073767245,27.0,13.0,14.0,0.4814814814814814,1716.7889369250818,42146.24912713054,7.0,2.0,5.0,0.2857142857142857,780.7963546755326,10795.42482449758,117.0,58.0,59.0,0.4957264957264957,28.285016159429446,6087.589884591878,0.0,0.0,0.0,0.0,5893.0,5925.0,6018.0,6037.0,6049.0,6076.0,6089.0,6095.0,6243.0,6356.0,0.031372040222863724,-0.09569591736740783,0.0410094784258396,-0.3567740587095072,0.004781310958876427
7,7,6781.2979428781055,1354.440200486664,9.735303842916723,6900.607576700503,-6589.066367921731,10.174149336101388,6933.470935134003,40831.49910852861,10.765730789568131,6961.301356399425,-2544.84703830925,5.614761730310847,7168.438224894385,5686.574347051568,44.754722040095835,0.9924008245353644,121.0,93.0,79.0,257.0,336.0,28.0,872.0,871.0,28.0,14.0,14.0,0.5,52.84814775815429,1331.0255119444948,20.0,13.0,7.0,0.65,652.2469900803851,438.1093860380493,27.0,13.0,14.0,0.4814814814814814,1697.925657949979,41534.491507867475,8.0,2.0,6.0,0.25,789.8018040831586,11171.006708505409,115.0,58.0,57.0,0.5043478260869565,25.259227497821787,5744.092306528688,0.0,0.0,0.0,0.0,6767.0,6795.0,6888.0,6908.0,6920.0,6947.0,6959.0,6967.0,7113.0,7224.0,0.039018442998934484,-0.09898928826332515,0.04158372077980668,-0.3103533501989528,0.004441905786551167
8,8,7639.07276652176,1419.0303645054864,11.000983296998184,7759.269557246144,-6837.3677868503555,9.867019997878096,7792.545924630701,42208.7554439282,10.871605601707111,7820.726017299569,-2081.67087070294,5.424006503609838,8027.002785444591,5894.85534778262,42.4746619633413,0.9925856940612958,123.0,93.0,78.0,256.0,334.0,30.0,859.0,859.0,30.0,15.0,15.0,0.5,48.960326615017244,1384.723040251819,20.0,12.0,8.0,0.6,630.6376950478277,1442.335075383176,27.0,14.0,13.0,0.5185185185185185,1725.3303060405858,40858.93792644779,6.0,2.0,4.0,0.3333333333333333,723.9537231613759,10097.655894140737,109.0,54.0,55.0,0.4954128440366973,28.973671308387623,6038.924511827446,0.0,0.0,0.0,0.0,7624.0,7654.0,7747.0,7767.0,7779.0,7806.0,7819.0,7825.0,7976.0,8081.0,0.03450266311396323,-0.09223398750915109,0.04087612363583152,-0.3477753055731191,0.004915077571714498
9,9,8484.70779240881,1372.4017317232694,10.624071131172384,8604.640670121375,-6622.3616017035765,10.386924166415564,8637.20534034575,40940.145667225406,10.766734290471843,8664.72601729957,-2765.708046210742,5.8145570083294285,8871.86288579453,6084.517991810189,44.000652507973086,0.9919184825017608,122.0,92.0,79.0,255.0,334.0,30.0,847.0,845.0,30.0,15.0,15.0,0.5,45.47502466648096,1284.0909135480551,20.0,13.0,7.0,0.65,669.6484502720583,317.42768631418653,27.0,13.0,14.0,0.4814814814814814,1714.5064241951504,41158.84833133773,9.0,3.0,6.0,0.3333333333333333,771.4666473655086,11070.369330936845,114.0,59.0,55.0,0.5175438596491229,25.877622661528708,6164.589690485723,0.0,0.0,0.0,0.0,8470.0,8500.0,8592.0,8612.0,8624.0,8651.0,8663.0,8671.0,8815.0,8926.0,0.033135359432532784,-0.1011192819944767,0.04187836648484856,-0.27894001625460224,0.004253027552282728
10,10,9276.246052480672,1040.4621898958603,8.688454140999411,9397.534522215945,-6501.990789992111,10.737354903777216,9430.142180853942,39651.01403351644,10.736454514977552,9457.301356399426,-3134.758209054517,5.894957974183055,9662.25390732598,5490.872331967875,42.866684263513314,0.9902267923211922,122.0,96.0,79.0,253.0,332.0,26.0,789.0,793.0,26.0,13.0,13.0,0.5,45.482468264759774,994.970927788848,20.0,13.0,7.0,0.65,646.9534534634493,391.6893665069697,26.0,13.0,13.0,0.5,1676.2281954602372,39707.44905067879,10.0,2.0,8.0,0.2,840.7875486551437,12050.172100235435,112.0,56.0,56.0,0.5,28.78703880799952,5586.002065589799,0.0,0.0,0.0,0.0,9263.0,9289.0,9385.0,9405.0,9417.0,9443.0,9455.0,9464.0,9609.0,9717.0,0.04371371560297843,-0.0995008258792434,0.04227453537615319,-0.2682144818144478,0.005242707727950857
11,11,10046.31129160772,1037.8788713898157,8.83806581483893,10166.888879733724,-6590.696463181555,10.71651418710624,10199.886011352866,41072.97299358327,10.884492542844317,10227.301356399426,-2975.0692055191244,5.877684546635709,10433.398658722728,5515.394744623706,40.90190644073653,0.9927216218856344,120.0,95.0,80.0,251.0,331.0,25.0,770.0,769.0,25.0,12.0,13.0,0.48,45.18541277546208,1044.670405425216,21.0,13.0,8.0,0.6190476190476191,636.6483602089382,851.1462637772406,26.0,13.0,13.0,0.5,1701.5816447200714,40547.36806080779,10.0,2.0,8.0,0.2,844.0530388263671,12018.689354290354,105.0,52.0,53.0,0.4952380952380952,31.770769562521977,5723.924442347433,0.0,0.0,0.0,0.0,10034.0,10059.0,10154.0,10175.0,10187.0,10213.0,10225.0,10234.0,10384.0,10485.0,0.04353630661635364,-0.09659803994396159,0.04142825611834588,-0.2837087074346182,0.005760379997005921
12,12,10772.41154911987,1526.659427478232,11.69256379441414,10893.122807520092,-6688.298324628,9.691245694049805,10926.125272268222,42134.129817050925,10.813589457976184,10953.72601729957,-2308.12925214459,5.090328121417267,11155.717486881282,5941.23972164325,44.60837899103284,0.994307041989312,124.0,92.0,78.0,250.0,328.0,32.0,727.0,727.0,32.0,15.0,17.0,0.46875,47.68030750365581,1511.350345563131,20.0,12.0,8.0,0.6,644.1907211310977,947.9437440923534,27.0,13.0,14.0,0.4814814814814814,1730.6967303003244,42053.04960857588,7.0,2.0,5.0,0.2857142857142857,776.6317980908206,10622.692602070028,111.0,56.0,55.0,0.5045045045045045,31.622679857939666,6171.487585170142,0.0,0.0,0.0,0.0,10757.0,10789.0,10881.0,10901.0,10913.0,10940.0,10952.0,10959.0,11104.0,11209.0,0.031231790565375242,-0.09631608667320132,0.04107588640883578,-0.33647673646058424,0.005322572617755499
13,13,11500.926931808764,1297.0695432992643,10.423592239952445,11624.06636356652,-7068.985501392065,10.118426280126393,11657.14335656888,41960.207169327194,10.797523491310372,11684.72601729957,-2683.385603927253,5.6154339828479145,11888.821407423737,5746.2918091735355,42.42168834937544,0.9935307018105044,126.0,96.0,79.0,250.0,329.0,30.0,727.0,731.0,31.0,15.0,16.0,0.4838709677419355,42.55064895718092,1219.135009601649,20.0,12.0,8.0,0.6,653.860319423837,1494.5006157918197,27.0,13.0,14.0,0.4814814814814814,1742.1934706443276,41961.17700733447,8.0,2.0,6.0,0.25,784.1030384304704,11147.9708199517,105.0,52.0,53.0,0.4952380952380952,27.478352258595137,5916.079529036199,0.0,0.0,0.0,0.0,11486.0,11516.0,11612.0,11632.0,11644.0,11671.0,11683.0,11691.0,11839.0,11941.0,0.03280521786746132,-0.09249705198788075,0.04152013510357181,-0.2922066203541157,0.004781927749427544
14,14,12304.804979400576,1316.1434703567684,9.980379625671922,12431.886617620325,-6789.505289108353,10.358006400062154,12464.419109505858,41055.33407435233,10.773960081233668,12491.301356399426,-3131.089073056612,5.697833674854443,12696.871868054312,5595.834036762447,43.12359852457063,0.9904525624947684,129.0,101.0,78.0,254.0,332.0,28.0,806.0,807.0,28.0,14.0,14.0,0.5,48.814305381446246,1246.4699051212565,19.0,12.0,7.0,0.631578947368421,663.5247060016003,717.8597312178349,27.0,13.0,14.0,0.4814814814814814,1726.7248802866702,41685.54776392866,10.0,2.0,8.0,0.2,885.1117561652886,12525.918409789558,110.0,54.0,56.0,0.4909090909090909,28.58704594542396,5676.537584150219,0.0,0.0,0.0,0.0,12291.0,12319.0,12420.0,12439.0,12451.0,12478.0,12489.0,12498.0,12646.0,12752.0,0.037088893787706974,-0.09772799014767969,0.042058478373590245,-0.28268494939405553,0.005108630055433778
15,15,13111.52233412805,1137.2908926337543,8.631726742611335,13236.27964320317,-6315.192484418301,11.045592924590805,13268.527256063797,38483.24742638449,10.717839704294878,13295.301356399426,-3515.4709226801156,6.027515735671862,13500.24881424968,5012.986444814614,42.97767624425866,0.989782176804103,125.0,100.0,79.0,252.0,331.0,25.0,805.0,804.0,25.0,13.0,12.0,0.52,50.74882100678677,1046.654162261818,20.0,12.0,8.0,0.6,601.2574464962516,1043.5688989239998,26.0,13.0,13.0,0.5,1649.7946504292945,37261.49034468406,10.0,2.0,8.0,0.2,863.3517508103229,12428.177023717668,111.0,55.0,56.0,0.4954954954954955,28.133990581138885,5083.602103454192,0.0,0.0,0.0,0.0,13099.0,13124.0,13224.0,13244.0,13256.0,13282.0,13293.0,13303.0,13448.0,13555.0,0.04462255113048688,-0.09520809507861486,0.04287046340320487,-0.2455863722952153,0.005612221555125174
16,16,13915.714584664824,1281.046003549178,10.286738703026616,14039.84163885008,-6685.416734225695,10.064269178069685,14073.136517570236,41883.26129870309,10.862883657612771,14100.72601729957,-2604.3687097446164,5.428942420860734,14305.520794002932,5527.574839807786,42.57825854736622,0.99227110010566,127.0,98.0,78.0,253.0,331.0,29.0,805.0,805.0,29.0,15.0,14.0,0.5172413793103449,44.85779982575098,1208.4347880788982,20.0,12.0,8.0,0.6,641.5412744630978,901.6660175603324,27.0,13.0,14.0,0.4814814814814814,1718.4794511386767,41823.32140278741,8.0,2.0,6.0,0.25,786.6676495130619,10988.027759099614,108.0,54.0,54.0,0.5,27.283582584068064,5671.152140608465,0.0,0.0,0.0,0.0,13901.0,13930.0,14028.0,14048.0,14060.0,14087.0,14099.0,14106.0,14254.0,14359.0,0.035016540937227114,-0.09596129904344716,0.041030220614455576,-0.3020569424634971,0.004935904691435497
17,17,14763.247072918464,1288.274274992992,10.192220303350114,14888.047942790276,-6924.001618953902,10.302656984604916,14921.32930969401,41947.51707731339,10.876180135445288,14948.72601729957,-2633.8565463715913,5.545024667605687,15157.32994579734,5421.175426783958,41.92558250682955,0.9927354264525166,127.0,98.0,79.0,255.0,334.0,29.0,848.0,848.0,29.0,14.0,15.0,0.4827586206896552,46.50616945843774,1247.028701941039,20.0,12.0,8.0,0.6,638.6813876398087,1409.6388837757736,27.0,13.0,14.0,0.4814814814814814,1728.529481563001,42350.473014572184,8.0,2.0,6.0,0.25,795.6163795116574,11258.52158289106,107.0,53.0,54.0,0.4953271028037383,27.27919892538639,5556.33468169642,0.0,0.0,0.0,0.0,14749.0,14778.0,14876.0,14896.0,14908.0,14935.0,14947.0,14955.0,15107.0,15210.0,0.03609958714629361,-0.09224165775632827,0.04120695578661191,-0.3020727839592103,0.0050319712567518625
18,18,15698.6599649109,1634.5193483354003,13.052607835384544,15821.25434304682,-6470.905544244639,9.14617420167733,15854.210318340827,42297.43701024432,10.800546089657,15882.72601729957,-2060.3531313764856,5.259048246209143,16096.287546694672,5664.255993655914,45.93048653986512,0.993894507642884,128.0,93.0,77.0,262.0,339.0,35.0,934.0,933.0,35.0,17.0,18.0,0.4857142857142857,44.08936290706883,1522.2294773303124,19.0,11.0,8.0,0.5789473684210527,637.0819411463536,727.4487223297151,27.0,13.0,14.0,0.4814814814814814,1722.7343359683566,42286.81163307317,7.0,3.0,4.0,0.4285714285714285,704.6743103575137,9658.480925123156,119.0,65.0,54.0,0.5462184873949579,18.389165240508493,5662.527035727002,0.0,0.0,0.0,0.0,15682.0,15717.0,15810.0,15829.0,15841.0,15868.0,15880.0,15887.0,16033.0,16149.0,0.026973900891396348,-0.09845329016013653,0.04072904785108174,-0.34201627848461746,0.0032465279219556368
19,19,16574.49446041064,1621.8189385282362,12.418825599815946,16694.88942158812,-6311.6657272214,9.55406817963527,16727.422944691374,40276.57003436345,10.712145573827952,16754.72601729957,-2595.806849526562,5.251338624033226,16958.641667766493,5351.274468228198,48.29033425013774,0.9928015438065394,125.0,92.0,77.0,259.0,336.0,33.0,876.0,873.0,33.0,16.0,17.0,0.4848484848484848,47.8733854330724,1629.4519304346572,19.0,12.0,7.0,0.631578947368421,644.18949804702,288.5029394303301,27.0,13.0,14.0,0.4814814814814814,1679.9676716499491,40792.10009311502,8.0,2.0,6.0,0.25,776.2205928204664,10741.45459915188,123.0,62.0,61.0,0.5040650406504065,26.43535149870992,5484.96136136266,0.0,0.0,0.0,0.0,16558.0,16591.0,16683.0,16702.0,16714.0,16741.0,16753.0,16760.0,16900.0,17019.0,0.029518329263386458,-0.10206331036650339,0.041710792905568235,-0.2990286403481977,0.004940010394843874
20,20,17426.166924683126,1319.2825545664675,10.69385848431892,17547.602174319596,-6647.287933169032,10.040091414210028,17580.94042832334,41991.217034015885,10.889951497759457,17608.72601729957,-2372.039373729379,5.478378851298463,17815.527688141425,5490.852395298909,43.841014019771805,0.9928805825514592,124.0,93.0,79.0,258.0,337.0,31.0,851.0,853.0,31.0,15.0,16.0,0.4838709677419355,44.94439633502183,1292.8057727199148,20.0,13.0,7.0,0.65,653.2620739661668,567.7054228222764,26.0,13.0,13.0,0.5,1716.947411806038,41524.87409900182,7.0,2.0,5.0,0.2857142857142857,760.0086396100545,10680.060301040134,114.0,57.0,57.0,0.5,24.358668900226196,5537.512130058816,0.0,0.0,0.0,0.0,17411.0,17442.0,17535.0,17555.0,17568.0,17594.0,17607.0,17614.0,17761.0,17872.0,0.034067301336968794,-0.09827497778552376,0.040888250760038415,-0.32040304559327365,0.004436227227867445
21,21,18280.85864283973,1766.4850074303208,13.128124065112194,18400.973725083553,-6277.189916503772,9.075563184860544,18434.642442347664,42289.768659240515,10.779975859142402,18463.575339099854,-1606.0220582270513,2.5479654008640567,18668.650784359914,5561.9050661966385,47.54286630603299,0.9928241325121872,125.0,89.0,76.0,262.0,338.0,36.0,854.0,854.0,36.0,17.0,19.0,0.4722222222222222,44.80782100729713,1673.6868001024386,20.0,12.0,8.0,0.6,607.3743197248882,816.399788333202,27.0,14.0,13.0,0.5185185185185185,1707.5918158106365,40950.12397181461,3.0,2.0,1.0,0.6666666666666666,644.084309172984,8346.438677121783,120.0,60.0,60.0,0.5,23.6775271118356,5541.4109935989645,0.0,0.0,0.0,0.0,18264.0,18300.0,18389.0,18409.0,18421.0,18448.0,18311.0,18465.0,18613.0,18727.0,0.025365525786419433,-0.0967589523025264,0.04037836739117558,-0.4010432520983013,0.004257089401928043
22,22,19088.96585043791,1241.9758919806764,9.410045924815,19208.349029418307,-6633.323415631054,10.31838775049838,19240.475175549524,41033.29385419478,10.768837987254605,19267.72601729957,-3086.1616898262146,5.89460446748166,19476.438224894388,5653.233136098121,45.32405259505834,0.992269750885193,120.0,94.0,79.0,257.0,336.0,26.0,808.0,806.0,27.0,14.0,13.0,0.5185185185185185,51.96675510025046,1213.972953592609,20.0,12.0,8.0,0.6,647.346925688111,719.1584227150734,27.0,13.0,14.0,0.4814814814814814,1727.272295776969,41862.897030996406,10.0,3.0,7.0,0.3,809.4163627639862,11621.250544893335,123.0,65.0,58.0,0.5284552845528455,33.36639942881466,5596.410093535393,0.0,0.0,0.0,0.0,19076.0,19102.0,19196.0,19216.0,19227.0,19254.0,19266.0,19275.0,19416.0,19532.0,0.041841999861506975,-0.09759013470723805,0.04209441001530498,-0.2622728308216299,0.005902179978348505
23,23,19849.128561152214,715.0427630398868,7.623954558803043,19973.397287201147,-6702.906359382873,15.856342517276548,20002.919066574144,41123.536317514976,11.13399805257273,20030.30135639943,-3550.757156320515,6.620384983270306,20236.71220759482,5257.007056090938,39.908864941058305,0.9887278800254494,121.0,97.0,81.0,249.0,330.0,24.0,762.0,763.0,24.0,12.0,12.0,0.5,35.882612470269585,679.1770143036085,22.0,16.0,6.0,0.7272727272727273,775.4569425293735,1822.1786684636304,27.0,13.0,14.0,0.4814814814814814,1702.471553680022,40711.384017876226,11.0,2.0,9.0,0.1818181818181818,864.9937324356174,12731.605820076087,103.0,51.0,52.0,0.4951456310679611,26.70253813361272,5333.823217626162,0.0,0.0,0.0,0.0,19837.0,19861.0,19958.0,19978.0,19990.0,20017.0,20028.0,20039.0,20189.0,20288.0,0.050182470650735,-0.11568965773240619,0.041398958020906394,-0.24360824870714906,0.0050794183551027
24,24,20599.995297131107,1320.046622671572,10.659591250176964,20721.305564112135,-6335.7070859067635,10.351888706028998,20754.87837981474,40822.85863934344,10.80560148997228,20782.30135639943,-2823.2896831255825,5.479680797535008,20985.260062298352,5697.032873200796,44.56421242884761,0.9929158487083866,124.0,94.0,79.0,252.0,331.0,30.0,751.0,751.0,30.0,15.0,15.0,0.5,45.28235616716411,1248.3343620925514,20.0,12.0,8.0,0.6,572.6306977680866,1598.7355396169864,26.0,13.0,13.0,0.5,1687.767674940892,40119.767470497376,8.0,2.0,6.0,0.25,836.7957206123536,11736.229315397846,112.0,55.0,57.0,0.4910714285714285,31.21071655392452,5886.3898118898405,0.0,0.0,0.0,0.0,20585.0,20615.0,20709.0,20729.0,20742.0,20768.0,20780.0,20788.0,20932.0,21040.0,0.03430360366781558,-0.090381498071755,0.04134369152958556,-0.29639031574186936,0.0054784160893193564
25,25,21364.382602603277,1059.1176820026474,8.3800711146306,21490.75814755319,-6851.212873738436,11.847235801783352,21523.485622647928,40731.05734216261,10.99157743242878,21550.30135639943,-3613.401366763848,6.103639414909449,21756.220711648897,5237.950688519916,41.34600610971922,0.9897791771790344,126.0,101.0,80.0,251.0,331.0,25.0,764.0,769.0,25.0,12.0,13.0,0.48,48.24521402539472,1034.8136154425108,20.0,13.0,7.0,0.65,663.0838784918282,814.5963213000705,27.0,13.0,14.0,0.4814814814814814,1697.694974891036,41575.75955809349,11.0,2.0,9.0,0.1818181818181818,908.695042298751,13081.336959882005,109.0,55.0,54.0,0.5045871559633027,28.53713384437985,5340.752311338282,0.0,0.0,0.0,0.0,21352.0,21377.0,21478.0,21498.0,21510.0,21537.0,21548.0,21558.0,21705.0,21809.0,0.045552269445799064,-0.09678342954916966,0.04168060162616189,-0.25147913283504836,0.005448148625554084
26,26,22176.817419790987,1303.8876649175722,10.285740126891149,22299.500191493553,-6683.983856445447,10.43818457492913,22332.694639679074,41634.52416122571,10.78075117961967,22360.30135639943,-2709.157250245658,5.621307556539316,22566.817412137934,5320.203061416327,42.371544099061225,0.991287126976304,125.0,95.0,79.0,253.0,332.0,30.0,813.0,809.0,30.0,15.0,15.0,0.5,44.19306707481375,1230.2765400444923,20.0,13.0,7.0,0.65,653.3033802068207,652.8948838652573,26.0,13.0,13.0,0.5,1734.7959121433985,40642.18127119957,8.0,2.0,6.0,0.25,825.77151357038,11692.892411031702,107.0,53.0,54.0,0.4953271028037383,32.237504509810215,5574.609260090546,0.0,0.0,0.0,0.0,22162.0,22192.0,22287.0,22307.0,22320.0,22346.0,22358.0,22366.0,22517.0,22619.0,0.033893308652174034,-0.09774161551524879,0.041667244842899305,-0.3048075239986537,0.0060594500130278965
27,27,23019.98764777365,1039.787686078983,8.017741365841228,23142.294082085744,-7064.404552657756,11.641166905678874,23174.23960739715,39966.757602168385,10.826352883284164,23201.30135639943,-3669.441114112229,6.400096976359469,23408.640364426145,5183.530145551755,40.86696173134253,0.9885054582973336,122.0,99.0,79.0,255.0,334.0,23.0,844.0,842.0,23.0,12.0,11.0,0.5217391304347826,51.31725503405448,1000.0021795524602,20.0,12.0,8.0,0.6,670.478947609827,1400.0260060398168,27.0,13.0,14.0,0.4814814814814814,1704.1203930959607,40378.578668868664,12.0,3.0,9.0,0.25,874.623477333389,12849.610685342555,107.0,52.0,55.0,0.4859813084112149,30.10971393720559,5184.180477837268,0.0,0.0,0.0,0.0,23008.0,23031.0,23130.0,23150.0,23161.0,23188.0,23199.0,23209.0,23358.0,23464.0,0.04935358989253927,-0.09490947787773292,0.04263844493113207,-0.2383533214280759,0.005808727467909921
28,28,23826.416312637855,1448.8878801282308,11.070022082078692,23945.540608728097,-6757.828593930041,9.63696923863531,23978.08119075349,40578.75872113766,10.780536665572358,24005.30135639943,-2878.6528144835675,5.561496092515623,24214.287546694675,5274.854052068153,44.03231151210601,0.9928971403571828,124.0,91.0,78.0,255.0,333.0,33.0,806.0,804.0,33.0,16.0,17.0,0.4848484848484848,40.36509154827507,1374.1812971188829,19.0,12.0,7.0,0.631578947368421,690.3181892510777,145.65140594918603,26.0,13.0,13.0,0.5,1689.1290966822455,40430.681490424526,9.0,2.0,7.0,0.2222222222222222,847.4189673155694,11877.312502056666,115.0,61.0,54.0,0.5304347826086957,29.0484186257142,5434.189371397037,0.0,0.0,0.0,0.0,23810.0,23843.0,23934.0,23953.0,23965.0,23991.0,24003.0,24012.0,24156.0,24267.0,0.02785936172280124,-0.10215088761960156,0.04162594297894012,-0.29438040011351524,0.005506961583956045
29,29,24626.598816648377,1111.3665205812083,9.687507663725471,24746.20080838626,-7097.421281459943,10.946812662638695,24779.88615640423,41595.97729687784,10.82249896488004,24807.30135639943,-3017.9770010425123,6.0102880486721775,25022.83551209554,5363.401180198789,38.69629329245569,0.9904278437241194,121.0,91.0,81.0,253.0,334.0,30.0,800.0,801.0,30.0,15.0,15.0,0.5,35.35286571925333,1002.4314566225128,22.0,13.0,9.0,0.5909090909090909,595.850950385132,2273.825678483497,26.0,13.0,13.0,0.5,1738.7900725376016,41066.94490848832,10.0,2.0,8.0,0.2,848.9003118854658,12234.171754903737,103.0,58.0,45.0,0.5631067961165048,37.7829496519004,5573.823567332735,0.0,0.0,0.0,0.0,24612.0,24642.0,24733.0,24755.0,24767.0,24793.0,24805.0,24814.0,24968.0,25067.0,0.03181026696824099,-0.08395316083908227,0.04180188050703917,-0.2812812395827492,0.007044587638044264
30,30,25431.944126542887,994.3022817887046,7.717877963254053,25552.322570388773,-7094.369872548112,11.405363554205293,25584.813222129666,40844.8936660004,10.77323382910457,25612.30135639943,-3321.9779945300297,6.390667835559628,25819.104245877945,5199.235293780851,40.38313295201742,0.9885330364769024,119.0,96.0,81.0,251.0,332.0,23.0,806.0,805.0,23.0,12.0,11.0,0.5217391304347826,51.24957339036415,939.3164048800862,21.0,13.0,8.0,0.6190476190476191,637.5298581480131,1724.802403183097,26.0,13.0,13.0,0.5,1734.7502372231916,40307.25531537473,11.0,3.0,8.0,0.2727272727272727,840.4407215938061,12395.662173941424,108.0,55.0,53.0,0.5092592592592593,30.277742560850765,5343.719306626668,0.0,0.0,0.0,0.0,25420.0,25443.0,25539.0,25560.0,25572.0,25598.0,25610.0,25620.0,25765.0,25871.0,0.05154325231776447,-0.08986419789232515,0.04247165512067941,-0.2529940664801742,0.005823499197481594
31,31,26236.31699833665,1259.104344037886,10.775876272536122,26357.453987738372,-6564.547396133203,9.283450423220742,26390.31431027666,41400.895103144525,10.724313464048503,26417.72601729957,-2697.084028809076,5.289883649864862,26622.667745453888,5421.937860638809,44.61823104945636,0.992232058590556,124.0,95.0,77.0,256.0,333.0,29.0,801.0,806.0,30.0,15.0,15.0,0.5,47.566711067456694,1248.7896594646252,19.0,11.0,8.0,0.5789473684210527,622.4598255490057,1257.1104240123836,27.0,13.0,14.0,0.4814814814814814,1717.154521580912,41590.78825882598,8.0,3.0,5.0,0.375,793.521950045755,10979.098716489609,112.0,56.0,56.0,0.5,24.351944847587976,5553.301373051863,0.0,0.0,0.0,0.0,26222.0,26251.0,26346.0,26365.0,26377.0,26404.0,26416.0,26423.0,26569.0,26679.0,0.037778212181297524,-0.09482143824807496,0.04147626560495521,-0.2942147673449175,0.004491372913801496
32,32,27048.7609675314,929.0828128640104,7.579927315545879,27172.397287201147,-6793.275426289788,15.477114570001849,27201.49802505402,41223.02150381248,11.070635881700737,27228.876695499283,-4184.533797388283,6.733510263476783,27436.832568451435,5021.050164020475,40.55656415697201,0.9892660312656388,120.0,97.0,80.0,253.0,333.0,23.0,815.0,812.0,23.0,12.0,11.0,0.5217391304347826,47.4550206089035,878.7226348624639,21.0,16.0,5.0,0.7619047619047619,800.7218917463113,2213.9600316850415,26.0,12.0,14.0,0.4615384615384615,1720.2202622451994,41935.561727843015,12.0,3.0,9.0,0.25,864.8027639922468,12909.699538750816,108.0,54.0,54.0,0.5,24.59881244133815,5026.598195913396,0.0,0.0,0.0,0.0,27037.0,27060.0,27157.0,27177.0,27189.0,27215.0,27226.0,27237.0,27386.0,27490.0,0.05107727745239162,-0.11786978173261453,0.041729601554949244,-0.20666645458378208,0.004899136960950275
33,33,27845.82952774497,1030.314553129547,8.202187780293333,27967.391743718,-6238.054090307565,12.086948578066298,28000.399881537604,41070.57662323775,10.934013313449576,28028.30135639943,-3046.174197724701,6.6257956066553,28236.297402590884,5228.365673614086,42.6131682739966,0.9929001272018948,120.0,97.0,82.0,251.0,333.0,23.0,796.0,798.0,24.0,12.0,12.0,0.5,48.7505253111811,1014.1928906175864,21.0,13.0,8.0,0.6190476190476191,586.5264267489134,1257.9598071927778,27.0,13.0,14.0,0.4814814814814814,1703.6570432884089,41697.242059467506,11.0,3.0,8.0,0.2727272727272727,801.7933861311433,11919.246654549135,106.0,54.0,52.0,0.5094339622641509,36.49151108963873,5490.972906870617,0.0,0.0,0.0,0.0,27834.0,27857.0,27954.0,27975.0,27987.0,28014.0,28026.0,28036.0,28184.0,28287.0,0.04731615715133108,-0.09402394052020714,0.04148120585004105,-0.2632132419511767,0.006979525413419319
34,34,28655.55936281841,1028.4709580856031,8.377021222385586,28777.84738831823,-7061.682180202733,12.455831319220811,28810.48129921917,41421.906471425915,10.973471611320884,28838.30135639943,-3192.3860789287783,6.543134860999439,29045.121189185757,5434.230956742508,42.54641101344804,0.9907232977243504,122.0,97.0,81.0,253.0,334.0,25.0,811.0,810.0,25.0,13.0,12.0,0.52,47.93086883471639,960.802987167599,21.0,14.0,7.0,0.6666666666666666,672.523890996333,1105.8669144429075,26.0,12.0,14.0,0.4615384615384615,1724.1318112977092,42371.24527108976,10.0,2.0,8.0,0.2,826.2502016636086,12164.2262785751,110.0,55.0,55.0,0.5,30.604568264142472,5579.529965707106,0.0,0.0,0.0,0.0,28643.0,28668.0,28765.0,28785.0,28798.0,28824.0,28836.0,28846.0,28993.0,29099.0,0.046604008074214325,-0.09523564978352304,0.041623671099906216,-0.2588190091158589,0.005631812211840193
35,35,29469.765840849333,1183.9567582235516,9.311303863497358,29590.21554974625,-7029.536114248675,10.55784111711642,29623.003026454848,41316.077354959045,10.803532016100451,29650.30135639943,-3003.492688176391,5.98621362553081,29858.287546694675,5405.564183727325,42.78186946249044,0.991587048127523,121.0,95.0,79.0,254.0,333.0,26.0,814.0,812.0,27.0,14.0,13.0,0.5185185185185185,47.35901858542388,1124.6444189198903,20.0,12.0,8.0,0.6,642.6154836543687,1502.89429306278,26.0,13.0,13.0,0.5,1732.0022418980554,41100.2376334311,10.0,2.0,8.0,0.2,850.3324449669971,12235.45395292931,111.0,57.0,54.0,0.5135135135135135,26.8844926441939,5473.963161067006,0.0,0.0,0.0,0.0,29457.0,29483.0,29578.0,29598.0,29610.0,29636.0,29648.0,29657.0,29805.0,29911.0,0.04000063199646155,-0.09141648512933946,0.0419207812740279,-0.2831145380557884,0.004973485048078017
36,36,30956.033528316784,1293.492656028697,10.489918922984373,31076.130829233556,-5966.784410558287,10.795456005522407,31108.689412698805,37842.07708661231,10.850188918752709,31135.30135639943,-3344.289617169196,5.72988824784366,31339.287546694675,4882.134662553059,43.05223393187748,0.9930940587330443,122.0,93.0,79.0,249.0,328.0,29.0,1486.0,1486.0,29.0,14.0,15.0,0.4827586206896552,46.42322597631699,1259.9763511663814,20.0,12.0,8.0,0.6,585.0014852890915,630.8882820612221,26.0,13.0,13.0,0.5,1589.4985775619473,36910.55365682012,10.0,2.0,8.0,0.2,863.2947358472661,12151.75774707115,113.0,58.0,55.0,0.5132743362831859,24.51216782937557,4942.698331988457,0.0,0.0,0.0,0.0,30942.0,30971.0,31064.0,31084.0,31096.0,31122.0,31133.0,31143.0,31285.0,31392.0,0.03588982570557947,-0.09804300692579496,0.042003470737716896,-0.2581399444041003,0.005020788962948679
37,37,0.0,0.0,0.0,0.0,0.0,0.0,0.0,0.0,0.0,0.0,0.0,0.0,0.0,0.0,0.0,0.0,0.0,0.0,0.0,0.0,0.0,0.0,0.0,0.0,0.0,0.0,0.0,0.0,0.0,0.0,0.0,0.0,0.0,0.0,0.0,0.0,0.0,0.0,0.0,0.0,0.0,0.0,0.0,0.0,0.0,0.0,0.0,0.0,0.0,0.0,0.0,0.0,0.0,0.0,0.0,0.0,0.0,0.0,,31410.0,31753.0,31775.0,31787.0,31813.0,31824.0,31836.0,31983.0,32078.0,,,,,
38,38,32326.404261529504,1103.050155561706,9.27215440385763,32447.957360778117,-6881.348449917372,10.32153719072299,32480.953585838415,41725.08218161284,10.803005672001166,32508.30135639943,-2945.5601274624937,5.7265262989284755,32709.984339741754,5041.739007475447,41.26203140838202,0.9917931867985712,123.0,96.0,79.0,247.0,326.0,27.0,1369.0,1372.0,27.0,13.0,14.0,0.4814814814814814,43.67854460891778,1059.9000841502798,20.0,12.0,8.0,0.6,648.7056860141082,1149.2341861092557,26.0,13.0,13.0,0.5,1738.931870205271,41307.74403321187,9.0,2.0,7.0,0.2222222222222222,856.8990934107964,12146.0777150111,107.0,54.0,53.0,0.5046728971962616,27.084112761552262,5169.630979984862,0.0,0.0,0.0,0.0,32313.0,32340.0,32436.0,32456.0,32468.0,32494.0,32506.0,32515.0,32659.0,32762.0,0.039597967860922303,-0.09427014061784614,0.04167593637410673,-0.2909121037529075,0.005371978343463302
39,39,33033.9814747137,806.2337469034945,6.874445361973428,33164.39728720114,-7111.4889836084885,17.641847191826574,33193.38861563749,43089.22002530268,11.129428094105316,33221.30135639943,-3532.1483697741555,6.535655769951552,33425.80855340958,5076.912933040511,38.16814125569605,0.9886354873193124,125.0,104.0,81.0,246.0,327.0,21.0,709.0,714.0,22.0,11.0,11.0,0.5,48.20688731711415,788.9104800734772,22.0,17.0,5.0,0.7727272727272727,842.6963013200116,2330.1193686514252,26.0,12.0,14.0,0.4615384615384615,1747.7880891729988,43160.434577985754,11.0,3.0,8.0,0.2727272727272727,858.9869095698504,12702.292661112484,103.0,52.0,51.0,0.5048543689320388,28.090315350219136,5138.621936777654,0.0,0.0,0.0,0.0,33023.0,33044.0,33148.0,33169.0,33181.0,33207.0,33219.0,33229.0,33377.0,33475.0,0.05979269349895431,-0.11849787059536629,0.04056207302305935,-0.24319106097595036,0.005532951957361249
40,40,33865.87095463451,1621.58922163783,12.008137594274071,33994.56165535249,-6679.883096264623,9.325262902776366,34027.29734056304,42416.64951148929,10.759445723775375,34054.726017299574,-2251.1153558302303,4.860849581214672,34266.86288579454,5547.789352117131,49.51001082274541,0.9876901473213996,133.0,101.0,76.0,262.0,338.0,32.0,833.0,833.0,32.0,16.0,16.0,0.5,50.73609594863889,1580.868295749075,19.0,12.0,7.0,0.631578947368421,695.0471355320304,4.873502016997918,27.0,13.0,14.0,0.4814814814814814,1750.394495270951,42674.67023038844,7.0,2.0,5.0,0.2857142857142857,792.15089441309,10672.226702836577,124.0,68.0,56.0,0.5483870967741935,21.595209634658264,5576.0458248414125,0.0,0.0,0.0,0.0,33850.0,33882.0,33983.0,34002.0,34014.0,34041.0,34053.0,34059.0,34204.0,34321.0,0.0312878842999429,-0.10405079333210178,0.041266684555007725,-0.35189262618704764,0.003892579235442161
41,41,34788.533657604705,1054.6983226407149,7.758197623810948,34911.85271268125,-7269.322141071187,11.275561037133253,34945.11300316233,41057.46294649438,10.89563344193819,34972.30135639943,-3324.065963056532,6.1231616324208336,35187.677595047135,4530.344319762773,39.52300896796601,0.9932658651016952,122.0,99.0,81.0,256.0,337.0,23.0,923.0,918.0,23.0,12.0,11.0,0.5217391304347826,54.295287816618234,1021.0397786417986,21.0,13.0,8.0,0.6190476190476191,651.0021482749679,1862.0641109575909,27.0,13.0,14.0,0.4814814814814814,1717.6490879936014,41125.59424049244,10.0,2.0,8.0,0.2,871.4705283545268,12623.438745798194,102.0,53.0,49.0,0.5196078431372549,30.364024035495245,4763.5283655252315,0.0,0.0,0.0,0.0,34777.0,34800.0,34899.0,34920.0,34932.0,34959.0,34970.0,34980.0,35138.0,35236.0,0.051479448341849726,-0.0895547254119953,0.041835246620864575,-0.2621700465754884,0.006702365624404731
42,42,35731.72818318693,1949.2817639495415,16.74603901187242,35853.44716636645,-6510.403132915694,8.52124041538911,35886.94603542127,42304.88350774634,10.590377663769177,35938.50702770762,729.6864735622659,73.5151842435648,36122.090192482196,5441.3347559731665,52.07276442816458,0.9937452792423248,130.0,89.0,392.0,-50.0,342.0,41.0,942.0,941.0,41.0,19.0,22.0,0.4634146341463415,46.32085179164384,1981.4467622077864,18.0,10.0,8.0,0.5555555555555556,601.4507238431523,1116.0815962746235,27.0,13.0,14.0,0.4814814814814814,1713.9568899345388,42116.82497342036,296.0,21.0,275.0,0.0709459459459459,54.58136945112312,491.0339145322647,134.0,70.0,64.0,0.5223880597014925,26.804262692501165,5616.611505880564,0.0,0.0,0.0,0.0,35713.0,35754.0,35843.0,35861.0,35874.0,35901.0,35863.0,36235.0,36056.0,36185.0,0.023763035518164773,-0.09238302322667255,0.04051439805101226,0.0748011254541442,0.004926045519084646
43,43,36665.47953204477,1318.8610965116352,8.564796063940765,36783.00485010593,-7015.488187540629,11.1079270018847,36815.15218086416,40676.16780049035,10.908841584862843,36842.30135639943,-3250.6583179041227,6.611899767737456,37055.43822489439,4618.429508727741,43.41043919710116,0.993544553911598,117.0,92.0,81.0,260.0,341.0,25.0,934.0,929.0,25.0,12.0,13.0,0.48,58.709406745105234,1309.535354865215,20.0,13.0,7.0,0.65,680.940872419869,733.6850591937268,27.0,13.0,14.0,0.4814814814814814,1711.9012709309752,40935.89115238335,12.0,2.0,10.0,0.1666666666666666,856.6452712184235,12595.27409022294,113.0,56.0,57.0,0.495575221238938,21.53976678044607,4588.409409496804,0.0,0.0,0.0,0.0,36653.0,36678.0,36770.0,36790.0,36802.0,36829.0,36840.0,36851.0,37000.0,37111.0,0.04451523128583488,-0.09706250715797751,0.04208610012938186,-0.26352977995261884,0.0046638725869348
44,44,37559.2794531373,1457.0023809630177,9.948273861721118,37678.09536756368,-6773.187176914616,10.03512579056756,37711.555140565986,41461.13981195107,10.85366378535242,37739.726017299574,-2343.0687531532053,5.846114808268621,37949.013563994245,5078.638773373268,46.96265242019326,0.9939261927440906,120.0,93.0,79.0,261.0,340.0,27.0,894.0,896.0,27.0,13.0,14.0,0.4814814814814814,60.43449337230307,1432.0229354146422,20.0,12.0,8.0,0.6,619.596296870688,1498.0431091756927,27.0,14.0,13.0,0.5185185185185185,1703.3252074995582,40107.63435488059,9.0,3.0,6.0,0.3333333333333333,717.0171277606572,10214.960363419566,122.0,64.0,58.0,0.5245901639344263,21.77374017543543,5131.190338884724,0.0,0.0,0.0,0.0,37546.0,37573.0,37666.0,37686.0,37698.0,37725.0,37738.0,37745.0,37888.0,38006.0,0.04147865107286812,-0.09147780515832904,0.04108245010207315,-0.30601625615796596,0.004287318147057968
45,45,38452.37365525851,1938.1329925758555,14.986188208224544,38571.41597366376,-6594.858894865058,8.632726529451311,38604.64434919348,42249.081019150995,10.69210697810689,38667.53206408292,-177.9232926799635,2.768887405366379,38838.53977870791,5393.194869908121,51.964734365048805,0.9943301253454512,126.0,88.0,111.0,229.0,340.0,38.0,893.0,893.0,38.0,18.0,20.0,0.4736842105263157,44.2324779780229,1950.255264659369,19.0,11.0,8.0,0.5789473684210527,622.5965688057036,1308.4363199973482,27.0,14.0,13.0,0.5185185185185185,1707.0310473192667,40878.63343628881,9.0,5.0,4.0,0.5555555555555556,42.7768732870843,347.14141310405034,127.0,64.0,63.0,0.5039370078740157,30.40687573704942,5575.5146476784885,0.0,0.0,0.0,0.0,38434.0,38472.0,38560.0,38579.0,38591.0,38618.0,38663.0,38671.0,38781.0,38900.0,0.022822209903787968,-0.09440635178570306,0.04040398053973033,-0.24042312078851008,0.005638007984229843
46,46,39295.526621780096,1189.407990330638,10.449255451727437,39414.41773717712,-6737.487453352509,11.09474275122906,39446.398775604146,39721.48490902372,10.72679231204021,39473.87669549929,-3075.6241504609698,6.339048953235476,39684.28754669468,5040.411473631454,42.30763145232851,0.9899619119521276,121.0,92.0,79.0,256.0,335.0,29.0,845.0,842.0,30.0,15.0,15.0,0.5,42.93914537460258,1122.0991289332765,20.0,12.0,8.0,0.6,635.2822874179126,1206.9078773876,26.0,12.0,14.0,0.4615384615384615,1693.384035181858,40469.115829704504,11.0,3.0,8.0,0.2727272727272727,774.7819292710556,11411.922900287687,114.0,60.0,54.0,0.5263157894736842,22.48837391003999,5016.885419125378,0.0,0.0,0.0,0.0,39281.0,39310.0,39402.0,39422.0,39434.0,39460.0,39471.0,39481.0,39628.0,39737.0,0.0361012753602455,-0.09429068207048048,0.04263143835282865,-0.2519104712956986,0.004461614697071119
47,47,40082.78577722305,1300.7987803552778,10.25019731641638,40201.610220285576,-6587.074101793676,10.73961250637539,40234.6599489533,40539.752273311744,10.78583945941164,40262.30135639943,-2682.6296811624893,5.5542593824772615,40467.013563994245,5164.314845995286,45.98053819320692,0.991937590532787,121.0,91.0,79.0,256.0,335.0,30.0,786.0,788.0,30.0,15.0,15.0,0.5,46.312578219464584,1224.1743351155185,20.0,13.0,7.0,0.65,638.1679790151103,739.880384579805,26.0,13.0,13.0,0.5,1692.4905665425172,39568.81826920605,8.0,2.0,6.0,0.25,808.5027596003541,11339.117014728728,120.0,62.0,58.0,0.5166666666666667,26.47896394916309,5236.424760692251,0.0,0.0,0.0,0.0,40068.0,40098.0,40189.0,40209.0,40222.0,40248.0,40260.0,40268.0,40409.0,40524.0,0.03560318391966478,-0.09688185818971363,0.04174891240410274,-0.3013844084696767,0.005127294663240069
48,48,40881.6729477072,871.7139544932502,7.712751996139056,41001.97850728575,-7088.820508214551,12.037863702654688,41034.84669294177,41265.154781826335,10.955923622075575,41062.30135639943,-2949.6438012048575,6.045730023891752,41274.13686849497,5142.542580322479,40.37381742581647,0.991211123957874,119.0,96.0,80.0,255.0,335.0,23.0,797.0,800.0,24.0,12.0,12.0,0.5,45.342950523039505,786.4364375704118,21.0,13.0,8.0,0.6190476190476191,653.6377828487275,1495.5986871807872,26.0,13.0,13.0,0.5,1717.6262833759122,40905.318292950265,10.0,2.0,8.0,0.2,841.8097185911388,12085.101251681914,107.0,57.0,50.0,0.5327102803738317,16.806920326891092,5088.707624373732,0.0,0.0,0.0,0.0,40870.0,40893.0,40989.0,41010.0,41022.0,41048.0,41060.0,41069.0,41218.0,41324.0,0.0520158594333832,-0.09220684627171609,0.04162413281756004,-0.28539368660286374,0.0032682121857777915
49,49,41715.28030429299,1587.3206363154525,12.72861657476912,41836.10615444602,-6815.051340877945,9.595033771009154,41868.903707546495,41908.50263261904,10.806278157440143,41896.726017299574,-2167.1609968720777,5.29480031156504,42104.069955170155,5530.812039525018,46.00515950135216,0.9939572476457128,126.0,91.0,78.0,259.0,337.0,35.0,836.0,834.0,35.0,17.0,18.0,0.4857142857142857,44.16882537256015,1556.6203668736496,20.0,12.0,8.0,0.6,659.3453134758997,913.1725260898492,26.0,13.0,13.0,0.5,1725.185308656968,41387.031086820825,7.0,2.0,5.0,0.2857142857142857,744.066765064441,10367.076310100869,117.0,59.0,58.0,0.5042735042735043,30.13461703266548,5737.0690657163705,0.0,0.0,0.0,0.0,41698.0,41733.0,41824.0,41844.0,41856.0,41882.0,41895.0,41902.0,42049.0,42161.0,0.027826026047948614,-0.09674840004814401,0.04116552012798921,-0.34333709684623004,0.005448497764399424
50,50,42573.02536498049,1496.7875503451965,12.151603839762856,42692.028606151005,-6301.331719959583,9.081645866997851,42724.43900784404,40922.69843597647,10.70862448098462,42752.15067819971,-2076.6497932809216,4.969278547016788,42955.73958129593,5319.805562097275,52.55691636413854,0.992329441832898,123.0,90.0,77.0,260.0,337.0,33.0,855.0,856.0,33.0,16.0,17.0,0.4848484848484848,42.906804428842435,1405.8728249358203,19.0,12.0,7.0,0.631578947368421,650.6960340574573,131.60744602339446,27.0,13.0,14.0,0.4814814814814814,1695.4714505639402,41483.87384839119,7.0,2.0,5.0,0.2857142857142857,770.4664651748349,10468.588369183546,129.0,66.0,63.0,0.5116279069767442,28.16883515193452,5531.654232668033,0.0,0.0,0.0,0.0,42557.0,42590.0,42680.0,42699.0,42711.0,42738.0,42751.0,42757.0,42896.0,43017.0,0.028665928186633473,-0.10326325655835031,0.04143107652630738,-0.37101415350229394,0.005295087352934995
51,51,43450.65041269249,1556.8609449964522,11.487897939139629,43571.07807676754,-6783.963425298908,9.346766063423209,43604.80061040762,42358.62764650972,10.620793646133093,43672.67578243374,-506.7312193251921,8.337364822988878,43841.86288579454,5282.222797150146,43.926445477727334,0.9945072454060668,124.0,94.0,123.0,213.0,336.0,30.0,881.0,880.0,30.0,15.0,15.0,0.5,52.23084649052975,1495.681521798317,19.0,11.0,8.0,0.5789473684210527,613.6917918471465,1756.2405817276444,26.0,13.0,13.0,0.5,1722.155427052352,41340.95042986293,26.0,14.0,12.0,0.5384615384615384,23.258007890868218,465.5246937838013,113.0,57.0,56.0,0.504424778761062,25.923460248177708,5365.837370017896,0.0,0.0,0.0,0.0,43436.0,43466.0,43560.0,43579.0,43592.0,43618.0,43659.0,43683.0,43788.0,43896.0,0.03354881928176879,-0.09046213155550831,0.040656544433498774,-0.04589811522140007,0.0049076802027668886
52,52,44353.196255802424,1315.0154066206835,10.382373698620126,44473.90168016687,-6936.199750268693,9.938316235340812,44506.677785596126,41811.226111537704,10.802914781529289,44534.726017299574,-2295.9695270033253,5.585422763346694,44741.54873384643,5535.662954582095,45.81325481878824,0.9927412803602288,123.0,95.0,78.0,259.0,337.0,28.0,900.0,902.0,29.0,14.0,15.0,0.4827586206896552,49.498936042695505,1295.0971328825644,19.0,12.0,7.0,0.631578947368421,671.2363971118684,849.2252328495738,26.0,13.0,13.0,0.5,1728.3707546018925,40826.20360585745,7.0,2.0,5.0,0.2857142857142857,729.7763873918419,10320.708999027054,120.0,61.0,59.0,0.5083333333333333,27.745732951771274,5613.733296851835,0.0,0.0,0.0,0.0,44339.0,44367.0,44462.0,44481.0,44494.0,44520.0,44533.0,44540.0,44685.0,44799.0,0.03764133545012791,-0.09677293349083066,0.0413374807519685,-0.3178510772067337,0.005012178880725567
53,53,45237.945630565715,1791.0247997922745,14.292675062915189,45358.46685197739,-6436.787140367332,8.997609139023032,45391.51497872682,42163.12659650891,10.794553294765535,45420.15067819971,-1557.4864360082022,4.753840832826471,45624.47595717169,5375.165629551499,49.72640856102891,0.9936641015637864,126.0,91.0,76.0,261.0,337.0,35.0,885.0,885.0,35.0,17.0,18.0,0.4857142857142857,49.00498524841725,1794.9473565050166,19.0,11.0,8.0,0.5789473684210527,619.5734849929291,1022.177828795322,27.0,14.0,13.0,0.5185185185185185,1717.3107460343551,40641.279256508125,4.0,1.0,3.0,0.25,710.3096291043058,9418.02175430282,122.0,60.0,62.0,0.4918032786885246,31.73377968893198,5631.557413767124,0.0,0.0,0.0,0.0,45221.0,45256.0,45347.0,45366.0,45378.0,45405.0,45419.0,45423.0,45568.0,45684.0,0.027361421937932357,-0.09625508370587063,0.04073015652915426,-0.45606151853547516,0.0059037770881824585
54,54,46149.27031995107,1562.9455572628087,11.782651243601046,46269.90512456984,-6905.661249905166,9.312085642016804,46303.53760327635,42579.54669532517,10.687859726167463,46372.246609001435,-348.1348196621191,8.522006901775509,46539.6739240291,5402.891472770068,45.14289230425144,0.9940718992626312,124.0,93.0,131.0,207.0,338.0,31.0,911.0,912.0,32.0,15.0,17.0,0.46875,50.43069114163855,1558.9755875422325,20.0,12.0,8.0,0.6,640.1883367515153,1483.8683865721932,27.0,14.0,13.0,0.5185185185185185,1721.6887781595751,41001.49108937234,31.0,14.0,17.0,0.4516129032258064,16.51248660326972,321.2525353389947,116.0,59.0,57.0,0.5086206896551724,26.279682410320888,5495.391629578668,0.0,0.0,0.0,0.0,46134.0,46165.0,46258.0,46278.0,46290.0,46317.0,46358.0,46389.0,46484.0,46596.0,0.03226644134038678,-0.09270485672321487,0.04043464319803575,-0.04743129865405549,0.00486400338462606
55,55,47080.12508862331,1529.312557128914,11.009605296435677,47199.0512596265,-6702.810695234932,9.80452493583376,47231.504763654426,40942.79672657574,10.681002287495629,47259.30135639943,-2665.4965229368804,5.723875453156251,47467.69571669922,5586.953954969239,46.08140099779623,0.9933357505615308,122.0,91.0,79.0,260.0,339.0,31.0,933.0,928.0,31.0,15.0,16.0,0.4838709677419355,50.785728822066865,1490.6530258271705,20.0,12.0,8.0,0.6,653.7354208052758,797.0301905005222,27.0,14.0,13.0,0.5185185185185185,1722.9943652754666,39553.417127288674,9.0,2.0,7.0,0.2222222222222222,795.1076811788357,11317.204475446248,118.0,59.0,59.0,0.5,24.1520739286786,5674.341879301746,0.0,0.0,0.0,0.0,47065.0,47096.0,47187.0,47207.0,47218.0,47245.0,47257.0,47266.0,47410.0,47526.0,0.03320820756053327,-0.09753153572873843,0.04208296704257823,-0.2982962740100577,0.004322941288463076
56,56,47960.28428025932,1461.2040455254908,12.92888981657647,48079.23232656137,-6357.567101732304,9.172441838295056,48112.48203790472,41401.61329159197,10.85316358288077,48140.726017299574,-2308.0438541431636,5.259265464651599,48349.28754669468,5393.26515753202,43.97987361254007,0.9936821088087976,124.0,90.0,77.0,257.0,334.0,34.0,878.0,881.0,34.0,16.0,18.0,0.4705882352941176,43.43088963036777,1464.438225572859,19.0,11.0,8.0,0.5789473684210527,613.7825309477619,864.5739403186408,27.0,13.0,14.0,0.4814814814814814,1677.0039223724928,41897.18463248949,7.0,3.0,4.0,0.4285714285714285,727.2439603394512,9966.64996462815,115.0,61.0,54.0,0.5304347826086957,23.64691879435171,5484.154951884628,0.0,0.0,0.0,0.0,47944.0,47978.0,48068.0,48087.0,48099.0,48126.0,48138.0,48145.0,48291.0,48402.0,0.029722672725525326,-0.09654361819956551,0.040505762675510676,-0.31509104951969497,0.004384527388075359
57,57,48834.70947826446,1489.4184649387796,11.77642998142883,48952.258525274025,-6521.274378895701,9.71375584949264,48985.65246914786,41516.593562940514,10.859317602748389,49013.726017299574,-2170.3355366183087,5.448657973081472,49220.86288579454,5343.80335170346,43.320983810466394,0.994043596056572,122.0,88.0,79.0,256.0,335.0,34.0,875.0,873.0,34.0,17.0,17.0,0.5,42.972735728412346,1392.026886872063,20.0,12.0,8.0,0.6,604.7910519272485,1256.9206011131032,27.0,14.0,13.0,0.5185185185185185,1696.0807256856435,40364.75805408835,7.0,2.0,5.0,0.2857142857142857,724.1118431518256,10095.172279992445,111.0,56.0,55.0,0.5045045045045045,27.704240667318903,5490.477507361618,0.0,0.0,0.0,0.0,48818.0,48852.0,48940.0,48960.0,48972.0,48999.0,49012.0,49019.0,49168.0,49275.0,0.028852022947210256,-0.09274123687917307,0.04085308018140577,-0.3336405043987322,0.0051843675457270595
58,58,49706.57349705894,1486.2168221651132,11.682558926090318,49824.40900142902,-6697.1192766685,9.732660659280375,49857.46623762269,41700.18063093276,10.810601440293564,49885.15067819971,-2151.898625112784,5.095930801726858,50092.264941088746,5720.534493531121,47.17104655686422,0.9929890156036928,121.0,89.0,78.0,260.0,338.0,32.0,872.0,872.0,32.0,16.0,16.0,0.5,46.46953942222935,1405.5463688916789,20.0,12.0,8.0,0.6,620.8952943021611,1441.886649543967,27.0,13.0,14.0,0.4814814814814814,1714.2958394101786,42364.84239808944,6.0,1.0,5.0,0.1666666666666666,784.66110285531,10887.48574259082,117.0,57.0,60.0,0.4871794871794871,30.07991393181449,5831.819011539141,0.0,0.0,0.0,0.0,49691.0,49723.0,49812.0,49832.0,49844.0,49871.0,49884.0,49890.0,50039.0,50150.0,0.03126699868363269,-0.09271080126424554,0.04111003390087312,-0.3646366486312453,0.005258234867009258
59,59,50567.64912001999,1898.811658178591,16.914316696412904,50687.01360870592,-6867.644698307127,9.146263276474606,50719.55640470935,41926.68870791623,10.78619460371776,50748.15067819971,-1822.0619305620803,5.095930801728098,50959.56152939511,5345.99263552199,41.328512949183605,0.9921151866308454,126.0,86.0,78.0,255.0,333.0,40.0,859.0,862.0,40.0,19.0,21.0,0.475,48.06612952907916,1948.9761556488131,19.0,12.0,7.0,0.631578947368421,683.2690808490858,546.9823483093164,27.0,14.0,13.0,0.5185185185185185,1720.3400604347453,40624.945529429824,7.0,2.0,5.0,0.2857142857142857,706.8024512281092,9870.623346945851,113.0,64.0,49.0,0.5663716814159292,20.42269842049833,5320.207607684034,0.0,0.0,0.0,0.0,50549.0,50589.0,50675.0,50694.0,50706.0,50733.0,50747.0,50753.0,50899.0,51008.0,0.02531379524770031,-0.09949103526242577,0.0410320994443314,-0.38791351675410435,0.003820188281741662
60,60,51237.767338189056,1239.5391189253928,4.937522176045674,51500.821948101286,-7757.725978622414,18.840343284669046,51528.92867960201,40963.99666384663,11.04136973082528,51555.87669549929,-3989.2707683418657,7.628877518263375,51774.26017299569,4695.554934532361,36.52124558746234,0.9853507693232528,254.0,238.0,82.0,251.0,333.0,16.0,674.0,810.0,16.0,8.0,8.0,0.5,120.4683723106734,687.2734631215233,23.0,18.0,5.0,0.782608695652174,910.813895035191,2822.447681009494,26.0,12.0,14.0,0.4615384615384615,1695.449209160971,39540.6823173866,14.0,3.0,11.0,0.2142857142857142,848.3703748480922,13074.304971188523,98.0,53.0,45.0,0.5408163265306123,21.198294751569833,4679.138360945444,0.0,0.0,0.0,0.0,51230.0,51246.0,51484.0,51506.0,51517.0,51543.0,51553.0,51566.0,51722.0,51817.0,0.09718803583634567,-0.11740733013064347,0.04138876445757829,-0.21266302141749982,0.004514545149002929
61,61,52195.936983817366,2419.2045221639087,17.01998544603767,52316.09896272628,-6217.941288077717,8.241609557581588,52348.967390091246,42104.07323827729,10.647364807652528,52400.93168860777,1940.7055630257648,137.59013164665905,52586.17418203986,6282.625720724993,49.332870118821575,0.9950854053944056,132.0,85.0,390.0,-55.0,335.0,47.0,960.0,819.0,47.0,21.0,26.0,0.4468085106382978,61.54222909740723,3308.6537364481164,15.0,9.0,6.0,0.6,645.6950158804943,1410.1341116748197,28.0,14.0,14.0,0.5,1692.9153185514276,43232.32247379335,350.0,77.0,273.0,0.22,52.03100579628314,1661.3682185051532,137.0,81.0,56.0,0.5912408759124088,25.068552352824707,7277.746382755411,0.0,0.0,0.0,0.0,52175.0,52222.0,52307.0,52322.0,52335.0,52363.0,52324.0,52697.0,52507.0,52642.0,0.025439035242195845,-0.10384385859650205,0.040207875113906534,0.02681035536125393,0.003990139388715947
62,62,53018.22774421743,467.80014184828434,4.876174851713703,53142.39728720114,-6751.823375094418,20.383723206912453,53172.01303040892,43147.72180700396,11.19161019412076,53200.30135639943,-3054.5020574676187,7.065912886546908,53408.11236519528,5208.13481110125,38.319392349219456,0.9863596765707222,116.0,100.0,82.0,250.0,332.0,16.0,820.0,824.0,16.0,8.0,8.0,0.5,48.10535443886594,511.0082897130292,23.0,17.0,6.0,0.7391304347826086,802.3473624483486,1637.708034919298,26.0,12.0,14.0,0.4615384615384615,1710.3155819335618,41860.21955724407,11.0,2.0,9.0,0.1818181818181818,799.8989224130422,12045.90685546671,103.0,52.0,51.0,0.5048543689320388,30.523331036866814,5322.910086204474,0.0,0.0,0.0,0.0,53010.0,53026.0,53126.0,53147.0,53160.0,53186.0,53198.0,53208.0,53359.0,53458.0,0.10283313350184348,-0.11883417528485458,0.03963860686744149,-0.26187539159040885,0.005860702947205914
63,63,53891.055669818175,1452.3561293114012,10.76845897193564,54010.60226264114,-6922.156034563784,9.296233931070851,54043.95428227378,42309.950128736185,10.692440499540275,54111.51727337789,-387.10537724249406,7.1118402511675685,54279.43822489439,5607.090395733292,45.606715024898946,0.9933842697969524,123.0,93.0,123.0,213.0,336.0,30.0,869.0,871.0,31.0,15.0,16.0,0.4838709677419355,51.3064873186189,1410.7740002450437,19.0,12.0,7.0,0.631578947368421,668.0290706719362,920.9620941096656,27.0,13.0,14.0,0.4814814814814814,1713.643386453885,41762.51918455554,23.0,13.0,10.0,0.5652173913043478,23.958775682285765,341.74542698656523,116.0,58.0,58.0,0.5,26.529661030454523,5649.00559659266,0.0,0.0,0.0,0.0,53876.0,53906.0,53999.0,54018.0,54031.0,54058.0,54099.0,54122.0,54224.0,54335.0,0.03532638192737521,-0.09650592493672872,0.04050213676073345,-0.06189212832163086,0.0047314487832481236
64,64,54786.33759781462,1653.032757479507,11.851716668572324,54906.9727777187,-6942.261740712752,9.283123095209865,54940.207491861074,42471.231276988125,10.807667324434862,55005.36491872252,-235.87938935750915,4.82589698621048,55175.11701182953,5445.598262155746,48.10195735754884,0.9942393174489508,124.0,92.0,118.0,220.0,338.0,32.0,897.0,897.0,32.0,15.0,17.0,0.46875,53.49336292283895,1658.297822573585,20.0,12.0,8.0,0.6,664.1264213502678,1089.0664812126952,27.0,13.0,14.0,0.4814814814814814,1706.967912970629,42549.228504942235,15.0,7.0,8.0,0.4666666666666667,29.079329334521617,346.2750858823706,120.0,60.0,60.0,0.5,27.63060853689843,5590.097485837872,0.0,0.0,0.0,0.0,54771.0,54803.0,54895.0,54915.0,54927.0,54954.0,54998.0,55013.0,55119.0,55233.0,0.032360739786187885,-0.09566427284864701,0.040191156734735466,-0.12328050116514296,0.005073934434149815
65,65,55669.932735449955,1912.2483624975473,16.43236562496143,55787.124969050485,-6529.40082568547,8.591485271662673,55819.625593170014,41648.04891346054,10.531592146009285,55884.67151561209,1082.4831709979496,71.04092208001757,56052.739581296286,6185.4821893941535,52.63889144111384,0.9941270476777532,125.0,85.0,379.0,-41.0,338.0,40.0,884.0,879.0,40.0,19.0,21.0,0.475,47.125152374463944,1946.8057755497712,18.0,11.0,7.0,0.6111111111111112,660.4406388963997,102.08588974395116,27.0,14.0,13.0,0.5185185185185185,1712.3579883019809,41133.756750807544,355.0,89.0,266.0,0.2507042253521127,25.12052155544887,771.2465447338961,142.0,79.0,63.0,0.5563380281690141,24.677066359195912,6327.349762682159,0.0,0.0,0.0,0.0,55651.0,55691.0,55776.0,55794.0,55806.0,55833.0,55765.0,56155.0,55979.0,56114.0,0.024643845066712345,-0.10114873577654275,0.041114962956849375,0.02320638530785663,0.003989513768467086
66,66,56527.79042233454,937.2715268641258,7.391454706839151,56650.821948101286,-7143.741195611071,16.291215930191395,56680.762983564266,42086.84973996517,11.305958434327986,56709.30135639943,-3050.2638093411165,7.173707045249753,56920.32057782934,4948.71838953229,36.61038000514925,0.9921241124600488,118.0,97.0,82.0,252.0,334.0,21.0,860.0,862.0,21.0,11.0,10.0,0.5238095238095238,52.74718395269676,893.096462919347,22.0,17.0,5.0,0.7727272727272727,824.5638113448367,2243.304636382248,27.0,13.0,14.0,0.4814814814814814,1696.6573719278824,41416.96939943037,10.0,2.0,8.0,0.2,783.1976598517962,11751.705954130988,99.0,49.0,50.0,0.494949494949495,24.630404369237265,4888.768557682542,0.0,0.0,0.0,0.0,56517.0,56538.0,56635.0,56656.0,56668.0,56695.0,56707.0,56717.0,56872.0,56969.0,0.05627737794316182,-0.11542464778139322,0.0403132423170356,-0.25676390922428893,0.004977127900697764
67,67,57402.49352868159,1945.643037273552,17.154247518553714,57521.40406478437,-6406.536555832178,8.223943165258152,57554.27570407036,43038.96931217576,10.819397094022197,57653.945498312525,1329.06721058303,64.38851791157084,57791.72836874321,6165.05699305216,45.27613207170829,0.9963497934081248,126.0,87.0,370.0,-34.0,336.0,39.0,872.0,873.0,39.0,18.0,21.0,0.4615384615384615,48.88409324742906,2034.547100583208,18.0,11.0,7.0,0.6111111111111112,658.1278681829509,250.48099192199103,27.0,13.0,14.0,0.4814814814814814,1713.0063541943348,43630.67954153998,344.0,124.0,220.0,0.3604651162790697,22.576471012891503,1508.67729965198,125.0,70.0,55.0,0.56,26.120772550592484,6448.373246757747,0.0,0.0,0.0,0.0,57384.0,57423.0,57510.0,57528.0,57541.0,57568.0,57530.0,57880.0,57724.0,57846.0,0.025124903340918485,-0.10272755996121266,0.039801286637915,0.016986703782262257,0.004236906906137257
68,68,58254.24366407676,1460.6210163409517,11.380505161357588,58373.03631183409,-6863.095978422621,10.040939140020797,58405.55683964709,41048.32927433034,10.765556102463192,58433.726017299574,-2066.48152940913,5.552959806364854,58640.92412067605,5516.701229524621,47.06855920916401,0.994441458491984,121.0,91.0,78.0,259.0,337.0,30.0,853.0,851.0,30.0,14.0,16.0,0.4666666666666667,50.43051831779034,1467.6969202304465,20.0,12.0,8.0,0.6,663.6346250778284,922.6690653122528,27.0,14.0,13.0,0.5185185185185185,1706.267258779941,39903.59910434384,7.0,2.0,5.0,0.2857142857142857,698.2615993990639,9868.267745588597,118.0,60.0,58.0,0.5084745762711864,27.667786653129134,5700.481956281674,0.0,0.0,0.0,0.0,58240.0,58270.0,58361.0,58381.0,58392.0,58419.0,58432.0,58439.0,58584.0,58698.0,0.034526764816875936,-0.09669610146270384,0.041567276645457986,-0.33789878567108134,0.005015277337307116
69,69,59132.66078187094,1172.8599580474747,9.02891978609544,59254.62548218939,-7307.118973762893,11.144261001052888,59287.77903131515,42045.21613366435,10.970417382821282,59316.30135639943,-2290.5218342213893,6.392118035219808,59521.66701077207,6062.130747834744,44.6790570392075,0.9902742430036992,122.0,96.0,80.0,256.0,336.0,26.0,877.0,882.0,27.0,14.0,13.0,0.5185185185185185,49.97825674482223,1083.859373790756,21.0,13.0,8.0,0.6190476190476191,683.7908041766216,1167.4634268961363,26.0,13.0,13.0,0.5,1725.3709079065002,41472.891305714766,8.0,2.0,6.0,0.25,744.7835064287195,10848.796077037588,117.0,59.0,58.0,0.5042735042735043,25.45111727929625,6084.011624756209,0.0,0.0,0.0,0.0,59120.0,59146.0,59242.0,59262.0,59275.0,59301.0,59314.0,59322.0,59464.0,59578.0,0.042612296891799274,-0.09357871503555044,0.04103608130878526,-0.3251588765936788,0.004198378150848497
70,70,60050.59060588281,1435.945131691777,11.044316632023348,60172.05718618693,-6908.700112332237,9.64787553260147,60205.72979536301,42414.790247276025,10.73690215738083,60271.972626301,-286.1315030258766,6.537761803878179,60443.86288579454,5640.686651481091,44.54222859518912,0.9933958084609495,124.0,94.0,123.0,215.0,338.0,30.0,918.0,918.0,31.0,16.0,15.0,0.5161290322580645,47.76470051516949,1344.828530771809,20.0,12.0,8.0,0.6,622.4277574827919,1664.2734776731313,27.0,14.0,13.0,0.5185185185185185,1711.350022791048,41353.10937617178,23.0,11.0,12.0,0.4782608695652174,24.17495580102619,368.1206917502178,112.0,57.0,55.0,0.5089285714285714,24.080121036044723,5749.839424041379,0.0,0.0,0.0,0.0,60036.0,60066.0,60160.0,60180.0,60192.0,60219.0,60262.0,60283.0,60389.0,60498.0,0.03326359723709979,-0.09009332397736293,0.04034795440019782,-0.0844889693912519,0.004269005269016661
71,71,61016.65937400856,1645.556262086645,12.447603675165103,61137.34448609323,-6675.817471252884,9.294932386013947,61169.781768252054,41527.54901538261,10.745811938960276,61197.726017299574,-2124.5187434126415,5.321638208900011,61406.5889030941,5653.283079844111,47.10718580610105,0.9939338547274033,126.0,93.0,77.0,262.0,339.0,33.0,968.0,964.0,33.0,17.0,16.0,0.5151515151515151,49.83345016273286,1574.7647686342982,19.0,11.0,8.0,0.5789473684210527,652.4860740205605,789.908144281278,26.0,13.0,13.0,0.5,1719.864802781513,40714.77100753222,7.0,2.0,5.0,0.2857142857142857,725.8912238236909,10123.72592002856,120.0,61.0,59.0,0.5083333333333333,24.72906057205931,5749.642790074176,0.0,0.0,0.0,0.0,61000.0,61033.0,61126.0,61145.0,61157.0,61183.0,61196.0,61203.0,61350.0,61465.0,0.03028365016188607,-0.0977387528688835,0.041415032756795776,-0.34167325003576227,0.004374283088746586
72,72,61936.160301034215,1585.5203227632785,12.757438897249443,62055.2137391832,-6434.923337355519,9.316122975905786,62088.13072919508,41307.48216554964,10.824596667414998,62116.15067819971,-1890.3457425716203,4.9639930183946746,62323.11764316032,5545.025978981405,47.65364761223488,0.9944503734703392,123.0,90.0,77.0,261.0,338.0,33.0,917.0,919.0,33.0,16.0,17.0,0.4848484848484848,45.539845690918746,1550.1195766763844,20.0,12.0,8.0,0.6,630.9720893602511,758.0557936379182,27.0,13.0,14.0,0.4814814814814814,1685.5592525845605,41231.6114493918,6.0,1.0,5.0,0.1666666666666666,752.0469116218787,10151.229252042627,119.0,60.0,59.0,0.5042016806722689,31.166485950576803,5751.007789318626,0.0,0.0,0.0,0.0,61920.0,61953.0,62043.0,62063.0,62075.0,62102.0,62115.0,62120.0,62268.0,62381.0,0.028722334893538884,-0.09805432889889779,0.040805180180899854,-0.39783564174815794,0.005620620366561734
73,73,62879.0222781524,1554.1727674196495,12.417143120174105,63000.35553729144,-6664.5610681811095,9.062053862308218,63033.91719201883,42649.179344652315,10.774286094145335,63103.02075097798,-138.3497902425664,4.95573919202246,63270.79144453147,5924.883467013287,46.15548682883298,0.9938938675718472,126.0,93.0,121.0,218.0,339.0,33.0,945.0,945.0,33.0,16.0,17.0,0.4848484848484848,47.883253711327214,1553.5982669551986,19.0,11.0,8.0,0.5789473684210527,616.3899511759714,1492.4181150710542,28.0,14.0,14.0,0.5,1706.276865061356,41922.4678528759,17.0,9.0,8.0,0.5294117647058824,18.940318968369414,174.45815640947546,117.0,59.0,58.0,0.5042735042735043,27.48051826496661,6092.341732910091,0.0,0.0,0.0,0.0,62863.0,62896.0,62989.0,63008.0,63020.0,63048.0,63094.0,63110.0,63216.0,63328.0,0.030809479303144958,-0.09248770397180807,0.04000726136540074,-0.13690168185410087,0.004638153377693256
74,74,63841.98782787688,1268.4955940655825,9.988282524735911,63961.224126652654,-7027.565467319499,10.332299834994457,63993.94377072465,41493.25536233885,10.828633893369066,64021.726017299574,-2495.487091148008,5.65665992715368,64230.28787461582,5798.555426965763,43.86754569885282,0.9923369748951522,121.0,93.0,79.0,258.0,337.0,28.0,963.0,960.0,28.0,14.0,14.0,0.5,45.63961544436392,1231.299319695379,20.0,12.0,8.0,0.6,653.4059564405203,1368.6639540708352,26.0,13.0,13.0,0.5,1720.5493974376766,41194.62982307238,8.0,2.0,6.0,0.25,754.3549933977075,10715.58082195358,114.0,56.0,58.0,0.4912280701754385,27.990823126479395,5884.618493879975,0.0,0.0,0.0,0.0,63828.0,63856.0,63949.0,63969.0,63981.0,64007.0,64020.0,64028.0,64176.0,64286.0,0.03597932516114384,-0.09297756946969386,0.04146576069804648,-0.302287676050722,0.0048272062721535945
75,75,64726.56366811319,1805.8013906484084,16.476469115589552,64846.06171836699,-6067.809905241994,8.666012060781538,64878.536328791415,41130.735244708536,10.7567635747834,64907.15067819971,-1546.0863315869206,4.64330894597021,65108.22724022951,5867.486244760348,51.5971449278899,0.9935484050954428,127.0,88.0,75.0,260.0,335.0,39.0,884.0,885.0,39.0,19.0,20.0,0.4871794871794871,43.32054330659346,1809.8141178647063,18.0,11.0,7.0,0.6111111111111112,650.0028521582454,157.54771928695664,27.0,14.0,13.0,0.5185185185185185,1678.4759327039958,39654.55582535059,4.0,1.0,3.0,0.25,698.6245491732318,9176.084211511672,125.0,62.0,63.0,0.496,28.403775528492556,6103.962798742417,0.0,0.0,0.0,0.0,64708.0,64747.0,64835.0,64853.0,64865.0,64892.0,64906.0,64910.0,65050.0,65170.0,0.02398964998639101,-0.10712314036019925,0.040808313362692236,-0.45186645460875113,0.004840876372544898
76,76,65617.92902744722,1535.9945936222175,12.602865617940267,65740.19710207048,-6763.464673013802,9.392153436843367,65774.08574390541,42773.28376777394,10.771406815791693,65840.972626301,-263.8894507750811,6.401151563475772,66012.19691820502,5973.739452551147,43.68513140648772,0.9934947244394612,127.0,94.0,123.0,214.0,337.0,33.0,890.0,896.0,35.0,17.0,18.0,0.4857142857142857,44.568937460603635,1489.4670651094805,19.0,11.0,8.0,0.5789473684210527,607.6764353114411,1716.69330094316,27.0,13.0,14.0,0.4814814814814814,1711.684286336014,42438.17486727651,21.0,10.0,11.0,0.4761904761904761,22.27428503192076,400.5271379423343,108.0,53.0,55.0,0.4907407407407407,29.465777791869883,6194.492648243417,0.0,0.0,0.0,0.0,65602.0,65635.0,65729.0,65748.0,65761.0,65788.0,65831.0,65852.0,65960.0,66066.0,0.029016337456956896,-0.08984691496003043,0.04001760294180696,-0.08440763723785848,0.004932551549312419
77,77,66520.7117449921,2217.798074011191,34.73213311753748,66646.39006316385,-5782.281260496707,8.210836958266867,66680.09197525123,43204.410061638446,10.887634628104836,66809.35659521841,1679.50093015014,68.38616523560536,66922.21812420693,6288.526514815123,41.0046220636282,0.9958382231623284,140.0,85.0,373.0,-37.0,336.0,55.0,907.0,906.0,56.0,27.0,29.0,0.4821428571428571,32.70471442323138,2762.551221892314,18.0,11.0,7.0,0.6111111111111112,593.8457236262352,298.90060063107967,28.0,14.0,14.0,0.5,1702.790559408494,43150.08387837118,217.0,31.0,186.0,0.1428571428571428,21.60935439459296,2254.8594434538154,119.0,69.0,50.0,0.5798319327731093,32.719693968620625,6863.258027813514,0.0,0.0,0.0,0.0,66495.0,66550.0,66635.0,66653.0,66666.0,66694.0,66627.0,67008.0,66854.0,66971.0,0.014746479765887988,-0.10270094048922535,0.03941242472653077,0.012866533150809972,0.00520307800110827
78,78,0.0,0.0,0.0,0.0,0.0,0.0,0.0,0.0,0.0,0.0,0.0,0.0,0.0,0.0,0.0,0.0,0.0,0.0,0.0,0.0,0.0,0.0,0.0,0.0,0.0,0.0,0.0,0.0,0.0,0.0,0.0,0.0,0.0,0.0,0.0,0.0,0.0,0.0,0.0,0.0,0.0,0.0,0.0,0.0,0.0,0.0,0.0,0.0,0.0,0.0,0.0,0.0,0.0,0.0,0.0,0.0,0.0,0.0,,67189.0,67524.0,67550.0,67561.0,67587.0,67597.0,67701.0,67781.0,67859.0,,,,,
79,79,68240.80039156316,2217.14621490143,19.139761426779824,68363.93256136116,-6366.869691538013,8.73509478536022,68397.16706229214,41835.88490642733,10.53400585723212,68448.50702770762,1727.669037126781,135.04216624579502,68635.19911191797,6406.259714874004,45.79908678748297,0.9953555318285908,133.0,88.0,367.0,-32.0,335.0,45.0,1721.0,1717.0,46.0,20.0,26.0,0.4347826086956521,59.74069717583246,3173.528431944229,17.0,10.0,7.0,0.5882352941176471,623.7225721333325,664.7871472009815,27.0,13.0,14.0,0.4814814814814814,1706.781741488276,43228.33109467928,341.0,76.0,265.0,0.2228739002932551,41.17789316814286,1669.688728557952,129.0,74.0,55.0,0.5736434108527132,31.89622006874051,7380.359392240947,0.0,0.0,0.0,0.0,68221.0,68266.0,68354.0,68371.0,68384.0,68411.0,68373.0,68721.0,68564.0,68689.0,0.026944861270003527,-0.09796377220697647,0.04079707517375974,0.02383436426957342,0.00497891460670633
80,80,69031.01417150183,1458.756104924033,13.565789668612013,69153.88928615663,-5676.0254279467645,9.694892809708428,69186.31425709712,39464.62873150051,10.624360211810068,69213.72601729959,-2383.903064802289,5.023597169310516,69424.98619029527,5630.216453628199,42.46285239111482,0.9890399407637024,127.0,93.0,76.0,254.0,330.0,34.0,786.0,789.0,34.0,16.0,18.0,0.4705882352941176,43.93726925207209,1505.3034889957512,19.0,12.0,7.0,0.631578947368421,605.3688874067568,130.10824471212777,27.0,13.0,14.0,0.4814814814814814,1655.669360225396,39686.04328542797,8.0,3.0,5.0,0.375,748.5689857855999,10241.004058029152,108.0,60.0,48.0,0.5555555555555556,11.33904732802936,5461.3329195711685,0.0,0.0,0.0,0.0,69015.0,69049.0,69142.0,69161.0,69173.0,69200.0,69212.0,69218.0,69367.0,69472.0,0.030119681490114614,-0.10665366022254448,0.041953248096917924,-0.3140098256670026,0.002013962948213528
81,81,69801.25974013408,605.931953134562,5.8035032108546805,69927.39728720114,-6612.876174409911,20.383723206912453,69956.65584161569,42054.582457452656,11.21517946763123,69984.87669549929,-3565.651181528327,7.469804429124484,70193.14635567584,4989.60028797968,34.92749434500474,0.9886789853128308,118.0,100.0,84.0,246.0,330.0,18.0,769.0,771.0,18.0,9.0,9.0,0.5,47.361360170683646,647.8955105771433,23.0,18.0,5.0,0.782608695652174,798.9525554591954,2137.66568007675,27.0,13.0,14.0,0.4814814814814814,1670.8405152665994,39921.50754847759,12.0,3.0,9.0,0.25,773.2132235588947,11943.25278495492,94.0,47.0,47.0,0.5,29.383396738892664,5062.074570184091,0.0,0.0,0.0,0.0,69792.0,69810.0,69910.0,69932.0,69944.0,69971.0,69982.0,69994.0,70148.0,70240.0,0.0781628364797027,-0.12081770993246953,0.03973028425515858,-0.21685049495713044,0.00588892797879611
82,82,70582.37809800298,1211.3321104033682,9.858784035922476,70705.73485046082,-6772.079272680729,10.48453604757534,70738.87176176561,41516.79969902847,10.89367794489866,70766.72601729959,-2610.3564120263413,5.872975768683645,70974.54904735417,5562.748692322879,41.19719364402432,0.9924030480744164,125.0,97.0,80.0,253.0,333.0,28.0,782.0,781.0,28.0,14.0,14.0,0.5,45.39448097540778,1179.9386209239592,20.0,13.0,7.0,0.65,651.9319092930339,813.1589201336674,26.0,13.0,13.0,0.5,1707.3762345031346,40959.54326419422,8.0,2.0,6.0,0.25,756.0032376370988,10846.488347788289,105.0,53.0,52.0,0.5047619047619047,32.14681120019653,5739.794998348796,0.0,0.0,0.0,0.0,70568.0,70596.0,70693.0,70713.0,70726.0,70752.0,70765.0,70773.0,70924.0,71026.0,0.03747484326184635,-0.09626761339356951,0.04112494813859867,-0.2896168638711815,0.00577894364427467
83,83,71406.5688061788,1008.4173000664712,8.994249190336344,71530.56390137668,-6979.722410938128,10.349727061657823,71563.11608198685,41466.10629444631,10.861986578370136,71590.72601729959,-2527.2200239516615,5.505545219235831,71791.17891658249,5768.971062191762,44.19439396988607,0.9883566859924408,125.0,98.0,78.0,252.0,330.0,27.0,824.0,825.0,27.0,14.0,13.0,0.5185185185185185,38.78999586136845,917.0092989159364,20.0,13.0,7.0,0.65,706.8573571265102,355.9122074246611,27.0,13.0,14.0,0.4814814814814814,1715.0581665494367,41548.75909713919,8.0,2.0,6.0,0.25,770.514762627551,10852.083662396097,102.0,44.0,58.0,0.4313725490196078,94.68328021626915,5602.598810058402,0.0,0.0,0.0,0.0,71393.0,71420.0,71518.0,71538.0,71550.0,71577.0,71589.0,71596.0,71747.0,71848.0,0.03846621419407577,-0.1012729898854965,0.041360482567883154,-0.3048863000945773,0.016412507394394323
84,84,72274.66139187427,1137.025803718721,8.641384154606504,72396.95159410674,-7233.773936767338,11.101249833799994,72430.25644837352,41616.61734564479,10.956043356252897,72458.30135639943,-2506.580225148191,6.07068680097893,72666.92711489776,5548.106218593792,39.074291062241635,0.989558751475516,122.0,97.0,80.0,254.0,334.0,25.0,869.0,867.0,26.0,13.0,13.0,0.5,49.44702420592518,1056.9583651173052,21.0,13.0,8.0,0.6190476190476191,649.8498793602394,1708.215859451313,27.0,13.0,14.0,0.4814814814814814,1710.473346600951,42015.49119508806,9.0,2.0,7.0,0.2222222222222222,784.9487015955657,11332.3783034524,105.0,53.0,52.0,0.5047619047619047,26.682503714793075,5536.566093801928,0.0,0.0,0.0,0.0,72262.0,72287.0,72384.0,72405.0,72417.0,72444.0,72456.0,72464.0,72616.0,72718.0,0.043488040503746966,-0.08983552500268584,0.041100729845357155,-0.31315522787592365,0.004809299365136515
85,85,73170.57323152952,1268.6924205974206,9.437014585604658,73291.97365191336,-7320.471174099976,10.26463098006977,73325.54591404505,42584.10067998052,10.631259129944878,73383.47940829814,-823.6064425754594,33.12355021123273,73561.91315043397,6107.133148521347,40.7800257939055,0.9918018032661582,123.0,96.0,139.0,195.0,334.0,27.0,897.0,895.0,27.0,14.0,13.0,0.5185185185185185,51.37341582230494,1191.573214018002,20.0,12.0,8.0,0.6,637.906563542498,2265.1440466199756,27.0,14.0,13.0,0.5185185185185185,1749.0712018021404,40868.51102698051,46.0,7.0,39.0,0.1521739130434782,45.13214954642595,1410.327569346672,106.0,53.0,53.0,0.5,29.197040389210027,6169.361181949793,0.0,0.0,0.0,0.0,73157.0,73184.0,73280.0,73300.0,73312.0,73339.0,73376.0,73419.0,73511.0,73614.0,0.0404931999184747,-0.08714009636421062,0.041073338966259004,-0.05479819876747857,0.004780809535203795
86,86,73976.6351008695,1129.3029589147973,9.12522395215982,74097.8336878709,-6586.358164777989,11.72550971514861,74129.39019057788,38962.218859733184,10.751940666557385,74156.30135639943,-3230.143720446258,6.143653629151909,74362.28754669469,5258.292390152782,42.24680596540644,0.9911008196206256,121.0,95.0,79.0,251.0,330.0,26.0,805.0,804.0,26.0,13.0,13.0,0.5,46.29576641732841,1049.247634506317,20.0,13.0,7.0,0.65,672.4490937505427,200.63265466557868,26.0,12.0,14.0,0.4615384615384615,1671.4913076177609,39748.494382293895,10.0,2.0,8.0,0.2,842.7361311703047,12270.1454302828,111.0,57.0,54.0,0.5135135135135135,24.63417054544704,5327.875760985088,0.0,0.0,0.0,0.0,73964.0,73990.0,74085.0,74105.0,74117.0,74143.0,74154.0,74164.0,74307.0,74415.0,0.04099499257649718,-0.10209725571054021,0.042900311032984306,-0.26089741017897405,0.0046848232691623455
87,87,74733.4677170057,1078.547346464671,9.65444524345143,74854.25250573042,-6749.718097753439,11.088168084502133,74887.21256819466,40668.80625782786,10.90234621866412,74914.72601729959,-2941.18503499612,6.086581410703564,75120.35815385214,5550.909156940861,39.208428275863305,0.9932940173071364,122.0,94.0,80.0,248.0,328.0,28.0,756.0,758.0,28.0,13.0,15.0,0.4642857142857143,41.97312940583511,1055.1029387539895,20.0,12.0,8.0,0.6,615.7128471558531,1464.8678542133248,27.0,13.0,14.0,0.4814814814814814,1688.8759930107087,40929.39924889404,9.0,2.0,7.0,0.2222222222222222,777.3713519067035,11308.60189524241,101.0,50.0,51.0,0.495049504950495,32.28144262871556,5714.851823733503,0.0,0.0,0.0,0.0,74720.0,74748.0,74842.0,74862.0,74874.0,74901.0,74913.0,74922.0,75072.0,75170.0,0.038916353133144524,-0.09122052776704638,0.0415275526481832,-0.26430549001747144,0.005815523496425954
88,88,75450.49589313817,1876.265306923918,11.79307558767391,75574.6260057322,-6803.389931311632,9.448562732250336,75607.44635794048,42219.68040981967,10.804250936608856,75635.15067819973,-1991.535043250251,4.953241208107812,75836.38866715002,5866.691907594359,43.24805397725508,0.9941387202451206,127.0,98.0,76.0,249.0,325.0,29.0,718.0,720.0,29.0,14.0,15.0,0.4827586206896552,66.95490712408423,1918.213702110494,19.0,12.0,7.0,0.631578947368421,693.402314577548,265.31309251692164,27.0,13.0,14.0,0.4814814814814814,1733.841437689213,42835.74131056524,5.0,1.0,4.0,0.2,787.9991073489841,10809.766259507547,103.0,49.0,54.0,0.4757281553398058,35.98872815351421,6311.630274790779,0.0,0.0,0.0,0.0,75436.0,75465.0,75563.0,75582.0,75594.0,75621.0,75634.0,75639.0,75789.0,75888.0,0.03568520234158933,-0.10192011946665923,0.041067137904860766,-0.3956742363232251,0.006134415905994187
89,89,76207.56757658797,1078.774670254975,7.71785881677404,76339.39728720114,-6943.501487273221,16.69760302593801,76368.29569329733,42881.606312241536,11.280756868387686,76396.30135639943,-3683.3051952706833,6.730271266819243,76602.6911393888,5261.17491163832,37.80970161956159,0.9906224290875424,127.0,105.0,81.0,249.0,330.0,22.0,756.0,761.0,22.0,12.0,10.0,0.5454545454545454,55.93053836945408,1056.6851387485556,22.0,17.0,5.0,0.7727272727272727,850.2340656617638,3083.3339562910237,26.0,12.0,14.0,0.4615384615384615,1727.5624429856396,43014.92192813,11.0,2.0,9.0,0.1818181818181818,862.8360436081342,12792.85163896548,101.0,50.0,51.0,0.495049504950495,28.791520045619563,5344.514362708071,0.0,0.0,0.0,0.0,76196.0,76218.0,76323.0,76344.0,76356.0,76382.0,76394.0,76404.0,76554.0,76653.0,0.05184635856924092,-0.12245033247564822,0.04028679407218165,-0.23425591903598014,0.005472450646324157
90,90,77050.61560600379,1603.546453726151,11.675136132035837,77177.63557995894,-6765.745351804443,9.665676246523192,77210.58490591931,41830.064625331535,10.77641596626184,77238.72601729959,-2219.5751588999833,5.303217275585765,77447.12630198724,5681.239727207351,43.18026220475724,0.9928892511117896,131.0,99.0,77.0,257.0,334.0,32.0,844.0,842.0,32.0,16.0,16.0,0.5,50.46149980423123,1531.4887925926562,19.0,12.0,7.0,0.631578947368421,676.642619202495,505.6916676856099,27.0,14.0,13.0,0.5185185185185185,1724.30672761481,40541.91329278989,6.0,2.0,4.0,0.3333333333333333,726.5648364234552,10069.05771551038,104.0,50.0,54.0,0.4807692307692308,38.682615585498056,6042.653169522715,0.0,0.0,0.0,0.0,77035.0,77067.0,77166.0,77185.0,77197.0,77224.0,77237.0,77243.0,77399.0,77500.0,0.03146868597849108,-0.10001006304826895,0.04122170843051007,-0.3273441016449018,0.006808833536850721
91,91,78022.90103588167,2222.9516876078555,19.33106562817154,78148.41781867613,-6732.503165428938,8.81926630225409,78181.4913255152,42142.20689982393,10.535430920509189,78245.8221938118,1185.8318409299166,122.86596671689814,78421.1868598029,5972.772862619327,48.17627045446905,0.9946061152976248,132.0,92.0,378.0,-37.0,341.0,40.0,976.0,971.0,42.0,19.0,23.0,0.4523809523809524,66.76586982131526,2879.974118393475,18.0,10.0,8.0,0.5555555555555556,617.4239254713542,591.4996612964933,27.0,13.0,14.0,0.4814814814814814,1724.3874844035847,43681.80823143231,355.0,88.0,267.0,0.2478873239436619,36.66273058838518,415.8087846606388,132.0,73.0,59.0,0.553030303030303,23.36014947982367,6499.601278103029,0.0,0.0,0.0,0.0,78006.0,78046.0,78138.0,78156.0,78168.0,78195.0,78129.0,78516.0,78350.0,78479.0,0.030034782219294565,-0.091707929472918,0.04091830047018229,0.03091730996161704,0.003911106284657744
92,92,78910.53038390784,752.2309887657342,6.54895813210006,79035.39728720114,-6879.463496383491,17.284050404644052,79064.03418538178,39757.74919904531,11.03265397030663,79090.87669549929,-4045.648529927242,6.957133281278987,79300.59530918128,4935.70738770877,40.636325366542295,0.9886767041620564,118.0,98.0,81.0,254.0,335.0,20.0,884.0,883.0,21.0,11.0,10.0,0.5238095238095238,48.633417130161085,695.3967790621082,22.0,17.0,5.0,0.7727272727272727,792.654773135848,2057.6640066861937,26.0,12.0,14.0,0.4615384615384615,1665.4029820618714,39158.357194525925,13.0,3.0,10.0,0.2307692307692307,852.7742604831449,12915.078645428604,109.0,55.0,54.0,0.5045871559633027,25.43358072210555,4975.457778323554,0.0,0.0,0.0,0.0,78901.0,78921.0,79019.0,79040.0,79052.0,79078.0,79088.0,79100.0,79249.0,79354.0,0.06465223828382706,-0.11522043449355372,0.04188876421862086,-0.21078802426232546,0.005152975799465333
93,93,79737.28854182565,1221.9126761761197,9.844273412898406,79857.66943850556,-6439.730674132835,10.61680851819021,79890.40294436543,40245.71055348065,10.82451099244332,79917.30135639943,-3286.1762719400485,5.810823273528085,80122.4955655448,5897.434679960955,43.25735185126834,0.9919889577157264,121.0,94.0,80.0,252.0,332.0,27.0,826.0,826.0,27.0,13.0,14.0,0.4814814814814814,48.15820737626469,1193.1728950974093,20.0,13.0,7.0,0.65,641.8549571866691,353.1626266309104,27.0,13.0,14.0,0.4814814814814814,1685.2882769414198,40789.2085755992,10.0,2.0,8.0,0.2,881.1741816658604,12500.182318088153,113.0,56.0,57.0,0.495575221238938,26.94174987453995,5939.239483928076,0.0,0.0,0.0,0.0,79724.0,79751.0,79845.0,79865.0,79877.0,79904.0,79915.0,79925.0,80068.0,80177.0,0.03941215138791427,-0.0996710871410939,0.04187497881797661,-0.2681457440947453,0.004568384617482245
94,94,81259.60034729417,1224.130559700399,10.502624828722672,81382.1792740179,-6072.302657963595,10.524618045375314,81415.13825961655,38312.98840673954,10.807791752985016,81442.30135639943,-3097.9555043107343,5.762803780644681,81646.93438266394,5603.347520201068,42.04478629399562,0.9924780089131972,125.0,95.0,79.0,250.0,329.0,30.0,1524.0,1525.0,30.0,15.0,15.0,0.5,43.26638790353603,1157.999030711116,20.0,12.0,8.0,0.6,574.1088409569638,1078.6279586851406,27.0,13.0,14.0,0.4814814814814814,1599.3294530768742,38259.59608534453,10.0,2.0,8.0,0.2,822.7275482303958,11679.73641348612,107.0,53.0,54.0,0.4953271028037383,31.102857391005788,5786.23418901609,0.0,0.0,0.0,0.0,81245.0,81275.0,81370.0,81390.0,81402.0,81429.0,81440.0,81449.0,81596.0,81699.0,0.03534458604981261,-0.09454549176728565,0.04174379289075608,-0.26557113137538263,0.005550763588885829
95,95,82038.88861076685,1044.3727321269864,8.906354950190314,82165.18285316434,-6755.238245156872,10.85229977944926,82198.29229931222,40848.12632748949,10.926493731975649,82225.72601729959,-2895.718763611947,5.842451067412876,82434.03265232168,5448.773326192362,38.455586926570085,0.9916806732891856,127.0,102.0,79.0,251.0,330.0,25.0,779.0,783.0,25.0,13.0,12.0,0.52,45.49667846252341,1034.136126811753,20.0,12.0,8.0,0.6,620.3309041005137,1423.856840708435,27.0,13.0,14.0,0.4814814814814814,1684.2465959151143,41224.94051929064,9.0,2.0,7.0,0.2222222222222222,788.0505377444484,11315.77418610058,100.0,50.0,50.0,0.5,30.053857026497734,5584.514197236795,0.0,0.0,0.0,0.0,82026.0,82051.0,82153.0,82173.0,82185.0,82212.0,82224.0,82232.0,82386.0,82483.0,0.043563640703127265,-0.09182961156777207,0.04123191801778359,-0.2721433267785581,0.005515710642986054
96,96,82937.67149681247,1565.250030411202,12.35100738983621,83064.06602732097,-6846.754236530166,9.951256039586038,83097.43810267247,42074.46810459301,10.863958011067847,83125.72601729959,-2291.360257003287,5.675458004132175,83334.45158498951,5611.065986520517,42.572738907151646,0.99293953915754,131.0,97.0,79.0,257.0,336.0,34.0,895.0,899.0,35.0,17.0,18.0,0.4857142857142857,42.747723266397976,1472.505235811434,20.0,12.0,8.0,0.6,635.0139707538605,1340.9298277942294,27.0,13.0,14.0,0.4814814814814814,1718.603901349769,42644.8584571421,8.0,3.0,5.0,0.375,723.9735192721407,10243.520794393518,109.0,54.0,55.0,0.4954128440366973,25.47585396130062,5691.954039692644,0.0,0.0,0.0,0.0,82921.0,82955.0,83052.0,83072.0,83084.0,83111.0,83124.0,83131.0,83282.0,83388.0,0.027310475921324757,-0.09274671600826674,0.04084671723187297,-0.3159579629870058,0.004540287714046021
97,97,83903.50841273475,1615.135363399964,13.566336881066372,84026.01264838755,-6430.219322208657,9.197726155516198,84058.48924145923,40770.655026020155,10.699755385303092,84085.72601729959,-2650.843274798751,5.296504217914758,84297.4382248944,5743.203604808324,46.3952380379935,0.9930308832470168,127.0,92.0,78.0,261.0,339.0,35.0,968.0,961.0,35.0,17.0,18.0,0.4857142857142857,44.00618803845064,1570.594690294701,19.0,12.0,7.0,0.631578947368421,652.3515844918129,395.3216569432679,27.0,13.0,14.0,0.4814814814814814,1699.615198500593,41380.25863902521,8.0,2.0,6.0,0.25,791.7606182484657,10980.460555281534,117.0,60.0,57.0,0.5128205128205128,27.400635525207356,5920.037235037353,0.0,0.0,0.0,0.0,83887.0,83922.0,84014.0,84033.0,84045.0,84072.0,84084.0,84092.0,84240.0,84353.0,0.02724612997502251,-0.10145090731800151,0.04168721835388431,-0.2986825459564656,0.004770967113592665
98,98,84759.28450384889,1496.672929542019,12.283088606485936,84882.26913752325,-6505.962348768188,9.788601054739,84915.16125113213,40717.26235691627,10.809715266642804,84942.72601729959,-2566.3019334253,5.614794219984329,85150.02310116148,5462.427771217564,42.77272739102586,0.9935729797429744,127.0,93.0,79.0,255.0,334.0,34.0,856.0,857.0,34.0,16.0,18.0,0.4705882352941176,45.0269989115312,1469.462210044387,20.0,12.0,8.0,0.6,619.2021733627524,1071.6188003831476,27.0,13.0,14.0,0.4814814814814814,1681.914290891112,40704.97695890336,8.0,2.0,6.0,0.25,759.6506406387513,10790.922339002174,108.0,53.0,55.0,0.4907407407407407,27.863748729553116,5620.680705822966,0.0,0.0,0.0,0.0,84743.0,84777.0,84870.0,84890.0,84902.0,84929.0,84941.0,84949.0,85099.0,85204.0,0.030084728615562946,-0.09517457067362058,0.04130715557809157,-0.296009846208871,0.005100982547791628
99,99,85614.4210521805,1458.8218645319826,11.318128290162749,85735.6889294618,-6691.942193759814,9.60962051853429,85769.06906746382,42250.47090890108,10.79764969787824,85798.15067819973,-1737.2773818899318,5.095930801726603,86004.45020125399,5742.0720848755855,43.42100344017844,0.9930649052454474,125.0,94.0,77.0,257.0,334.0,31.0,853.0,854.0,31.0,15.0,16.0,0.4838709677419355,48.85503930376101,1449.814667642639,19.0,12.0,7.0,0.631578947368421,653.3703591461668,784.4561125309965,27.0,13.0,14.0,0.4814814814814814,1720.3302803284591,42006.2115948852,5.0,2.0,3.0,0.4,684.5550693952454,9356.551565964037,109.0,54.0,55.0,0.4954128440366973,31.396151587946253,5908.0140804303155,0.0,0.0,0.0,0.0,85599.0,85630.0,85724.0,85743.0,85756.0,85783.0,85796.0,85801.0,85953.0,86058.0,0.03348937967791882,-0.09763538599532881,0.04071742263033641,-0.3940390156064419,0.005467739018923605
100,100,86461.76671188674,1348.8263381107677,10.27795122255783,86582.03693443075,-6780.244670289315,10.182005695779209,86614.77627311126,41211.99221461125,10.77146775258744,86642.30135639943,-2621.005952759714,5.6042866090961985,86848.4382248944,5815.125394461772,44.26874877928535,0.9920351916031658,123.0,94.0,78.0,256.0,334.0,29.0,849.0,845.0,29.0,15.0,14.0,0.5172413793103449,47.16185916583257,1268.7513668986644,20.0,12.0,8.0,0.6,647.0965848195357,1016.6535387800814,26.0,13.0,13.0,0.5,1721.1918127549895,40481.77634311232,9.0,2.0,7.0,0.2222222222222222,820.9994376995201,11558.986374314603,115.0,58.0,57.0,0.5043478260869565,29.09771995863448,5920.251206047762,0.0,0.0,0.0,0.0,86447.0,86476.0,86570.0,86590.0,86602.0,86628.0,86640.0,86648.0,86794.0,86904.0,0.034965108430407565,-0.09543853006589567,0.04176434382962831,-0.3132382957143123,0.005003799227845828
101,101,87281.1618753354,1253.815259896064,9.964735680210929,87401.50830994248,-6347.709273174574,10.22633567046473,87433.80607854016,39132.809623158624,10.683623641700065,87460.72601729959,-2859.430739517853,5.547666416811956,87665.15071796422,5438.734865721386,45.26083863702548,0.9896587208417168,122.0,93.0,78.0,255.0,333.0,29.0,819.0,819.0,29.0,14.0,15.0,0.4827586206896552,45.917306553044575,1196.2094522960651,20.0,13.0,7.0,0.65,656.943945199647,8.632965080436861,26.0,13.0,13.0,0.5,1659.6259721502545,38488.12841150057,9.0,2.0,7.0,0.2222222222222222,788.5903976566702,11164.290322744167,118.0,60.0,58.0,0.5084745762711864,29.49423251637436,5502.386868468038,0.0,0.0,0.0,0.0,87267.0,87296.0,87389.0,87409.0,87421.0,87447.0,87459.0,87467.0,87610.0,87722.0,0.03662206707936457,-0.10349307394651687,0.04241008984870064,-0.27578580126393953,0.005422995098045157
102,102,88092.79140162244,1417.8676986582195,12.03177273188902,88214.15194907194,-6607.302882252726,9.506080814392565,88247.41936617348,42388.998020421925,10.87269457839836,88276.15067819973,-1747.004894816739,5.095930801728113,88480.41938650435,5972.946193845895,43.93792086923277,0.992376382680554,125.0,92.0,77.0,255.0,332.0,33.0,811.0,814.0,35.0,17.0,18.0,0.4857142857142857,40.449728649690606,1318.2001913053195,20.0,12.0,8.0,0.6,634.6916815102577,974.325798714709,27.0,13.0,14.0,0.4814814814814814,1715.4066741081754,42907.6569387269,6.0,2.0,4.0,0.3333333333333333,711.8096965869541,9770.03631420219,110.0,55.0,55.0,0.5,33.323331253033665,6226.685341655737,0.0,0.0,0.0,0.0,88077.0,88110.0,88202.0,88222.0,88234.0,88261.0,88275.0,88279.0,88428.0,88534.0,0.028528563481606695,-0.09605911713462466,0.04046820529425434,-0.40744573681439117,0.005579044272551407
103,103,88880.57272576012,978.8054265931634,8.60075248854419,89007.39728720114,-7200.057655892341,17.209306639114775,89036.01999381947,42405.70619672209,11.195771479642252,89063.30135639943,-3804.1789714988945,6.8572969109253386,89271.96570374125,5750.169791568818,37.41378450293047,0.9901242279243876,122.0,97.0,82.0,249.0,331.0,25.0,789.0,789.0,26.0,13.0,13.0,0.5,41.79674137760409,894.5377276893112,23.0,18.0,5.0,0.782608695652174,852.1700491588027,2894.7754777696405,26.0,12.0,14.0,0.4615384615384615,1738.2583335478023,41876.05734247692,12.0,2.0,10.0,0.1666666666666666,896.3988819271377,13334.240107240994,99.0,49.0,50.0,0.494949494949495,29.081239251403712,5781.768401353765,0.0,0.0,0.0,0.0,88868.0,88893.0,88990.0,89012.0,89024.0,89050.0,89061.0,89072.0,89224.0,89321.0,0.042701787548401836,-0.11835600350525093,0.04099114221760485,-0.23563530755072368,0.005057457484828371
104,104,89634.08151913626,1169.6154753708947,9.197238375246163,89760.972626301,-6551.344800510673,15.52761522135998,89789.52347213542,39966.34982035686,11.034331689329315,89816.30135639943,-3908.466708221663,6.366188750223808,90020.1909755928,5451.929177493231,41.581968813207034,0.9908131364312448,124.0,97.0,80.0,249.0,329.0,27.0,754.0,754.0,28.0,14.0,14.0,0.5,46.51609895598553,1107.8610717836418,22.0,17.0,5.0,0.7727272727272727,824.7473833266599,3596.5784907611387,26.0,13.0,13.0,0.5,1683.9843412624966,38771.17558969717,11.0,2.0,9.0,0.1818181818181818,903.3767835401188,13141.28129052312,109.0,54.0,55.0,0.4954128440366973,27.366715450841276,5566.613564639141,0.0,0.0,0.0,0.0,89621.0,89648.0,89745.0,89765.0,89777.0,89803.0,89814.0,89825.0,89968.0,90074.0,0.03977042022399275,-0.12588978422603728,0.042135054835674764,-0.2311332936877315,0.005019638839737157
105,105,90391.18962570904,1494.4536775677773,12.554676756794226,90513.66716321718,-6703.57064016868,10.308160660413677,90546.76401400554,41325.507214443816,10.85192821038121,90574.30135639945,-2704.364010639295,5.575281972576767,90779.73143965076,5694.820990937378,42.04790119873616,0.9933431324877032,127.0,91.0,79.0,252.0,331.0,36.0,754.0,756.0,36.0,17.0,19.0,0.4722222222222222,38.70452001356012,1395.9305477776302,20.0,13.0,7.0,0.65,653.417086989935,655.7210768141583,26.0,13.0,13.0,0.5,1707.9285248960907,40499.91510952968,9.0,2.0,7.0,0.2222222222222222,830.2013638694668,11683.29236060531,106.0,53.0,53.0,0.5,28.18188868435424,5833.240151697824,0.0,0.0,0.0,0.0,90374.0,90410.0,90501.0,90521.0,90534.0,90560.0,90572.0,90580.0,90730.0,90832.0,0.02589877531470344,-0.09747299194172335,0.041328676645961335,-0.30698580538838494,0.004948687365099329
106,106,91158.36531528308,1459.1095923110045,11.529827079145871,91282.5032077432,-6836.323763541811,10.342052990781882,91315.42889397369,41760.782445874465,10.8149576633908,91342.7260172996,-2674.741010115308,5.51363095242662,91548.28754669469,5896.861225970367,42.61150143796814,0.9917397667001772,127.0,95.0,79.0,252.0,331.0,32.0,768.0,769.0,33.0,16.0,17.0,0.4848484848484848,44.09198686773816,1432.187128904888,20.0,13.0,7.0,0.65,676.7970289621677,492.61461973627024,27.0,13.0,14.0,0.4814814814814814,1735.4673896303086,42426.8641847997,8.0,2.0,6.0,0.25,800.605873478273,11297.45677108527,109.0,55.0,54.0,0.5045871559633027,28.966908197466,6021.708071680075,0.0,0.0,0.0,0.0,91143.0,91175.0,91270.0,91290.0,91302.0,91329.0,91341.0,91349.0,91495.0,91601.0,0.030218420261293226,-0.09900014282113635,0.041557348497471815,-0.299320895163513,0.004912258757233906
107,107,91959.71750896692,1295.925592740089,10.095252445692708,92083.20711716318,-6619.812069190011,11.107401242302386,92115.1972797282,39402.7374825206,10.725111207013972,92141.87669549928,-3748.739648802061,6.344719084723037,92348.55893812084,5256.746879296511,43.22671370722704,0.9925011522629416,125.0,96.0,80.0,253.0,333.0,29.0,803.0,800.0,29.0,15.0,14.0,0.5172413793103449,45.45778185070321,1203.091638630674,21.0,13.0,8.0,0.6190476190476191,638.0293691231008,931.1408440111544,26.0,13.0,13.0,0.5,1694.3177393075398,39621.3442145253,12.0,3.0,9.0,0.25,855.7828538627231,12629.734426098135,112.0,57.0,55.0,0.5089285714285714,27.452635208612232,5386.464358576982,0.0,0.0,0.0,0.0,91945.0,91974.0,92070.0,92091.0,92102.0,92128.0,92139.0,92150.0,92295.0,92403.0,0.03507746286157359,-0.09638179489907618,0.04300000069942232,-0.2282854863330387,0.005222362011900049
108,108,92775.45338339976,1164.1989748181636,10.493914087877284,92897.68192684924,-6451.2985028315,10.345970818006547,92930.6940013478,39930.68402727101,10.836526668584362,92958.30135639945,-3073.884917667093,5.860126880504849,93164.89341932096,5063.693086597161,41.35876536538992,0.992409374577079,124.0,94.0,80.0,252.0,332.0,30.0,817.0,815.0,30.0,14.0,16.0,0.4666666666666667,40.368753070954455,1177.325011239892,20.0,13.0,7.0,0.65,632.0450147969527,601.2506775618904,26.0,13.0,13.0,0.5,1656.444977668061,38926.82510312444,9.0,2.0,7.0,0.2222222222222222,819.4512713360314,11737.531307339214,108.0,54.0,54.0,0.5,27.367598543802615,5157.484745454551,0.0,0.0,0.0,0.0,92761.0,92791.0,92885.0,92905.0,92918.0,92944.0,92956.0,92965.0,93114.0,93217.0,0.034675131952645516,-0.0979717516589173,0.04148301032200644,-0.2665848895728826,0.005404671664686898
109,109,93595.84928915002,1471.190071626356,12.980202225793644,93717.75336436612,-6448.232572390153,9.96687211089911,93750.67765457876,40827.69906593069,10.848297048257006,93777.7260172996,-2740.2717207629385,5.446475454352971,93984.43449348336,5594.386742793554,44.253011976072656,0.9937164994446288,126.0,91.0,79.0,255.0,334.0,35.0,821.0,820.0,35.0,17.0,18.0,0.4857142857142857,37.93974867886138,1404.002990484914,20.0,13.0,7.0,0.65,642.4496113601114,358.1527348910556,27.0,14.0,13.0,0.5185185185185185,1690.7359014391614,39782.621764139214,8.0,2.0,6.0,0.25,809.2009077557817,11346.377110845504,111.0,55.0,56.0,0.4954954954954955,29.75211901971737,5751.3122878805825,0.0,0.0,0.0,0.0,93579.0,93614.0,93705.0,93725.0,93737.0,93764.0,93776.0,93784.0,93932.0,94039.0,0.02578847520152181,-0.09963189201812178,0.041411491220920214,-0.2952995141410598,0.00531820919568043
110,110,94404.0504724896,1618.1308394158282,12.082970802750756,94524.83586950466,-6587.342078007656,9.89646872272819,94557.70017372236,40746.98422180063,10.740362330768106,94585.30135639945,-2495.472418652865,5.391887354800884,94791.4804677078,5375.4708273530805,44.4553502180111,0.9923706028696374,126.0,92.0,78.0,256.0,334.0,34.0,806.0,807.0,35.0,17.0,18.0,0.4857142857142857,42.56530454262317,1538.2567666913976,19.0,12.0,7.0,0.631578947368421,640.3565058178673,727.6348663693971,26.0,13.0,13.0,0.5,1696.713979670464,39762.92669407008,8.0,2.0,6.0,0.25,804.1718254968764,11222.79347151172,112.0,55.0,57.0,0.4910714285714285,30.984107685759778,5607.872645921088,0.0,0.0,0.0,0.0,94387.0,94421.0,94513.0,94532.0,94545.0,94571.0,94583.0,94591.0,94739.0,94847.0,0.02630523039656666,-0.09721014913674308,0.04164023453698153,-0.32225233967161765,0.0057639802504549295
111,111,95138.3599141725,1504.1148208460831,10.685644037809563,95258.76026051251,-7037.95521824057,10.889565694979652,95291.54467925716,41090.33206480931,10.76865652738784,95319.30135639945,-2656.6723644556537,5.885419731244634,95523.6697582412,5554.768319841729,42.44176393504718,0.9921360398816113,123.0,92.0,79.0,251.0,330.0,31.0,734.0,734.0,32.0,15.0,17.0,0.46875,46.47025586617766,1415.8771005745411,21.0,13.0,8.0,0.6190476190476191,663.7886572887729,1136.8237427674976,26.0,13.0,13.0,0.5,1726.7291084567255,39928.01063529179,9.0,2.0,7.0,0.2222222222222222,799.7834720852721,11454.183763650908,108.0,54.0,54.0,0.5,27.37162221062687,5693.42059699303,0.0,0.0,0.0,0.0,95123.0,95154.0,95246.0,95267.0,95279.0,95305.0,95317.0,95325.0,95472.0,95576.0,0.030895417837873286,-0.09431555568418558,0.042022758680393714,-0.3010470853635525,0.004927590249417777
112,112,95852.06139893808,907.392528799867,7.1027093464145095,95978.39728720114,-7197.449582409112,20.383723206912453,96007.26681852435,42891.495548132814,11.06993330092283,96034.87669549928,-3877.3129247450897,7.395086305502445,96244.2855427642,5212.859435423342,37.30730284643042,0.9875371785839846,120.0,98.0,83.0,248.0,331.0,22.0,715.0,716.0,22.0,11.0,11.0,0.5,51.62212834099134,902.8773165299872,24.0,18.0,6.0,0.75,836.0609562858149,1935.8728222851696,26.0,12.0,14.0,0.4615384615384615,1738.8772221491834,41830.064430577586,13.0,3.0,10.0,0.2307692307692307,830.5349691666811,12853.055330357049,97.0,48.0,49.0,0.4948453608247423,25.59785269226659,5221.06139606842,0.0,0.0,0.0,0.0,95841.0,95863.0,95961.0,95983.0,95995.0,96021.0,96032.0,96044.0,96198.0,96292.0,0.05689062528348966,-0.11616072425560092,0.04054130544825177,-0.21420375019673807,0.00491052041770387
113,113,96573.30976376632,1339.189461305886,10.305365794735524,96696.5224024342,-6721.505675288083,10.943435666352594,96729.30070209649,40343.33287118469,10.775153024055898,96756.30135639945,-3223.9246490499863,5.995297561325328,96962.14151195902,5495.323836079358,42.076503966239144,0.9934514498952912,125.0,95.0,80.0,251.0,331.0,30.0,722.0,722.0,30.0,14.0,16.0,0.4666666666666667,44.61466551081181,1308.6365491980253,20.0,13.0,7.0,0.65,658.8737137138329,682.581565108118,27.0,13.0,14.0,0.4814814814814814,1705.578917965099,40710.0138004051,10.0,2.0,8.0,0.2,865.2728783315067,12422.961116196344,109.0,55.0,54.0,0.5045871559633027,25.58101257653634,5583.434719870091,0.0,0.0,0.0,0.0,96559.0,96589.0,96684.0,96704.0,96716.0,96743.0,96754.0,96764.0,96909.0,97015.0,0.03331467787037888,-0.09802472028495217,0.042276599293642206,-0.26839116062668583,0.004655050974172821
114,114,97308.62971851537,1946.5725445522833,16.505239296193114,97430.93167863008,-6251.038099926528,8.47799504382546,97463.91952169844,42560.254657714526,10.669517603788094,97492.57533909989,-1600.5371207922465,2.5479654008640567,97692.5889030941,5964.269135739952,53.64903701513674,0.99179658449602,130.0,90.0,74.0,257.0,331.0,40.0,733.0,734.0,40.0,19.0,21.0,0.475,45.12106028923334,1937.208391772182,18.0,11.0,7.0,0.6111111111111112,651.590883118009,225.13445229007493,26.0,13.0,13.0,0.5,1734.8305199088447,41797.27212928515,3.0,2.0,1.0,0.6666666666666666,666.4938942527609,8401.39267050481,127.0,68.0,59.0,0.5354330708661418,27.014266330701837,6317.13634673138,0.0,0.0,0.0,0.0,97290.0,97330.0,97420.0,97438.0,97451.0,97477.0,97366.0,97494.0,97628.0,97751.0,0.02317974761100481,-0.10423722791349928,0.04076175140071412,-0.41641889187978004,0.004529350657371087
115,115,98073.99015752476,767.2932325142352,6.103271725685077,98201.39728720114,-7040.166046850839,20.383723206912453,98230.3254462484,42721.47028525936,11.050353628348883,98257.87669549928,-3996.15841798086,7.173188175948868,98467.24797170886,4580.40387561285,34.83159321209153,0.9872587731181068,119.0,101.0,83.0,247.0,330.0,18.0,767.0,767.0,18.0,9.0,9.0,0.5,55.16174830265606,736.4533053352945,24.0,18.0,6.0,0.75,829.0287292111459,1921.9179121236843,26.0,12.0,14.0,0.4615384615384615,1733.4953331911945,41773.560952650594,12.0,3.0,9.0,0.25,841.59587298299,12921.961757345212,96.0,48.0,48.0,0.5,27.352384860552547,4610.424601996546,0.0,0.0,0.0,0.0,98065.0,98083.0,98184.0,98206.0,98218.0,98244.0,98255.0,98267.0,98421.0,98514.0,0.07189135256921828,-0.1177569852321852,0.0405766777598317,-0.21060122871911155,0.005971609841259434
116,116,98844.2130484042,760.1617201693281,6.653427841237764,98970.39728720114,-6520.014048834154,16.708334295994486,98999.01680752818,40064.60389119362,10.959556996809257,99025.87669549928,-4036.3319202442585,6.357576028581774,99233.28754669469,4713.201536014485,41.79387586574783,0.9873519306299516,120.0,100.0,80.0,252.0,332.0,20.0,771.0,769.0,20.0,10.0,10.0,0.5,46.79837576607045,761.4504850246611,22.0,17.0,5.0,0.7727272727272727,793.4518231244557,2462.5201178307016,26.0,12.0,14.0,0.4615384615384615,1684.1121944672232,39573.64129142635,12.0,3.0,9.0,0.25,871.2799588869294,12784.63953646394,114.0,60.0,54.0,0.5263157894736842,22.544561681447476,4723.671998825217,0.0,0.0,0.0,0.0,98834.0,98854.0,98954.0,98975.0,98987.0,99013.0,99023.0,99034.0,99176.0,99286.0,0.061563710095328114,-0.1216948026770484,0.04203491438579775,-0.21585934360774867,0.004783279795947642
117,117,99617.96164964154,1136.6783941450472,9.040235337082658,99741.56669922684,-6741.05467442027,10.421877583925,99774.68781933848,41248.80243368574,10.788144010976522,99802.30135639945,-2738.1003865825805,5.66739758997787,100006.91071494292,5238.951849424777,41.62303786661258,0.9915447152186136,124.0,98.0,79.0,251.0,330.0,26.0,772.0,775.0,26.0,13.0,13.0,0.5,47.92348517992421,1099.7224742075175,20.0,13.0,7.0,0.65,653.4912442568263,768.2264116914312,26.0,13.0,13.0,0.5,1719.289832273902,40250.241017607106,9.0,2.0,7.0,0.2222222222222222,821.1058293175023,11617.54583890487,108.0,54.0,54.0,0.5,24.98531779513911,5301.141447428407,0.0,0.0,0.0,0.0,99605.0,99631.0,99729.0,99749.0,99762.0,99788.0,99800.0,99808.0,99956.0,100059.0,0.0421609889189192,-0.0969419884304716,0.04168096358768098,-0.2998815650956915,0.00476914438484149
118,118,100412.40114723584,1185.2172518408363,8.737379542423517,100535.45075686045,-6866.35589453239,10.846011252746916,100568.20464622528,41243.845016887884,10.82356231549048,100595.30135639945,-3204.1910265437837,5.868131579914954,100802.71220759484,5347.388543059126,42.070768029568775,0.9916777496653152,123.0,98.0,79.0,252.0,331.0,25.0,795.0,794.0,25.0,12.0,13.0,0.48,53.64396800169097,1172.995388187374,20.0,12.0,8.0,0.6,622.3154718178557,1635.7230784203289,27.0,13.0,14.0,0.4814814814814814,1729.8535586736868,41452.160612363376,10.0,2.0,8.0,0.2,876.6673613132842,12553.794070048923,113.0,61.0,52.0,0.5398230088495575,30.494174058494384,5569.750079877128,0.0,0.0,0.0,0.0,100400.0,100425.0,100523.0,100543.0,100555.0,100582.0,100593.0,100602.0,100745.0,100854.0,0.04526087341234117,-0.09063256862543335,0.041942102099485956,-0.2736002173562373,0.005702629201701757
119,119,101193.9052932114,1204.8621945395134,9.991732826523588,101315.81814138626,-6429.223871318948,10.462871511416669,101348.14096080768,39488.753404304574,10.66811414485344,101374.7260172996,-3212.331240512129,5.690052905546473,101582.28754669469,5075.693936190706,44.87376691244671,0.9917864089265452,123.0,95.0,79.0,253.0,332.0,28.0,782.0,780.0,28.0,14.0,14.0,0.5,43.967396237406454,1139.589964785554,20.0,13.0,7.0,0.65,639.1720457262738,485.22570957079097,26.0,13.0,13.0,0.5,1684.329138764224,39521.53231042256,9.0,2.0,7.0,0.2222222222222222,832.1930050386195,11874.522420968138,116.0,62.0,54.0,0.5344827586206896,21.786333149138652,5113.094997669104,0.0,0.0,0.0,0.0,101180.0,101208.0,101303.0,101323.0,101335.0,101361.0,101373.0,101382.0,101522.0,101635.0,0.0364916389913042,-0.09941667276164524,0.04265338846023484,-0.259062015318802,0.0042922866159832394
120,120,101987.2215085296,1255.2590843235812,10.011288460419188,102108.91007716846,-6820.866619843165,10.388080966468303,102142.15742893468,41832.993537869035,10.833331369398028,102169.7260172996,-2404.7602803401064,5.2729818747260575,102377.71220759484,5271.20356886872,42.463554261037096,0.9918532809634149,124.0,95.0,78.0,254.0,332.0,29.0,793.0,794.0,29.0,14.0,15.0,0.4827586206896552,45.12320230012787,1211.4546527259822,20.0,12.0,8.0,0.6,639.0002245007046,1200.3832935962646,27.0,13.0,14.0,0.4814814814814814,1726.6933766932286,41913.48039937143,7.0,2.0,5.0,0.2857142857142857,776.5847281089199,10763.161025607722,110.0,58.0,52.0,0.5272727272727272,25.415096470973488,5374.483964581224,0.0,0.0,0.0,0.0,101973.0,102002.0,102097.0,102117.0,102129.0,102156.0,102168.0,102175.0,102323.0,102429.0,0.03594732184268024,-0.09368314323017761,0.041275874152543045,-0.3229364417143014,0.004821497811443459
121,121,102793.09388335024,1280.9935567789732,10.150896668853626,102914.51398732747,-6709.816200991209,10.918588029862796,102947.25037957118,40959.7756230556,10.830963321571684,102974.30135639945,-3019.654518043896,5.79487310397263,103178.7698464894,5582.627098755268,42.04137615887175,0.9921734457499686,123.0,95.0,79.0,250.0,329.0,28.0,806.0,805.0,29.0,14.0,15.0,0.4827586206896552,47.46119288893219,1220.2252709616598,20.0,13.0,7.0,0.65,672.0579138747344,445.3682507018853,27.0,13.0,14.0,0.4814814814814814,1717.108811790244,41310.57959846332,10.0,2.0,8.0,0.2,866.0778954166293,12312.67309986803,100.0,48.0,52.0,0.48,49.14103355259158,5965.071722734319,0.0,0.0,0.0,0.0,102779.0,102807.0,102902.0,102922.0,102934.0,102961.0,102972.0,102981.0,103133.0,103231.0,0.037050297901788196,-0.10016040585067806,0.04192183149615964,-0.2868135709702534,0.008802492569053792
122,122,103564.87833231284,1397.455339210684,11.455492829730805,103685.55694258402,-6154.180213253601,10.048308167880704,103717.78145191836,39750.06097097332,10.68949096015328,103744.30135639945,-3187.25459544922,5.429988872541345,103952.56152939513,5307.097884130774,42.99782666782833,0.9927924602967474,124.0,92.0,78.0,250.0,328.0,32.0,771.0,770.0,32.0,16.0,16.0,0.5,43.26462914243563,1310.4311251469744,20.0,13.0,7.0,0.65,657.9422644368493,337.24040934957907,26.0,13.0,13.0,0.5,1686.4027889019028,38967.69610100123,10.0,2.0,8.0,0.2,894.8178496830132,12399.891000338088,110.0,61.0,49.0,0.5545454545454546,20.87557501416592,5468.489818032396,0.0,0.0,0.0,0.0,103549.0,103581.0,103673.0,103693.0,103705.0,103731.0,103742.0,103751.0,103893.0,104001.0,0.030959579121056218,-0.10690981440873461,0.04242516231945819,-0.28074878328221387,0.003933519876576582
123,123,104324.70973625804,1498.2936949788354,12.610077126141723,104448.8255896949,-6665.000328380515,9.742463689959228,104481.991640267,40731.230994056474,10.769011531203008,104509.30135639945,-2796.2735683992464,5.256635876772288,104712.47362218738,5387.3306954584405,43.30898328250473,0.993498805001654,129.0,95.0,78.0,251.0,329.0,34.0,760.0,764.0,35.0,17.0,18.0,0.4857142857142857,41.709648593351055,1425.4228737806618,20.0,12.0,8.0,0.6,637.4364244550197,999.2059184203,26.0,13.0,13.0,0.5,1687.4593263352715,40291.83652748684,8.0,2.0,6.0,0.25,848.141897183246,11635.80199916824,110.0,55.0,55.0,0.5,31.58904727104015,5628.751864900191,0.0,0.0,0.0,0.0,104308.0,104342.0,104437.0,104457.0,104469.0,104495.0,104507.0,104515.0,104660.0,104766.0,0.027838099254592564,-0.09563936879953706,0.04142912662230873,-0.30331148810621306,0.005863580510784302
124,124,105089.1998028796,1539.234561528087,10.762074200100098,105212.30246716487,-6758.251299126215,10.646057035267942,105245.50396731992,40875.02368140293,10.815908499827485,105272.30135639945,-3162.594850638484,5.52414155791525,105477.0106586928,5508.871678072585,42.15906190844088,0.991172940766203,126.0,96.0,79.0,252.0,331.0,30.0,765.0,764.0,30.0,15.0,15.0,0.5,50.669596181249176,1483.6242258708648,20.0,12.0,8.0,0.6,603.9250546552084,1754.495408832894,27.0,14.0,13.0,0.5185185185185185,1714.3499172924537,39468.63067162081,10.0,2.0,8.0,0.2,896.9767345707098,12518.276616880978,109.0,54.0,55.0,0.4954128440366973,30.085923115404967,5676.798128626608,0.0,0.0,0.0,0.0,105074.0,105104.0,105200.0,105220.0,105232.0,105259.0,105270.0,105279.0,105426.0,105531.0,0.032918697024933316,-0.08936114209504031,0.04194125808109166,-0.28362050054866267,0.005461358491096905
125,125,105882.66092485558,673.1888209513598,7.401199792639863,106008.39728720114,-7160.538064945312,18.169747502655664,106037.7552573376,42068.83979983953,11.210570994562728,106065.30135639945,-3912.424690569546,7.243677456677744,106273.11596542016,4728.084077779076,34.65019237365125,0.9838050682061836,120.0,98.0,82.0,246.0,328.0,22.0,794.0,793.0,24.0,12.0,12.0,0.5,36.95082844366831,627.800567393343,23.0,17.0,6.0,0.7391304347826086,808.0686680878663,1611.8692896819473,27.0,13.0,14.0,0.4814814814814814,1713.9004016869203,40704.59745876028,12.0,2.0,10.0,0.1666666666666666,874.5468957163673,13245.034686858906,96.0,48.0,48.0,0.5,30.825505095858897,4803.100923686679,0.0,0.0,0.0,0.0,105872.0,105894.0,105992.0,106013.0,106025.0,106052.0,106063.0,106074.0,106228.0,106320.0,0.05488924844510769,-0.11285027197101254,0.040740377197030705,-0.22353066573380007,0.0065196609427340315
126,126,106707.52731333028,1233.536748327916,9.911296744046352,106831.767090507,-6947.441289954893,11.581835062345878,106863.9541645162,40276.43325800206,10.721688151983924,106891.30135639945,-3359.8745588460283,6.147187959996192,107106.4108511954,5637.1851918650045,43.39398847743316,0.9881845811749572,126.0,97.0,80.0,253.0,333.0,29.0,823.0,826.0,29.0,15.0,14.0,0.5172413793103449,45.07418398436149,1142.2409058953524,20.0,13.0,7.0,0.65,673.5712086644704,865.0294654593308,26.0,13.0,13.0,0.5,1722.2754950947578,40079.96934274309,11.0,3.0,8.0,0.2727272727272727,848.001748506546,12289.77276384113,116.0,68.0,48.0,0.5862068965517241,22.87537883097396,5371.840487052501,0.0,0.0,0.0,0.0,106693.0,106722.0,106819.0,106839.0,106851.0,106877.0,106889.0,106899.0,107041.0,107152.0,0.0365406089810137,-0.09695241464485173,0.04276137075153195,-0.2523908954499176,0.004057943468663281
127,127,107526.73628839274,1765.4198466527316,11.466801881200167,107650.06244435412,-6477.283696020362,10.791246564383572,107683.39501324447,40870.928238233304,10.829301176682373,107710.7260172996,-2943.425109178143,5.550500512908124,107915.97723805095,5312.290742975045,44.066569369754475,0.9929739848476308,126.0,97.0,79.0,253.0,332.0,29.0,821.0,819.0,29.0,15.0,14.0,0.5172413793103449,63.45016586861801,1718.8773459698289,20.0,12.0,8.0,0.6,597.6013812309039,1306.5579127300427,27.0,13.0,14.0,0.4814814814814814,1696.8689334329524,41394.66049447539,8.0,2.0,6.0,0.25,802.1728813858145,11297.772175844411,116.0,60.0,56.0,0.5172413793103449,47.5612711875312,5490.063469162158,0.0,0.0,0.0,0.0,107512.0,107541.0,107638.0,107658.0,107670.0,107697.0,107709.0,107717.0,107868.0,107970.0,0.03594055317148535,-0.0922611096373731,0.04151774883951845,-0.27253042004856565,0.008953062527766587
128,128,108347.664733795,1168.5850387114906,11.07072526945734,108470.50308719985,-7068.337773696844,10.254614441134992,108503.6883620713,41118.47472919016,10.77879745644486,108531.30135639945,-2539.4824844819077,5.687101075829344,108736.26795788755,5303.936195249161,41.69878915826484,0.991165450566323,126.0,93.0,79.0,252.0,331.0,33.0,818.0,820.0,33.0,16.0,17.0,0.4848484848484848,33.75823486821853,1053.3805173065653,20.0,13.0,7.0,0.65,667.4040826762786,1073.2781876367726,26.0,13.0,13.0,0.5,1715.2886158167976,40162.18701174494,8.0,2.0,6.0,0.25,805.125436435836,11456.643266398103,108.0,54.0,54.0,0.5,32.88754245207716,5483.419387132856,0.0,0.0,0.0,0.0,108332.0,108365.0,108458.0,108478.0,108491.0,108517.0,108529.0,108537.0,108685.0,108789.0,0.028888128591344243,-0.09442164537748406,0.04171576468032526,-0.31704311463289875,0.006200591643906874
129,129,109171.07581557913,1599.0966987838842,12.680551401147666,109292.56188816288,-6830.8336033044525,9.67187111375513,109325.45254183334,41614.06040244102,10.721737333658169,109353.7260172996,-2139.998528015568,5.479132549070243,109558.86288579454,5476.2923043437795,43.94625464293462,0.9939733425701,127.0,92.0,77.0,255.0,332.0,35.0,825.0,822.0,36.0,17.0,19.0,0.4722222222222222,42.43003259547291,1516.655764357144,19.0,12.0,7.0,0.631578947368421,676.5864986243622,519.7394527305819,27.0,13.0,14.0,0.4814814814814814,1724.6218921225482,42221.37443215635,7.0,3.0,4.0,0.4285714285714285,705.548796302205,9848.87233859268,114.0,59.0,55.0,0.5175438596491229,26.248144415230005,5555.180292846642,0.0,0.0,0.0,0.0,109154.0,109189.0,109281.0,109300.0,109312.0,109339.0,109351.0,109358.0,109502.0,109613.0,0.026533750352771675,-0.0990488918214989,0.04144324959987284,-0.32969592598573616,0.004793050289592842
130,130,109965.8448040731,1272.7178633902015,9.94892009932571,110087.70321594516,-6594.270018869275,11.421237897967613,110119.4577848398,39167.85217683484,10.649772023210152,110146.30135639945,-3204.478933457134,5.924087395701807,110349.16136737038,5107.515027022133,45.58801595344483,0.990006435302932,123.0,95.0,79.0,252.0,331.0,28.0,796.0,794.0,29.0,15.0,14.0,0.5172413793103449,45.15647289176755,1186.6888503510831,20.0,13.0,7.0,0.65,671.2822825370263,266.58244793027757,26.0,12.0,14.0,0.4615384615384615,1691.942033911281,40026.98403440713,10.0,2.0,8.0,0.2,851.051135966968,12246.772003534676,117.0,59.0,58.0,0.5042735042735043,26.470883868159643,5249.267970948187,0.0,0.0,0.0,0.0,109952.0,109980.0,110075.0,110095.0,110107.0,110133.0,110144.0,110154.0,110293.0,110406.0,0.035480348151539276,-0.10179781546951752,0.04319721250663705,-0.2655817540509827,0.005182732449755147
131,131,110742.72208819722,1476.857022897741,11.369864524471833,110864.74791556245,-6846.506427340643,10.493953459837678,110897.90120696968,41051.92012931677,10.82104825832278,110925.30135639945,-2828.929251086181,5.694221482272004,111130.26149838977,5332.8401864382895,41.308875412535734,0.992350581748828,125.0,94.0,80.0,251.0,331.0,31.0,775.0,778.0,32.0,16.0,16.0,0.5,47.758297229461895,1370.8959653597017,21.0,13.0,8.0,0.6190476190476191,645.6140009556182,1114.508900099588,26.0,13.0,13.0,0.5,1707.0375565707734,40545.6085978999,9.0,2.0,7.0,0.2222222222222222,837.5874394395291,11871.921434549731,106.0,52.0,54.0,0.490566037735849,27.692239825260156,5468.861613886778,0.0,0.0,0.0,0.0,110727.0,110758.0,110852.0,110873.0,110885.0,110911.0,110923.0,110932.0,111079.0,111183.0,0.03233779336049426,-0.09429831225710118,0.04158240470100963,-0.296079316624102,0.005192775117409869
132,132,111517.7983753992,1367.4292669738154,10.43139759566585,111640.96776715507,-7085.468111242819,11.215945761937531,111673.8498231454,41022.43781688961,10.83646686888092,111701.30135639945,-2804.9004719436507,5.83065416175346,111905.91988746036,5217.484717220866,41.62606131467704,0.9914267868153992,125.0,95.0,80.0,252.0,332.0,30.0,776.0,776.0,31.0,15.0,16.0,0.4838709677419355,45.10494669625968,1269.668970338793,21.0,13.0,8.0,0.6190476190476191,648.7817208158984,1503.7577195715037,26.0,13.0,13.0,0.5,1718.457993381742,40583.07213290646,9.0,2.0,7.0,0.2222222222222222,828.7615217316987,11832.00829485552,107.0,51.0,56.0,0.4766355140186916,30.28796816417786,5321.318856953077,0.0,0.0,0.0,0.0,111503.0,111533.0,111628.0,111649.0,111661.0,111687.0,111699.0,111708.0,111858.0,111960.0,0.03298521377714771,-0.09156511759419937,0.04189068433846768,-0.29546913696991534,0.005805089963025515
133,133,112322.67454982914,1847.370173643825,13.754261630744884,112445.2090372874,-6717.02717187663,9.522142915145482,112478.14868185457,41470.19341784841,10.744221045998184,112506.15067819972,-1763.419517867637,5.020252900487619,112711.01356399426,5599.77420359824,46.602133559459645,0.9945098614454596,127.0,91.0,77.0,258.0,335.0,36.0,803.0,805.0,38.0,18.0,20.0,0.4736842105263157,48.62763020610253,1735.6080422493278,20.0,12.0,8.0,0.6,633.0558254955868,1179.443983102552,27.0,13.0,14.0,0.4814814814814814,1712.4871503653312,41496.72195690431,5.0,1.0,4.0,0.2,741.0696323989888,10104.05874605011,119.0,61.0,58.0,0.5126050420168067,22.791887142218396,5694.932638595561,0.0,0.0,0.0,0.0,112306.0,112342.0,112433.0,112453.0,112465.0,112492.0,112505.0,112510.0,112653.0,112768.0,0.02632262385734392,-0.09424642915635566,0.04129440953193847,-0.42024579227471937,0.004070143958228359
134,134,113142.4638257056,1959.425707981555,16.926335729528653,113265.7662886079,-6436.369889032545,8.493108843341545,113298.98466574337,42492.06577752781,10.633434797361843,113390.000491421,1129.3466410773,50.0839520076722,113531.10980687488,6046.810367423254,47.1347387846753,0.9935015944158766,132.0,90.0,378.0,-45.0,333.0,42.0,821.0,820.0,43.0,20.0,23.0,0.4651162790697674,38.13481419418283,1936.722035434875,18.0,11.0,7.0,0.6111111111111112,657.1979282762293,360.9149342568685,27.0,13.0,14.0,0.4814814814814814,1711.8723832475648,42103.37083858292,284.0,58.0,226.0,0.204225352112676,19.32930460352747,1279.135911234942,128.0,70.0,58.0,0.546875,28.859966167359985,6181.658774647294,0.0,0.0,0.0,0.0,113123.0,113165.0,113255.0,113273.0,113286.0,113313.0,113182.0,113633.0,113464.0,113588.0,0.019462240409954756,-0.10210692356200385,0.04028687125286573,0.017115475355811892,0.004772758597299649
135,135,113972.33389427973,601.7768450714764,5.50370819474235,114101.82194810128,-6924.230419456618,22.93168860777651,114130.820330772,43493.02581069177,11.064200282344348,114158.87669549928,-3205.9711535046654,7.418925896430536,114368.3362350463,4587.379840933585,34.57622064612314,0.9861075300687018,121.0,104.0,82.0,247.0,329.0,17.0,833.0,833.0,18.0,9.0,9.0,0.5,48.74832191200672,656.7310443185629,23.0,18.0,5.0,0.782608695652174,878.4088503133436,2820.1093570558182,27.0,13.0,14.0,0.4814814814814814,1729.3675452247048,40923.919549142214,12.0,3.0,9.0,0.25,773.0538219582852,11991.31454346013,96.0,48.0,48.0,0.5,30.564841650947013,4677.025939063602,0.0,0.0,0.0,0.0,113964.0,113981.0,114085.0,114107.0,114119.0,114145.0,114156.0,114167.0,114323.0,114414.0,0.08100730746164987,-0.12686014143103533,0.03976195063438376,-0.24112937545093238,0.006662810299294229
136,136,114822.04966981118,1162.4816214578186,10.02900250963314,114946.14074529006,-7091.134474548274,11.443185876229924,114979.08090518638,41097.13159233169,10.931388500081336,115006.7260172996,-2527.284049193181,5.79156867762973,115213.28754669469,5121.558370116933,41.283889784488046,0.9906474113314292,125.0,97.0,80.0,253.0,333.0,28.0,849.0,848.0,28.0,14.0,14.0,0.5,43.49703039358072,1131.5389943156365,21.0,13.0,8.0,0.6190476190476191,639.7371116016045,1625.755205013139,27.0,13.0,14.0,0.4814814814814814,1702.9984109606137,41239.63455942247,8.0,2.0,6.0,0.25,759.2099321777348,10838.006711557904,111.0,57.0,54.0,0.5135135135135135,27.240755073777443,5144.009453944862,0.0,0.0,0.0,0.0,114808.0,114836.0,114933.0,114954.0,114966.0,114993.0,115005.0,115013.0,115160.0,115266.0,0.03741739188877064,-0.09021646873258,0.04143837647487729,-0.30040546191082385,0.005318841084135784
137,137,115668.4111562024,1389.6050822829254,10.62794617875207,115790.48576823232,-7078.985925803632,10.981483041684502,115822.87482405866,40611.199239378686,10.724171008027785,115850.30135639945,-2973.1934944885397,6.104802440797987,116056.24494037464,5350.92834029851,42.02701360671493,0.9906356190907424,124.0,94.0,79.0,253.0,332.0,30.0,846.0,843.0,30.0,14.0,16.0,0.4666666666666667,47.13671218895722,1373.0150837579156,20.0,12.0,8.0,0.6,628.3232435955836,1805.613262699606,26.0,13.0,13.0,0.5,1727.2271711634432,40269.429175744226,10.0,2.0,8.0,0.2,823.6723279214887,11956.003583669815,110.0,54.0,56.0,0.4909090909090909,32.76057178318072,5534.251033662062,0.0,0.0,0.0,0.0,115654.0,115684.0,115778.0,115798.0,115810.0,115836.0,115848.0,115857.0,116004.0,116110.0,0.03392094112920071,-0.08875893386159742,0.042530809321401075,-0.2770328703625729,0.0061224089914373855
138,138,116468.98280329537,1303.6848541178192,10.29714032960313,116590.85442632306,-6735.530806380505,10.48915022077357,116623.70445172203,40901.329702074894,10.783396284785075,116651.30135639945,-2640.5025231955856,5.709693877466065,116855.0069461178,5476.5113568585375,42.659275361280834,0.9912352581402404,123.0,94.0,79.0,252.0,331.0,29.0,801.0,801.0,29.0,14.0,15.0,0.4827586206896552,45.120346575211485,1243.3354247517575,21.0,13.0,8.0,0.6190476190476191,645.6132537790846,940.607314356556,26.0,13.0,13.0,0.5,1709.91347578733,40027.32442063441,9.0,2.0,7.0,0.2222222222222222,809.2943541472762,11485.468129568166,110.0,55.0,55.0,0.5,29.796508834484783,5579.8484137459545,0.0,0.0,0.0,0.0,116455.0,116484.0,116578.0,116599.0,116611.0,116637.0,116649.0,116657.0,116803.0,116909.0,0.034609857154276474,-0.09585187453489208,0.041805816296006326,-0.3064925509587671,0.005440782807319293
