Unnamed: 0,cycle,p_center,p_height,p_width,q_center,q_height,q_width,r_center,r_height,r_width,s_center,s_height,s_width,t_center,t_height,t_width,r_squared,pr_interval,pr_segment,qrs_duration,st_segment,qt_interval,p_duration,pp_interval,rr_interval,fwhm_p,rise_time_p,decay_time_p,rise_decay_symmetry_p,sharpness_deriv_p,sharpness_diff_p,fwhm_q,rise_time_q,decay_time_q,rise_decay_symmetry_q,sharpness_deriv_q,sharpness_diff_q,fwhm_r,rise_time_r,decay_time_r,rise_decay_symmetry_r,sharpness_deriv_r,sharpness_diff_r,fwhm_s,rise_time_s,decay_time_s,rise_decay_symmetry_s,sharpness_deriv_s,sharpness_diff_s,fwhm_t,rise_time_t,decay_time_t,rise_decay_symmetry_t,sharpness_deriv_t,sharpness_diff_t,Average_Heart_Rate,SDNN,RMSSD,NN50,p_on,p_off,q_on,q_off,r_on,r_off,s_on,s_off,t_on,t_off,sharpness_deriv_p_norm,sharpness_deriv_q_norm,sharpness_deriv_r_norm,sharpness_deriv_s_norm,sharpness_deriv_t_norm
0,0,,,,,,,,,,,,,,,,,,,,,,,,,,,,,,,,,,,,,,,,,,,,,,,,,,,,,,,71.90135652650707,418.7632868188549,667.153629540307,306.0,,,,,,,,,,,,,,,
1,1,2607.74385388808,2102.0895477005397,22.366389870669387,2758.643589910599,-7919.191905985157,7.759265407970625,2784.078162205305,51599.08806793028,9.583996556932542,2807.4520345991364,-8611.603414701955,6.261601012368376,3036.4038925785026,8219.248826402501,30.374701677980536,0.9953000487674936,164.0,109.0,69.0,255.0,324.0,55.0,,,58.0,26.0,32.0,0.4482758620689655,43.04191647945454,1916.4658053730943,16.0,12.0,4.0,0.75,1354.5003305327095,8848.585415337782,23.0,11.0,12.0,0.4782608695652174,2646.362102974126,51157.67552316954,13.0,3.0,10.0,0.2307692307692307,1637.549209641382,23771.677800274156,73.0,36.0,37.0,0.4931506849315068,75.21371403075506,8927.269636804122,,,,,2584.0,2639.0,2748.0,2763.0,2773.0,2796.0,2804.0,2817.0,3002.0,3072.0,0.020475776841447017,-0.17104022059485727,0.051286993667217264,-0.1901561336238168,0.009150923109803878
2,2,3446.7953082883328,2078.9921619476436,21.12129968271923,3599.7734384503824,-7973.274778184135,7.905307746394183,3624.937746038351,51848.49518011808,9.686232206047784,3647.87669549928,-8807.798629380046,6.348238026348197,3876.647367105291,8590.246534989845,31.403546427148953,0.9944258859800188,165.0,112.0,69.0,256.0,325.0,53.0,840.0,841.0,55.0,24.0,31.0,0.4363636363636363,45.27090146644627,1897.6645525905344,16.0,12.0,4.0,0.75,1372.969394755943,9358.901217107736,23.0,12.0,11.0,0.5217391304347826,2661.3911368218583,50964.761765030824,13.0,3.0,10.0,0.2307692307692307,1633.5076299748848,23597.229472672894,74.0,37.0,37.0,0.5,71.02600781333116,9210.210131724834,,,,,3424.0,3477.0,3589.0,3604.0,3613.0,3636.0,3645.0,3658.0,3841.0,3914.0,0.02177540747630118,-0.17219642279387598,0.05133015196634676,-0.18546150959060498,0.008268215297899494
3,3,4310.546051295785,2034.165444287171,22.206640154508264,4461.659136417811,-7776.881388505211,7.783443289195902,4486.91190779509,51819.875761253075,9.6662617700546,4509.876695499281,-8738.752161279199,6.273430623255477,4739.538825318279,8676.792970616498,32.345880777714015,0.9929490882872548,164.0,110.0,68.0,258.0,326.0,54.0,862.0,862.0,58.0,26.0,32.0,0.4482758620689655,41.30231460341801,1735.0267744320502,16.0,12.0,4.0,0.75,1368.1309004270595,9601.670245560705,23.0,12.0,11.0,0.5217391304347826,2654.742027742221,50802.03879444636,13.0,3.0,10.0,0.2307692307692307,1630.3657376216863,23471.57613090199,76.0,38.0,38.0,0.5,77.35670135726474,9432.864402298334,,,,,4287.0,4341.0,4451.0,4466.0,4475.0,4498.0,4507.0,4519.0,4703.0,4777.0,0.02030430450945523,-0.1759228194542423,0.05123018897176194,-0.1865673390813992,0.00891535635565227
4,4,5950.247096910529,1893.0494413720849,19.49794166729164,6103.873695075432,-7942.477834528441,8.183922722593895,6129.203139398706,50944.14220896646,9.61927236537271,6152.452034599137,-8654.855229786226,6.241410688612762,6382.528395699812,8219.683336394128,29.921820331733837,0.994923688722984,164.0,114.0,69.0,256.0,325.0,50.0,1641.0,1642.0,53.0,22.0,31.0,0.4150943396226415,48.3373321893482,1803.256479569637,16.0,12.0,4.0,0.75,1320.542999587569,8296.442368156477,23.0,11.0,12.0,0.4782608695652174,2618.2542209427606,51003.48424566859,14.0,3.0,11.0,0.2142857142857142,1638.139024397114,23647.457264114302,71.0,36.0,35.0,0.5070422535211268,77.51630588410316,8860.083775796858,,,,,5929.0,5979.0,6093.0,6108.0,6118.0,6141.0,6149.0,6162.0,6348.0,6418.0,0.02553410974533937,-0.16626335346467755,0.051394608043511876,-0.18927399487392418,0.009430570827575042
5,5,6823.385834978936,2005.3815657782427,19.948470206580435,6976.887421054516,-7945.877116457933,7.865830023333415,7002.004105959733,52128.2126734617,9.695106407806446,7024.876695499281,-8771.215710016671,6.354115880548156,7255.336416372187,8174.513101097798,30.389628979578475,0.9948259399866796,165.0,113.0,69.0,256.0,325.0,52.0,872.0,873.0,55.0,24.0,31.0,0.4363636363636363,41.63349509745854,1808.2186128988997,16.0,12.0,4.0,0.75,1371.5029670719514,9338.218000353729,23.0,11.0,12.0,0.4782608695652174,2673.051355101684,51452.91639942245,13.0,3.0,10.0,0.2307692307692307,1641.7086898850318,23703.73278492593,73.0,36.0,37.0,0.4931506849315068,71.61663783670447,8791.645367501746,,,,,6801.0,6853.0,6966.0,6981.0,6991.0,7014.0,7022.0,7035.0,7221.0,7291.0,0.020760884515910835,-0.17260561005042727,0.05127840027522228,-0.18717002798257615,0.008760966794106269
6,6,7692.134848790178,1515.0832636823695,16.13662622098095,7845.998967022012,-8415.688958929619,8.781134108023823,7871.098121886309,51200.09453196959,9.682506465496608,7894.452034599137,-9407.547284785323,6.606588440757285,8124.160706445256,8167.180079844872,29.223887029199854,0.992381983845325,160.0,114.0,70.0,256.0,326.0,46.0,870.0,869.0,48.0,19.0,29.0,0.3958333333333333,45.905955930624586,1408.3852606821445,16.0,12.0,4.0,0.75,1343.952726310982,8131.55841077051,23.0,11.0,12.0,0.4782608695652174,2654.8702888239854,50939.38749099776,14.0,3.0,11.0,0.2142857142857142,1663.271995571872,24521.083731156148,73.0,36.0,37.0,0.4931506849315068,68.70447579189538,8655.909100197649,,,,,7674.0,7720.0,7834.0,7850.0,7860.0,7883.0,7891.0,7904.0,8089.0,8160.0,0.03029929577536972,-0.15969610246644828,0.051852839591268164,-0.17680187462484034,0.008412264100977231
7,7,9360.330240651449,2039.415249404936,19.529708195034264,9514.670389448873,-8090.310599469221,8.52049162617257,9539.549596692596,49448.005695015294,9.731502775133286,9562.45203459914,-9613.129635668382,6.7160150029394625,9790.860193596238,8234.787939408068,31.067230399924988,0.9941348006085712,164.0,114.0,69.0,255.0,324.0,50.0,1670.0,1669.0,51.0,22.0,29.0,0.4313725490196078,49.90519459811267,2036.9131198472628,17.0,13.0,4.0,0.7647058823529411,1353.81006260931,9258.63382265563,23.0,12.0,11.0,0.5217391304347826,2581.596895026947,47229.70326283497,14.0,3.0,11.0,0.2142857142857142,1666.909751143194,24435.853650198627,75.0,38.0,37.0,0.5066666666666667,71.61476698602479,8920.927119942278,,,,,9339.0,9389.0,9503.0,9519.0,9528.0,9551.0,9559.0,9572.0,9755.0,9827.0,0.024470344924935758,-0.16733721727545653,0.05220831171533355,-0.173399279352098,0.00869661338130009
8,8,10213.15078206533,1778.3191169625952,17.313949615420768,10365.720432998478,-8390.729098483875,8.891416550818168,10390.709927210726,51443.85775474797,9.74727669605251,10413.876695499284,-9137.929395042742,6.564558573181989,10643.34814038586,8331.505185882072,30.192649304940772,0.993947071776543,160.0,113.0,70.0,255.0,325.0,47.0,851.0,851.0,49.0,20.0,29.0,0.4081632653061224,50.21666015754425,1689.4950541412577,17.0,13.0,4.0,0.7647058823529411,1384.7467794844094,9272.718704528648,23.0,12.0,11.0,0.5217391304347826,2656.0415741866877,50014.23962833758,13.0,3.0,10.0,0.2307692307692307,1613.755194240165,23746.21222092214,73.0,36.0,37.0,0.4931506849315068,71.68974623905554,8932.544396237514,,,,,10194.0,10241.0,10354.0,10370.0,10379.0,10402.0,10411.0,10424.0,10609.0,10679.0,0.028238272691638894,-0.16503295044224703,0.05162990666153046,-0.17659965671387384,0.008604657218546233
9,9,11059.797848992206,2114.7486055495115,20.334113414399564,11211.161564293434,-7875.139616436496,7.9404411804440675,11236.533482850828,51370.70120041652,9.592655244119332,11259.876695499284,-8761.905258451608,6.2721458815776625,11487.975878186851,8331.997939019797,31.927815363406083,0.9936961234080388,162.0,111.0,69.0,256.0,325.0,51.0,846.0,846.0,53.0,23.0,30.0,0.4339622641509434,47.817322717923425,1961.5408732659853,15.0,11.0,4.0,0.7333333333333333,1293.720581206375,7767.216436527307,23.0,12.0,11.0,0.5217391304347826,2641.6666123119935,49151.49808480812,13.0,3.0,10.0,0.2307692307692307,1588.945846550237,23146.40611539433,76.0,38.0,38.0,0.5,71.9534760324185,9070.602588305235,,,,,11038.0,11089.0,11200.0,11215.0,11225.0,11248.0,11257.0,11269.0,11452.0,11525.0,0.02261135086810861,-0.16427906605061363,0.05142360432274135,-0.1813470700356595,0.008635800987834058
10,10,11899.936310486124,1611.4015996536175,14.881134648937866,12055.54796540086,-8640.54599902948,9.5797901132561,12080.093798357646,49509.45669717982,9.834071201924605,12102.876695499284,-10179.964094030174,7.212121516159459,12332.858017998897,8791.570569814701,28.84194180217757,0.9910414997995488,160.0,129.0,70.0,255.0,325.0,31.0,842.0,843.0,41.0,17.0,24.0,0.4146341463414634,54.744192399785405,1582.0424318637938,18.0,14.0,4.0,0.7777777777777778,1399.5879675595068,9750.065988195927,22.0,11.0,11.0,0.5,2602.131204063061,48949.57367596944,14.0,3.0,11.0,0.2142857142857142,1630.824414661854,24616.28774985826,71.0,36.0,35.0,0.5070422535211268,77.80586879622781,9325.998906407896,,,,,11883.0,11914.0,12043.0,12059.0,12069.0,12091.0,12100.0,12113.0,12299.0,12368.0,0.033973028456440076,-0.16197911193536968,0.0525582661910181,-0.1601994269919102,0.008850053375374057
11,11,13583.241055544631,1714.534147045856,16.03306836152306,13735.321091319602,-8220.847339109034,8.469368713331235,13760.507914692582,51597.89446732577,9.676584584085958,13783.876695499284,-8996.340700883171,6.580839539215481,14013.538274434602,8133.847221533329,29.23393477352062,0.994073120977006,159.0,115.0,70.0,255.0,325.0,44.0,1683.0,1681.0,47.0,19.0,28.0,0.4042553191489361,51.96597022426109,1600.1363050634568,15.0,11.0,4.0,0.7333333333333333,1306.3267492294049,7595.292957969106,23.0,12.0,11.0,0.5217391304347826,2660.075501434999,49389.32182207104,13.0,3.0,10.0,0.2307692307692307,1590.2525226423509,23577.09295274238,71.0,36.0,35.0,0.5070422535211268,71.25143503848813,8651.223474346902,,,,,13565.0,13609.0,13724.0,13739.0,13749.0,13772.0,13781.0,13794.0,13979.0,14049.0,0.030309090264430436,-0.15890414884787085,0.05155395445679444,-0.17676659605457537,0.008759868866218557
12,12,14411.092118322347,2213.6330638715976,20.89804742154591,14561.945202431643,-7852.9953272817565,7.840472772378608,14587.233524719117,51427.70509394372,9.604053360741952,14610.45203459914,-8771.824959401665,6.284131270861635,14837.729698493353,8527.643485139837,32.218732482943494,0.9933690534791292,162.0,111.0,69.0,255.0,324.0,51.0,827.0,826.0,54.0,24.0,30.0,0.4444444444444444,45.171479671722274,2031.0311967437956,15.0,11.0,4.0,0.7333333333333333,1328.2134672694892,8483.5711080857,23.0,11.0,12.0,0.4782608695652174,2641.232704148162,51470.23860033661,14.0,3.0,11.0,0.2142857142857142,1656.7699690969137,23944.248922198993,76.0,38.0,38.0,0.5,70.52935700751422,9269.517725370508,,,,,14389.0,14440.0,14551.0,14566.0,14576.0,14599.0,14607.0,14620.0,14802.0,14875.0,0.02040603766223039,-0.16913463104392784,0.051358167729308256,-0.1888740343959079,0.008270673736585937
13,13,15274.601868196438,1874.0968412607424,18.93941871536757,15429.198977940032,-7914.371981260351,8.486590630191305,15454.265374820969,49942.44814387431,9.580972403687175,15477.45203459914,-9304.831477760532,6.465513616549802,15707.181830616182,8730.116265213606,30.264881549421407,0.9916719868826228,164.0,115.0,69.0,257.0,326.0,49.0,865.0,867.0,51.0,22.0,29.0,0.4313725490196078,46.573659882712384,1776.273104147784,15.0,11.0,4.0,0.7333333333333333,1278.8633274408242,7648.249189214599,23.0,11.0,12.0,0.4782608695652174,2607.227467564123,50088.44751608935,14.0,3.0,11.0,0.2142857142857142,1648.016237838043,24136.509805340997,74.0,37.0,37.0,0.5,77.52163548799723,9378.696216040153,,,,,15254.0,15303.0,15418.0,15433.0,15443.0,15466.0,15474.0,15487.0,15672.0,15744.0,0.024851255739474675,-0.16158746776988958,0.05220463882854153,-0.17711403390560754,0.008879794166876476
14,14,16950.800582001953,1589.5039154386882,16.646116534344678,17102.837644541738,-8090.127193106044,8.147975543966796,17128.18010686159,51699.24543236486,9.645347121397746,17151.45203459914,-8774.818745733735,6.356157133751597,17381.175552763623,8139.187581102863,29.66771877934157,0.9948099950557688,160.0,114.0,69.0,256.0,325.0,46.0,1675.0,1674.0,48.0,20.0,28.0,0.4166666666666667,47.51404734556163,1480.9751638276964,16.0,12.0,4.0,0.75,1346.1443999148885,8540.397341584034,23.0,11.0,12.0,0.4782608695652174,2654.084849762623,51675.08804038214,14.0,3.0,11.0,0.2142857142857142,1655.6194634139536,24018.92901256562,73.0,36.0,37.0,0.4931506849315068,69.2834977354523,8689.234440965554,,,,,16932.0,16978.0,17092.0,17107.0,17117.0,17140.0,17148.0,17161.0,17346.0,17417.0,0.029892375151808415,-0.1663934778506323,0.051337013288420406,-0.18867848002204102,0.008512335788440493
15,15,17793.039349411705,2393.898830453191,26.85925439019817,17944.690448191206,-7364.46889832447,7.194391548626915,17970.239963726184,51813.26646756742,9.451600861683408,17993.876695499283,-8281.39839087283,5.879346889980698,18222.24070093997,8763.026863755691,32.36270470129129,0.9948666251002782,165.0,110.0,69.0,257.0,326.0,55.0,841.0,842.0,58.0,26.0,32.0,0.4482758620689655,52.130995890488975,2348.1886469152805,15.0,11.0,4.0,0.7333333333333333,1321.6121171346654,8829.78678272763,23.0,11.0,12.0,0.4782608695652174,2640.796102803293,51742.89459979617,13.0,4.0,9.0,0.3076923076923077,1558.919671768981,22357.222347955227,76.0,37.0,39.0,0.4868421052631579,63.96404407281692,9365.76769349353,,,,,17769.0,17824.0,17934.0,17949.0,17959.0,17982.0,17991.0,18003.0,18187.0,18260.0,0.021776607777789846,-0.17945789918881355,0.050967566471731764,-0.18824353064418586,0.00729930936733463
16,16,19439.7945744023,2060.9150295363725,22.238771872128975,19591.634710927676,-7875.84347490671,7.8798171978762435,19616.86915739893,51369.63947976174,9.669490151306446,19639.876695499283,-8523.801088925593,6.27885948165723,19869.365006124604,8416.4170510317,31.750271304848365,0.9945005725274132,164.0,110.0,68.0,257.0,325.0,54.0,1646.0,1647.0,57.0,25.0,32.0,0.4385964912280701,46.13091837888931,1866.9731444063004,16.0,12.0,4.0,0.75,1367.411603326443,9451.646745309825,23.0,12.0,11.0,0.5217391304347826,2632.2220482176144,50321.75932070159,13.0,3.0,10.0,0.2307692307692307,1601.9597290195122,23152.3569706171,75.0,37.0,38.0,0.4933333333333333,72.35483371224048,9148.86500264758,,,,,19417.0,19471.0,19581.0,19596.0,19605.0,19628.0,19637.0,19649.0,19834.0,19906.0,0.02238370709988321,-0.17362097249433212,0.05124081217768015,-0.18793959552866993,0.008596868866351044
17,17,20283.496975484464,2088.6205164171324,21.48167636313576,20434.586534980062,-7801.557207170862,7.6100086328661005,20460.02163351365,52068.92645969062,9.56227486611096,20483.45203459914,-8562.295839140488,6.14645675031461,20711.772296164152,8620.801836345443,32.74351680653643,0.9935922364478268,164.0,110.0,69.0,256.0,325.0,54.0,845.0,843.0,56.0,24.0,32.0,0.4285714285714285,47.753580037429955,1986.5031300967416,15.0,11.0,4.0,0.7333333333333333,1365.4767297796382,9191.90888344914,23.0,11.0,12.0,0.4782608695652174,2663.373772664541,51429.4301864175,13.0,3.0,10.0,0.2307692307692307,1646.2002507879615,23736.96361698344,75.0,37.0,38.0,0.4933333333333333,74.40963942783495,9448.457520117816,,,,,20260.0,20314.0,20424.0,20439.0,20449.0,20472.0,20480.0,20493.0,20676.0,20749.0,0.02286369384101787,-0.17502617663619124,0.05115092539360117,-0.1922615478038905,0.00863140585300577
18,18,21921.74310057604,827.4062898445844,7.8648272844095315,22078.54796540086,-9352.783585358951,13.320717589337606,22102.574891754975,50040.969933757944,9.955732953147514,22125.68280461879,-10808.82300438025,7.967502227788297,22356.44980618795,7262.350750456936,25.99982228662356,0.9874923940932864,153.0,132.0,73.0,252.0,325.0,21.0,1642.0,1643.0,21.0,11.0,10.0,0.5238095238095238,44.14830291916254,829.7482372516454,20.0,16.0,4.0,0.8,1432.99279931175,9623.688988836668,22.0,11.0,11.0,0.5,2575.94496280907,46774.964058823214,15.0,4.0,11.0,0.2666666666666666,1592.651030674311,24974.940590243474,67.0,33.0,34.0,0.4925373134328358,67.46437127440537,7538.197089907451,,,,,21911.0,21932.0,22064.0,22082.0,22092.0,22114.0,22122.0,22137.0,22324.0,22389.0,0.05335746592820212,-0.1532156481793279,0.05147671930058498,-0.1473473133965551,0.00928960519707212
19,19,22731.219235302444,2355.635030121641,22.329190252995303,22876.055887493487,-7498.091439768316,7.344845563999962,22901.548406723537,50730.46327129677,9.545134933820952,22924.876695499283,-8153.300565976642,5.938968424823892,23151.475565617635,8766.745921161484,33.196504740086844,0.9935120332881028,159.0,105.0,68.0,255.0,323.0,54.0,804.0,799.0,57.0,26.0,31.0,0.4561403508771929,38.59118841299002,2086.6863502359,15.0,11.0,4.0,0.7333333333333333,1278.2567294172602,7873.245773029777,23.0,12.0,11.0,0.5217391304347826,2584.8983909887315,48535.80881444574,12.0,3.0,9.0,0.25,1557.3364533550462,22220.771837655924,77.0,38.0,39.0,0.4935064935064935,75.87855810178647,9644.430922618396,,,,,22707.0,22761.0,22866.0,22880.0,22890.0,22913.0,22922.0,22934.0,23115.0,23189.0,0.01638249895230894,-0.1704776128279328,0.05095357353953563,-0.19100687393443355,0.0086552705854778
20,20,23494.029407057897,1944.02074298082,20.27880349571383,23640.10229629807,-8038.075805256583,8.46936604127369,23665.215230572572,49302.06447629596,9.64656479909589,23688.45203459914,-9155.77337894856,6.500885429802893,23914.46833200361,8674.028700276473,30.976952240118603,0.993859067656422,156.0,105.0,69.0,253.0,322.0,51.0,766.0,763.0,52.0,22.0,30.0,0.4230769230769231,48.04862342731393,1905.6794445614523,16.0,12.0,4.0,0.75,1285.1329792833117,7586.617498943562,23.0,11.0,12.0,0.4782608695652174,2560.8340802995153,49365.33091604042,14.0,3.0,11.0,0.2142857142857142,1620.2990819505549,23748.415637245587,74.0,36.0,38.0,0.4864864864864865,74.74377609440714,9370.264516110306,,,,,23473.0,23524.0,23629.0,23644.0,23654.0,23677.0,23685.0,23698.0,23879.0,23951.0,0.02471610634855658,-0.15988067423336386,0.051941721051676125,-0.1769702039235738,0.008616962045793644
21,21,24231.195965263367,2251.249521316187,22.838887913713485,24376.28120357158,-8106.617770301835,8.32525684171137,24401.57016533256,50090.55833059682,9.639358657419422,24424.876695499283,-8956.203103709024,6.509662540700962,24650.329883052596,8444.234792848347,29.79833729398044,0.9951098802344284,156.0,103.0,70.0,251.0,321.0,53.0,738.0,737.0,54.0,23.0,31.0,0.4259259259259259,50.57555884709616,2326.3602473687383,16.0,11.0,5.0,0.6875,1269.6362517214363,7071.266761681909,23.0,12.0,11.0,0.5217391304347826,2592.467638942042,48059.12776850228,13.0,3.0,10.0,0.2307692307692307,1565.6879456108372,23099.956785850627,71.0,35.0,36.0,0.4929577464788732,75.22579148491113,9093.40986735414,,,,,24209.0,24262.0,24365.0,24381.0,24390.0,24413.0,24422.0,24435.0,24616.0,24686.0,0.022465550072622468,-0.15661725860230905,0.05175561473744813,-0.17481603839046933,0.00890853858642371
22,22,24953.04615724728,3147.045884507412,16.88382698631788,25104.244978996412,-8182.718673822243,8.539925882128905,25129.30061469461,50295.42577027283,9.662036077598176,25152.45203459914,-8981.073101260845,6.462667845633064,25377.510953369183,8496.669838836437,30.404702354383847,0.9925057248314484,159.0,118.0,69.0,252.0,321.0,41.0,723.0,727.0,41.0,19.0,22.0,0.4634146341463415,77.6163507150412,3200.1543299369796,15.0,11.0,4.0,0.7333333333333333,1297.489822718407,7580.586409298946,23.0,11.0,12.0,0.4782608695652174,2603.563176044084,50680.673111840035,14.0,3.0,11.0,0.2142857142857142,1640.966562955975,23908.56876646883,74.0,38.0,36.0,0.5135135135135135,73.53034745418569,9115.810970020217,,,,,24934.0,24975.0,25093.0,25108.0,25118.0,25141.0,25149.0,25162.0,25342.0,25414.0,0.024663240881595855,-0.15856463779810415,0.05176540681723233,-0.18271386330499872,0.00865401961579046
23,23,26505.053541796387,3325.998102777187,18.16462756462555,26661.38405013187,-8518.534462222087,9.369639674110587,26686.11971467073,50379.052227971995,9.727635685307224,26709.45203459914,-9198.329194837634,6.654294934451447,26936.408770029444,8120.246175203486,30.10096079978254,0.9951927086213574,163.0,122.0,70.0,253.0,323.0,41.0,1553.0,1557.0,41.0,19.0,22.0,0.4634146341463415,80.24957892945646,3528.6766682031366,16.0,12.0,4.0,0.75,1312.6920459325288,7562.345402840982,23.0,11.0,12.0,0.4782608695652174,2615.585602136514,50369.28198826767,14.0,3.0,11.0,0.2142857142857142,1632.3889752389764,24101.662151000502,72.0,36.0,36.0,0.5,74.3340451525634,8756.866942545079,,,,,26486.0,26527.0,26649.0,26665.0,26675.0,26698.0,26706.0,26719.0,26901.0,26972.0,0.024127968943352247,-0.15409834306053966,0.0519181184731431,-0.1774658136996358,0.009154161530170686
24,24,27361.0623938924,2275.677669621029,32.03430946626553,27511.67789776405,-7184.228616853719,6.8436637672532985,27537.276421771025,53378.01686613107,9.457319626835703,27560.876695499283,-7554.769635359504,5.472592908091505,27787.41003944105,8898.304614979796,40.9294211541315,0.9852251813847188,167.0,108.0,67.0,260.0,327.0,59.0,850.0,851.0,63.0,29.0,34.0,0.4603174603174603,41.13319041414193,2277.2576326537264,15.0,11.0,4.0,0.7333333333333333,1347.8139729709626,9437.707187807511,23.0,11.0,12.0,0.4782608695652174,2681.3817860743043,53480.63382548077,11.0,3.0,8.0,0.2727272727272727,1573.4782140312216,21873.522674800744,84.0,41.0,43.0,0.4880952380952381,70.04018988533298,10204.328810522851,,,,,27335.0,27394.0,27502.0,27516.0,27526.0,27549.0,27558.0,27569.0,27748.0,27829.0,0.018075139095156602,-0.1876073333480899,0.050233821777213125,-0.20827613414797994,0.007871183659797875
25,25,28995.974409349164,1870.2654462639969,18.770181427587712,29151.231799701487,-7845.696790955717,8.297888803457452,29176.33978983927,49346.34098012038,9.625659569174578,29199.45203459914,-9298.566056556663,6.5673122514354985,29427.83465509826,8021.473007382787,29.989587930938256,0.9945912450637062,164.0,116.0,69.0,254.0,323.0,48.0,1638.0,1639.0,50.0,21.0,29.0,0.42,49.64935863556538,1797.8588510015857,15.0,11.0,4.0,0.7333333333333333,1265.9101414611,7516.004220480985,23.0,11.0,12.0,0.4782608695652174,2568.1444071839132,49603.96343415595,14.0,3.0,11.0,0.2142857142857142,1636.2931796593773,24031.187919047887,72.0,36.0,36.0,0.5,71.4403018610738,8630.008698656904,,,,,28976.0,29024.0,29140.0,29155.0,29165.0,29188.0,29196.0,29209.0,29394.0,29463.0,0.026546690863986123,-0.1613508876509736,0.05204325905781978,-0.17597263596418547,0.00890613255138074
26,26,29854.71633721406,1574.1199961248965,15.873231185446771,30010.2733021287,-8485.120779646064,8.76269643727506,30035.467267985856,51673.90430379147,9.631360615385931,30058.876695499283,-9026.043345443528,6.455565420442718,30287.48009981965,8218.226869087906,30.789071176958338,0.9927593271128702,162.0,132.0,69.0,256.0,325.0,30.0,859.0,860.0,47.0,19.0,28.0,0.4042553191489361,51.79826455294434,1454.592441145866,17.0,12.0,5.0,0.7058823529411765,1314.4571524217945,7266.665025632462,23.0,11.0,12.0,0.4782608695652174,2669.6720648020914,52645.811261086186,13.0,3.0,10.0,0.2307692307692307,1594.6480717433906,23552.819175015135,74.0,36.0,38.0,0.4864864864864865,72.59714587119473,8894.136788631606,,,,,29837.0,29867.0,29999.0,30015.0,30024.0,30047.0,30056.0,30068.0,30252.0,30324.0,0.03290617276983913,-0.1549131929359082,0.05166383498152296,-0.1766718827633806,0.008833675077073147
27,27,30716.03217567299,2126.072597514965,21.86664042143258,30869.172167424593,-7861.509001269481,7.771032047364461,30894.567644942057,51928.880908532534,9.555655179712875,30917.876695499283,-8659.982323474951,6.119480519668662,31145.899338566134,8290.678713751255,31.296520821882304,0.9941362406213882,165.0,112.0,69.0,256.0,325.0,53.0,860.0,859.0,55.0,24.0,31.0,0.4363636363636363,45.426882452999465,1986.140012596355,15.0,11.0,4.0,0.7333333333333333,1301.7002078499495,7805.328098656761,23.0,12.0,11.0,0.5217391304347826,2668.2570563763147,49808.638583188214,12.0,3.0,9.0,0.25,1604.8356368519808,23164.400924389854,75.0,37.0,38.0,0.4933333333333333,71.91196177603851,8991.309278560486,,,,,30693.0,30746.0,30858.0,30873.0,30883.0,30906.0,30915.0,30927.0,31111.0,31183.0,0.0213665716335821,-0.1655789248145299,0.05138291081366031,-0.18531627166278278,0.008673832898235753
28,28,31590.28555666279,1872.594837353936,18.30517270050461,31743.54796526948,-8086.767721694668,8.485798129228828,31768.425688340732,50503.69518695729,9.658993905745255,31791.45203459914,-9644.196690031697,6.687397338214328,32020.71494809949,8567.7343712076,29.76036407532616,0.9934390348974788,162.0,114.0,69.0,255.0,324.0,48.0,874.0,874.0,50.0,21.0,29.0,0.42,50.4204207410434,1783.792078810035,17.0,13.0,4.0,0.7647058823529411,1384.1939317888643,9722.575408733954,23.0,11.0,12.0,0.4782608695652174,2631.984798532191,51026.32012327676,14.0,3.0,11.0,0.2142857142857142,1682.597652810537,24801.871313404292,73.0,37.0,36.0,0.5068493150684932,73.08977750628637,9083.796948313384,,,,,31570.0,31618.0,31732.0,31747.0,31757.0,31780.0,31788.0,31801.0,31986.0,32056.0,0.026925429748748966,-0.1711677618828394,0.05211469752438843,-0.174467372129571,0.0085308174062806
29,29,33293.65435487001,1615.5094790156056,16.538619400328137,33445.30941266077,-8497.745006146044,9.22008145984388,33470.20084365763,51346.31631431953,9.734745889199948,33493.45203459914,-9067.791577975178,6.5090921320446435,33722.80918811886,8074.433013030618,29.52464444026422,0.9920238578415468,159.0,112.0,70.0,255.0,325.0,47.0,1703.0,1701.0,51.0,22.0,29.0,0.4313725490196078,38.86657285334244,1369.982701021936,16.0,12.0,4.0,0.75,1328.0307724700024,7822.203545559896,23.0,11.0,12.0,0.4782608695652174,2649.9479028936707,51615.08361548339,14.0,3.0,11.0,0.2142857142857142,1659.258564895844,24238.897075751724,71.0,35.0,36.0,0.4929577464788732,70.2427079131904,8630.060027279716,,,,,33274.0,33321.0,33433.0,33449.0,33459.0,33482.0,33490.0,33503.0,33689.0,33758.0,0.024058399754500602,-0.15628037455930913,0.05160930896525969,-0.18298375636754033,0.008699398186824
30,30,34161.41864934526,1250.5247945384356,12.8269538966574,34315.54796537424,-9248.13154526762,10.039244649683164,34339.66960369781,51195.33426474563,9.899813298639794,34362.87669549931,-9667.936731834943,6.797170997254487,34592.79831989736,8102.85036733889,28.26580446626099,0.990818134663176,158.0,131.0,70.0,255.0,325.0,27.0,870.0,870.0,28.0,16.0,12.0,0.5714285714285714,46.95856774190115,1219.6512638224958,18.0,15.0,3.0,0.8333333333333334,1488.366148930822,10771.9183073064,22.0,11.0,11.0,0.5,2652.0132691232193,49872.13050710737,14.0,3.0,11.0,0.2142857142857142,1624.7338977706738,24163.718212048167,70.0,35.0,35.0,0.5,69.42787394401584,8538.55965654025,,,,,34145.0,34172.0,34303.0,34319.0,34329.0,34351.0,34360.0,34373.0,34559.0,34628.0,0.037551088908423756,-0.16093695701078525,0.05180185474342065,-0.16805384052842312,0.00856832729182152
31,31,35023.15013625553,2197.1779483979976,22.82887570923364,35174.1809419912,-7984.744669431045,8.097033562372788,35199.30416869465,50601.95752189707,9.56971748053162,35222.45203459914,-9447.442742860288,6.504572512423511,35450.596878495926,9125.245811820318,32.04742061963243,0.9928420190045114,164.0,110.0,69.0,257.0,326.0,54.0,859.0,859.0,57.0,26.0,31.0,0.4561403508771929,37.07515361152453,2090.790879643979,15.0,11.0,4.0,0.7333333333333333,1299.4039518498796,7767.505601530896,23.0,11.0,12.0,0.4782608695652174,2638.7315564139717,50740.03832368883,14.0,3.0,11.0,0.2142857142857142,1672.209640757109,24534.421335030573,77.0,38.0,39.0,0.4935064935064935,67.69100478345594,9732.184191204946,,,,,34999.0,35053.0,35163.0,35178.0,35188.0,35211.0,35219.0,35232.0,35414.0,35489.0,0.01687398767066486,-0.16273581756778568,0.05214682762563304,-0.17700129932206757,0.00741799247706543
32,32,36694.794574402295,2018.3803112255305,20.114926268601884,36844.307285980285,-8184.077692070562,8.18521357230407,36869.62241959405,52016.855449285955,9.656113959957189,36892.87669549929,-8789.399420498065,6.369661492091192,37122.77290789626,8330.237362200256,30.43440890205127,0.9955432694623916,161.0,108.0,69.0,257.0,326.0,53.0,1671.0,1671.0,55.0,24.0,31.0,0.4363636363636363,42.28322269107371,1778.208237246155,16.0,11.0,5.0,0.6875,1306.284940029631,7564.318659117763,23.0,12.0,11.0,0.5217391304347826,2671.9254813944676,50179.316031841154,13.0,3.0,10.0,0.2307692307692307,1606.292193524645,23479.0264376052,73.0,37.0,36.0,0.5068493150684932,72.59067519863092,8927.0714230827,,,,,36672.0,36725.0,36833.0,36848.0,36858.0,36881.0,36890.0,36902.0,37088.0,37159.0,0.02094908598538596,-0.1596129691309348,0.051366532219531656,-0.18275335056210495,0.008714118462941088
33,33,37520.9297860971,2132.989710345054,22.777934667365,37673.80845320629,-7617.030867936603,8.006475496558284,37698.83208073219,49061.62578706744,9.57946217225843,37721.87669549929,-9872.2588919607,6.593485298145691,37948.060374251465,9229.434604634458,33.63669114118667,0.9912834708086484,166.0,110.0,69.0,255.0,324.0,56.0,831.0,829.0,57.0,25.0,32.0,0.4385964912280701,46.13387461840274,2154.6280321844993,16.0,12.0,4.0,0.75,1303.30111771595,8676.947681625428,23.0,12.0,11.0,0.5217391304347826,2580.3515538465977,47542.89470340082,14.0,4.0,10.0,0.2857142857142857,1615.4329305687954,23879.86711436231,80.0,40.0,40.0,0.5,68.69232241206868,9996.120614072464,,,,,37497.0,37553.0,37663.0,37678.0,37687.0,37710.0,37719.0,37732.0,37910.0,37987.0,0.021628737538982156,-0.17110356257083212,0.052594089829912934,-0.16363356636486656,0.007442744366764957
34,34,38317.07186962299,1592.9094786571736,16.745820618910457,38469.20020088977,-7971.048158678533,8.624551242763811,38494.291684354546,49510.998849376185,9.659478409085697,38517.45203459914,-9541.746287492844,6.60027256355407,38745.453793302215,8040.790163112437,29.379686955299004,0.9929262206904348,160.0,113.0,69.0,254.0,323.0,47.0,794.0,795.0,49.0,20.0,29.0,0.4081632653061224,46.244072351468205,1501.7737679592128,16.0,12.0,4.0,0.75,1273.5091707360452,7560.433071899046,23.0,11.0,12.0,0.4782608695652174,2578.2991506602725,49654.04975528059,14.0,3.0,11.0,0.2142857142857142,1648.7981103745794,24269.749762699375,71.0,35.0,36.0,0.4929577464788732,75.82000233740631,8677.568839551484,,,,,38298.0,38345.0,38458.0,38473.0,38483.0,38506.0,38514.0,38527.0,38712.0,38781.0,0.029031199180541048,-0.15976683936472064,0.052075280454430946,-0.17279836003770038,0.009429421835335874
35,35,39157.08542862107,1998.4047414840015,22.00455210774966,39309.30720655901,-8180.621591322302,8.35887452823342,39334.4300724506,50520.25974082961,9.61877536686198,39357.45203459914,-9293.266045286631,6.4389692868965955,39585.29853600623,8594.901229720104,32.0189225832651,0.9933808563226446,166.0,110.0,69.0,257.0,326.0,56.0,840.0,841.0,58.0,26.0,32.0,0.4482758620689655,40.65480551657278,1871.514357528024,16.0,11.0,5.0,0.6875,1290.4590565618523,7336.241167324351,23.0,11.0,12.0,0.4782608695652174,2626.3295863117673,51178.15191821664,14.0,3.0,11.0,0.2142857142857142,1673.7973809797063,24374.598472790218,76.0,37.0,39.0,0.4868421052631579,69.31894162368856,9226.161068310152,,,,,39132.0,39188.0,39298.0,39313.0,39323.0,39346.0,39354.0,39367.0,39549.0,39624.0,0.020343629432335513,-0.1577458439014858,0.05198567069498284,-0.18010862627016092,0.008065123701944617
36,36,39998.13788993834,1448.9188002773733,12.087360710514789,40152.03496926435,-8895.628515816512,9.411787226324243,40176.70956957006,51864.56495926389,9.817998523990497,40199.87669549929,-9459.77843087179,6.759586132878731,40429.49641991577,7938.258726067996,28.259932554989973,0.9950164716404198,157.0,131.0,70.0,254.0,324.0,26.0,842.0,842.0,26.0,15.0,11.0,0.5769230769230769,61.434838047396774,1446.6320260936031,17.0,13.0,4.0,0.7647058823529411,1400.0490749647738,8895.693013055881,23.0,12.0,11.0,0.5217391304347826,2686.486654862294,50529.95354695758,13.0,3.0,10.0,0.2307692307692307,1631.635245245489,24242.383655734902,70.0,34.0,36.0,0.4857142857142857,64.79308794759966,8321.997781552805,,,,,39983.0,40009.0,40140.0,40156.0,40165.0,40188.0,40197.0,40210.0,40395.0,40464.0,0.04240046994740907,-0.15738618946097774,0.05179811412613502,-0.1724813384551039,0.00816212852005306
37,37,41632.562914482245,2188.0363662295867,25.67865520236948,41787.87596989705,-7783.233801211928,7.65212811178696,41813.0632840958,51249.37754142669,9.664495663128877,41835.87669549929,-8457.598126422412,6.179332193142575,42064.04168602367,8461.675173984946,32.22093511076366,0.9938168669080764,167.0,111.0,68.0,256.0,324.0,56.0,1635.0,1636.0,57.0,24.0,33.0,0.4210526315789473,55.409016959879374,2382.2410967166597,15.0,11.0,4.0,0.7333333333333333,1347.2538496985185,9035.645977806353,23.0,11.0,12.0,0.4782608695652174,2623.338048226027,50784.75504196626,13.0,3.0,10.0,0.2307692307692307,1617.868999865526,23099.746742899137,75.0,37.0,38.0,0.4933333333333333,75.72348028827479,9292.981366918044,,,,,41610.0,41666.0,41777.0,41792.0,41802.0,41825.0,41833.0,41845.0,42028.0,42101.0,0.025323627072688884,-0.17309692656139117,0.05118770556979915,-0.1912917799689649,0.008948993991294224
38,38,42503.52059170187,1453.2477096066095,16.581510104861255,42658.7799694843,-8823.779510617234,9.168229359878149,42683.58371483246,51738.97107608969,9.759397607804312,42706.87669549929,-9386.753071314368,6.7310382482711395,42937.53523337275,8262.028409321856,29.109934618799084,0.9939927082978368,162.0,114.0,70.0,255.0,325.0,48.0,868.0,871.0,52.0,21.0,31.0,0.4038461538461538,41.40162654085196,1300.726338350671,17.0,13.0,4.0,0.7647058823529411,1414.8165174788985,9144.137502444137,23.0,12.0,11.0,0.5217391304347826,2684.137130168374,49966.35896056716,13.0,3.0,10.0,0.2307692307692307,1615.4385932671923,24069.575566227883,70.0,35.0,35.0,0.5,73.93072577700323,8817.236278863173,,,,,42485.0,42533.0,42647.0,42663.0,42672.0,42695.0,42704.0,42717.0,42903.0,42972.0,0.028489036154792407,-0.16034132718032187,0.051878440454893454,-0.17209769778688688,0.008948253638729795
39,39,43362.108276429884,1955.2737260823144,18.12089115410862,43513.43214145446,-7923.920647363978,7.946206747477967,43538.69286984752,51557.76279185007,9.613529991027102,43561.87669549929,-8696.560591623958,6.191586922715488,43789.7036623119,8417.578481545266,31.23594175169745,0.9920272714604744,161.0,112.0,69.0,256.0,325.0,49.0,858.0,855.0,51.0,22.0,29.0,0.4313725490196078,45.11785460815301,1736.931391428507,16.0,11.0,5.0,0.6875,1282.1899755167165,7418.585389938222,23.0,12.0,11.0,0.5217391304347826,2650.1897938015336,49932.766873717,13.0,3.0,10.0,0.2307692307692307,1607.270884726964,23184.647305798673,75.0,38.0,37.0,0.5066666666666667,69.12396001917854,9058.37936939796,,,,,43341.0,43390.0,43502.0,43518.0,43527.0,43550.0,43559.0,43571.0,43754.0,43827.0,0.023074955698685437,-0.16181257139964647,0.051402342737424965,-0.1848168442907185,0.00821185809799412
40,40,45010.05373309562,2067.670116407374,24.507349106189228,45162.40502405792,-7904.594107616687,7.797819816750809,45187.72345050934,50756.78264591991,9.55844620127638,45210.87669549929,-8757.858670984648,6.1600750600118905,45439.4053529361,8585.86722565801,32.76324687167369,0.993907579614714,166.0,110.0,68.0,257.0,325.0,56.0,1649.0,1649.0,58.0,25.0,33.0,0.4310344827586206,44.25751965534411,2013.3389330890711,16.0,11.0,5.0,0.6875,1266.6221035280707,7044.451625625894,23.0,12.0,11.0,0.5217391304347826,2623.8373412117717,49184.00536478806,13.0,3.0,10.0,0.2307692307692307,1597.6900883630944,23059.214664863382,76.0,37.0,39.0,0.4868421052631579,73.67543946511074,9385.660232358106,,,,,44986.0,45042.0,45152.0,45167.0,45176.0,45199.0,45208.0,45220.0,45403.0,45477.0,0.021404536102810543,-0.1602387277934464,0.05169431954573837,-0.1824293070241411,0.008581013138071716
41,41,45854.94525260201,1820.2127346073885,16.919664782377033,46007.88479865238,-8131.600858415808,8.158290873770385,46033.15722283237,51809.72200036618,9.626345676946247,46056.45203459914,-8805.55043754197,6.341109119421589,46284.6099881605,8164.430507033688,29.245854295221054,0.9933110830913712,162.0,114.0,69.0,254.0,323.0,48.0,844.0,845.0,50.0,21.0,29.0,0.42,49.9582091929091,1649.0412999546795,16.0,12.0,4.0,0.75,1351.275162133392,8504.073488503895,23.0,11.0,12.0,0.4782608695652174,2664.910386085966,51722.066248001865,14.0,3.0,11.0,0.2142857142857142,1657.8966343957168,24087.134549805,72.0,36.0,36.0,0.5,72.57063539552709,8717.686658177168,,,,,45835.0,45883.0,45997.0,46012.0,46022.0,46045.0,46053.0,46066.0,46250.0,46320.0,0.02744635736420384,-0.16617578575993294,0.05143649267346254,-0.18827859157189852,0.008888634097994614
42,42,46704.36712399886,2144.1124997388993,22.1431739906476,46856.83563956803,-7793.155773484242,7.819284423143621,46882.18707306984,51129.18814719716,9.550424866890236,46905.45203459914,-8833.109607761866,6.236143173728041,47133.85661936123,8955.662103354513,31.284368962062544,0.9928028417497884,165.0,111.0,69.0,256.0,325.0,54.0,850.0,849.0,57.0,24.0,33.0,0.4210526315789473,49.14385793223008,1980.3186618979496,15.0,11.0,4.0,0.7333333333333333,1323.0378339677836,8442.918073426603,23.0,11.0,12.0,0.4782608695652174,2637.1479404066326,50974.11431902931,13.0,3.0,10.0,0.2307692307692307,1652.1073221437168,23873.584036077136,74.0,37.0,37.0,0.5,74.83038404138819,9680.872872337352,,,,,46681.0,46735.0,46846.0,46861.0,46871.0,46894.0,46902.0,46915.0,47098.0,47171.0,0.022920372852737254,-0.16976920164605752,0.05157813053503761,-0.18703575473488637,0.008355650668570786
43,43,47514.022579215976,2319.1984266465975,25.907812193084453,47665.69710017429,-7713.392568953054,7.690947140498427,47690.91239435924,50378.0508294272,9.604587318149605,47713.87669549929,-8405.530428108746,6.0857375524014365,47941.793909681735,8137.7975862971825,32.41396162552524,0.9932898758412458,166.0,109.0,68.0,256.0,324.0,57.0,809.0,809.0,58.0,26.0,32.0,0.4482758620689655,43.251569060445895,2273.1374411771126,16.0,12.0,4.0,0.75,1338.094767934315,9020.624698345177,23.0,12.0,11.0,0.5217391304347826,2590.9029075022813,49490.40292200973,13.0,3.0,10.0,0.2307692307692307,1588.7893563634766,22656.850273291675,75.0,37.0,38.0,0.4933333333333333,73.42873536038354,8975.26328561789,,,,,47489.0,47546.0,47655.0,47670.0,47679.0,47702.0,47711.0,47723.0,47907.0,47979.0,0.018649361160090434,-0.17347681399235926,0.05142920110733748,-0.18901714412340256,0.009023170530073935
44,44,48377.39461833998,1414.569185828427,14.297421371429047,48531.1898742457,-8478.087930557518,9.088705053966745,48555.88523246212,51365.442380554734,9.812417224936535,48578.87669549929,-9287.577835178616,6.70340612513061,48808.31977027117,8007.406131860322,29.790218354106877,0.9943237751979884,158.0,129.0,70.0,255.0,325.0,29.0,867.0,865.0,29.0,16.0,13.0,0.5517241379310345,53.072837389696694,1434.0377049806364,16.0,12.0,4.0,0.75,1362.157728428745,8771.168898310932,22.0,11.0,11.0,0.5,2655.4847424867476,50519.25391674083,14.0,3.0,11.0,0.2142857142857142,1626.9638463459794,24006.091756689504,74.0,37.0,37.0,0.5,62.944704385104856,8470.700249081998,,,,,48361.0,48390.0,48519.0,48535.0,48545.0,48567.0,48576.0,48589.0,48773.0,48844.0,0.03751872861461716,-0.16066803500812118,0.051697885181497566,-0.1751763350163827,0.007860810772998874
45,45,49208.643896202586,2335.3015146960283,38.59508775977763,49358.7723113785,-7306.28907224612,7.19554574213571,49383.95109397883,50467.73943612064,9.563934531139273,49406.87669549929,-8620.673948058144,6.0772666713640735,49637.21859537943,9851.210182583853,35.938762295631506,0.9718903250232028,165.0,106.0,68.0,275.0,343.0,59.0,826.0,828.0,63.0,28.0,35.0,0.4444444444444444,42.24728234865006,2499.759940260469,15.0,11.0,4.0,0.7333333333333333,1327.053312611541,9249.381437435904,23.0,12.0,11.0,0.5217391304347826,2594.9357678148076,49466.69159993876,13.0,3.0,10.0,0.2307692307692307,1608.4653914052024,22895.673096697567,99.0,44.0,55.0,0.4444444444444444,117.46161682726368,11085.393337012949,,,,,49183.0,49242.0,49348.0,49363.0,49372.0,49395.0,49404.0,49416.0,49597.0,49691.0,0.018090718514413812,-0.1816316463103717,0.051417713509822216,-0.18658232536071248,0.011923572297231701
46,46,50042.52679484423,1870.9454726325173,45.732773520182015,50175.34809227731,-5769.784506735228,6.787284878831291,50200.74952139662,51367.854284728965,9.379319424363128,50223.87669549929,-7768.236212037528,5.35500294957995,50443.26857334712,9167.980613506828,47.8296749923056,0.9877760432092236,178.0,84.0,67.0,261.0,328.0,94.0,850.0,817.0,102.0,60.0,42.0,0.5882352941176471,46.522309746098465,2076.2815893395796,14.0,10.0,4.0,0.7142857142857143,1172.589524332919,8980.378642780222,23.0,12.0,11.0,0.5217391304347826,2610.74595988121,49525.158122601904,11.0,3.0,8.0,0.2727272727272727,1587.8999504110143,21934.49625258969,105.0,53.0,52.0,0.5047619047619047,87.39033738303115,10789.823217242378,,,,,49987.0,50081.0,50165.0,50179.0,50189.0,50212.0,50221.0,50232.0,50396.0,50493.0,0.024865668415573416,-0.20322934469461085,0.050824508756196055,-0.204409328844871,0.009532125019361666
47,47,50813.36991350215,1366.8529831118694,38.219481012821205,50965.374133580175,-6635.8693202691975,6.2704025210058605,50990.90485017424,49529.50211768822,9.30776702063439,51013.87669549929,-8435.682895342748,5.22510194614731,51244.356103797414,10813.17090225664,21.842863964805304,0.94548156648123,178.0,134.0,66.0,248.0,314.0,44.0,756.0,790.0,48.0,38.0,10.0,0.7916666666666666,55.10159774436822,1291.44990686109,13.0,9.0,4.0,0.6923076923076923,1203.1681416743072,6949.816622858477,23.0,12.0,11.0,0.5217391304347826,2546.2390064184337,48068.886436529814,11.0,3.0,8.0,0.2727272727272727,1636.77517308713,21600.97821710255,72.0,45.0,27.0,0.625,114.87344965782256,10813.717330550247,,,,,50778.0,50822.0,50956.0,50969.0,50979.0,51002.0,51011.0,51022.0,51201.0,51270.0,0.04031274645128272,-0.18131281428331356,0.05140853223939653,-0.194029955060399,0.01062347489891695
48,48,51604.7672007033,3166.604950509415,58.60320421987331,51750.965296722905,-6355.8730509211155,6.09936519097354,51776.244331140195,52139.30506389324,9.39302363440948,51799.87669549929,-6938.875099940503,5.0796156383079225,52023.635603244285,8642.806829974958,39.52672010307737,0.9863126636759896,170.0,103.0,65.0,259.0,324.0,67.0,788.0,785.0,127.0,88.0,39.0,0.6929133858267716,33.1978592208139,2988.9551266185654,13.0,9.0,4.0,0.6923076923076923,1303.5334119804534,9640.656560806983,23.0,11.0,12.0,0.4782608695652174,2600.032265665924,52023.417977324265,11.0,3.0,8.0,0.2727272727272727,1531.592246537892,20526.89213816928,84.0,41.0,43.0,0.4880952380952381,77.25593124472337,9900.261301747583,,,,,51572.0,51639.0,51742.0,51754.0,51765.0,51788.0,51797.0,51807.0,51985.0,52066.0,0.010483738811648522,-0.2050911655309951,0.049867029537117115,-0.2207263028197502,0.008938754824044496
49,49,52405.25475851934,1373.5455948243198,10.09780152073314,52563.972626301,-9199.304792968764,10.816513590814926,52588.4548886938,51500.19006719085,9.85982647109044,52611.87669549929,-9578.906059373348,7.0678183449234355,52841.94908618272,7870.905146692901,27.929574660913207,0.9923135391018536,158.0,134.0,71.0,254.0,325.0,24.0,809.0,813.0,24.0,12.0,12.0,0.5,62.98803869009747,1377.7508941083786,18.0,14.0,4.0,0.7777777777777778,1404.7264106018488,8721.663057026453,23.0,11.0,12.0,0.4782608695652174,2652.289133872676,52392.2747592004,14.0,3.0,11.0,0.2142857142857142,1595.4643410289807,24180.36326247795,69.0,34.0,35.0,0.4927536231884058,75.84473653615572,8278.744305395094,,,,,52393.0,52417.0,52551.0,52568.0,52577.0,52600.0,52609.0,52622.0,52809.0,52876.0,0.045857988935674034,-0.1526991921906439,0.05150056981172902,-0.16656018246131082,0.009636088241772704
50,50,53224.228582193915,2050.71595919837,19.19909860581409,53379.00819402706,-8131.903866132523,7.925258509091018,53404.31324701629,50319.192604574986,9.505743777929364,53427.45203459914,-9054.079487655708,6.242137196114282,53655.0478365705,8813.114866566853,30.617458028709684,0.9925926253382694,164.0,114.0,69.0,254.0,323.0,50.0,816.0,815.0,50.0,20.0,30.0,0.4,61.0609992379722,2074.8280825513325,15.0,11.0,4.0,0.7333333333333333,1306.785516062662,7435.588135199481,23.0,11.0,12.0,0.4782608695652174,2623.5796155062417,50592.94371760865,13.0,3.0,10.0,0.2307692307692307,1655.1172781795394,23973.629447315376,75.0,38.0,37.0,0.5066666666666667,71.77137762927438,9427.433431907946,,,,,53204.0,53254.0,53368.0,53383.0,53393.0,53416.0,53424.0,53437.0,53619.0,53691.0,0.029775454257371214,-0.16069859378258491,0.05213874626572819,-0.1828034843780772,0.008143701598800663
51,51,53995.96400715388,1289.6680733128028,11.121366930899264,54152.972626301,-8780.3590726364,11.049670295658022,54176.97070459692,49052.64130263967,9.795678138135925,54200.45203459914,-10227.442504623756,7.102385122519292,54427.88938836927,7945.809918511341,27.33801057485204,0.9888283188153462,158.0,132.0,71.0,250.0,321.0,26.0,775.0,773.0,26.0,14.0,12.0,0.5384615384615384,52.79233407314714,1280.8201851156698,18.0,14.0,4.0,0.7777777777777778,1372.8125327359228,8999.280723865653,22.0,11.0,11.0,0.5,2567.0466232762533,48269.270401258495,14.0,3.0,11.0,0.2142857142857142,1627.1287533808277,24729.538282969505,68.0,34.0,34.0,0.5,74.8487550255412,8402.078264306801,,,,,53982.0,54008.0,54140.0,54157.0,54166.0,54188.0,54197.0,54211.0,54395.0,54461.0,0.04093482281649273,-0.15635038628593587,0.05233248516503662,-0.15909439262505892,0.009419902538967887
52,52,54834.95968534667,2355.487927533064,15.517813123106006,54988.67790883417,-8210.961187795612,8.235520680523486,55014.218666469176,52318.397675609165,9.546127663408557,55037.87669549929,-8717.955016077984,6.236016649411378,55265.20423183776,8572.98529455023,29.879928706630473,0.9929322812239744,161.0,125.0,69.0,254.0,323.0,36.0,840.0,837.0,36.0,18.0,18.0,0.5,68.28813859205795,2386.2362334455684,16.0,12.0,4.0,0.75,1354.1842088831447,8315.238064894666,23.0,11.0,12.0,0.4782608695652174,2689.4670238764525,52457.7969724924,13.0,4.0,9.0,0.3076923076923077,1576.7469113732602,23126.858506895216,73.0,36.0,37.0,0.4931506849315068,73.44125292355653,9192.617545897883,,,,,54817.0,54853.0,54978.0,54993.0,55003.0,55026.0,55035.0,55047.0,55230.0,55301.0,0.028991079849675597,-0.1649239568804613,0.051405760561552556,-0.18086201505575145,0.008566590330003537
53,53,55682.150923910216,3715.907220638385,180.90554346133004,55809.65728609885,-8111.072925237952,8.376575807896456,55834.686850973856,50045.23060396515,9.5168313462487,55857.87669549929,-9549.973474051953,6.307508949418352,56082.88654803193,10073.089251309182,43.42559674831572,0.9842683556960964,244.0,78.0,65.0,261.0,326.0,166.0,817.0,821.0,216.0,144.0,72.0,0.6666666666666666,51.48629868021174,4062.2573024271983,12.0,9.0,3.0,0.75,1348.7747388014411,11322.836131044922,23.0,12.0,11.0,0.5217391304347826,2635.1269664099746,50799.38348105849,11.0,3.0,8.0,0.2727272727272727,1620.6485368557169,21487.339905329984,94.0,49.0,45.0,0.5212765957446809,77.0889139946524,11839.67491035525,,,,,55557.0,55723.0,55801.0,55813.0,55823.0,55846.0,55855.0,55866.0,56037.0,56127.0,0.013855646985547315,-0.16628807942345955,0.05265490706323551,-0.16970188883342446,0.007652956513279507
54,54,56450.93286562452,1745.0394745903695,17.500641299693612,56603.035853352805,-7913.543499588972,8.130847897938391,56628.22252858076,50283.73942249321,9.584529034703309,56651.45203459914,-9229.76250398751,6.442809711392659,56879.01663306278,8267.927679025477,29.74584994623922,0.9928583930473184,162.0,113.0,69.0,253.0,322.0,49.0,793.0,793.0,52.0,23.0,29.0,0.4423076923076923,39.42824025840342,1525.4249762591944,15.0,11.0,4.0,0.7333333333333333,1301.2571502189282,7952.462859229663,23.0,11.0,12.0,0.4782608695652174,2612.65018032997,50234.39321565265,14.0,3.0,11.0,0.2142857142857142,1648.7591945825905,24148.23231370563,72.0,36.0,36.0,0.5,74.80989970667142,8912.01091445431,,,,,56430.0,56479.0,56592.0,56607.0,56617.0,56640.0,56648.0,56661.0,56845.0,56914.0,0.022594468969052293,-0.1644341944018524,0.05195815208526963,-0.17863506172236626,0.009048204412388993
55,55,57283.932087968606,2257.277776380148,27.51347943209892,57437.759620978446,-7761.606183931121,7.536104588772938,57462.987862283226,52499.181790268805,9.631757037859506,57485.87669549929,-8674.121126819191,6.14175854147323,57713.86548129836,8925.967976068638,33.78571918135344,0.992820235801078,168.0,111.0,68.0,257.0,325.0,57.0,834.0,835.0,59.0,26.0,33.0,0.4406779661016949,48.38792793871879,2278.0952396243915,15.0,11.0,4.0,0.7333333333333333,1378.210796969399,9582.629656354238,23.0,12.0,11.0,0.5217391304347826,2686.8803970837516,51693.81450998416,13.0,3.0,10.0,0.2307692307692307,1654.0457657370173,23613.935052078665,77.0,38.0,39.0,0.4935064935064935,73.07389997607073,9778.874843964424,,,,,57259.0,57316.0,57427.0,57442.0,57451.0,57474.0,57483.0,57495.0,57678.0,57752.0,0.021436408245827595,-0.17756773073886606,0.05117947185953647,-0.19068741853545657,0.008186663919475036
56,56,58969.6202042608,1959.3914497410883,19.474492035811515,59123.274620717486,-8274.82117747229,8.073506659633445,59148.59627291633,51839.30502710172,9.596715685153487,59171.87669549929,-8936.955613786511,6.346550480460622,59400.841460561816,8308.67430354651,31.199481170705567,0.994327543237118,164.0,114.0,69.0,256.0,325.0,50.0,1685.0,1686.0,54.0,24.0,30.0,0.4444444444444444,41.48033655680377,1710.9069117415356,16.0,11.0,5.0,0.6875,1310.8754784252858,7341.405428682245,23.0,12.0,11.0,0.5217391304347826,2679.202570076724,49885.56546616061,13.0,3.0,10.0,0.2307692307692307,1609.3422076652694,23556.16068351786,73.0,36.0,37.0,0.4931506849315068,72.51998678671983,8988.993579531345,,,,,58948.0,58998.0,59112.0,59128.0,59137.0,59160.0,59169.0,59181.0,59366.0,59437.0,0.021170009985643723,-0.15841737849200496,0.05168284120853916,-0.18007722956379382,0.008728225964491722
57,57,59849.36858298797,1805.930963852752,17.366691060969,60003.57679401979,-8479.82377614815,8.447906791904186,60028.73495974598,52331.42918171797,9.671766787627243,60051.87669549929,-9198.41299220452,6.477816243729353,60281.84039732845,8419.893368789968,30.37168255694944,0.9931557706783,163.0,115.0,70.0,256.0,326.0,48.0,881.0,880.0,50.0,21.0,29.0,0.42,47.80692366735943,1701.987649816586,16.0,12.0,4.0,0.75,1413.3722797366986,9382.4101552235,23.0,12.0,11.0,0.5217391304347826,2708.158662131416,50875.09457283429,13.0,3.0,10.0,0.2307692307692307,1641.3244834529953,24092.9358229412,74.0,37.0,37.0,0.5,73.90909725310051,9040.647059729765,,,,,59829.0,59877.0,59992.0,60008.0,60017.0,60040.0,60049.0,60062.0,60246.0,60318.0,0.026472176746650766,-0.16667472308943485,0.05175013762241207,-0.1784356154527946,0.008777913687964206
58,58,60736.76843504476,1767.1665548666288,16.83676205453958,60888.794752879076,-8187.150698158366,8.233217918547595,60914.08527307629,52037.0192721258,9.593262940593098,60937.45203459914,-9124.138972113631,6.392766257543787,61167.009068235646,8755.890246422265,30.834853722500764,0.99175316020494,161.0,114.0,69.0,257.0,326.0,47.0,887.0,885.0,49.0,21.0,28.0,0.4285714285714285,43.462749780653326,1552.3799197769931,16.0,12.0,4.0,0.75,1360.663845570234,8601.21276837045,23.0,11.0,12.0,0.4782608695652174,2690.9511711916366,51663.436507906226,14.0,3.0,11.0,0.2142857142857142,1671.8409763973546,24468.1446040352,75.0,37.0,38.0,0.4933333333333333,68.36989749795848,9258.13996562616,,,,,60717.0,60764.0,60878.0,60893.0,60903.0,60926.0,60934.0,60947.0,61131.0,61204.0,0.02459459730095081,-0.16619504095317364,0.051712246566610595,-0.18323273916662716,0.00780844615153725
59,59,62423.15282224901,1173.7697194794805,8.865905202718118,62579.972626300994,-9061.530517900434,10.01550476318056,62604.371686795406,51744.347974553624,9.80578371113341,62627.87669549936,-9817.063560737754,6.998935105979772,62859.4153029357,7796.829108675472,26.638621285489517,0.9919017200153162,156.0,134.0,71.0,254.0,325.0,22.0,1689.0,1691.0,22.0,12.0,10.0,0.5454545454545454,58.83454298892137,1212.4911506799947,17.0,13.0,4.0,0.7647058823529411,1424.3796320187332,9187.852475956888,23.0,11.0,12.0,0.4782608695652174,2681.5577358491423,52454.22638681532,14.0,4.0,10.0,0.2857142857142857,1610.545140684223,24430.91511269372,68.0,34.0,34.0,0.5,72.01952032708104,8170.165866729044,,,,,62411.0,62433.0,62567.0,62584.0,62593.0,62616.0,62625.0,62638.0,62826.0,62892.0,0.05012443413092316,-0.1571897406519758,0.051823200809639244,-0.16405569045365234,0.00923702691481919
60,60,63277.464323013366,1721.088661407802,16.60692739883467,63431.22550231052,-8167.893083984352,8.203961895134658,63456.51860918445,51866.80620720528,9.601137875167876,63479.87669549929,-9023.101587729992,6.363742784393741,63709.347765030725,8360.376773474234,30.50983058265782,0.9922965128987752,162.0,115.0,69.0,256.0,325.0,47.0,851.0,852.0,49.0,20.0,29.0,0.4081632653061224,48.01332078122834,1561.375444029466,16.0,11.0,5.0,0.6875,1310.5125195022172,7601.420624055503,23.0,12.0,11.0,0.5217391304347826,2678.6531375761797,49625.41588074803,13.0,3.0,10.0,0.2307692307692307,1607.9547803797318,23572.731794525233,73.0,36.0,37.0,0.4931506849315068,77.36102922211437,9077.57971663736,,,,,63258.0,63305.0,63420.0,63435.0,63445.0,63468.0,63477.0,63489.0,63675.0,63745.0,0.027897064141922123,-0.1604468258860877,0.05164484442853673,-0.17820421999529507,0.009253294596430761
61,61,64940.386360546894,2260.7330850287663,23.9269361182576,65095.513603628664,-7855.472162452493,7.826172078496487,65121.052519095065,51690.04724263517,9.537806081173889,65144.45203459914,-8455.150523878763,6.01603026014852,65372.6400409974,8639.404038037204,32.328842907938586,0.9937925733935524,168.0,112.0,69.0,256.0,325.0,56.0,1664.0,1664.0,56.0,23.0,33.0,0.4107142857142857,54.112799031935225,2365.5389547576615,16.0,12.0,4.0,0.75,1351.8273221989675,8894.741131097753,23.0,11.0,12.0,0.4782608695652174,2651.1644321185304,51243.297502412184,13.0,3.0,10.0,0.2307692307692307,1640.2344677096191,23477.555305586648,75.0,37.0,38.0,0.4933333333333333,70.99271112418418,9387.241973813214,,,,,64917.0,64973.0,65085.0,65100.0,65110.0,65133.0,65141.0,65154.0,65337.0,65410.0,0.023935952187494385,-0.17208734169543852,0.05128965001083975,-0.19399234384737704,0.008217315779146393
62,62,65787.4901216042,1555.0173466845338,13.1190278342537,65943.75871496832,-8481.343623295897,8.753066218144808,65968.70888850695,51893.31329706295,9.721519797679836,65991.87669549929,-9268.860693403189,6.59543979541346,66221.58246146473,8352.939892668008,29.140498065058768,0.9931782104525504,160.0,133.0,70.0,255.0,325.0,27.0,848.0,848.0,29.0,16.0,13.0,0.5517241379310345,59.76555160429907,1547.0681512019314,16.0,12.0,4.0,0.75,1399.4940687752028,9285.57742828617,23.0,12.0,11.0,0.5217391304347826,2686.9191918345946,50425.003418812135,13.0,3.0,10.0,0.2307692307692307,1628.3872676693234,24039.593639469873,72.0,36.0,36.0,0.5,70.57569305183375,8832.72873870356,,,,,65772.0,65799.0,65932.0,65948.0,65957.0,65980.0,65989.0,66002.0,66187.0,66257.0,0.03843400958306075,-0.16500853295593176,0.051777753647244344,-0.1756836488899089,0.008449203987901702
63,63,66639.07941464336,1977.797968230856,21.42575526169015,66792.79149268311,-7756.0515946506575,7.555895546756942,66818.31585301565,51976.52617385343,9.495025931023433,66841.87669549929,-8659.990281069233,6.106529298096803,67069.04107126348,8875.234346672352,32.61502284200136,0.9925522721719408,165.0,112.0,69.0,256.0,325.0,53.0,850.0,849.0,54.0,23.0,31.0,0.4259259259259259,46.87361584755498,1913.9482987982828,15.0,11.0,4.0,0.7333333333333333,1329.8360447177197,8407.374503445986,23.0,11.0,12.0,0.4782608695652174,2663.3740464692664,52194.62166180983,13.0,4.0,9.0,0.3076923076923077,1580.3700600757018,22987.520254506584,78.0,39.0,39.0,0.5,73.82708193946824,9643.02942047169,,,,,66617.0,66670.0,66782.0,66797.0,66807.0,66830.0,66839.0,66851.0,67032.0,67107.0,0.023699900900132645,-0.1714578646736835,0.051241863251127874,-0.18249097386753377,0.008318324796364244
64,64,68313.7108615073,1442.000766944111,13.887847355601862,68468.88515349053,-8283.605111403496,8.372890735183248,68494.1466262747,51870.63095974385,9.646372796619252,68517.45203459915,-9009.194943455195,6.474420884366703,68746.89012589774,8121.207133098245,28.288573690276262,0.993481397222593,161.0,132.0,69.0,255.0,324.0,29.0,1675.0,1676.0,31.0,18.0,13.0,0.5806451612903226,51.01615712496739,1347.8582492747644,16.0,12.0,4.0,0.75,1354.3190460138494,8413.159039996204,23.0,11.0,12.0,0.4782608695652174,2676.298928056509,51760.11346163973,14.0,3.0,11.0,0.2142857142857142,1663.8759007033736,24349.15766450777,70.0,35.0,35.0,0.5,71.84015026720186,8587.81615372152,,,,,68297.0,68326.0,68458.0,68473.0,68483.0,68506.0,68514.0,68527.0,68713.0,68782.0,0.03537873092334123,-0.16349391693593013,0.05159565014995771,-0.18468641328625152,0.008845994085585502
65,65,69183.11478460964,1532.162742064523,13.704141594291762,69340.12777046137,-8900.820035502944,9.489875545258611,69364.63333082967,51967.502124453706,9.797787804381642,69387.87669549929,-9529.852482972688,6.716934807243655,69618.21028988059,8078.443209795865,28.441939830268343,0.9924007061804208,161.0,133.0,70.0,255.0,325.0,28.0,871.0,871.0,29.0,16.0,13.0,0.5517241379310345,57.44267071668832,1513.4247296119463,17.0,13.0,4.0,0.7647058823529411,1406.581637437843,8935.532445335599,23.0,12.0,11.0,0.5217391304347826,2697.006545624208,50433.64942501766,13.0,3.0,10.0,0.2307692307692307,1633.4529166128748,24267.61835418253,70.0,35.0,35.0,0.5,73.03987250898193,8593.307839001227,,,,,69167.0,69195.0,69328.0,69344.0,69353.0,69376.0,69385.0,69398.0,69584.0,69653.0,0.03749123323498051,-0.15802832006796816,0.05189794458785639,-0.1714037986979778,0.009041330193472707
66,66,70066.52059170186,1638.5908404001582,16.262044300185828,70220.96018478267,-8326.70023953262,8.495242434879936,70245.85491415964,51434.843274034734,9.709563499041607,70268.87669549929,-9428.464970010446,6.62212046446313,70498.29604406634,8527.913074017379,30.41789605733553,0.9905589101786102,161.0,115.0,70.0,256.0,326.0,46.0,881.0,881.0,48.0,20.0,28.0,0.4166666666666667,44.357090302490114,1463.785196563207,16.0,12.0,4.0,0.75,1373.363112476221,8918.946327044154,22.0,11.0,11.0,0.5,2672.289391176227,50338.04382226053,13.0,3.0,10.0,0.2307692307692307,1639.3375848248802,24161.589596035825,75.0,37.0,38.0,0.4933333333333333,67.26829555011054,9010.476116327103,,,,,70048.0,70094.0,70209.0,70225.0,70235.0,70257.0,70266.0,70279.0,70463.0,70535.0,0.027070266236602254,-0.1649348569023674,0.05195484658014402,-0.1738711009734031,0.007888013745714859
67,67,71733.85089009884,2198.501310619128,21.14900135353219,71886.89398550816,-8059.771350781034,8.017510526778697,71912.03255436916,51681.46136741128,9.705563426396356,71934.87669549929,-8757.04266071121,6.328337977051528,72164.02899663258,8586.729192981846,32.51956001160702,0.993826182075514,165.0,112.0,69.0,256.0,325.0,53.0,1668.0,1666.0,55.0,24.0,31.0,0.4363636363636363,49.13709890904678,2082.744571984185,16.0,12.0,4.0,0.75,1362.5276141452778,9031.525500623056,23.0,11.0,12.0,0.4782608695652174,2653.6026789511507,51176.54600076979,13.0,3.0,10.0,0.2307692307692307,1634.989915485134,23547.161685740422,75.0,37.0,38.0,0.4933333333333333,74.22614559451917,9388.856745496094,,,,,71711.0,71764.0,71876.0,71891.0,71901.0,71924.0,71932.0,71945.0,72128.0,72201.0,0.022350270464568927,-0.16905288684315364,0.051345349158884855,-0.18670571548321624,0.008644286308130703
68,68,72584.54178321116,1811.581457679983,17.861976210860266,72737.67546482736,-8381.056307047505,8.60533761335171,72762.76413497691,51736.92588259456,9.72301955980786,72785.87669549929,-9107.226451220877,6.498103866487612,73015.37874321942,8437.503126800339,30.35713513066133,0.993811540187158,162.0,113.0,70.0,256.0,326.0,49.0,851.0,851.0,51.0,22.0,29.0,0.4313725490196078,45.80639082751377,1630.0727045552117,16.0,12.0,4.0,0.75,1391.7303439845252,9293.877045469171,23.0,12.0,11.0,0.5217391304347826,2669.692810945866,50439.08915843982,13.0,3.0,10.0,0.2307692307692307,1625.9225752998525,23815.625411201818,73.0,36.0,37.0,0.4931506849315068,71.96585097573443,9053.075641928754,,,,,72564.0,72613.0,72726.0,72742.0,72751.0,72774.0,72783.0,72796.0,72980.0,73052.0,0.025285305628031825,-0.1660566750773694,0.05160130342889215,-0.17853103620607655,0.008529282880754942
69,69,73420.80772761874,2013.2498527958064,19.693409710356303,73574.87757157038,-7875.026331658297,8.024854109723195,73600.16827710479,50243.656054196654,9.601251261372656,73623.45203459915,-9001.024272522362,6.244292138488686,73851.06172665906,9107.593069948583,32.45422632096554,0.9907701415374184,163.0,114.0,69.0,256.0,325.0,49.0,837.0,837.0,51.0,21.0,30.0,0.4117647058823529,56.97430428483836,2018.4801383818287,15.0,11.0,4.0,0.7333333333333333,1310.5078470872288,8185.130530010847,23.0,11.0,12.0,0.4782608695652174,2592.255271125256,50110.43984763967,13.0,3.0,10.0,0.2307692307692307,1642.1116055990808,23702.43917292425,76.0,37.0,39.0,0.4868421052631579,77.21134805201388,9818.601553386045,,,,,73401.0,73450.0,73564.0,73579.0,73589.0,73612.0,73620.0,73633.0,73815.0,73889.0,0.02829966891874745,-0.1664131384321691,0.051593683157313455,-0.1824360823703135,0.008477689710004772
70,70,75078.52059170186,1613.0152208957695,15.938393336673649,75232.2161590327,-8558.987932155587,8.815910957455044,75257.16185058339,51778.827326824314,9.733262315453628,75280.45203459915,-9245.363297783688,6.730496842109527,75510.67825093477,8108.652719728917,29.08762794989259,0.9944743325692538,160.0,114.0,70.0,256.0,326.0,46.0,1656.0,1657.0,49.0,20.0,29.0,0.4081632653061224,47.769220978946414,1440.316188449861,16.0,12.0,4.0,0.75,1352.339074369547,8110.504696318208,23.0,11.0,12.0,0.4782608695652174,2676.5539241189954,51801.9630571831,14.0,3.0,11.0,0.2142857142857142,1666.1713116257556,24625.847204595517,71.0,36.0,35.0,0.5070422535211268,69.92439846302332,8600.043242166961,,,,,75060.0,75106.0,75220.0,75236.0,75246.0,75269.0,75277.0,75290.0,75476.0,75546.0,0.029614860641189934,-0.15800221767913622,0.051692053727381185,-0.18021696475953225,0.00862342991862167
71,71,75927.40720914736,1945.2103905986617,19.788622670867436,76082.52995698617,-8339.802237351274,8.500116133596029,76107.64451575598,51993.82490887721,9.700958369623882,76130.87669549929,-9245.202481419854,6.619251723817971,76360.44341499207,8575.85040739945,30.221290570711293,0.994843432246436,165.0,114.0,70.0,255.0,325.0,51.0,849.0,851.0,53.0,22.0,31.0,0.4150943396226415,49.00429061725858,1846.2361447475555,17.0,13.0,4.0,0.7647058823529411,1408.1038745541107,9683.628516122648,23.0,12.0,11.0,0.5217391304347826,2685.6757926031223,50178.6484975186,13.0,3.0,10.0,0.2307692307692307,1623.1057995020867,24028.28453518916,73.0,36.0,37.0,0.4931506849315068,72.26994618865052,9173.17144481656,,,,,75906.0,75957.0,76071.0,76087.0,76096.0,76119.0,76128.0,76141.0,76326.0,76396.0,0.025192282980853773,-0.16884139869020748,0.05165374536899248,-0.17556195256556614,0.008427146318491549
72,72,76774.67794933618,2115.1940683458506,19.632312789388212,76929.22641883459,-7892.108341667431,7.901468661212921,76954.4817589108,51498.3426447046,9.555634873404529,76977.87669549929,-9141.201379422017,6.422157418508529,77206.03711151329,8869.279230314714,30.92098623793145,0.9926076570156204,165.0,115.0,69.0,256.0,325.0,50.0,847.0,847.0,54.0,24.0,30.0,0.4444444444444444,48.44341278368433,1925.4144270484223,15.0,11.0,4.0,0.7333333333333333,1299.2368772301957,7765.368662582527,23.0,11.0,12.0,0.4782608695652174,2657.203259847494,52206.34645007237,14.0,4.0,10.0,0.2857142857142857,1600.7855069870272,23595.458638237666,74.0,36.0,38.0,0.4864864864864865,82.61615909619182,9606.506807844456,,,,,76753.0,76803.0,76918.0,76933.0,76943.0,76966.0,76975.0,76987.0,77171.0,77243.0,0.022902585398023846,-0.16462481519300776,0.051597840306822476,-0.17511762847612075,0.00931486730216073
73,73,78449.08758059521,1633.7672230815792,16.98778963687861,78603.80596492208,-8474.616232774102,8.90286865887848,78628.7085728751,51619.23422696017,9.761369835671765,78651.87669549929,-9207.267190015154,6.639250367710699,78881.75703192067,8330.597956288313,29.313954420529537,0.9940161265645326,163.0,115.0,70.0,255.0,325.0,48.0,1675.0,1674.0,50.0,21.0,29.0,0.42,43.05166193701689,1464.2791343956603,17.0,13.0,4.0,0.7647058823529411,1391.172233147938,9265.47032654266,23.0,12.0,11.0,0.5217391304347826,2666.536360755608,50191.03871639598,13.0,3.0,10.0,0.2307692307692307,1617.335007504488,23885.682815418855,70.0,35.0,35.0,0.5,74.40862210382329,8913.591075845432,,,,,78429.0,78477.0,78592.0,78608.0,78617.0,78640.0,78649.0,78662.0,78848.0,78917.0,0.02635116026860528,-0.16415754943189306,0.05165780548063428,-0.17565852865206424,0.008931966528003706
74,74,79320.59327199537,1807.7083768204316,17.578037778743358,79476.14604137202,-8149.924429771574,8.158042939206954,79501.5107597131,52412.86856494125,9.61055959748165,79524.87669549929,-8846.284917280782,6.318195892720085,79754.37127386645,8536.466629852808,30.3852497782264,0.9934692763987414,164.0,117.0,69.0,257.0,326.0,47.0,872.0,873.0,50.0,21.0,29.0,0.42,51.20503731221159,1641.448432348482,15.0,11.0,4.0,0.7333333333333333,1323.0703510160608,7856.130862044228,23.0,12.0,11.0,0.5217391304347826,2695.7084513074137,50153.25052157279,13.0,3.0,10.0,0.2307692307692307,1610.2176478796644,23548.694302620628,75.0,37.0,38.0,0.4933333333333333,71.67974434152583,9131.395103093057,,,,,79301.0,79348.0,79465.0,79480.0,79490.0,79513.0,79522.0,79534.0,79719.0,79791.0,0.028325939055654458,-0.1623414256680591,0.0514321868868395,-0.18202190670279944,0.008396886844359608
75,75,80189.57702246157,2147.468939585231,21.615290877058385,80341.97256984233,-7839.676089908585,7.801517296411109,80367.20602812433,51019.8066763383,9.572066621758344,80390.45203459915,-9148.665584871978,6.400126432890239,80618.69678192848,9108.757339285024,32.07334009269738,0.992932409819674,164.0,112.0,69.0,257.0,326.0,52.0,868.0,865.0,56.0,25.0,31.0,0.4464285714285714,44.8411433015302,1879.3418632894045,15.0,11.0,4.0,0.7333333333333333,1321.0979551284447,8342.669730823573,23.0,11.0,12.0,0.4782608695652174,2640.5568079879104,50854.629666081775,14.0,3.0,11.0,0.2142857142857142,1660.5011037661914,24245.50413081939,76.0,38.0,38.0,0.5,69.99778949932721,9753.405497853522,,,,,80167.0,80219.0,80331.0,80346.0,80356.0,80379.0,80387.0,80400.0,80582.0,80657.0,0.020880927530523893,-0.1685143544168863,0.0517555235898715,-0.18150200030395225,0.007684669477079468
76,76,81895.72270661937,1967.0266390532204,19.40764964592313,82050.17686245112,-8105.763664493587,7.935384438102795,82075.60682758992,52352.53324114464,9.616299746972771,82098.87669549929,-8440.616485837463,6.1416100438515695,82328.82531237086,8017.543160217077,29.332270254243895,0.9942044386466872,165.0,114.0,69.0,256.0,325.0,51.0,1706.0,1709.0,53.0,23.0,30.0,0.4339622641509434,49.999463962854506,1796.3413038013327,15.0,11.0,4.0,0.7333333333333333,1317.424938324774,7750.153568500445,23.0,12.0,11.0,0.5217391304347826,2676.8370022479835,50489.295417077694,13.0,3.0,10.0,0.2307692307692307,1602.047865539795,23118.05835900579,71.0,35.0,36.0,0.4929577464788732,69.98577810231518,8587.945211229704,,,,,81874.0,81925.0,82039.0,82054.0,82064.0,82087.0,82096.0,82108.0,82295.0,82364.0,0.025418803675643413,-0.16252940411964023,0.05113099283883778,-0.1898022340225831,0.008729080305994922
77,77,82766.21923520375,2060.1041192086877,22.489549054901495,82919.52003198623,-8002.341263691256,7.760796797582655,82944.82596591028,52604.91144018445,9.633316065428437,82967.87669549929,-8738.618753275809,6.2304204014468025,83196.35644030926,8742.155840817595,32.489664579053674,0.9920141924509872,167.0,112.0,68.0,257.0,325.0,55.0,869.0,869.0,57.0,25.0,32.0,0.4385964912280701,41.74788291594864,1936.701981399901,16.0,12.0,4.0,0.75,1403.223428982049,9782.853597162237,23.0,12.0,11.0,0.5217391304347826,2697.1490813389782,51323.3086637039,13.0,3.0,10.0,0.2307692307692307,1640.638821663205,23676.144938282552,77.0,38.0,39.0,0.4935064935064935,78.33804387841506,9596.267598360111,,,,,82742.0,82797.0,82909.0,82924.0,82933.0,82956.0,82965.0,82977.0,83160.0,83234.0,0.020264938323595282,-0.17535161057787496,0.05127181108185744,-0.18774578317061671,0.00896095257335159
78,78,83624.62812926395,2323.215244442654,25.86326265935994,83779.9826568004,-7965.7181554380595,7.738707868316614,83805.41872176353,51877.0748226705,9.515690810207708,83828.87669549929,-8864.1018710304,6.130446094580313,84057.20167871269,9139.288559039003,31.601339935632662,0.9932888178237238,170.0,112.0,69.0,257.0,326.0,58.0,863.0,860.0,58.0,26.0,32.0,0.4482758620689655,48.46888994704507,2440.3188275197094,15.0,11.0,4.0,0.7333333333333333,1321.0208891241846,7925.748721256442,23.0,11.0,12.0,0.4782608695652174,2664.9924703616825,52480.323771333075,13.0,4.0,9.0,0.3076923076923077,1601.0826702645563,23228.93494608391,76.0,38.0,38.0,0.5,74.31975681820829,9841.509627967807,,,,,83599.0,83657.0,83769.0,83784.0,83794.0,83817.0,83826.0,83838.0,84021.0,84095.0,0.020862849476813286,-0.16583826634919868,0.051371294150090924,-0.18062548169682077,0.008131897394212818
79,79,85260.15218734612,2143.2660965291147,23.555958189650667,85411.9916625795,-7686.648610332642,7.528101415156824,85437.50084608617,51490.418665069425,9.5353482812715,85460.87669549929,-8365.39737970331,6.015821700571344,85689.03194226403,8765.050229562747,32.153328747517726,0.993906487582124,166.0,109.0,69.0,256.0,325.0,57.0,1632.0,1633.0,59.0,26.0,33.0,0.4406779661016949,44.28315053117483,2011.4718492655873,15.0,11.0,4.0,0.7333333333333333,1300.1519014948997,8001.887416889201,23.0,12.0,11.0,0.5217391304347826,2633.438545080832,49136.93907829202,12.0,3.0,9.0,0.25,1576.7750728778587,22659.48111309562,75.0,37.0,38.0,0.4933333333333333,72.90963562012715,9496.886181689066,,,,,85235.0,85292.0,85401.0,85416.0,85426.0,85449.0,85458.0,85470.0,85653.0,85726.0,0.02066152709777317,-0.1691441832981923,0.051144244178914194,-0.18848776708486514,0.008318222224696175
80,80,86101.42770207912,1688.696332147942,15.20075795096529,86255.3879586648,-8636.020392945671,8.83780811547156,86280.27232597761,51810.89996239875,9.752526919660015,86303.45203459915,-9530.60185046733,6.815881771669747,86532.51918452766,8365.964690345661,29.442139546907196,0.992448041314768,161.0,117.0,70.0,254.0,324.0,44.0,843.0,842.0,47.0,19.0,28.0,0.4042553191489361,51.64983526451046,1573.5534247136902,16.0,12.0,4.0,0.75,1344.0769688532832,7819.397660757608,23.0,11.0,12.0,0.4782608695652174,2683.282030761673,52084.06297468733,14.0,3.0,11.0,0.2142857142857142,1688.488820551621,25001.609888719835,72.0,36.0,36.0,0.5,76.0481499906436,8932.050752818192,,,,,86083.0,86127.0,86244.0,86259.0,86269.0,86292.0,86300.0,86314.0,86498.0,86568.0,0.030585626486684142,-0.15563615041381698,0.05178991356469466,-0.17716497310910398,0.009090182998071137
81,81,86954.709721631,2251.9310851419104,24.389196257293804,87111.03746874946,-7711.264856107046,7.527918025230273,87136.53699519068,52186.65288605568,9.569416851994454,87159.87669549929,-8435.97934184918,6.027154656599388,87388.58096216762,9201.358994495122,32.001378634986004,0.9920285154222276,170.0,114.0,69.0,257.0,326.0,56.0,852.0,857.0,58.0,26.0,32.0,0.4482758620689655,48.70753906677966,2138.2581847911824,15.0,11.0,4.0,0.7333333333333333,1310.8782498818075,8194.285505837026,23.0,12.0,11.0,0.5217391304347826,2659.281457692209,49895.32050638097,12.0,3.0,9.0,0.25,1598.9517495704474,22941.994284219723,75.0,37.0,38.0,0.4933333333333333,75.34147463820027,9934.643616794188,,,,,86930.0,86986.0,87100.0,87115.0,87125.0,87148.0,87157.0,87169.0,87353.0,87426.0,0.021629231635083648,-0.1699952309177448,0.0509571185471213,-0.1895395525257361,0.008188081204447589
82,82,88613.73506944848,1929.9197481791048,18.95678062807372,88768.87853838078,-7961.946221994942,7.914313979537552,88794.37292389668,51400.110160642434,9.545820591433031,88817.87669549929,-8726.876042588909,6.26073241328269,89047.52179876911,8298.1134326202,29.647121701354887,0.994950609315758,166.0,116.0,69.0,256.0,325.0,50.0,1660.0,1657.0,51.0,22.0,29.0,0.4313725490196078,47.259891324246865,1821.6908310507488,15.0,11.0,4.0,0.7333333333333333,1316.2644947414208,7956.879666723107,23.0,11.0,12.0,0.4782608695652174,2640.0174142887477,51881.27308696203,13.0,4.0,9.0,0.3076923076923077,1570.271145243404,23035.802607165955,70.0,35.0,35.0,0.5,74.44432774964255,8861.325050196941,,,,,88592.0,88642.0,88758.0,88773.0,88783.0,88806.0,88815.0,88827.0,89014.0,89083.0,0.02448800856555666,-0.16531944050378403,0.051362096424264765,-0.17993508072993877,0.008971235251737953
83,83,89489.24859784353,1792.7495744602795,17.047762899089296,89645.43118245677,-8219.453143999563,8.29168793723492,89670.69707187789,52575.75494948571,9.666070724693164,89693.87669549929,-8814.07950658656,6.33894481607194,89923.50857640375,8505.133280457347,30.6475176807202,0.9928901335641374,164.0,117.0,69.0,257.0,326.0,47.0,875.0,877.0,49.0,20.0,29.0,0.4081632653061224,47.83193280016118,1656.0957803665833,16.0,11.0,5.0,0.6875,1307.1520778763463,7514.271988546527,23.0,12.0,11.0,0.5217391304347826,2700.7796485300028,51009.662104186726,13.0,3.0,10.0,0.2307692307692307,1627.6238716963644,23704.333799301396,74.0,37.0,37.0,0.5,72.13603918524574,9139.186568639188,,,,,89470.0,89517.0,89634.0,89650.0,89659.0,89682.0,89691.0,89703.0,89889.0,89960.0,0.026680766506142574,-0.15903151401630716,0.05136929847464647,-0.18466180960587866,0.008481470754961145
84,84,90372.7096359423,1711.3321783869317,15.849365563784035,90529.7497289429,-8568.974989364946,8.664813737472475,90554.70828154749,52107.421841612704,9.705796545136632,90577.87669549928,-9364.913323189605,6.611283004225027,90807.83221858527,8512.495901554345,29.982274419876937,0.9920147280320116,164.0,120.0,70.0,256.0,326.0,44.0,884.0,884.0,46.0,19.0,27.0,0.4130434782608695,51.07467888224302,1593.6960197997553,16.0,12.0,4.0,0.75,1409.0530654570462,9243.583199901132,23.0,12.0,11.0,0.5217391304347826,2703.123043950625,50608.36129379376,13.0,3.0,10.0,0.2307692307692307,1637.4961925307389,24204.763786009593,73.0,36.0,37.0,0.4931506849315068,74.0509099244026,9101.4378068614,,,,,90354.0,90398.0,90518.0,90534.0,90543.0,90566.0,90575.0,90588.0,90773.0,90844.0,0.02984498248048197,-0.1644365944825184,0.05187596984105488,-0.1748543885052235,0.008699083180866053
85,85,92068.292506101,2112.176231740601,20.578112051421208,92223.0105737445,-7765.34703473264,7.595106018681596,92248.48388507178,51186.652194006994,9.450871434664416,92271.87669549928,-8973.180211171848,5.968665070245115,92497.10949479598,8260.594387907784,34.75423558188309,0.9886340780953536,167.0,114.0,69.0,256.0,325.0,53.0,1695.0,1694.0,55.0,24.0,31.0,0.4363636363636363,45.382027046459335,1993.623573150522,15.0,11.0,4.0,0.7333333333333333,1292.4575022786366,7631.274965447563,23.0,11.0,12.0,0.4782608695652174,2641.742659790863,51884.285695003826,13.0,4.0,9.0,0.3076923076923077,1606.5473179987127,23093.772971318853,82.0,40.0,42.0,0.4878048780487805,68.1061799963902,9076.758749186394,,,,,92045.0,92098.0,92212.0,92227.0,92237.0,92260.0,92269.0,92281.0,92460.0,92537.0,0.021485909350026602,-0.1664391168221802,0.05160999101441844,-0.17903878894558684,0.008244706954270382
86,86,92945.87993664476,997.8117830645764,8.303568815542167,93103.972626301,-8967.100376872511,9.640838276373414,93128.52108920136,52144.00136567113,9.826656193870628,93151.87669549928,-9541.620949260843,6.919715554888862,93382.65213779302,7997.314284199447,26.81874501219949,0.9916840219376604,158.0,136.0,70.0,254.0,324.0,22.0,881.0,880.0,22.0,12.0,10.0,0.5454545454545454,52.49179180053013,1014.5794239467584,17.0,13.0,4.0,0.7647058823529411,1424.0234690225034,9272.733582125416,23.0,12.0,11.0,0.5217391304347826,2699.685690165182,50176.30790283274,13.0,3.0,10.0,0.2307692307692307,1619.147604451172,24365.863450923494,68.0,34.0,34.0,0.5,72.88982562013841,8356.836491124388,,,,,92934.0,92956.0,93092.0,93108.0,93117.0,93140.0,93149.0,93162.0,93350.0,93416.0,0.05260690712562267,-0.15880534500263566,0.05177365793685548,-0.1696931384155018,0.009114288000929163
87,87,93815.98174187502,2083.212964174997,20.79562489381264,93967.94725768392,-7830.856451920868,8.10129242116224,93993.18964904328,50875.78098467601,9.570645235325738,94016.45203459916,-9362.093921690745,6.424736424611976,94244.3123643312,9059.068150804687,32.480334845626764,0.9902570853928304,164.0,110.0,69.0,257.0,326.0,54.0,866.0,864.0,57.0,25.0,32.0,0.4385964912280701,48.46979039553797,1871.298933634481,15.0,11.0,4.0,0.7333333333333333,1310.5922687229645,8288.573465172012,23.0,11.0,12.0,0.4782608695652174,2642.044151518708,50667.48805251227,14.0,3.0,11.0,0.2142857142857142,1668.272391714638,24422.104970910594,77.0,37.0,40.0,0.4805194805194805,78.11584653281525,9857.355775210564,,,,,93793.0,93847.0,93957.0,93972.0,93982.0,94005.0,94013.0,94026.0,94209.0,94283.0,0.023266843682846025,-0.16736257097414717,0.05193127457472353,-0.17819436609682685,0.008622945012934523
88,88,95483.76239857124,1646.6779188286214,17.30601302539507,95637.53341977192,-8245.14141466911,8.369476514411305,95662.95533552702,52118.736741113426,9.610195904806115,95686.45203459916,-8684.212588691038,6.289998723927703,95916.54376940748,8301.386669595846,29.892682736028128,0.9940621558620812,162.0,113.0,70.0,256.0,326.0,49.0,1669.0,1670.0,51.0,21.0,30.0,0.4117647058823529,48.2178849666251,1463.996556468575,16.0,12.0,4.0,0.75,1377.7838205997898,8934.198353304488,23.0,11.0,12.0,0.4782608695652174,2678.308132571439,51475.02485543252,13.0,3.0,10.0,0.2307692307692307,1642.063795377367,23904.95596129272,72.0,36.0,36.0,0.5,74.11511171582006,8917.079710521648,,,,,95464.0,95513.0,95626.0,95642.0,95652.0,95675.0,95683.0,95696.0,95882.0,95952.0,0.029281916284470074,-0.16710250938189428,0.051388584989602755,-0.18908608910792146,0.008928039936661374
89,89,96342.32751594408,2056.8528367423355,21.64350840359188,96496.669444865,-7842.24273524826,7.542082080408749,96522.0590240012,51787.29920674321,9.589960387620271,96545.45203459916,-8594.638161490924,6.254907341277883,96773.85697861898,8962.37797283887,32.4449423830489,0.9920789181897718,167.0,113.0,69.0,257.0,326.0,54.0,857.0,859.0,56.0,24.0,32.0,0.4285714285714285,43.178789939967096,1908.030558022664,15.0,11.0,4.0,0.7333333333333333,1362.2759751847702,9037.24970029435,23.0,11.0,12.0,0.4782608695652174,2648.4366317165764,51243.73683819515,13.0,3.0,10.0,0.2307692307692307,1639.919156933035,23780.402014959443,77.0,38.0,39.0,0.4935064935064935,67.05995024815917,9568.266987017363,,,,,96319.0,96373.0,96486.0,96501.0,96511.0,96534.0,96542.0,96555.0,96738.0,96812.0,0.02099264914273308,-0.17370999867956077,0.051140659433572544,-0.19080723657231383,0.007482383632043768
90,90,98013.4814077508,2277.721848537102,28.17730906182518,98170.303635161,-7786.126448552006,7.702252832364536,98195.69404625097,51676.89258225559,9.596153763982487,98218.87669549928,-8358.467924533303,6.077748781651964,98448.88421733484,8635.854485016418,31.8597132780906,0.9950802093172568,171.0,113.0,68.0,257.0,325.0,58.0,1673.0,1674.0,60.0,25.0,35.0,0.4166666666666667,49.23683809950769,2436.707770249857,15.0,11.0,4.0,0.7333333333333333,1284.4860953109924,7639.0164427382115,23.0,12.0,11.0,0.5217391304347826,2643.212529568031,50050.92576865139,13.0,3.0,10.0,0.2307692307692307,1594.6219160200878,22862.45535282247,74.0,37.0,37.0,0.5,73.10939587349573,9336.509052437725,,,,,97989.0,98047.0,98160.0,98174.0,98184.0,98207.0,98216.0,98228.0,98413.0,98485.0,0.02161670360721645,-0.16497113215389272,0.051148828760567484,-0.19077921102498266,0.008465797565295212
91,91,98923.0612688136,1352.6766547514462,13.38357531245646,99081.27393540148,-8619.60306982745,8.975779507379764,99106.35622603846,52085.804818804354,9.677888986191196,99129.87669549928,-9185.277227486897,6.584597028824694,99361.44317138684,8064.661481865638,28.098146311689263,0.9918867174773512,163.0,136.0,70.0,256.0,326.0,27.0,910.0,911.0,30.0,17.0,13.0,0.5666666666666667,48.23456977023019,1277.3370548769476,17.0,12.0,5.0,0.7058823529411765,1337.0162186997468,7549.538368167429,23.0,11.0,12.0,0.4782608695652174,2685.939980583496,52772.465706456365,14.0,4.0,10.0,0.2857142857142857,1597.1155245777773,23779.55773757713,71.0,35.0,36.0,0.4929577464788732,70.58071337470119,8500.84763746069,,,,,98907.0,98934.0,99070.0,99085.0,99095.0,99118.0,99127.0,99140.0,99327.0,99396.0,0.035658610356584644,-0.15511343247114412,0.05156760061454979,-0.17387777037348606,0.008751850717281863
92,92,99819.63731254249,2120.1039237779896,22.148386190171763,99974.66505589882,-7895.898654255415,7.757113610894411,100000.0302704612,52220.12354348117,9.563610299637713,100023.45203459916,-8707.720856932268,6.189079014694726,100253.08729435728,8884.452970547738,31.864872174637323,0.9914867698527664,168.0,114.0,69.0,258.0,327.0,54.0,896.0,893.0,56.0,25.0,31.0,0.4464285714285714,43.646058233073134,2019.3893279862564,16.0,12.0,4.0,0.75,1367.2936412512722,9103.907236513043,23.0,11.0,12.0,0.4782608695652174,2680.2883668318045,51658.82747977099,13.0,3.0,10.0,0.2307692307692307,1656.2187254811363,23959.616182593832,76.0,37.0,39.0,0.4868421052631579,67.88084125290437,9552.277642572244,,,,,99796.0,99850.0,99964.0,99979.0,99989.0,100012.0,100020.0,100033.0,100217.0,100291.0,0.020586754141418025,-0.17316504442649897,0.05132673354554702,-0.19020117349795507,0.007640407516133144
93,93,101508.82885701716,1861.8008720381752,18.461417688776443,101662.15674603615,-8100.293594215937,8.611395751604936,101687.0184695979,49760.86917135954,9.73508602973967,101709.87669549928,-10148.157247062823,6.793927921255224,101940.30358413048,8464.023425820595,30.263536260851325,0.9932671820786538,165.0,113.0,69.0,256.0,325.0,52.0,1688.0,1687.0,54.0,24.0,30.0,0.4444444444444444,34.04283699750311,1632.9600089920425,16.0,12.0,4.0,0.75,1311.3866206822863,8269.994261903394,22.0,11.0,11.0,0.5,2609.157744092815,48900.33703830394,13.0,3.0,10.0,0.2307692307692307,1650.5268020187991,24500.865661905504,73.0,36.0,37.0,0.4931506849315068,75.39102419428524,9110.183366860016,,,,,101486.0,101538.0,101651.0,101666.0,101676.0,101698.0,101707.0,101720.0,101905.0,101976.0,0.01828489690212428,-0.16189371476839923,0.05243392624650026,-0.1626430061966679,0.008907232459245705
94,94,102392.95301853988,1579.5701267852469,14.87841611456594,102548.82826735658,-8661.963078396198,8.91279829062061,102573.93968489184,52107.363669075625,9.692588898994972,102597.45203459916,-9273.53675245898,6.630216140770372,102829.17160312612,7936.522535826146,28.280232289921496,0.9929705263569812,162.0,131.0,70.0,257.0,327.0,31.0,886.0,887.0,45.0,18.0,27.0,0.4,51.274721856265856,1465.312056307895,16.0,12.0,4.0,0.75,1385.8143072232044,8573.98024831004,22.0,11.0,11.0,0.5,2695.398304599881,51465.97369676347,14.0,3.0,11.0,0.2142857142857142,1660.0925529024812,24597.06491026364,70.0,35.0,35.0,0.5,73.50148948677524,8454.449149387916,,,,,102375.0,102406.0,102537.0,102553.0,102563.0,102585.0,102594.0,102607.0,102795.0,102864.0,0.0324611873742007,-0.15998848005708588,0.051727781158107805,-0.17901396168643957,0.009261170639279758
95,95,103268.87933123676,1654.8614399209312,15.400795608867243,103428.11597261016,-8728.33720752422,9.13448719462096,103452.81505390334,51934.26595527964,9.810440821424724,103475.87669549928,-9524.93152462646,6.75994787668764,103707.74551458428,8293.540552603252,28.720673684900113,0.9922473765586494,164.0,134.0,70.0,257.0,327.0,30.0,876.0,879.0,33.0,18.0,15.0,0.5454545454545454,56.94680148613925,1588.7166671945452,17.0,13.0,4.0,0.7647058823529411,1390.2244938039105,8880.685838139447,22.0,11.0,11.0,0.5,2690.9590226015493,50859.68157483513,14.0,3.0,11.0,0.2142857142857142,1645.5999024407768,24379.542734045302,70.0,35.0,35.0,0.5,70.9987601511053,8775.678559837505,,,,,103252.0,103282.0,103416.0,103432.0,103442.0,103464.0,103473.0,103486.0,103674.0,103743.0,0.03441182452644504,-0.159277129280188,0.0518147117919934,-0.17276763598626632,0.008560729847618525
96,96,104139.85389045,2098.640917967161,19.270363365683203,104296.936836866,-8306.655749120457,8.313215407830807,104321.9203162474,51560.14722125138,9.7347479618317,104344.87669549928,-9314.92122892618,6.59032662120604,104575.21477455983,8868.720368112547,30.89676466282367,0.9916578517003728,167.0,118.0,69.0,257.0,326.0,49.0,870.0,869.0,51.0,22.0,29.0,0.4313725490196078,50.48878564702827,2005.0659734571625,16.0,12.0,4.0,0.75,1375.1417290740458,8987.548741287468,22.0,11.0,11.0,0.5,2666.282881482528,50654.13382689759,13.0,3.0,10.0,0.2307692307692307,1643.7914649910922,24068.4519401784,75.0,37.0,38.0,0.4933333333333333,78.2927698735111,9595.847189712951,,,,,104119.0,104168.0,104286.0,104301.0,104311.0,104333.0,104342.0,104355.0,104540.0,104612.0,0.024057848684249428,-0.16554697469190913,0.05171208821497652,-0.17646863828397483,0.008827966902081217
97,97,105838.76660552222,1877.3144679341333,17.973950581740976,105994.04281596062,-8100.754654516436,8.182959149979492,106019.28674382396,51244.188536253954,9.664880927357004,106042.45203459916,-9051.397423003737,6.47166484825971,106273.38530029432,8339.826839747144,29.445114340495444,0.994377705851778,164.0,117.0,69.0,257.0,326.0,47.0,1698.0,1697.0,50.0,21.0,29.0,0.42,50.525219587583216,1739.6976467037784,15.0,11.0,4.0,0.7333333333333333,1326.2057053258898,8148.141971790968,23.0,11.0,12.0,0.4782608695652174,2639.527888842623,51479.88620407037,14.0,3.0,11.0,0.2142857142857142,1664.033776438162,24262.38067492229,72.0,35.0,37.0,0.4861111111111111,71.2426342835542,8847.70026394781,,,,,105819.0,105866.0,105983.0,105998.0,106008.0,106031.0,106039.0,106052.0,106239.0,106309.0,0.02691356213920998,-0.1637138466582847,0.05150882400987235,-0.18384274810529166,0.008542459652041673
98,98,106743.52059169552,1651.2775082452597,15.696571941558792,106899.46949960974,-8717.852785065963,9.197237009456966,106924.45510108398,52373.30635915058,9.723507166771926,106947.87669549928,-9217.85457227158,6.520224164301276,107180.57268925603,8260.656048536615,27.889577235107513,0.9927797316275736,162.0,117.0,71.0,257.0,328.0,45.0,905.0,906.0,47.0,20.0,27.0,0.425531914893617,42.63965264083033,1443.8332085627794,17.0,12.0,5.0,0.7058823529411765,1330.6203298547646,7361.096496718572,23.0,11.0,12.0,0.4782608695652174,2696.0983344876654,53441.42979350849,13.0,3.0,10.0,0.2307692307692307,1618.742172253576,23915.515884154975,69.0,35.0,34.0,0.5072463768115942,73.30729702126713,8700.387094265716,,,,,106725.0,106770.0,106887.0,106904.0,106913.0,106936.0,106945.0,106958.0,107147.0,107215.0,0.025822220933743364,-0.1526316585815915,0.05147848249257243,-0.17560942837207996,0.008874270589471354
99,99,107645.08993164913,1552.906778260643,15.400333224644273,107803.64948408936,-8506.69685402428,8.475169306962691,107828.90053969708,52347.07057131564,9.616901304583378,107852.45203459916,-9157.653945299351,6.536593287932149,108084.84357633724,8288.553253063998,28.828394833500305,0.993085585785125,165.0,134.0,70.0,258.0,328.0,31.0,903.0,904.0,47.0,19.0,28.0,0.4042553191489361,49.23508994066496,1454.331183239539,16.0,12.0,4.0,0.75,1397.0531222791851,8828.815781293053,22.0,11.0,11.0,0.5,2709.9978038764343,51485.74373220145,14.0,3.0,11.0,0.2142857142857142,1657.7260601457604,24534.278885679934,70.0,35.0,35.0,0.5,70.58702304114513,8752.715664189322,,,,,107627.0,107658.0,107792.0,107808.0,107818.0,107840.0,107849.0,107862.0,108051.0,108120.0,0.031705116256760424,-0.16422979991561337,0.05176980821084223,-0.1810208236790467,0.008516205528998863
100,100,108556.9022031214,1139.5168737149954,9.348035147347462,108713.54796540084,-9187.548684733694,11.16136079099766,108737.70455298864,50109.95952859018,9.885210047091284,108760.87669549928,-10627.43624126204,7.490691394251962,108993.86755200534,8564.605757594583,27.901793316038155,0.9880724532758528,156.0,133.0,72.0,257.0,329.0,23.0,913.0,909.0,23.0,13.0,10.0,0.5652173913043478,54.08147320136853,1186.1340528115586,19.0,15.0,4.0,0.7894736842105263,1441.3487800545438,9919.658770282358,22.0,11.0,11.0,0.5,2624.7660325352276,48212.96433538144,15.0,4.0,11.0,0.2666666666666666,1624.376611389834,25046.803981061865,72.0,36.0,36.0,0.5,69.65608677699896,8854.811073996523,,,,,108544.0,108567.0,108700.0,108717.0,108727.0,108749.0,108758.0,108772.0,108959.0,109029.0,0.04746000208408924,-0.15688066855629643,0.052380126769762614,-0.15284745770414845,0.00813301729799204
101,101,110251.28760952878,1854.961758437223,18.393613358129148,110405.95803184054,-8222.230999503941,8.214989531002415,110431.23439051076,51335.015755030574,9.65491266424787,110454.45203459916,-8972.094913531486,6.442217985310657,110685.8133920173,8501.787881732107,30.687794426421195,0.993611123768129,164.0,115.0,69.0,258.0,327.0,49.0,1693.0,1693.0,51.0,21.0,30.0,0.4117647058823529,51.65890990628645,1772.0945480276764,16.0,12.0,4.0,0.75,1337.7657557605564,8161.761890796101,23.0,11.0,12.0,0.4782608695652174,2645.1886756164645,51466.698355621505,14.0,3.0,11.0,0.2142857142857142,1658.765343644677,24183.953218614348,73.0,36.0,37.0,0.4931506849315068,75.11835992435175,9175.752572310124,,,,,110231.0,110280.0,110395.0,110410.0,110420.0,110443.0,110451.0,110464.0,110651.0,110722.0,0.027849043071275118,-0.16270106688090685,0.05152796072449339,-0.18488049442532858,0.00883559563815506
102,102,111141.1980591471,1587.915059096497,15.854942449495043,111298.8810817711,-8611.071370539901,8.920080443002465,111323.99835883596,52299.7785564256,9.7082379396641,111347.45203459916,-9148.431888346267,6.515865358221086,111580.08692167122,8268.846210068996,29.09652717648315,0.992614416706166,164.0,133.0,70.0,258.0,328.0,31.0,890.0,893.0,33.0,18.0,15.0,0.5454545454545454,53.04156401403959,1510.2203737384657,16.0,12.0,4.0,0.75,1382.5199342091723,8578.132649965537,23.0,11.0,12.0,0.4782608695652174,2695.13177630125,51888.886581058134,14.0,3.0,11.0,0.2142857142857142,1668.1521355861491,24501.291680774462,72.0,36.0,36.0,0.5,75.68435392711208,8856.0783877693,,,,,111123.0,111154.0,111287.0,111303.0,111313.0,111336.0,111344.0,111357.0,111546.0,111615.0,0.033403275389440254,-0.16055144298757454,0.0515323745280012,-0.18234295843762308,0.009152952177892854
103,103,112027.17724438358,1478.4536630540572,14.074835089936988,112184.09840447028,-8702.317023996338,9.232121160358908,112208.73721480012,52014.920830236086,9.84797670400363,112231.87669549928,-9653.406528879044,6.797574815178377,112464.32973305484,8192.684664152355,27.83877150025722,0.9925488607881614,162.0,131.0,70.0,257.0,327.0,31.0,886.0,885.0,43.0,17.0,26.0,0.3953488372093023,48.02228964417347,1392.722227850573,17.0,13.0,4.0,0.7647058823529411,1397.510531520789,9166.87357916459,23.0,12.0,11.0,0.5217391304347826,2687.951295620072,50670.31927853837,14.0,3.0,11.0,0.2142857142857142,1647.4704106597144,24472.729556007915,69.0,34.0,35.0,0.4927536231884058,73.35499277895558,8672.680618621514,,,,,112010.0,112041.0,112172.0,112188.0,112197.0,112220.0,112229.0,112242.0,112431.0,112499.0,0.032481430324284445,-0.1605906251940951,0.05167654305180785,-0.1706620772399004,0.00895371856553021
104,104,112906.5273111694,1635.7473055700666,15.194968802562958,113061.54796540084,-8264.259391499158,8.945546649745662,113086.14042549553,49336.70470110364,9.784368412039608,113108.87669549928,-10262.02951743948,7.084045203947802,113340.06960061476,8893.166443982438,30.231121532563503,0.989709307065626,161.0,119.0,69.0,258.0,327.0,42.0,880.0,877.0,44.0,19.0,25.0,0.4318181818181818,45.33632760558443,1524.169703079328,17.0,13.0,4.0,0.7647058823529411,1386.5117606476283,9989.270844631092,22.0,11.0,11.0,0.5,2598.503480755205,48837.444663070215,14.0,3.0,11.0,0.2142857142857142,1641.0053845344908,24644.243962326273,73.0,36.0,37.0,0.4931506849315068,74.14493683090811,9472.979990308497,,,,,112889.0,112931.0,113050.0,113065.0,113075.0,113097.0,113106.0,113119.0,113305.0,113377.0,0.02771597266350653,-0.16777205251735347,0.05266876854661673,-0.15991041360246883,0.008337293279951854
105,105,114618.50943748697,1669.659591404978,16.91473999864173,114774.74801845918,-8388.1719189116,8.551848715222418,114800.0509445522,51804.840861415854,9.672967339745709,114823.45203459916,-9034.70948232261,6.493261707580393,115055.70482519791,8391.767327177013,29.844560959731904,0.992768403944548,164.0,116.0,70.0,259.0,329.0,48.0,1711.0,1714.0,50.0,21.0,29.0,0.42,48.48855955300983,1520.2245611539602,16.0,12.0,4.0,0.75,1366.7065619762186,8580.309278440893,23.0,11.0,12.0,0.4782608695652174,2669.2113971149342,51453.1180983444,14.0,3.0,11.0,0.2142857142857142,1655.6434891044128,24286.864017499654,71.0,35.0,36.0,0.4929577464788732,71.30746850936363,8952.771227644198,,,,,114599.0,114647.0,114763.0,114779.0,114789.0,114812.0,114820.0,114833.0,115021.0,115092.0,0.029040985241912624,-0.16293258831461271,0.05152436244820043,-0.18325364997555912,0.00849731239311558
106,106,115513.94525260168,1595.4964393157502,15.834277521034394,115669.21207122043,-8780.692487086482,9.203973993166562,115693.84014813288,52213.98162331022,9.86280252336642,115716.87669549928,-9476.378203508248,6.770966675144703,115949.8816194316,8269.448154401776,28.727571957100064,0.9935039251167316,163.0,117.0,70.0,258.0,328.0,46.0,894.0,894.0,48.0,20.0,28.0,0.4166666666666667,38.738481318819986,1397.655860161639,17.0,13.0,4.0,0.7647058823529411,1394.4320409889738,8971.2071350151,22.0,11.0,11.0,0.5,2693.5841364672247,51267.13599079517,14.0,3.0,11.0,0.2142857142857142,1650.147682994286,24390.57887306448,71.0,36.0,35.0,0.5070422535211268,77.88178079561561,8863.579686799862,,,,,115494.0,115540.0,115657.0,115673.0,115683.0,115705.0,115714.0,115727.0,115916.0,115985.0,0.024279892053807088,-0.15880661383367267,0.051587411124853016,-0.17413273800990606,0.009418014278759292
107,107,116393.63312050074,1202.444887978714,11.408557321517511,116552.54796540084,-9085.801390483832,10.177652985259645,116576.65688802268,51803.85478054989,9.914173490141652,116599.87669549928,-9840.371366103907,6.97940477701875,116831.83741713077,8363.268967823367,28.981010939680814,0.9895201239028806,161.0,136.0,70.0,258.0,328.0,25.0,882.0,883.0,26.0,15.0,11.0,0.5769230769230769,48.263802499232526,1146.8205983620337,18.0,15.0,3.0,0.8333333333333334,1494.0743505741088,11199.449352652877,22.0,11.0,11.0,0.5,2679.765469134433,50294.60287118975,14.0,3.0,11.0,0.2142857142857142,1637.8090795549283,24550.10912434061,72.0,36.0,36.0,0.5,72.05505047104035,8854.111250922684,,,,,116379.0,116404.0,116540.0,116556.0,116566.0,116588.0,116597.0,116610.0,116797.0,116868.0,0.0401380578700476,-0.1644405690112215,0.05172907461204159,-0.16643773071375303,0.008615656240193057
108,108,117276.12706526287,1506.7771298933496,14.529316959499967,117431.54796540084,-8493.339536317293,9.554541928065287,117455.6535956492,48987.14023541,9.85681613494497,117478.45203459916,-10414.219084214898,7.073963846504941,117709.78043545828,8643.304935972898,30.71382454245282,0.9872619188504062,160.0,127.0,70.0,258.0,328.0,33.0,882.0,879.0,44.0,18.0,26.0,0.4090909090909091,47.09082015416631,1413.183844756148,17.0,14.0,3.0,0.8235294117647058,1417.5718795036132,10687.303349440544,23.0,12.0,11.0,0.5217391304347826,2583.769005582567,47138.53947471185,15.0,3.0,12.0,0.2,1691.2889810290687,25142.58655737148,76.0,38.0,38.0,0.5,73.25237456926197,9238.304251648226,,,,,117259.0,117292.0,117419.0,117435.0,117444.0,117467.0,117475.0,117489.0,117675.0,117747.0,0.0312526777981422,-0.16690394554958196,0.0527438220146378,-0.16240190141501817,0.008475042256624564
109,109,118987.3548641343,1760.7668193723575,16.960726414303366,119143.32424248698,-8810.602024556147,9.47083647163473,119168.0471545635,51427.47349157894,9.806334054976771,119191.45203459916,-9431.760519689244,6.842153413608099,119423.56325459856,8241.205127250258,29.685808398567712,0.9933685902032632,163.0,116.0,70.0,258.0,328.0,47.0,1710.0,1712.0,49.0,20.0,29.0,0.4081632653061224,50.34721523666425,1661.7841516164658,16.0,12.0,4.0,0.75,1354.6599799347848,7977.736049675095,23.0,11.0,12.0,0.4782608695652174,2658.2790389518964,51181.45705961497,14.0,3.0,11.0,0.2142857142857142,1654.757740454896,24648.649149514327,72.0,36.0,36.0,0.5,67.46351926108849,8737.12519861625,,,,,118968.0,119015.0,119131.0,119147.0,119157.0,119180.0,119188.0,119201.0,119389.0,119459.0,0.028593914130328173,-0.15375339575652083,0.051689862605970326,-0.17544526676652905,0.008186123051107481
110,110,119876.30632582416,1529.73877455532,15.649197095877238,120032.01670224917,-8428.919993477875,8.552020122408686,120057.38774117312,52303.548310714454,9.659265904728748,120080.87669549928,-8957.441514021773,6.456140475806327,120313.9379379641,8387.859636685593,28.829877228262085,0.993283984092544,163.0,118.0,69.0,258.0,327.0,45.0,890.0,889.0,46.0,18.0,28.0,0.391304347826087,48.102652068292535,1463.4636035082217,16.0,12.0,4.0,0.75,1342.152428342444,7890.8144760919295,23.0,11.0,12.0,0.4782608695652174,2681.7724622702403,53015.00100696528,13.0,3.0,10.0,0.2307692307692307,1597.9216531427423,23585.468955589666,70.0,35.0,35.0,0.5,78.25830002972961,9010.984428269405,,,,,119858.0,119903.0,120021.0,120036.0,120046.0,120069.0,120078.0,120090.0,120280.0,120348.0,0.03144501065698325,-0.15923183864373774,0.05127324146994584,-0.1783904087614072,0.009329948690063304
111,111,120757.33582472792,1774.461379554372,15.878744525570877,120913.08708540665,-8492.112765547368,8.91647772968673,120937.78574164108,50746.88178283054,9.77263390586457,120960.87669549928,-9781.390634480553,6.87067983290329,121192.84607982798,8655.63396436638,30.516847166542377,0.9921793478675518,161.0,130.0,70.0,259.0,329.0,31.0,881.0,881.0,45.0,18.0,27.0,0.4,59.01682348049893,1732.3027181981336,16.0,12.0,4.0,0.75,1362.2687601612092,8740.580627432697,23.0,12.0,11.0,0.5217391304347826,2646.9617186474875,49424.3224917688,14.0,3.0,11.0,0.2142857142857142,1627.3262573932604,24311.75768987598,74.0,37.0,37.0,0.5,73.45520667984268,9266.003431963662,,,,,120740.0,120771.0,120901.0,120917.0,120926.0,120949.0,120958.0,120971.0,121157.0,121230.0,0.033259007020665664,-0.1604157643417024,0.05216008601228082,-0.16636962147864168,0.008486403997932905
112,112,122433.31703965578,2211.285781919801,23.360365592311194,122588.86600642296,-7496.256992826852,8.145954188674498,122613.70731859971,48957.8924517312,9.743849414609596,122636.45203459916,-10081.639203719356,6.792172255872444,122866.35011196078,9245.689326482629,32.883628180280084,0.991302590317548,169.0,112.0,70.0,258.0,328.0,57.0,1676.0,1676.0,58.0,25.0,33.0,0.4310344827586206,43.969290958968784,2170.211513308222,16.0,12.0,4.0,0.75,1308.5613335204805,9402.420101465526,23.0,12.0,11.0,0.5217391304347826,2558.5997707856495,46902.98888266815,14.0,3.0,11.0,0.2142857142857142,1692.1342032018283,24784.58365346776,78.0,38.0,40.0,0.4871794871794871,82.66524541775061,10140.992381100898,,,,,122408.0,122465.0,122577.0,122592.0,122602.0,122625.0,122633.0,122647.0,122830.0,122905.0,0.01988403820007172,-0.17456196269319998,0.05226123190062229,-0.16784316210974498,0.008940949938796966
113,113,123257.67475700862,1826.2749917150877,17.753771627273995,123415.972626301,-8674.504138435526,9.8804968722262,123440.6095897966,50999.16313241046,9.810901866529244,123463.87669549928,-9909.940108750754,6.7675528242371605,123695.56628032406,8415.592180863294,29.50417085114938,0.993111169257446,166.0,117.0,71.0,257.0,328.0,49.0,826.0,827.0,50.0,21.0,29.0,0.42,50.11063339397795,1742.0268815503655,17.0,13.0,4.0,0.7647058823529411,1375.269681795306,8859.01241858325,23.0,12.0,11.0,0.5217391304347826,2650.7003951952433,49215.65960792547,13.0,3.0,10.0,0.2307692307692307,1631.318038892322,24344.39505505217,71.0,36.0,35.0,0.5070422535211268,76.2899190541933,8991.897705303396,,,,,123237.0,123286.0,123403.0,123420.0,123429.0,123452.0,123461.0,123474.0,123661.0,123731.0,0.02743871192526058,-0.15854159037191262,0.05197537042545503,-0.1646143186528264,0.009065306090719724
114,114,124133.51531617087,1275.2880214472575,14.630742912498125,124287.40828986878,-8577.27980180492,8.72273615224836,124312.56008096374,52135.003605735415,9.6985740271183,124335.87669549928,-9028.531031401671,6.528890990245412,124568.04067928751,8388.87170629135,28.91847282948239,0.9925046627561164,160.0,131.0,70.0,257.0,327.0,29.0,874.0,872.0,47.0,19.0,28.0,0.4042553191489361,41.07973409131195,1102.154800840461,16.0,11.0,5.0,0.6875,1321.8784772657584,7287.457510521113,23.0,12.0,11.0,0.5217391304347826,2690.1272895244956,50221.64893981385,13.0,3.0,10.0,0.2307692307692307,1611.0030147318978,23774.087655876687,71.0,35.0,36.0,0.4929577464788732,73.94672294556406,8888.06253410041,,,,,124116.0,124145.0,124276.0,124292.0,124301.0,124324.0,124333.0,124346.0,124534.0,124603.0,0.0322121225954061,-0.15411395078747403,0.051599253926752436,-0.17843467659675208,0.008814859200922898
115,115,124998.661958592,2082.307747271456,19.697620520150583,125152.24354537595,-8170.5385349354865,8.106067354389964,125177.57211605852,52359.46203579862,9.633537256365615,125200.87669549928,-8844.978627349756,6.288470538103793,125432.31868628212,8612.698086428485,30.469503187168826,0.994808429847285,164.0,114.0,69.0,259.0,328.0,50.0,864.0,865.0,52.0,23.0,29.0,0.4423076923076923,44.06687977089555,1908.817839160948,15.0,11.0,4.0,0.7333333333333333,1319.377540751391,7752.116916788308,23.0,12.0,11.0,0.5217391304347826,2688.333567105958,50333.259416740286,13.0,3.0,10.0,0.2307692307692307,1617.4317106259805,23540.538052611297,73.0,36.0,37.0,0.4931506849315068,73.1781541790635,9219.242091069384,,,,,124977.0,125027.0,125141.0,125156.0,125166.0,125189.0,125198.0,125210.0,125397.0,125469.0,0.021162520203192068,-0.16147987493235766,0.051343796566662984,-0.18286440010433533,0.008496542366250415
116,116,125850.50200951472,2169.660268098274,22.828305696680737,126005.09363781738,-7920.08148155481,7.953721071280409,126030.41026916132,51135.073701286456,9.559656788629235,126053.87669549928,-9061.406484117755,6.356934526975436,126283.73048435748,8866.202593007654,31.02665826474342,0.993121501698032,167.0,113.0,69.0,257.0,326.0,54.0,852.0,852.0,57.0,26.0,31.0,0.4561403508771929,44.88984147005504,2057.744217582074,15.0,11.0,4.0,0.7333333333333333,1301.9028245591385,7813.942112221085,23.0,11.0,12.0,0.4782608695652174,2635.6357642011635,51693.75228122216,14.0,4.0,10.0,0.2857142857142857,1586.3055639873844,23309.13621917555,74.0,37.0,37.0,0.5,73.87237709135982,9559.10966928652,,,,,125827.0,125881.0,125994.0,126009.0,126019.0,126042.0,126051.0,126063.0,126249.0,126320.0,0.020689802053388464,-0.1643799786140027,0.051542621794145496,-0.175061737575481,0.008331907185339911
117,117,127485.84814525364,1897.523071036393,19.1469266397903,127640.05265735736,-8117.371516143089,8.346050136709339,127665.03433328676,50555.66088499467,9.731243325629428,127687.87669549928,-9499.635435620485,6.60493547902055,127918.3876532392,8405.281789190654,30.84208257060023,0.9944599747133228,164.0,114.0,69.0,257.0,326.0,50.0,1636.0,1635.0,52.0,22.0,30.0,0.4230769230769231,47.71085376500061,1764.7458884043351,16.0,12.0,4.0,0.75,1333.926909025431,8564.522450357374,22.0,11.0,11.0,0.5,2626.197979154695,49926.054701774374,13.0,3.0,10.0,0.2307692307692307,1640.4675644534598,24046.29274536591,74.0,36.0,38.0,0.4864864864864865,68.65073979936336,9012.42962501556,,,,,127465.0,127515.0,127629.0,127644.0,127654.0,127676.0,127685.0,127698.0,127883.0,127955.0,0.025143754241123296,-0.16432990733178082,0.051946664986317524,-0.17268742317228827,0.008167571477216798
118,118,128337.02602796956,2149.6856327316377,24.965151293071656,128490.1435093312,-7605.148593041473,7.341099871181275,128515.61625899732,52972.94981588849,9.578530364737816,128538.87669549928,-8005.096943346471,5.86367190417201,128768.40866772232,8594.135969745781,33.241361922386176,0.992681050687963,168.0,111.0,68.0,258.0,326.0,57.0,850.0,851.0,59.0,26.0,33.0,0.4406779661016949,46.0703258297765,2029.3089031653792,15.0,11.0,4.0,0.7333333333333333,1317.8771632374817,8394.928583563687,23.0,12.0,11.0,0.5217391304347826,2680.770312257219,51005.74672593262,12.0,3.0,9.0,0.25,1603.093207987108,22751.831426642053,77.0,38.0,39.0,0.4935064935064935,73.62836063933013,9437.41418113124,,,,,128312.0,128369.0,128480.0,128494.0,128504.0,128527.0,128536.0,128548.0,128732.0,128806.0,0.021431192137258807,-0.17328749689957504,0.05060640046617075,-0.20025906236145427,0.008567279002627659
119,119,128969.15067819972,32.93745569710271,2.428309047321674,129349.972626301,-9087.156060889309,17.835757806041723,129373.8788347984,53696.559321716704,9.770499589156334,129397.73158494115,-10351.487537001354,8.326401599975853,129631.0476150292,7185.640704785215,22.30236219580611,0.9779026534393764,371.0,363.0,74.0,252.0,326.0,8.0,639.0,858.0,8.0,5.0,3.0,0.625,13.91989841776766,120.12700607407449,20.0,16.0,4.0,0.8,1462.753363909841,8815.102455656506,22.0,11.0,11.0,0.5,2655.844331665042,49390.31930924861,15.0,4.0,11.0,0.2666666666666666,1553.2299176995907,25015.941374195252,60.0,30.0,30.0,0.5,76.64200512608562,7264.326613156494,,,,,128964.0,128972.0,129335.0,129354.0,129363.0,129385.0,129394.0,129409.0,129602.0,129661.0,0.4226160801786551,-0.1609693235274634,0.0494602329313664,-0.15004895790557407,0.01066599462384009
120,120,130055.6221740101,1494.1759746266273,13.879364245889898,130210.54796540084,-8543.233498487332,9.35855132158367,130235.07070523598,49378.751721593835,9.796383443183178,130257.87669549928,-10348.326516230423,7.071367678148887,130488.8378214047,8854.529756495818,29.95414319007584,0.9897346220644508,159.0,128.0,70.0,258.0,328.0,31.0,1082.0,861.0,39.0,17.0,22.0,0.4358974358974359,49.02569392342734,1402.2926221577538,17.0,13.0,4.0,0.7647058823529411,1399.5223176340971,9768.015919220814,22.0,11.0,11.0,0.5,2604.9566739620236,48783.049063012506,14.0,3.0,11.0,0.2142857142857142,1642.2813752727602,24674.3077200665,74.0,37.0,37.0,0.5,72.87228288259075,9347.650618117745,,,,,130039.0,130070.0,130198.0,130214.0,130224.0,130246.0,130255.0,130268.0,130453.0,130526.0,0.03281119142320445,-0.1638164657306741,0.052754607663013264,-0.15870018912690753,0.008229943869027097
121,121,131693.39199502298,1731.5094323786964,17.988489867709564,131847.16408014478,-8233.24186475371,8.565018957527059,131872.52369545354,50947.43424802635,9.643708521778628,131895.87669549932,-8965.196628724876,6.38282081991597,132126.67344384504,8426.277508837957,30.411958468711628,0.9936386928561272,163.0,114.0,69.0,257.0,326.0,49.0,1637.0,1638.0,51.0,21.0,30.0,0.4117647058823529,44.63121262842099,1640.1552458478818,16.0,11.0,5.0,0.6875,1292.7673929454131,7306.10251986795,23.0,12.0,11.0,0.5217391304347826,2631.2576451107507,48841.42581950818,13.0,3.0,10.0,0.2307692307692307,1586.238045242759,23265.445920166967,72.0,36.0,36.0,0.5,75.57041050638364,9050.91213551421,,,,,131673.0,131722.0,131836.0,131851.0,131861.0,131884.0,131893.0,131905.0,132092.0,132162.0,0.025775899220547675,-0.15701802694266956,0.051646519279087796,-0.17693287843351746,0.008968421752917717
122,122,132567.6021976717,1705.5228378693453,16.320474509964903,132722.12899029406,-8839.31605647307,9.439780241436129,132746.7532673941,52611.509636655865,9.84622577514371,132769.87669549932,-9307.02107226516,6.635735705988598,133001.84345539685,8358.373310352283,29.494263645737167,0.9932927573265488,161.0,115.0,70.0,257.0,327.0,46.0,874.0,874.0,48.0,20.0,28.0,0.4166666666666667,46.297375407300976,1542.2155579011574,17.0,13.0,4.0,0.7647058823529411,1407.5455704841904,9152.863285874131,23.0,12.0,11.0,0.5217391304347826,2709.058874684815,51499.28393018575,13.0,3.0,10.0,0.2307692307692307,1648.7690010077783,24259.510937541032,72.0,36.0,36.0,0.5,75.56034739858411,8947.88426831824,,,,,132549.0,132595.0,132710.0,132726.0,132735.0,132758.0,132767.0,132780.0,132967.0,133037.0,0.027145561688953282,-0.15923693207614617,0.05149175329493568,-0.1771532468021476,0.009040078086126958
123,123,133428.945252602,1781.5961773779763,18.066539965458823,133581.75024946,-8138.768115782959,8.068034750258304,133607.12854457673,52335.030791777295,9.608816334631976,133630.45203459918,-8766.133838976255,6.234456077004133,133860.48274733743,8359.155284938099,31.375780922931582,0.992341443189488,162.0,113.0,69.0,258.0,327.0,49.0,860.0,860.0,51.0,21.0,30.0,0.4117647058823529,44.30260893089981,1613.078358997563,16.0,12.0,4.0,0.75,1365.650506122139,8746.7154489262,23.0,11.0,12.0,0.4782608695652174,2686.2176248327983,52162.5224010783,14.0,3.0,11.0,0.2142857142857142,1671.1221070974973,24105.648041881155,76.0,37.0,39.0,0.4868421052631579,70.81171021415494,8975.120841494418,,,,,133409.0,133458.0,133571.0,133586.0,133596.0,133619.0,133627.0,133640.0,133825.0,133898.0,0.024866807357041575,-0.16779572617062596,0.0513273343722738,-0.19063388008831242,0.008471156211411297
124,124,134271.9652214419,1755.143991164637,17.549956532213653,134425.81121820209,-8236.19275423109,8.790431605476302,134450.40414356074,49108.26913709171,9.707213978314906,134473.45203459918,-10057.734584357631,6.944070536777121,134703.502391038,8943.77351989356,29.78919774093734,0.9888609710379652,162.0,115.0,70.0,256.0,326.0,47.0,844.0,843.0,49.0,21.0,28.0,0.4285714285714285,42.33614297678293,1645.3838988018676,17.0,13.0,4.0,0.7647058823529411,1356.5252031329082,9102.0316560424,23.0,11.0,12.0,0.4782608695652174,2580.879736910415,49530.92141234093,14.0,3.0,11.0,0.2142857142857142,1661.3474627685705,24827.199739405096,74.0,37.0,37.0,0.5,79.89509058469918,9520.139720664303,,,,,134252.0,134299.0,134414.0,134430.0,134439.0,134462.0,134470.0,134484.0,134669.0,134740.0,0.024121179339075486,-0.16470294511211328,0.05255489110613072,-0.16518108017608596,0.00893304044506373
125,125,135097.66135856704,1897.1060154443103,18.25535932084301,135251.33256741462,-8252.132023087352,9.162880631932316,135275.83029826474,48871.97320951696,9.762499352678358,135298.87669549932,-10269.660765559824,6.954132117837372,135528.74383477322,8502.754567175658,30.41055793846831,0.9925863951407962,162.0,113.0,70.0,256.0,326.0,49.0,826.0,826.0,51.0,22.0,29.0,0.4313725490196078,44.98168685899075,1769.0025347410556,16.0,12.0,4.0,0.75,1303.0727389924182,8064.942681234082,22.0,11.0,11.0,0.5,2576.712809903541,47546.016056935485,14.0,4.0,10.0,0.2857142857142857,1615.1004057790835,24303.413177603205,74.0,37.0,37.0,0.5,75.86512768330145,9143.580463114668,,,,,135077.0,135126.0,135239.0,135255.0,135265.0,135287.0,135296.0,135309.0,135493.0,135565.0,0.023710686958343677,-0.15790740324400462,0.05272373183822607,-0.15726910972516828,0.008922417680521315
126,126,135955.71041614152,1715.7518555138597,18.488053340916057,136107.53244274817,-8327.49078543652,8.620005378489239,136132.6647329928,51959.44642414089,9.714714412207078,136155.87669549932,-8950.837007250704,6.462103363858108,136387.0181810608,8312.576986008204,29.99612872509081,0.9947063657729096,161.0,112.0,70.0,257.0,327.0,49.0,857.0,857.0,53.0,23.0,30.0,0.4339622641509434,40.04753010313115,1465.9343808601338,17.0,13.0,4.0,0.7647058823529411,1403.4296994457584,9641.70621329524,23.0,12.0,11.0,0.5217391304347826,2674.3715849438054,50370.83824710098,13.0,3.0,10.0,0.2307692307692307,1614.1111197848948,23661.814118607486,72.0,36.0,36.0,0.5,73.71187559224927,8944.03395534499,,,,,135935.0,135984.0,136096.0,136112.0,136121.0,136144.0,136153.0,136166.0,136352.0,136423.0,0.02334109677598868,-0.16852972108959133,0.05147036331205532,-0.18033074655223527,0.008867511929973303
127,127,136800.04411631628,1709.9068539809873,16.587540573082066,136954.36775546102,-8316.38536108762,8.505603213531261,136979.59342515678,51870.83739009435,9.673013010786583,137002.87669549932,-8941.34319967301,6.432442055119351,137233.66762496615,8514.50191479158,29.49590509478265,0.9940175361259715,162.0,115.0,69.0,257.0,326.0,47.0,845.0,847.0,49.0,20.0,29.0,0.4081632653061224,49.848623830031585,1588.8523599387468,16.0,11.0,5.0,0.6875,1305.473495860001,7407.181687708895,23.0,12.0,11.0,0.5217391304347826,2673.072986375792,50001.05593174787,13.0,3.0,10.0,0.2307692307692307,1607.2147287960984,23579.324966673805,72.0,36.0,36.0,0.5,73.12881427031995,9016.46215756423,,,,,136781.0,136828.0,136943.0,136959.0,136968.0,136991.0,137000.0,137012.0,137199.0,137269.0,0.02915283000005207,-0.15697607063380128,0.05153325299672649,-0.17975092700332485,0.008588736605165239
128,128,137623.997889095,2144.293728612032,22.34552928191983,137777.337904532,-8402.333890617989,9.064903745238524,137802.15314049696,50177.70264958193,9.706367064263551,137825.45203459918,-9629.896953980504,6.7497068873276245,138054.21202853604,9004.71417572949,32.10214407341434,0.99229468883439,164.0,110.0,70.0,257.0,327.0,54.0,824.0,822.0,57.0,25.0,32.0,0.4385964912280701,47.144229767730046,2100.826816483517,16.0,12.0,4.0,0.75,1307.167665196641,7592.400204116469,23.0,11.0,12.0,0.4782608695652174,2616.87058675648,50080.41153804754,14.0,3.0,11.0,0.2142857142857142,1651.0981727422206,24522.389905467837,77.0,38.0,39.0,0.4935064935064935,71.83025566010907,9687.054621027535,,,,,137601.0,137655.0,137765.0,137781.0,137791.0,137814.0,137822.0,137835.0,138017.0,138092.0,0.021985901063211976,-0.15557197347944232,0.05215206054831773,-0.17145543515496722,0.007976961207021316
129,129,139253.9885417703,2161.727837147326,23.662285856308653,139409.81330557796,-7830.16712956867,7.708686228861072,139434.9814296202,50755.44770228754,9.622855861993925,139457.87669549932,-9148.442661052646,6.356520365277022,139686.10905585118,8558.191548995463,32.574086218032555,0.9931016310875502,169.0,113.0,69.0,256.0,325.0,56.0,1630.0,1633.0,57.0,25.0,32.0,0.4385964912280701,47.77265835161525,2141.121453039552,15.0,11.0,4.0,0.7333333333333333,1344.3179126523578,8891.024122744724,22.0,11.0,11.0,0.5,2627.3920368542945,49849.80112095269,13.0,3.0,10.0,0.2307692307692307,1633.290003326681,23655.794421832004,77.0,38.0,39.0,0.4935064935064935,74.24086113824896,9373.216970330215,,,,,139230.0,139286.0,139399.0,139414.0,139424.0,139446.0,139455.0,139468.0,139650.0,139724.0,0.022099293690299757,-0.1716844468843937,0.05176571492907703,-0.1785320260332429,0.00867483050749935
130,130,140138.43741402644,1972.7623163732517,18.80357780618862,140295.0481151213,-8637.47698328346,8.800646979127409,140320.14527723455,52126.40121895257,9.709339697675064,140343.45203459918,-9027.589583396588,6.523088664684756,140574.84200697532,8521.457563860014,30.144078026626207,0.993749333910051,166.0,116.0,70.0,258.0,328.0,50.0,884.0,885.0,52.0,22.0,30.0,0.4230769230769231,48.117292997560774,1837.7272953068775,16.0,12.0,4.0,0.75,1365.7861623617475,8180.7429514459245,23.0,11.0,12.0,0.4782608695652174,2687.067014596035,52187.08480747784,14.0,3.0,11.0,0.2142857142857142,1669.8337119157136,24424.16166229992,73.0,37.0,36.0,0.5068493150684932,71.63209324805926,9103.487634624584,,,,,140117.0,140167.0,140283.0,140299.0,140309.0,140332.0,140340.0,140353.0,140540.0,140611.0,0.02439082123487646,-0.15812327662406758,0.05154906058657753,-0.18497005169429143,0.008406084605978095
131,131,141003.0552688673,1978.9523471519665,20.703999880239536,141156.573328275,-7863.9021734859325,7.888816126812748,141181.79841468233,52296.14971618616,9.672682314181138,141204.87669549932,-8671.370793299635,6.270364676703131,141436.3667096602,8551.62389226611,30.145774068447206,0.9947409970192228,165.0,113.0,68.0,258.0,326.0,52.0,865.0,862.0,54.0,23.0,31.0,0.4259259259259259,49.31893133279498,1829.095093111604,16.0,12.0,4.0,0.75,1391.3577487906612,9937.24017626304,23.0,12.0,11.0,0.5217391304347826,2674.1390382422696,50976.25300441844,13.0,3.0,10.0,0.2307692307692307,1626.5010335844431,23483.34390557754,73.0,36.0,37.0,0.4931506849315068,73.0788549356845,9152.166688313064,,,,,140981.0,141033.0,141146.0,141160.0,141170.0,141193.0,141202.0,141214.0,141401.0,141472.0,0.02492173770822371,-0.17692968682669868,0.0511345300324203,-0.1875713854655183,0.008545611436650682
132,132,141880.0959308017,1662.0058586862249,16.056478766973704,142036.7783833989,-7901.643424156156,8.397727187432677,142061.5533480296,49679.64223680084,9.665820884416645,142084.45203459918,-9596.90340541364,6.673565098306844,142316.30226390617,8645.953889501443,29.028217510790057,0.9911312746341476,162.0,118.0,69.0,258.0,327.0,44.0,877.0,880.0,46.0,18.0,28.0,0.391304347826087,52.39817234540146,1613.9995056587773,16.0,12.0,4.0,0.75,1346.3505028249683,9318.164173664944,23.0,12.0,11.0,0.5217391304347826,2604.419077673831,47461.71900315083,14.0,3.0,11.0,0.2142857142857142,1673.364815537724,24517.920389508756,71.0,35.0,36.0,0.4929577464788732,76.29800942832483,9227.507345994758,,,,,141863.0,141907.0,142025.0,142041.0,142050.0,142073.0,142081.0,142094.0,142282.0,142352.0,0.03152706837436839,-0.17038866860393032,0.05242427200380629,-0.17436507848914834,0.008824706955813345
133,133,143593.0959308017,1524.8394052491367,16.873234196692575,143746.36441704893,-8175.893831771942,8.17197938590211,143771.88845793132,52020.04164309412,9.587100025733871,143795.45203459918,-8616.956736332977,6.260288202699214,144027.2289083412,8419.010033744495,29.177656843205735,0.9941471323638824,159.0,109.0,70.0,258.0,328.0,50.0,1713.0,1710.0,52.0,18.0,34.0,0.3461538461538461,41.37966830125929,1538.5632528296076,16.0,11.0,5.0,0.6875,1278.7248588165496,6878.380112599922,23.0,12.0,11.0,0.5217391304347826,2671.1593957595924,51113.61876661909,13.0,3.0,10.0,0.2307692307692307,1631.178759190443,23761.032459814465,72.0,36.0,36.0,0.5,73.40130035012814,8946.132294245643,,,,,143576.0,143626.0,143735.0,143751.0,143760.0,143783.0,143792.0,143805.0,143992.0,144063.0,0.027137066473238502,-0.1564018424318769,0.05134865931262091,-0.18929870592394385,0.00871851916744678
134,134,144471.2156056381,2155.2502649343373,21.721032519307112,144625.1748351725,-8055.199532882596,7.888966726387622,144650.5752617752,52301.012366134455,9.607181998942206,144673.87669549932,-8731.96206299208,6.258993839972568,144904.2030849747,8603.939663629679,30.8698043208375,0.993229233152654,167.0,112.0,69.0,258.0,327.0,55.0,877.0,879.0,57.0,25.0,32.0,0.4385964912280701,42.92452030527382,1916.5525376811752,15.0,11.0,4.0,0.7333333333333333,1316.9911016845444,7830.344543351697,23.0,12.0,11.0,0.5217391304347826,2682.7240962725195,50213.50803532104,13.0,3.0,10.0,0.2307692307692307,1610.5854624876724,23412.01564452954,74.0,36.0,38.0,0.4864864864864865,73.35598558866926,9290.699110639993,,,,,144447.0,144502.0,144614.0,144629.0,144639.0,144662.0,144671.0,144683.0,144869.0,144941.0,0.0199162579880632,-0.16349577639987425,0.051293922907114056,-0.1844471438227701,0.008525860066029697
135,135,145336.8562088344,1337.1600958541442,13.509890608349986,145494.54796540082,-8725.634293600398,9.693213644646235,145518.6255076972,49486.25506288815,9.909132835290608,145541.45203459918,-10402.508068422305,7.362773855687164,145773.27291710651,8802.519599644691,28.843757100832836,0.9890429625504767,162.0,133.0,70.0,257.0,327.0,29.0,868.0,868.0,31.0,17.0,14.0,0.5483870967741935,45.097391594974475,1251.7305639158292,17.0,14.0,3.0,0.8235294117647058,1440.078824026073,10851.852157742533,23.0,12.0,11.0,0.5217391304347826,2602.617720397236,47451.58495512071,15.0,3.0,12.0,0.2,1684.1899693354133,25363.3559499403,73.0,36.0,37.0,0.4931506849315068,81.17435315166452,9368.70258204853,,,,,145320.0,145349.0,145482.0,145498.0,145507.0,145530.0,145538.0,145552.0,145738.0,145809.0,0.03372624694290432,-0.16504001606877605,0.052592739480685616,-0.16190229877811052,0.00922171796753978
136,136,147050.945252602,1786.3214529122115,18.7384922514288,147205.57076151474,-8347.18270997681,8.32607423056132,147230.73819747305,52004.547969914594,9.696836985866014,147253.87669549932,-8788.1196513846,6.415734840803844,147486.94203097804,8500.316570287938,29.141679047906862,0.9939271374983982,163.0,113.0,70.0,258.0,328.0,50.0,1712.0,1712.0,53.0,22.0,31.0,0.4150943396226415,42.21666179488659,1661.5042123334044,16.0,12.0,4.0,0.75,1405.5442277226612,9480.845815726345,23.0,12.0,11.0,0.5217391304347826,2674.163864580173,50639.46074808354,13.0,3.0,10.0,0.2307692307692307,1614.8902409533046,23563.684006310847,70.0,35.0,35.0,0.5,75.60738833459263,9067.851354781274,,,,,147031.0,147081.0,147194.0,147210.0,147219.0,147242.0,147251.0,147264.0,147453.0,147522.0,0.023633294962707545,-0.16838546328244514,0.051421730771070574,-0.183758335686619,0.008894655594224712
