Unnamed: 0,cycle,p_center,p_height,p_width,q_center,q_height,q_width,r_center,r_height,r_width,s_center,s_height,s_width,t_center,t_height,t_width,r_squared,pr_interval,pr_segment,qrs_duration,st_segment,qt_interval,p_duration,pp_interval,rr_interval,fwhm_p,rise_time_p,decay_time_p,rise_decay_symmetry_p,sharpness_deriv_p,sharpness_diff_p,fwhm_q,rise_time_q,decay_time_q,rise_decay_symmetry_q,sharpness_deriv_q,sharpness_diff_q,fwhm_r,rise_time_r,decay_time_r,rise_decay_symmetry_r,sharpness_deriv_r,sharpness_diff_r,fwhm_s,rise_time_s,decay_time_s,rise_decay_symmetry_s,sharpness_deriv_s,sharpness_diff_s,fwhm_t,rise_time_t,decay_time_t,rise_decay_symmetry_t,sharpness_deriv_t,sharpness_diff_t,Average_Heart_Rate,SDNN,RMSSD,NN50,p_on,p_off,q_on,q_off,r_on,r_off,s_on,s_off,t_on,t_off,sharpness_deriv_p_norm,sharpness_deriv_q_norm,sharpness_deriv_r_norm,sharpness_deriv_s_norm,sharpness_deriv_t_norm
0,0,,,,,,,,,,,,,,,,,,,,,,,,,,,,,,,,,,,,,,,,,,,,,,,,,,,,,,,62.541915839849445,453.2733421724543,645.7784304343123,348.0,,,,,,,,,,,,,,,
1,1,1639.1977972192774,2456.3990193976633,17.56841929536067,1731.4501479736466,-5696.0519361812185,8.201794357304326,1759.778362170822,55813.76837828398,10.560088085909078,1904.7554034877503,-1908.7107637041584,75.85372158865738,2035.442345687558,7013.805011190163,31.07457884602227,0.9952508337502048,98.0,61.0,255.0,93.0,348.0,37.0,,,38.0,18.0,20.0,0.4736842105263157,65.3076778934801,2540.9058697227165,16.0,12.0,4.0,0.75,1026.7423416061838,7587.258288880181,26.0,13.0,13.0,0.5,2371.6023969260323,55039.22705396129,164.0,94.0,70.0,0.573170731707317,29.086167296597356,1362.0013307018633,63.0,31.0,32.0,0.492063492063492,81.00449640979072,6882.8129739937685,,,,,1621.0,1658.0,1719.0,1735.0,1747.0,1773.0,1812.0,1974.0,2004.0,2067.0,0.026586754585781542,-0.18025508775373608,0.04249135053652416,-0.01523864581774087,0.011549294039476752
2,2,2541.945252602016,1860.7247919766808,35.67151561209669,2633.5479654008636,-5409.834842585252,7.7263251016754415,2662.346081350492,59176.81987258635,10.61736184890708,2748.3425398031677,-1468.883905362336,56.055238819009254,2940.809519772756,6700.143266190483,26.646973371349336,0.9894253262143872,100.0,59.0,257.0,90.0,347.0,41.0,899.0,903.0,45.0,21.0,24.0,0.4666666666666667,65.15962734575187,2258.946110618251,15.0,12.0,3.0,0.8,1127.91316693834,9789.905616775151,26.0,13.0,13.0,0.5,2491.002082046228,59674.260186193846,163.0,31.0,132.0,0.1901840490797546,58.18179204976435,1285.7817657322753,62.0,33.0,29.0,0.532258064516129,79.61450592532813,6274.520876826215,,,,,2522.0,2563.0,2622.0,2637.0,2649.0,2675.0,2717.0,2879.0,2908.0,2969.0,0.03501841197941564,-0.20849308708273484,0.04209422012554251,-0.03960952382782926,0.011882507994578264
3,3,3421.907835511894,1845.3860236974408,12.071276995713264,3512.9726263010075,-5739.289107025457,8.150870275176104,3541.2489983515025,51277.732613503635,10.554387846424111,3662.663455951422,-1891.2817092980997,61.18332527939844,3812.6439672273814,7119.731798626669,28.564324035068527,0.9980372914298216,95.0,64.0,234.0,110.0,344.0,31.0,882.0,878.0,31.0,16.0,15.0,0.5161290322580645,65.192170948697,1713.338759141017,16.0,12.0,4.0,0.75,1005.0037970707032,7487.815087785491,26.0,13.0,13.0,0.5,2199.3921927505435,52079.838270773085,148.0,70.0,78.0,0.4729729729729729,26.480424482439055,1478.4073071656985,65.0,33.0,32.0,0.5076923076923077,90.74620284505484,7273.020986159161,,,,,3406.0,3437.0,3501.0,3517.0,3528.0,3554.0,3596.0,3735.0,3780.0,3845.0,0.03532711861449837,-0.1751094566469006,0.042891759846872574,-0.014001311572069599,0.012745733324190519
4,4,7011.431179054531,1700.171314873054,29.867472264406157,7074.123304500719,-3599.5701234177136,6.7341050700845715,7103.734641956064,53876.88983447393,10.443501548653526,7256.205671308208,-2029.01516752936,59.34741832169047,7382.760233246323,7449.664468051257,32.503960260408576,0.9955723906447312,88.0,10.0,248.0,103.0,351.0,78.0,3589.0,3563.0,79.0,35.0,44.0,0.4430379746835443,32.2548984989154,1490.2715262217366,13.0,10.0,3.0,0.7692307692307693,848.8800192937512,7528.767755709099,26.0,13.0,13.0,0.5,2271.955842909362,52427.993330126,144.0,85.0,59.0,0.5902777777777778,31.40619971650479,1702.9473578178367,67.0,34.0,33.0,0.5074626865671642,89.65785649398046,7508.707036738483,,,,,6977.0,7055.0,7065.0,7077.0,7091.0,7117.0,7175.0,7313.0,7350.0,7416.0,0.018971557875815455,-0.23582816563877856,0.042169394890638576,-0.015478543590557137,0.012035153647320425
5,5,8095.465844303887,1222.9593942058796,68.79506582332952,8150.547965400863,-4502.344763880205,7.133957579994196,8180.5289233245985,57936.285845111895,10.556355424748627,8337.87694120979,-2109.6243848003733,61.724711358296034,8461.640786657226,7445.385599116077,30.703911501248836,0.9931179117646836,85.0,6.0,260.0,92.0,352.0,79.0,1077.0,1077.0,83.0,41.0,42.0,0.4939759036144578,47.32068890768394,1126.1828584417665,13.0,10.0,3.0,0.7692307692307693,967.7671307958672,8956.90250793614,27.0,14.0,13.0,0.5185185185185185,2417.6105616524214,56376.949551004,158.0,96.0,62.0,0.6075949367088608,49.35109715719694,1847.942639467631,65.0,33.0,32.0,0.5076923076923077,85.54699214794567,7165.308400329087,,,,,8057.0,8136.0,8142.0,8154.0,8167.0,8194.0,8241.0,8402.0,8430.0,8494.0,0.038693589608844954,-0.21494736221884245,0.04172878061454808,-0.02339330997156011,0.011489934404217007
6,6,9121.095930801726,1714.4578502352513,30.57558481036868,9200.123304500716,-3753.24705710195,6.22432416218468,9230.083497416252,60526.094183809146,10.60552570229402,9387.027619409502,-2238.952794448715,57.727296965216375,9512.92876074478,7422.85242233727,31.97736369587552,0.992865982611119,88.0,30.0,260.0,92.0,352.0,58.0,1032.0,1049.0,81.0,18.0,63.0,0.2222222222222222,54.35921939647052,2174.150310234588,12.0,9.0,3.0,0.75,928.5953306146312,8265.931202229773,26.0,13.0,13.0,0.5,2498.837412718146,60130.86274073305,145.0,82.0,63.0,0.5655172413793104,32.6958684529528,2045.019863615617,64.0,33.0,31.0,0.515625,93.97645308717136,7204.231288786899,,,,,9104.0,9162.0,9192.0,9203.0,9217.0,9243.0,9293.0,9452.0,9480.0,9544.0,0.031706360928623334,-0.24741119262520417,0.0412852910205891,-0.014603196875798056,0.012660423209327466
7,7,10142.794574402302,1962.9630725663433,27.835634798854585,10225.54796540086,-5296.587815089958,7.29030275750395,10254.044023734708,59348.30671741554,10.535512761244185,10410.602958509358,-1937.6571765704573,59.413360205555946,10534.28508592432,7263.39222697261,30.82343974116574,0.9944915096999252,95.0,46.0,258.0,92.0,350.0,49.0,1020.0,1024.0,68.0,24.0,44.0,0.3529411764705882,53.67710368987717,1848.8734502648624,15.0,12.0,3.0,0.8,1163.0757239983757,10592.659483231308,26.0,13.0,13.0,0.5,2510.36349668142,59361.50462710967,153.0,91.0,62.0,0.5947712418300654,32.92408899559367,1747.3915555958313,63.0,32.0,31.0,0.5079365079365079,94.4672447661728,7265.257408011021,,,,,10120.0,10169.0,10215.0,10229.0,10241.0,10267.0,10318.0,10473.0,10502.0,10565.0,0.027344938088774473,-0.21958962347131816,0.04229882258704381,-0.01699169976696674,0.013005940174257512
8,8,11106.095930801726,1939.1653395313856,14.50353073808319,11193.107469596222,-6280.400399251551,8.579572326619418,11221.921528106188,58264.40419112754,10.447752990844686,11343.808384107057,-1989.1170151994277,83.05279491295965,11500.730240063547,7158.328585474593,28.38324972073799,0.9952652600399364,92.0,57.0,261.0,89.0,350.0,35.0,965.0,968.0,37.0,17.0,20.0,0.4594594594594595,59.22681993435513,1846.448153739504,18.0,13.0,5.0,0.7222222222222222,1061.2513289951266,6721.206515906571,26.0,13.0,13.0,0.5,2508.4604230425657,57530.5881633644,168.0,70.0,98.0,0.4166666666666667,38.146831445940656,1665.5593765206493,62.0,32.0,30.0,0.5161290322580645,90.63948407063532,6749.627010537553,,,,,11089.0,11124.0,11181.0,11198.0,11209.0,11235.0,11274.0,11442.0,11469.0,11531.0,0.030542429119874714,-0.16897829143530377,0.04305305199404325,-0.01917777142040891,0.012662101632852885
9,9,12036.52059170187,1755.6333993519063,13.522800862549014,12123.31390370676,-6050.243158375501,8.098824114924547,12150.97584545005,56745.917091294774,10.535528446002044,12302.72626301008,-1390.766192831641,67.8562889594716,12426.524307387188,7263.051424043882,29.174998203745144,0.9961418620134306,93.0,59.0,254.0,93.0,347.0,34.0,930.0,929.0,37.0,19.0,18.0,0.5135135135135135,45.53742380269711,1390.42083691174,16.0,12.0,4.0,0.75,1131.161207481519,9101.07122226636,26.0,13.0,13.0,0.5,2430.7789394978786,57003.226970001226,162.0,100.0,62.0,0.6172839506172839,48.53635370724693,1221.534254997524,63.0,32.0,31.0,0.5079365079365079,78.76963996500884,7165.893153950582,,,,,12018.0,12052.0,12111.0,12127.0,12138.0,12164.0,12203.0,12365.0,12395.0,12458.0,0.025937888752576303,-0.1869612803769093,0.04283619093840986,-0.03489900312318168,0.010845254338176213
10,10,12869.081113242466,1662.6229135210483,9.588002783019032,12960.972626301009,-6185.843044873592,8.542112235771988,12988.54406986806,52424.84449072443,10.567729930769998,13113.060292016704,-2505.2973165360377,70.37652880490323,13259.225309622774,7008.313227562006,27.84595181710425,0.9980641316640112,93.0,67.0,243.0,100.0,343.0,26.0,838.0,837.0,26.0,14.0,12.0,0.5384615384615384,68.60031402584198,1575.4938042445942,17.0,13.0,4.0,0.7647058823529411,1100.65207142538,8437.36030105424,26.0,13.0,13.0,0.5,2246.4152400862968,51081.215502590065,153.0,75.0,78.0,0.4901960784313725,25.756154239012535,2500.9275369287316,62.0,30.0,32.0,0.4838709677419355,84.39699768475397,7071.027753208598,,,,,12855.0,12881.0,12948.0,12965.0,12976.0,13002.0,13039.0,13191.0,13229.0,13291.0,0.041260296287245604,-0.17793081128004468,0.04285020321774644,-0.010280677694024921,0.012042412338655316
11,11,17126.64389620259,2224.0612078957456,38.36959613782183,17199.123304500717,-3256.396510126981,6.697280170888406,17229.123744039294,50602.50187654448,10.397815239381403,17379.931688607772,-1351.414471149415,49.86127084707882,17507.76291795722,7331.290360481465,32.566909542140216,0.9946626841553768,90.0,32.0,243.0,108.0,351.0,58.0,4250.0,4241.0,85.0,31.0,54.0,0.3647058823529411,43.81136653406339,2003.9662743857489,13.0,9.0,4.0,0.6923076923076923,755.9007320411479,6521.096180145978,26.0,13.0,13.0,0.5,2141.248345542503,50342.00785546729,132.0,78.0,54.0,0.5909090909090909,39.329370041109875,1223.4816471101058,70.0,36.0,34.0,0.5142857142857142,84.14559855886819,7434.475446076739,,,,,17101.0,17159.0,17191.0,17202.0,17216.0,17242.0,17303.0,17434.0,17473.0,17542.0,0.019698813314366785,-0.23212797633531182,0.04231506874435837,-0.029102374497780217,0.011477597315261993
12,12,18191.64389620259,1745.7344085981492,25.898616441059087,18269.219126329677,-4372.005575065319,7.175687867829105,18299.043670859137,56006.58956539249,10.444143147416442,18449.301602109932,-1874.104162915493,72.59459426318686,18577.6274373986,7086.1625249461285,29.37637167286128,0.9956663176883676,93.0,52.0,260.0,90.0,350.0,41.0,1065.0,1070.0,47.0,28.0,19.0,0.5957446808510638,53.36254434122099,1336.9910159754345,15.0,11.0,4.0,0.7333333333333333,877.1170068484266,6553.606607599846,26.0,13.0,13.0,0.5,2360.250944959805,55346.02182647333,167.0,97.0,70.0,0.5808383233532934,41.46359179666444,1646.6744641531438,62.0,31.0,31.0,0.5,81.1369968480821,6824.42799400124,,,,,18166.0,18207.0,18259.0,18273.0,18286.0,18312.0,18351.0,18519.0,18547.0,18609.0,0.030567389906733813,-0.2006212004510818,0.04214237937491284,-0.022124486257028883,0.011450061519538594
13,13,19129.381917585026,1908.4824630536004,21.17801339257463,19216.54796540086,-4980.235657349646,7.25900245004785,19246.262634830804,59208.89947226131,10.558173543875082,19396.50702770763,-2038.092087952533,63.28113591152262,19526.09325567221,6792.222113729487,28.431646009354093,0.9935945525037212,98.0,56.0,264.0,86.0,350.0,42.0,941.0,947.0,42.0,21.0,21.0,0.5,55.33397702471371,1912.8154284881427,16.0,12.0,4.0,0.75,1033.4252414956136,8497.88328438263,26.0,13.0,13.0,0.5,2469.062135917964,59505.33476638577,145.0,73.0,72.0,0.503448275862069,30.99437572457165,1892.772593326555,61.0,31.0,30.0,0.5081967213114754,86.03901624064214,6462.910643407609,,,,,19108.0,19150.0,19206.0,19220.0,19233.0,19259.0,19321.0,19470.0,19495.0,19556.0,0.02899370473448235,-0.207505289427524,0.04170086182862918,-0.015207544304687723,0.012667285433249718
14,14,20009.369913502156,1808.3308103779864,17.14181250291568,20094.972626301005,-5151.445098203361,7.418255178642457,20123.974173134917,58394.034449971885,10.589946654665686,20239.260418706188,-1683.975170034421,78.79983815147244,20401.555009260555,6660.56368283365,28.26150949915912,0.9943535773961896,96.0,58.0,257.0,90.0,347.0,38.0,878.0,878.0,41.0,22.0,19.0,0.5365853658536586,48.07385039703217,1445.04080186492,16.0,12.0,4.0,0.75,1048.4984157717238,8309.208837628452,26.0,13.0,13.0,0.5,2449.787983421173,57526.4372802176,165.0,62.0,103.0,0.3757575757575757,30.391309717955163,1430.0801403131834,61.0,32.0,29.0,0.5245901639344263,79.30971121763893,6319.195854461303,,,,,19988.0,20026.0,20084.0,20099.0,20111.0,20137.0,20178.0,20341.0,20370.0,20431.0,0.026584654821527665,-0.20353481319977618,0.041952709835796465,-0.01804736213380982,0.011907357243958916
15,15,20806.67126990158,1886.154200900786,12.46342013696381,20898.593600343604,-5936.095097401829,8.506068243406581,20927.551738824815,56131.3681649537,10.459552539286747,21073.461343528903,-3268.1848581938325,77.85154752750786,21200.48466786371,6868.283015682826,29.93566731094684,0.9964332855675327,95.0,60.0,256.0,91.0,347.0,35.0,799.0,804.0,35.0,16.0,19.0,0.4571428571428571,52.45608695746416,1721.045268700916,17.0,13.0,4.0,0.7647058823529411,1057.723135493469,7584.916825301712,26.0,13.0,13.0,0.5,2396.200091186128,54145.49128861378,164.0,95.0,69.0,0.5792682926829268,32.27503078244787,3039.0584120683175,60.0,27.0,33.0,0.45,85.30852706191651,6489.212131311325,,,,,20791.0,20826.0,20886.0,20903.0,20915.0,20941.0,20978.0,21142.0,21173.0,21233.0,0.027811133857673077,-0.17818500514865812,0.042689144582123764,-0.009875521790491594,0.012420648197974027
16,16,21589.52059170187,1867.7675746089292,17.591404442303087,21682.103469370948,-5672.338365888269,7.771262702759787,21710.531553067893,56905.13459483044,10.419735178505563,21870.000245710507,-2555.27816076514,68.33402826802585,21984.36432202621,6929.380960498436,32.46723711980167,0.9944599269148556,99.0,60.0,256.0,90.0,346.0,39.0,782.0,783.0,41.0,20.0,21.0,0.4878048780487805,47.741971695449315,1754.5658193111312,16.0,12.0,4.0,0.75,1067.6349727382635,8218.078128591016,26.0,13.0,13.0,0.5,2431.0491580310704,55247.155495531944,159.0,103.0,56.0,0.6477987421383647,35.19651240193252,2329.6964911010855,62.0,30.0,32.0,0.4838709677419355,83.1493943412453,6694.525358628631,,,,,21571.0,21610.0,21670.0,21686.0,21698.0,21724.0,21766.0,21926.0,21954.0,22016.0,0.025560981111606176,-0.18821778671714967,0.042721086161035454,-0.01377404344558459,0.011999541490826663
17,17,22433.369913502156,2302.297786217815,38.21948101296085,22525.54796540086,-5415.729436157695,7.374682747934143,22554.04217197966,57963.74418274552,10.503501455856709,22696.711996230813,-1888.0849558978923,71.80685770455182,22828.889234100065,7203.120580405711,33.21249479980652,0.992871827323601,103.0,55.0,246.0,99.0,345.0,48.0,843.0,843.0,55.0,21.0,34.0,0.3818181818181818,64.54735936096431,2908.3843417989906,15.0,12.0,3.0,0.8,1136.4750345682414,9954.47661379707,26.0,13.0,13.0,0.5,2464.009237716088,57808.064122505835,157.0,92.0,65.0,0.5859872611464968,34.420966447468075,1603.9768298600045,64.0,32.0,32.0,0.5,92.07853798349328,7188.958699806108,,,,,22412.0,22460.0,22515.0,22529.0,22541.0,22567.0,22607.0,22761.0,22797.0,22860.0,0.0280360602122638,-0.20984708486001064,0.04250949058686874,-0.018230623754479806,0.012783145437544101
18,18,23461.52059170187,2076.8437092985073,19.302826142714533,23549.123304500717,-5556.3708821584105,7.594441021869859,23577.44346414557,58224.75756762692,10.608198898025291,23730.178297609214,-1989.134884998694,57.149899960532856,23855.00899527473,7324.677866455151,30.726694870411578,0.995358869703165,95.0,49.0,253.0,96.0,349.0,46.0,1029.0,1024.0,46.0,19.0,27.0,0.4130434782608695,58.79489393124462,2164.2204039761746,15.0,12.0,3.0,0.8,1110.0256117786353,9273.767749184686,27.0,13.0,14.0,0.4814814814814814,2467.21293520857,59616.5548876399,151.0,91.0,60.0,0.6026490066225165,28.001447226426308,1769.964650954336,64.0,32.0,32.0,0.5,92.74141374250384,7394.996657992128,,,,,23443.0,23489.0,23538.0,23552.0,23564.0,23591.0,23639.0,23791.0,23823.0,23887.0,0.0283097344629287,-0.1997752913404222,0.042373949472317686,-0.014077198805170367,0.012661500673938435
19,19,24513.821948101293,2027.2040367114616,11.546766316029617,24604.54796540086,-5494.7295380440855,7.298866161870135,24633.172686695812,58072.20431884629,10.56952438426261,24790.72626301008,-2063.4373421653495,61.86144956472788,24909.35467572656,7406.566263586537,30.231010081605856,0.9958716960664322,93.0,62.0,253.0,95.0,348.0,31.0,1054.0,1055.0,32.0,13.0,19.0,0.40625,81.404095902752,2191.4025149716495,15.0,12.0,3.0,0.8,1142.610556163997,9813.310980634504,26.0,13.0,13.0,0.5,2457.9352169580993,58640.96910454001,156.0,100.0,56.0,0.6410256410256411,31.76847445512502,1799.3749887474053,63.0,30.0,33.0,0.4761904761904761,86.63291025339943,7515.785419037578,,,,,24501.0,24532.0,24594.0,24608.0,24620.0,24646.0,24691.0,24847.0,24879.0,24942.0,0.04015584737824716,-0.20794664200537208,0.04232550229129878,-0.015395899747451269,0.011696771104218613
20,20,25573.945252602018,1989.70626949223,18.609256329891057,25657.54796540086,-5576.380703340765,7.165737506333875,25685.62785921588,55590.6374772312,10.57475533556738,25814.657705907342,-1793.1433922491667,59.26083447766543,25960.966424060138,7541.359659395077,29.004294755932843,0.9962255197811783,93.0,55.0,247.0,98.0,345.0,38.0,1058.0,1053.0,44.0,22.0,22.0,0.5,52.451325912474246,1622.5617793867195,15.0,12.0,3.0,0.8,1154.8710329264609,10164.344770605108,26.0,13.0,13.0,0.5,2349.460513485263,54449.90563447728,153.0,73.0,80.0,0.477124183006536,28.813055288140685,1523.2926936889291,63.0,32.0,31.0,0.5079365079365079,92.80865150183006,7675.419761675808,,,,,25554.0,25592.0,25647.0,25661.0,25673.0,25699.0,25742.0,25894.0,25929.0,25992.0,0.026361341227446475,-0.2071004643270835,0.04226360085270752,-0.01606846134708727,0.012306620515865254
21,21,26541.9697120823,2378.2051830269925,14.35619933433207,26631.972626301005,-5989.794800480151,8.325600617834304,26659.79661002608,53159.5204157624,10.52572427085988,26815.75363670907,-1526.6357271287668,56.751264263761485,26934.031041628183,7507.465063082711,29.45734646730395,0.997003888414982,94.0,62.0,248.0,98.0,346.0,32.0,973.0,974.0,32.0,16.0,16.0,0.5,82.77611869063573,2446.616851010323,17.0,13.0,4.0,0.7647058823529411,1085.3920522456526,8565.631882858735,26.0,13.0,13.0,0.5,2284.255574095425,53063.60655717127,129.0,78.0,51.0,0.6046511627906976,25.742347493483308,1422.5964733623632,63.0,31.0,32.0,0.492063492063492,86.10803057737498,7751.015597620236,,,,,26526.0,26558.0,26620.0,26636.0,26647.0,26673.0,26726.0,26868.0,26903.0,26966.0,0.03480612996784316,-0.18120688410872537,0.04296983035644763,-0.01686214139760665,0.011469654517715111
22,22,27431.989181290708,1820.112590453523,13.508604371893702,27523.972626301005,-5305.606894552126,8.419190143683778,27552.637459893696,52593.97246012316,10.392210291303114,27664.260418706188,-1691.2395905323451,88.78429676544418,27823.82282687372,7544.933978811588,27.470507291403152,0.9983840059216016,96.0,64.0,240.0,103.0,343.0,32.0,891.0,893.0,32.0,16.0,16.0,0.5,61.77777316683496,1802.005190086888,18.0,13.0,5.0,0.7222222222222222,964.63211532404,6752.973280748352,25.0,13.0,12.0,0.52,2262.2833470577193,50734.67585615364,158.0,63.0,95.0,0.3987341772151899,38.12024092449327,1280.7963025788424,61.0,30.0,31.0,0.4918032786885246,89.25251803250298,7593.992142988493,,,,,27416.0,27448.0,27512.0,27528.0,27540.0,27565.0,27603.0,27752.0,27794.0,27855.0,0.033941731676852806,-0.18181371792066583,0.0430141181819454,-0.022539822942824028,0.011829463091811078
23,23,28309.945252602018,1958.4221439884384,18.936820615014184,28398.013033363044,-5119.569307298108,7.597915533791235,28427.417881307618,55980.83389197077,10.386136934249526,28550.657705907342,-1898.0612814134115,78.8152785151215,28702.64161967838,7208.624649440368,29.62230692487139,0.9962157866123998,97.0,56.0,248.0,98.0,346.0,41.0,872.0,875.0,42.0,20.0,22.0,0.4761904761904761,53.57853184416858,1951.895544869455,16.0,12.0,4.0,0.75,952.9464359225336,6559.871996833648,25.0,12.0,13.0,0.48,2380.449860908144,56177.9309730246,161.0,75.0,86.0,0.4658385093167702,37.98653495752157,1388.0356325139228,62.0,32.0,30.0,0.5161290322580645,89.4567048053228,7154.837192852108,,,,,28290.0,28331.0,28387.0,28402.0,28415.0,28440.0,28478.0,28635.0,28671.0,28733.0,0.027358009614338225,-0.18613800863367128,0.042522586667819676,-0.020013334305641856,0.012409677179164497
24,24,29260.095930801723,1900.3491255510492,19.334701989530046,29348.82826724101,-4865.224781560096,7.053242031963361,29378.013696597776,59274.63610451689,10.513791022798085,29530.408094970648,-2178.411018524619,76.61773894325637,29655.507727171145,7533.455353679141,30.511127969281205,0.9961577999770038,95.0,53.0,257.0,92.0,349.0,42.0,951.0,950.0,44.0,17.0,27.0,0.3863636363636363,49.921676548347186,2075.0070862476327,15.0,12.0,3.0,0.8,1048.810268376645,8829.199911954216,26.0,13.0,13.0,0.5,2473.734107639508,58535.26841963217,167.0,102.0,65.0,0.6107784431137725,33.42471984863073,1920.6129161060871,61.0,30.0,31.0,0.4918032786885246,85.03015274028003,7261.003914830064,,,,,29243.0,29285.0,29338.0,29352.0,29365.0,29391.0,29428.0,29595.0,29626.0,29687.0,0.026269739532135322,-0.2155728286906264,0.0417334338970493,-0.015343624120698958,0.01128700559680805
25,25,30285.52059170187,1864.5690197852896,33.12355021123273,30371.972626301005,-5081.669080870208,7.468766810633675,30401.41700324119,60120.73551491462,10.67404437139942,30558.72626301008,-2193.5370435958853,62.37710311097214,30681.27906359761,7432.281519998579,31.739887308300933,0.9934951413100463,94.0,50.0,257.0,95.0,352.0,44.0,1025.0,1024.0,48.0,20.0,28.0,0.4166666666666667,56.63995232363019,2340.480284267678,15.0,11.0,4.0,0.7333333333333333,1031.5539777676345,8557.621369102715,27.0,13.0,14.0,0.4814814814814814,2500.4032763656596,61181.346098702954,159.0,100.0,59.0,0.6289308176100629,32.7635919895775,1981.5119472816968,64.0,32.0,32.0,0.5,88.71168438407219,7385.1234782728625,,,,,30267.0,30311.0,30361.0,30376.0,30388.0,30415.0,30459.0,30618.0,30650.0,30713.0,0.030376967397083773,-0.20299511073062368,0.04158969871127683,-0.014936420647753386,0.011935996254362705
26,26,31335.219235302444,2077.15707484202,24.382214739356208,31414.54796540086,-4787.422096733184,6.8196897454729974,31444.54377277038,59987.55175887661,10.496542638589254,31605.000245710507,-2247.8301994948774,64.49285831881949,31722.683948314352,7673.398623771531,30.47105403357289,0.995034194705084,95.0,49.0,255.0,93.0,348.0,46.0,1048.0,1043.0,60.0,25.0,35.0,0.4166666666666667,48.64338116855048,1660.960093383324,14.0,10.0,4.0,0.7142857142857143,1009.7233228361304,7967.568867317947,27.0,14.0,13.0,0.5185185185185185,2509.021451567948,58031.6193149295,159.0,103.0,56.0,0.6477987421383647,39.76878015058798,2099.1963149141534,61.0,30.0,31.0,0.4918032786885246,86.93586889497071,7553.338936474869,,,,,31311.0,31357.0,31406.0,31419.0,31431.0,31458.0,31501.0,31661.0,31693.0,31754.0,0.023418248796735847,-0.2109116978687006,0.041825701799818454,-0.017692074854908812,0.011329512926078263
27,27,32348.67126990158,1961.7090719499076,13.087990239112951,32435.54796540086,-5860.303423047605,7.8224636778714,32463.891351368544,58953.79537618087,10.53796604147672,32589.657705907342,-2131.9727074003613,73.62926110846259,32742.811370579355,7567.300142058154,28.129310938873775,0.9960892243158918,91.0,58.0,257.0,92.0,349.0,33.0,1016.0,1019.0,37.0,17.0,20.0,0.4594594594594595,63.87662038124618,1814.1060550043967,16.0,13.0,3.0,0.8125,1183.4590249070015,10030.51510719508,26.0,13.0,13.0,0.5,2508.180711065652,58223.228902071576,165.0,74.0,91.0,0.4484848484848485,31.965887923338293,1812.372049984293,61.0,31.0,30.0,0.5081967213114754,92.55742103254808,7355.932161699667,,,,,32333.0,32366.0,32424.0,32439.0,32451.0,32477.0,32517.0,32681.0,32712.0,32773.0,0.03256171941834057,-0.20194500855581177,0.042544855595150255,-0.014993572765908512,0.012231234296909269
28,28,33344.277250623425,2308.6889696703743,20.897099326701145,33427.972626301,-6434.014553997663,8.16510694772576,33456.20301715756,56951.14569440282,10.559621941428531,33607.753636709065,-1611.749124662355,57.930073003569774,33733.75352445472,7819.64320131926,29.377291813930412,0.9950149767425368,93.0,52.0,255.0,94.0,349.0,41.0,994.0,992.0,43.0,21.0,22.0,0.4883720930232558,55.975697413701845,2150.552346968955,16.0,12.0,4.0,0.75,1133.7748073829423,8603.863933057726,26.0,13.0,13.0,0.5,2435.003319569341,57959.914832221606,151.0,90.0,61.0,0.5960264900662252,36.69715910265867,1481.4290188100078,63.0,32.0,31.0,0.5079365079365079,85.32489154403159,7724.666891670373,,,,,33323.0,33364.0,33416.0,33432.0,33443.0,33469.0,33518.0,33671.0,33702.0,33765.0,0.024245664162242626,-0.17621576666756078,0.04275600235744957,-0.022768530499649782,0.010911609308419128
29,29,34259.821948101286,1426.9273576049138,9.899430897015256,34348.972626301,-6249.25950670279,8.558101476988934,34376.97894851228,53762.71740420932,10.572906148549546,34446.36991350215,-1501.7293528817406,38.21948101296075,34651.53496193192,7616.638436349531,25.97792483149612,0.9952228942760564,90.0,65.0,245.0,100.0,345.0,25.0,918.0,921.0,31.0,14.0,17.0,0.4516129032258064,65.73208337685081,1401.0011332213353,17.0,13.0,4.0,0.7647058823529411,1079.7046024640124,8116.351231099384,26.0,13.0,13.0,0.5,2311.819636435011,53872.22066767579,158.0,22.0,136.0,0.1392405063291139,43.78058123670268,1496.3638923430844,64.0,34.0,30.0,0.53125,91.2322034137438,7509.942451947022,,,,,34247.0,34272.0,34337.0,34353.0,34364.0,34390.0,34425.0,34582.0,34619.0,34682.0,0.04606547279826605,-0.1727732063784437,0.04300042386350822,-0.02915344309724653,0.011978014208781213
30,30,35098.848069965665,1549.632473278146,10.509565265036557,35189.61122554447,-5452.371020495245,8.637478515852534,35217.98542462275,52317.59865685166,10.374125635230367,35338.510119324164,-2374.9391656814114,71.07356707695732,35489.740678160844,7451.934497451152,28.285402126442794,0.9980053181696584,93.0,64.0,237.0,107.0,344.0,29.0,840.0,841.0,30.0,15.0,15.0,0.5,60.445094058826406,1425.5234841333508,17.0,13.0,4.0,0.7647058823529411,1013.9602817822896,7910.470929182567,26.0,13.0,13.0,0.5,2267.963960000781,51737.72493664716,146.0,71.0,75.0,0.4863013698630137,33.51176344051047,2577.154393076414,63.0,31.0,32.0,0.492063492063492,85.47704617351452,7482.3514762890545,,,,,35084.0,35113.0,35177.0,35194.0,35205.0,35231.0,35268.0,35414.0,35459.0,35521.0,0.03900608376575819,-0.18596685331406343,0.043349924656829825,-0.014110577620162056,0.011470450552504313
31,31,35910.985547022945,1992.7391478814309,18.50258953477218,36003.16711243003,-4909.956208002298,7.805046031051274,36032.05596214927,52615.20223379749,10.291238655450488,36179.35669812798,-2149.367156931659,70.77890580920258,36303.84623359172,7643.271686189951,31.611232639738898,0.996834560109049,99.0,61.0,241.0,104.0,345.0,38.0,816.0,814.0,38.0,18.0,20.0,0.4736842105263157,57.06157854765603,2149.847416858146,15.0,11.0,4.0,0.7333333333333333,910.8402973491534,6567.727783887766,26.0,13.0,13.0,0.5,2270.194559858857,52277.20104434767,145.0,93.0,52.0,0.6413793103448275,35.04656689603216,2183.730714097029,64.0,31.0,33.0,0.484375,87.4196876658394,7813.217830079398,,,,,35893.0,35931.0,35992.0,36007.0,36019.0,36045.0,36085.0,36233.0,36273.0,36337.0,0.0286347456004569,-0.18550884341181217,0.043147122190487226,-0.01630552824956304,0.011437469614457305
32,32,36760.794574402295,2271.8655955633976,27.77124712339057,36849.972626301,-4525.018809510466,6.928648278362678,36879.11142957762,56474.22592107356,10.407436875783953,37017.99090284523,-2089.976824881244,74.94609009206108,37154.57980740379,7276.9093621239745,30.19175840699554,0.9951120964518972,101.0,56.0,250.0,97.0,347.0,45.0,842.0,847.0,47.0,23.0,24.0,0.4893617021276595,58.24332751699913,2497.474496901158,15.0,11.0,4.0,0.7333333333333333,972.2783155834352,8041.988087375669,26.0,13.0,13.0,0.5,2384.8282427049644,55787.59045302716,158.0,87.0,71.0,0.5506329113924051,35.69086923274722,2005.764919356727,62.0,31.0,31.0,0.5,85.58429766470545,7233.937557775555,,,,,36738.0,36783.0,36839.0,36854.0,36866.0,36892.0,36931.0,37089.0,37124.0,37186.0,0.025636783985258347,-0.21486724288083567,0.04222861320911098,-0.017077160286107593,0.011761077870526783
33,33,37774.82251361772,1883.873508240606,19.434332835258942,37858.54796540086,-5192.422159762592,7.5818126298680575,37887.62311456076,59693.399210998614,10.634053049703471,38044.57558481036,-2369.5863870252097,68.986299652919,38168.0366571838,7614.266233185869,31.03722774407173,0.9959617234020371,94.0,55.0,261.0,91.0,352.0,39.0,1015.0,1009.0,41.0,23.0,18.0,0.5609756097560976,50.72227262460635,1579.5785388613565,16.0,13.0,3.0,0.8125,1110.081893540622,9911.480486086828,26.0,13.0,13.0,0.5,2486.8542260002014,58110.90564695886,164.0,102.0,62.0,0.6219512195121951,37.48628811636654,2152.6656861570714,62.0,31.0,31.0,0.5,90.13238500293434,7350.514090700764,,,,,37753.0,37792.0,37847.0,37862.0,37875.0,37901.0,37942.0,38108.0,38137.0,38199.0,0.026924457721143432,-0.21378883676734353,0.04166045591087723,-0.01581976007358272,0.011837304113442096
34,34,38803.94525260201,2002.8697978884024,18.600197124700237,38887.54796540086,-5058.136099681361,7.34175335067527,38917.02812552738,60011.60316065622,10.618630417169108,39064.17829760921,-2326.556210706997,65.96889610252697,39197.55379878261,7624.437554729881,29.363228298760905,0.9949288868206404,93.0,53.0,261.0,90.0,351.0,40.0,1029.0,1029.0,45.0,20.0,25.0,0.4444444444444444,54.196727319180475,1855.017499977665,16.0,12.0,4.0,0.75,1065.9502044391018,9185.942717088628,26.0,13.0,13.0,0.5,2502.993758648045,59624.075335550646,165.0,91.0,74.0,0.5515151515151515,30.105280342436583,1983.5692251604255,63.0,32.0,31.0,0.5079365079365079,94.6429935022361,7264.887881209831,,,,,38784.0,38824.0,38877.0,38891.0,38904.0,38930.0,38973.0,39138.0,39167.0,39228.0,0.027059535960010643,-0.2107397237702346,0.04170849680431492,-0.012939846543956121,0.012413111501388525
35,35,39828.94525260201,2036.267440877655,35.6715156120968,39915.54796540086,-5138.208466824294,7.374117193907627,39944.65439315342,59467.41646521057,10.56726041481464,40100.57558481036,-2050.4556939791178,67.99430969266803,40224.339562110436,7653.660535413916,30.716510090035776,0.9936777382521068,96.0,50.0,259.0,92.0,351.0,46.0,1025.0,1028.0,53.0,21.0,32.0,0.3962264150943396,59.75764563391716,2432.473486448066,14.0,11.0,3.0,0.7857142857142857,1090.376788646439,9588.664813690868,26.0,13.0,13.0,0.5,2489.527120467001,58034.243238072064,163.0,101.0,62.0,0.6196319018404908,33.248610835153976,2034.7912070402951,63.0,31.0,32.0,0.492063492063492,93.57812202432648,7487.520398957099,,,,,39809.0,39855.0,39905.0,39919.0,39932.0,39958.0,39998.0,40164.0,40193.0,40256.0,0.029346658712060394,-0.21220952705337667,0.0418637174514453,-0.016215230074360525,0.012226583814546683
36,36,40843.794574402295,1995.973138265368,20.374800742142412,40925.972626301,-6195.816562782369,7.696233649077873,40954.49143437856,58194.40227033349,10.471040902455462,41110.150923910216,-1960.0171393788596,66.9577630261804,41233.550078651744,7593.194597919612,30.68458757062326,0.9960735741603596,94.0,51.0,257.0,93.0,350.0,43.0,1014.0,1010.0,50.0,24.0,26.0,0.48,49.96870893236508,1516.9779318784429,16.0,12.0,4.0,0.75,1126.288682252155,8223.766555465048,26.0,12.0,14.0,0.4615384615384615,2491.2570289401365,59628.21260825958,160.0,100.0,60.0,0.625,45.944990587947,1871.9024268431592,64.0,32.0,32.0,0.5,93.10765389270551,7341.236848529006,,,,,40821.0,40864.0,40915.0,40930.0,40942.0,40968.0,41009.0,41172.0,41203.0,41265.0,0.025034760225175763,-0.18178212199141836,0.042809221020389046,-0.02344111674579908,0.012261987058545188
37,37,41799.821948101286,1533.3196483914774,11.22556487913926,41892.11990131173,-6741.572477928543,8.762679270953111,41919.64407108438,54532.62498951356,10.569797394094309,42072.30160210993,-1985.967778422439,70.10788122784972,42193.4703961403,7676.507055296671,29.120479139744067,0.9977568532984308,92.0,63.0,252.0,94.0,346.0,29.0,959.0,965.0,31.0,14.0,17.0,0.4516129032258064,62.68206011622358,1593.630631367659,17.0,13.0,4.0,0.7647058823529411,1151.416971702541,8553.324354187604,26.0,13.0,13.0,0.5,2337.517227552837,53981.75315797934,155.0,97.0,58.0,0.6258064516129033,35.18500059908241,1905.2228485321432,62.0,30.0,32.0,0.4838709677419355,90.00206174584504,7684.977758353894,,,,,41787.0,41816.0,41879.0,41896.0,41907.0,41933.0,41974.0,42131.0,42164.0,42225.0,0.04087996927579969,-0.1707935315495314,0.042864564616178547,-0.01771680335470082,0.011724350814443011
38,38,42666.22128113999,1668.9348887210176,11.32419812577886,42756.73701489368,-5760.834472739258,8.400545311506775,42784.66057952103,52552.215797156314,10.46524151038908,42907.08251083677,-2153.5525686824435,66.05771293914012,43057.74912343989,7615.187020408623,27.696906551063027,0.9982406795647916,94.0,63.0,239.0,105.0,344.0,31.0,869.0,865.0,31.0,15.0,16.0,0.4838709677419355,62.353409582419424,1644.8562171813817,17.0,13.0,4.0,0.7647058823529411,1072.9240548044238,8582.099632434978,26.0,13.0,13.0,0.5,2265.319745785672,51442.91406149085,148.0,69.0,79.0,0.4662162162162162,39.259985263885525,1991.5892349128335,62.0,31.0,31.0,0.5,90.05316552901802,7780.789557738126,,,,,42651.0,42682.0,42745.0,42760.0,42772.0,42798.0,42838.0,42984.0,43027.0,43089.0,0.03736119965123609,-0.18624455534724849,0.04310607481384737,-0.0182303352306394,0.011825469983557392
39,39,43472.21312747776,1926.967036302329,12.53529211386406,43562.92024107637,-5401.848471609859,8.213527089145774,43591.65265840032,52365.13726459299,10.37724090163452,43732.46244325962,-2509.0541610699415,77.61384099406101,43863.75245503097,7573.513856526625,29.874573188968856,0.9977373618524292,95.0,63.0,247.0,98.0,345.0,32.0,805.0,807.0,33.0,17.0,16.0,0.5151515151515151,65.812609972567,1763.5925658696417,16.0,12.0,4.0,0.75,968.4364119953308,6764.673750243177,26.0,13.0,13.0,0.5,2252.8522332875477,50732.3473793876,156.0,90.0,66.0,0.5769230769230769,36.99149628459974,2506.9466206378574,62.0,30.0,32.0,0.4838709677419355,90.50050710387396,7495.259356756072,,,,,43456.0,43488.0,43551.0,43567.0,43579.0,43605.0,43642.0,43798.0,43834.0,43896.0,0.03415346953669498,-0.1792787074804261,0.04302198659203798,-0.014743203577887444,0.011949606063753795
40,40,44289.70874549638,2657.642245546419,19.257203647342635,44379.62173826044,-5031.12170214437,7.928735931894903,44409.0349917759,55711.7095391748,10.418256522360055,44555.609202233485,-2019.582572049439,74.12739740689939,44683.37368548091,7405.777408202417,31.771711542901176,0.9964915767935936,100.0,56.0,248.0,99.0,347.0,44.0,814.0,817.0,46.0,23.0,23.0,0.5,52.85248897129841,2545.418523686045,16.0,12.0,4.0,0.75,976.1105897257272,7574.6701745684,26.0,13.0,13.0,0.5,2368.0378439733836,55191.990167165255,155.0,94.0,61.0,0.6064516129032258,36.96554488162296,1895.94375927072,65.0,31.0,34.0,0.4769230769230769,83.91008747247848,7444.470496442842,,,,,44268.0,44312.0,44368.0,44384.0,44396.0,44422.0,44462.0,44616.0,44652.0,44715.0,0.01988698405884641,-0.19401450561406383,0.04250520875343541,-0.01830355707818915,0.011330355052197786
41,41,45200.91524106932,1835.318842644862,15.596833519597158,45290.359772516786,-5160.511783197151,7.9581140197067475,45319.28093294077,59269.24312352504,10.725838535854916,45405.04118340374,-2464.821886868593,66.24710042246546,45597.75330582543,6770.461500137929,24.758871729481474,0.993010266768984,97.0,60.0,258.0,90.0,348.0,37.0,912.0,910.0,38.0,20.0,18.0,0.5263157894736842,50.81457320075194,1553.5503053830707,16.0,12.0,4.0,0.75,1027.8073069239945,7961.163394272349,26.0,13.0,13.0,0.5,2463.17119184003,58841.40542383502,171.0,38.0,133.0,0.2222222222222222,44.77681722773759,1962.8978009360735,59.0,31.0,28.0,0.5254237288135594,94.488631442922,6435.402423073552,,,,,45181.0,45218.0,45278.0,45294.0,45306.0,45332.0,45368.0,45536.0,45568.0,45626.0,0.027687054706812413,-0.1991677085731263,0.04155901209513426,-0.01816635005810656,0.013956010449361105
42,42,46239.52059170187,1981.7170729550824,18.502378773889216,46324.54796540086,-4804.376785979931,7.116871284293735,46354.178166288046,59977.71767093008,10.650538543830072,46512.726263010074,-2281.315442976957,63.08700727824314,46633.471672966145,7706.136115431226,30.42862457971285,0.9955652733108096,93.0,53.0,260.0,91.0,351.0,40.0,1038.0,1035.0,45.0,20.0,25.0,0.4444444444444444,56.36322331197071,1881.7821619021104,14.0,11.0,3.0,0.7857142857142857,1048.2276851160266,9315.555013568366,26.0,13.0,13.0,0.5,2489.0854700997584,60090.65140015928,159.0,99.0,60.0,0.6226415094339622,31.281311121812813,2104.5652016972463,62.0,30.0,32.0,0.4838709677419355,96.811731120306,7585.669123780254,,,,,46221.0,46261.0,46314.0,46328.0,46341.0,46367.0,46413.0,46574.0,46603.0,46665.0,0.028441609592596086,-0.2181818229109238,0.04150016984234405,-0.013711962200629691,0.012562940709864237
43,43,47273.94525260201,1898.70824405284,17.572061957114837,47359.54796540086,-5143.261998956184,7.506494970758816,47388.21148532044,59228.19577866397,10.604128683476254,47546.150923910216,-2394.7492015303446,69.34130539731564,47666.7280749476,7798.3297820151565,31.1594179820379,0.9959624235240988,94.0,56.0,258.0,93.0,351.0,38.0,1034.0,1034.0,44.0,20.0,24.0,0.4545454545454545,52.81735375782276,1716.6551920185807,16.0,13.0,3.0,0.8125,1133.453217761108,10551.767423909305,26.0,13.0,13.0,0.5,2483.2842559244577,59568.107934790736,160.0,101.0,59.0,0.63125,32.303337362010886,2194.834959394095,63.0,31.0,32.0,0.492063492063492,86.69182065516829,7580.153187528004,,,,,47254.0,47292.0,47348.0,47363.0,47375.0,47401.0,47445.0,47606.0,47636.0,47699.0,0.02781751958114576,-0.2203763327614149,0.04192740000395254,-0.01348923609260114,0.011116716409595898
44,44,48298.794574402295,1981.9443004835532,20.244559456322776,48379.54796540086,-5492.634702833912,7.4122101641483695,48408.61098792987,58882.418626547515,10.500307515189812,48570.2511870515,-2506.2226573444736,70.66496213964751,48686.193177755034,7646.393347913507,30.118869287950435,0.9958601243937252,93.0,54.0,257.0,93.0,350.0,39.0,1024.0,1021.0,50.0,24.0,26.0,0.48,48.48290255547969,1374.5887351031902,16.0,12.0,4.0,0.75,1099.8792220426226,8996.788163895999,26.0,13.0,13.0,0.5,2483.89188227015,57282.703482658064,163.0,107.0,56.0,0.656441717791411,30.033487995099737,2385.9776624378947,61.0,28.0,33.0,0.4590163934426229,93.14858663321242,7495.106790552708,,,,,48276.0,48315.0,48369.0,48383.0,48396.0,48422.0,48462.0,48626.0,48658.0,48719.0,0.024462293185358877,-0.20024619905546284,0.042183930962887986,-0.011983567344699698,0.012182029146935024
45,45,49291.09593080172,2009.3871756602232,16.588986873762803,49377.972626301,-6297.133658135984,7.946149314715393,49407.116440705984,58052.67805583409,10.500008350690974,49557.45228030964,-1930.4193820715889,65.79061846418331,49685.850127002566,7422.411245169815,29.012826059602187,0.9960118884269076,93.0,53.0,259.0,91.0,350.0,40.0,994.0,998.0,42.0,18.0,24.0,0.4285714285714285,56.78884517285919,2106.3483265923205,17.0,12.0,5.0,0.7058823529411765,1054.0589342344963,7003.5997724944455,26.0,13.0,13.0,0.5,2474.3809495226155,58409.368612648344,163.0,94.0,69.0,0.5766871165644172,29.986814051471235,1767.2399291210177,62.0,31.0,31.0,0.5,92.06207901257604,7317.394858636063,,,,,49274.0,49314.0,49367.0,49382.0,49394.0,49420.0,49462.0,49626.0,49655.0,49717.0,0.028261773470411502,-0.1673870988703944,0.04262302846981146,-0.015533833906750106,0.012403257643866886
46,46,50239.09593080172,1669.904793779563,14.74172860246914,50328.54796540086,-6388.270206699101,8.356190784084138,50356.42813036202,55202.104687662366,10.581054381888777,50496.47965400863,-1808.9755796189793,68.47408878672964,50630.819349870675,7807.027778159774,28.966248955323433,0.9975444841678616,94.0,60.0,249.0,97.0,346.0,34.0,948.0,949.0,36.0,18.0,18.0,0.5,54.75619959609619,1626.43514999039,18.0,14.0,4.0,0.7777777777777778,1179.6571679083138,9667.473684875396,26.0,12.0,14.0,0.4615384615384615,2366.3298497789947,56784.510003129515,154.0,85.0,69.0,0.551948051948052,37.94255876963155,1648.437441437493,62.0,31.0,31.0,0.5,87.7338728681069,7843.092687319156,,,,,50222.0,50256.0,50316.0,50332.0,50344.0,50370.0,50411.0,50565.0,50600.0,50662.0,0.03279001281993105,-0.18465987344606347,0.04286665994291098,-0.020974610822343615,0.011237807186179501
47,47,51102.049259293955,1475.4918603302026,8.962818279813165,51193.972626301,-5910.348522481411,8.720267897182065,51221.99835581011,53018.00397682696,10.521536005890985,51339.58927503641,-2224.634655671511,84.96661925616647,51494.30750880771,7751.069296007913,28.055250037411017,0.9984687415411776,92.0,67.0,243.0,102.0,345.0,25.0,867.0,866.0,25.0,13.0,12.0,0.52,69.35007623384082,1349.509907397498,17.0,13.0,4.0,0.7647058823529411,1052.1477646689225,7635.445817884603,26.0,13.0,13.0,0.5,2284.241532539553,52495.772943905766,154.0,69.0,85.0,0.448051948051948,41.64903690248869,2284.384179336879,62.0,29.0,33.0,0.4677419354838709,88.95456287408221,7749.092278190781,,,,,51089.0,51114.0,51181.0,51198.0,51209.0,51235.0,51273.0,51424.0,51465.0,51526.0,0.04700132755616887,-0.17801788856728654,0.04308426121696219,-0.018721742375229174,0.011476424668257977
48,48,51903.272849087945,1789.4373734854948,11.279903568953747,51996.55546911251,-5258.798147665439,8.188063187799814,52025.11518974544,51824.891101203335,10.339568243521136,52145.01395063593,-2215.6768110320463,92.97739956424986,52294.69707818789,7776.738599772579,29.16142358158237,0.9986693010558512,97.0,68.0,241.0,101.0,342.0,29.0,801.0,803.0,30.0,16.0,14.0,0.5333333333333333,62.019302595117914,1584.6975827771057,17.0,13.0,4.0,0.7647058823529411,998.5786660356644,7286.236001268611,25.0,12.0,13.0,0.48,2235.366164583842,50984.248005327194,155.0,73.0,82.0,0.4709677419354838,36.374938476445074,2026.041809977728,62.0,30.0,32.0,0.4838709677419355,81.44880124711993,7639.678657027659,,,,,51888.0,51917.0,51985.0,52001.0,52013.0,52038.0,52072.0,52226.0,52265.0,52327.0,0.034658548834439355,-0.18988724001109794,0.04313306052527216,-0.016417077750388104,0.010473388066496385
49,49,53526.39877733051,2566.509193306353,17.58327096926132,53616.962463717544,-4856.286081571548,7.870628090359061,53646.74182525871,52528.0299628768,10.16682246609364,53777.1421895569,-1906.46119224854,73.12387063328126,53918.38078999263,7767.472726855005,30.45222975254993,0.9976629571362944,101.0,60.0,234.0,111.0,345.0,41.0,1623.0,1622.0,43.0,21.0,22.0,0.4883720930232558,60.467360564591296,2507.1219262236223,16.0,11.0,5.0,0.6875,844.398547335454,5191.914333141784,25.0,13.0,12.0,0.52,2280.1980722728435,50844.29671033966,142.0,78.0,64.0,0.5492957746478874,36.65388562436219,1842.6119315655976,65.0,31.0,34.0,0.4769230769230769,84.83261588631761,8068.58095287188,,,,,53505.0,53546.0,53606.0,53622.0,53634.0,53659.0,53700.0,53840.0,53887.0,53951.0,0.023560157400680532,-0.17387743084983112,0.04340916790300971,-0.01922613781670082,0.010921520920571772
50,50,54445.794574402295,1980.6743467865588,25.881377355127754,54534.762013747466,-4274.848524620157,6.958104743304567,54564.520487697955,56210.006486135775,10.356332359996667,54707.5891488046,-1912.6538679948371,66.45214649643674,54841.65191458595,7261.888634611378,29.813526136672213,0.9959210226536792,101.0,58.0,252.0,96.0,348.0,43.0,914.0,918.0,47.0,24.0,23.0,0.5106382978723404,56.63071184876694,1974.3840685331795,15.0,11.0,4.0,0.7333333333333333,918.9850855573995,7508.408887115004,26.0,13.0,13.0,0.5,2381.3247325828183,53877.98270598561,115.0,46.0,69.0,0.4,38.45295864897889,1891.8923405678484,62.0,32.0,30.0,0.5161290322580645,93.8400651513736,7302.653247201077,,,,,54423.0,54466.0,54524.0,54539.0,54552.0,54578.0,54662.0,54776.0,54811.0,54872.0,0.0285916319058933,-0.21497488864568745,0.04236478309551829,-0.020104504684525955,0.012922267177730614
51,51,55562.794574402295,2217.073730267894,36.147439794777824,55644.12330450071,-4301.870052970635,6.732515781751346,55673.39464625068,60353.199233996675,10.699620108650477,55816.26041870619,-1955.5638247868085,52.37478936284037,55956.86830785827,7764.811457636488,30.57199594534599,0.9934377644661898,94.0,9.0,257.0,96.0,353.0,85.0,1117.0,1109.0,86.0,24.0,62.0,0.2790697674418604,42.09780685686798,2525.1336814568904,13.0,10.0,3.0,0.7692307692307693,1020.9227038545482,9375.653135773804,27.0,13.0,14.0,0.4814814814814814,2482.346850755757,61060.590328734,135.0,60.0,75.0,0.4444444444444444,30.69464502361076,1763.2264878662745,65.0,34.0,31.0,0.5230769230769231,97.76693963889528,7558.264490145931,,,,,55540.0,55625.0,55634.0,55647.0,55660.0,55687.0,55755.0,55891.0,55923.0,55987.0,0.01898800490129898,-0.23732067479573335,0.04113032750975465,-0.015696058924058398,0.0125910255738076
52,52,56643.36991350215,2136.4216593397373,38.21948101296085,56727.54796540086,-4632.6626856285475,6.807218814891671,56757.03687887906,60168.54985317557,10.612589675411405,56914.0276194095,-2357.9088295973856,57.5143676524968,57038.561020535526,7931.7968792803695,32.46859257405525,0.9934190723662004,96.0,10.0,256.0,96.0,352.0,86.0,1081.0,1083.0,88.0,22.0,66.0,0.25,56.77244086402537,2406.4679172464994,13.0,10.0,3.0,0.7692307692307693,1061.5323728203002,9580.785752478065,26.0,13.0,13.0,0.5,2511.939660520441,59914.45615063797,148.0,89.0,59.0,0.6013513513513513,36.90790873215086,2201.592606703044,64.0,33.0,31.0,0.515625,96.93189864574497,7904.166444030363,,,,,56622.0,56708.0,56718.0,56731.0,56744.0,56770.0,56820.0,56974.0,57006.0,57070.0,0.026573612290361696,-0.22914087315560172,0.04174838294507884,-0.015652814166887404,0.012220673338087212
53,53,57693.67126990158,2120.8363394326043,14.468324496564811,57781.54796540086,-5056.148979206326,7.014822396165763,57810.428175828114,59552.09038672859,10.517460053729756,57964.150923910216,-2423.7620613649588,73.37493698049869,58089.485694769275,8002.143674197317,30.97954394747227,0.9961575109146116,93.0,56.0,257.0,94.0,351.0,37.0,1052.0,1054.0,37.0,16.0,21.0,0.4324324324324324,61.0343801986704,2182.1153943461436,15.0,12.0,3.0,0.8,1112.951008182491,9848.155647529544,27.0,13.0,14.0,0.4814814814814814,2504.836440080959,60267.38639270511,164.0,101.0,63.0,0.6158536585365854,38.42475990853621,2291.621509007726,63.0,30.0,33.0,0.4761904761904761,92.26513048402953,7867.920980804171,,,,,57678.0,57715.0,57771.0,57785.0,57797.0,57824.0,57863.0,58028.0,58059.0,58122.0,0.02877844889012,-0.220118317865941,0.042061268106873564,-0.0158533547995619,0.01153005172620629
54,54,58716.21923530245,2108.9633401241995,31.64432689612128,58798.12330450071,-5498.4468770619815,7.510412872731821,58826.85907613959,59214.88575329648,10.592860756790229,58980.0276194095,-1854.300484798231,58.2560983268724,59107.15662190504,7719.0543454215485,30.49515421761626,0.9944587711888336,95.0,46.0,257.0,94.0,351.0,49.0,1020.0,1016.0,57.0,25.0,32.0,0.4385964912280701,48.01292181294025,2017.297444415755,15.0,11.0,4.0,0.7333333333333333,1078.4973707450663,8703.702598579603,26.0,13.0,13.0,0.5,2491.471339733878,58741.055545822375,154.0,90.0,64.0,0.5844155844155844,36.42485577115428,1658.7059054529714,63.0,32.0,31.0,0.5079365079365079,97.28129680203662,7784.283151755041,,,,,58692.0,58741.0,58787.0,58801.0,58814.0,58840.0,58886.0,59044.0,59075.0,59138.0,0.02276612442685358,-0.19614581987583854,0.042075084804080336,-0.019643448335245253,0.012602748011450093
55,55,59714.52059170187,1861.5025380657185,30.28241030580964,59800.972626301,-6238.305329962704,7.726325000828887,59829.29380003209,58159.664597940384,10.545769740066582,59985.30160210993,-1645.3376957411226,62.57200504733215,60107.932158838965,7903.443109140305,30.288329481717486,0.9955900888646474,94.0,48.0,254.0,95.0,349.0,46.0,1000.0,1002.0,46.0,19.0,27.0,0.4130434782608695,60.04457205059124,2299.935377443843,16.0,12.0,4.0,0.75,1149.3772801908628,8786.037625543886,26.0,13.0,13.0,0.5,2476.2213442841003,59224.72138032384,156.0,98.0,58.0,0.6282051282051282,33.75755299795363,1530.9191847896147,63.0,32.0,31.0,0.5079365079365079,92.34019773594008,7972.3237589966975,,,,,59696.0,59742.0,59790.0,59805.0,59816.0,59842.0,59887.0,60044.0,60076.0,60139.0,0.03225597108934558,-0.18424511456186363,0.042576265894968573,-0.020517096937202273,0.01168354051023015
56,56,60673.43227176927,1496.4870293803842,10.9667440919908,60762.30170926084,-6736.495727594478,8.638081240902602,60789.90512639512,54518.39977453575,10.549009707067782,60948.726263010074,-1818.967758605993,65.797128821975,61064.68958042708,7798.957243176523,29.58646634646967,0.9979093488794476,91.0,62.0,250.0,97.0,347.0,29.0,963.0,961.0,29.0,14.0,15.0,0.4827586206896552,65.45939627875201,1450.6349079436077,17.0,13.0,4.0,0.7647058823529411,1127.7921593383169,7988.951477099628,26.0,13.0,13.0,0.5,2348.041096545057,54895.3489836245,147.0,97.0,50.0,0.6598639455782312,42.405755072590665,1888.3453544230465,63.0,31.0,32.0,0.492063492063492,92.85232163725183,7780.907647367883,,,,,60659.0,60688.0,60750.0,60766.0,60777.0,60803.0,60849.0,61000.0,61034.0,61097.0,0.04374204052129691,-0.16741525638004642,0.043068782397420464,-0.023313087805959396,0.011905735438989661
57,57,61533.52410581103,1939.754172682839,13.93117641562687,61622.398233876134,-5735.294127509319,8.38031948707154,61650.11409657943,52176.90442904492,10.517815422868276,61775.12711113181,-1902.5230556167637,60.97384710624838,61924.688740971935,7776.502003509404,28.77748751460765,0.9981911106206852,94.0,58.0,235.0,111.0,346.0,36.0,857.0,860.0,37.0,19.0,18.0,0.5135135135135135,49.99497288552446,1622.6572902959747,17.0,13.0,4.0,0.7647058823529411,1026.5373222834894,7785.472814406225,26.0,13.0,13.0,0.5,2245.59571049488,52692.29558537487,141.0,71.0,70.0,0.5035460992907801,40.3439701053675,1891.4899323124423,63.0,32.0,31.0,0.5079365079365079,85.43351616002343,7990.583521329188,,,,,61516.0,61552.0,61610.0,61626.0,61637.0,61663.0,61705.0,61845.0,61893.0,61956.0,0.025773870519055164,-0.17898599434677753,0.0430381168654544,-0.02120550917176071,0.010986111251751588
58,58,64838.88098145852,1642.2919994145198,13.346052522657626,64930.285175302015,-4563.220088049975,7.601380902819595,64959.92219713263,52402.96296362627,10.222674023312337,65106.35926494171,-1930.97386199807,75.24812594436005,65233.67380486324,7492.641760584358,29.61952486507893,0.9981291530436376,98.0,64.0,248.0,99.0,347.0,34.0,3308.0,3310.0,34.0,18.0,16.0,0.5294117647058824,53.329714906960355,1584.075455559865,16.0,11.0,5.0,0.6875,826.3659450781353,5370.695974334288,26.0,13.0,13.0,0.5,2262.7130740123857,51366.701152467074,157.0,94.0,63.0,0.5987261146496815,41.07962238271822,1815.5766816112657,62.0,30.0,32.0,0.4838709677419355,82.81832138857231,7472.689678461398,,,,,64821.0,64855.0,64919.0,64935.0,64947.0,64973.0,65013.0,65167.0,65204.0,65266.0,0.03247273622837626,-0.18109272161607937,0.04317910564681182,-0.021274043730561527,0.011053287216298627
59,59,65946.79457440229,1548.5228581075576,21.174332430689645,66026.972626301,-4344.8968664427275,7.1182365351534,66056.8509649859,57952.772748692994,10.610323249360242,66180.95906230675,-2730.7256432206304,73.90662243897933,66340.18591825399,7442.305988383778,27.525686273941904,0.9943490572900912,92.0,49.0,263.0,91.0,354.0,43.0,1103.0,1097.0,49.0,23.0,26.0,0.4693877551020408,41.44490748391464,1251.5051135724384,15.0,11.0,4.0,0.7333333333333333,928.1296185580524,7397.477230569185,26.0,13.0,13.0,0.5,2410.9909674044966,56200.60958156403,165.0,67.0,98.0,0.406060606060606,31.176810637297695,2549.130355386626,60.0,30.0,30.0,0.5,85.96901762349007,7204.592039702618,,,,,65924.0,65967.0,66016.0,66031.0,66044.0,66070.0,66114.0,66279.0,66310.0,66370.0,0.026764156090381686,-0.21361372826276878,0.04160268530825165,-0.011417042468069996,0.0115513951935964
60,60,67013.79457440229,1887.3645153380971,40.767446413824906,67096.12330450071,-4347.767907430878,6.7794896364685755,67125.63595702521,59265.76072146448,10.64565409734584,67281.72626301006,-2366.8515818555543,63.731669552358355,67407.58470526672,7698.895852441703,30.527365829256812,0.9935535622289602,96.0,52.0,260.0,92.0,352.0,44.0,1067.0,1069.0,88.0,24.0,64.0,0.2727272727272727,53.17153843041509,1970.8640744708416,13.0,10.0,3.0,0.7692307692307693,978.179138827819,8513.659463600481,27.0,14.0,13.0,0.5185185185185185,2455.254523922628,57643.481322209685,162.0,98.0,64.0,0.6049382716049383,43.76269532104367,2087.917145903303,63.0,32.0,31.0,0.5079365079365079,94.12400312154996,7450.781259061434,,,,,66991.0,67035.0,67087.0,67099.0,67112.0,67139.0,67182.0,67347.0,67376.0,67439.0,0.028172373697981756,-0.2249842125095934,0.04142787494893995,-0.01848983504353694,0.012225649615937922
61,61,68048.36991350215,2020.0871027406963,25.775808541090058,68131.12330450071,-4820.855658499367,7.178633101684767,68160.00569755172,59167.08796681012,10.655207415494775,68318.72626301006,-2142.197591494565,62.501686617803074,68440.02631821948,7765.626069208334,30.523914271894583,0.9951125156979777,94.0,49.0,257.0,94.0,351.0,45.0,1035.0,1034.0,57.0,23.0,34.0,0.4035087719298245,49.9716243387113,1957.4694840240536,14.0,11.0,3.0,0.7857142857142857,1047.5483404177671,9230.681767456035,26.0,13.0,13.0,0.5,2471.962983585913,59008.62194105971,157.0,99.0,58.0,0.6305732484076433,43.12204585263762,1979.4106656530655,63.0,31.0,32.0,0.492063492063492,88.92318014890834,7730.157174678084,,,,,68027.0,68072.0,68121.0,68134.0,68147.0,68173.0,68219.0,68378.0,68409.0,68472.0,0.024737361211263468,-0.21729510581195194,0.041779358567935014,-0.020129817167123365,0.011450870716206608
62,62,69077.945252602,2063.0224785281175,23.437477882994884,69162.54796540085,-5107.836676432101,7.260720581149003,69191.19022954538,58396.038202166885,10.587798534643802,69342.90431490877,-1909.713240938818,58.74081556962321,69472.03715387036,7693.382584028179,31.10619781809586,0.995536033469596,94.0,48.0,255.0,96.0,351.0,46.0,1030.0,1031.0,48.0,21.0,27.0,0.4375,61.8133488711133,2143.038972743993,15.0,12.0,3.0,0.8,1131.2048332791446,10315.160710393257,26.0,13.0,13.0,0.5,2455.6526620414056,58871.4261229488,146.0,82.0,64.0,0.5616438356164384,37.54703006327727,1775.8414495905645,64.0,33.0,31.0,0.515625,98.2122544339976,7815.152112423747,,,,,69058.0,69104.0,69152.0,69166.0,69178.0,69204.0,69256.0,69407.0,69439.0,69503.0,0.029962518350849288,-0.22146456610458967,0.04205169969818748,-0.01966108275230845,0.012765809234275028
63,63,70077.24660900142,1999.793599518248,10.569956053152673,70167.54796540085,-6794.860600961791,9.407783879650864,70195.37326104144,54079.556636753245,10.672628605316286,70337.32897580891,-1903.6719594341175,68.4573053333547,70471.8967379818,7816.586302861617,28.354185088704064,0.9981797313224462,91.0,61.0,252.0,97.0,349.0,30.0,1001.0,1005.0,30.0,14.0,16.0,0.4666666666666667,80.95613609658376,2054.1897822447754,18.0,14.0,4.0,0.7777777777777778,1163.319805657497,9211.434808383374,26.0,12.0,14.0,0.4615384615384615,2318.010581163658,55718.42292391742,157.0,88.0,69.0,0.5605095541401274,39.38947160597366,1794.9110323015843,62.0,31.0,31.0,0.5,92.66626638800896,7987.785759749164,,,,,70063.0,70093.0,70154.0,70171.0,70183.0,70209.0,70249.0,70406.0,70442.0,70503.0,0.04048224582581231,-0.1712058383497717,0.04286297309597958,-0.02069131260287225,0.011855081335708437
64,64,70972.82194810128,1361.6902815355077,9.796015195014984,71062.972626301,-5585.447842701532,8.264166058264783,71091.04728433581,51781.32395979835,10.542530079305868,71186.43847060489,-2102.9232042571366,86.63082362937743,71365.15620064379,7690.7091202760785,26.62756745468829,0.9980602381306292,90.0,63.0,243.0,103.0,346.0,27.0,896.0,895.0,27.0,13.0,14.0,0.4814814814814814,61.50566918194543,1264.8428660900577,17.0,13.0,4.0,0.7647058823529411,1023.6846379073764,7255.2213290450945,26.0,13.0,13.0,0.5,2217.9217850452787,50971.26969203203,158.0,48.0,110.0,0.3037974683544304,44.92807874604192,1959.9112027827184,60.0,29.0,31.0,0.4833333333333333,91.28417240638232,7742.868613318282,,,,,70960.0,70987.0,71050.0,71067.0,71078.0,71104.0,71138.0,71293.0,71336.0,71396.0,0.045168618749770816,-0.18327709196049846,0.04283246575091851,-0.021364583668623736,0.011869409046523064
65,65,72572.2454138363,2031.4807725209089,17.030013046706575,72664.8155465854,-4732.52640209867,7.612439389976455,72693.93916104357,51853.56588379097,10.26087748427168,72840.73605938003,-1953.328086123597,74.68520682091501,72966.04209915928,8071.03152222887,31.01891417301401,0.9970648984822365,99.0,64.0,244.0,102.0,346.0,35.0,1601.0,1603.0,36.0,18.0,18.0,0.5,64.85464400255101,2181.730074808868,16.0,12.0,4.0,0.75,908.9619622480388,6705.72507349792,26.0,13.0,13.0,0.5,2237.3797649118237,51061.786955358446,153.0,96.0,57.0,0.6274509803921569,35.067394203405925,1927.568140941252,65.0,31.0,34.0,0.4769230769230769,88.44459086272296,8158.804583863063,,,,,72555.0,72590.0,72654.0,72669.0,72681.0,72707.0,72745.0,72898.0,72935.0,73000.0,0.031924813111606005,-0.19206696065022558,0.04314804057884882,-0.0179526391150181,0.010958275979858692
66,66,73415.76389577652,2247.17051917987,27.066852604989915,73506.63140318668,-4494.023436930582,7.248865331291044,73535.85954188844,53835.26766531427,10.3259108660899,73675.993067378,-2095.2438357234705,59.90614665753725,73811.45300786906,7679.206181085856,31.55927657780875,0.9960259770506732,102.0,59.0,239.0,109.0,348.0,43.0,843.0,842.0,44.0,22.0,22.0,0.5,57.704125727086016,2454.200234469859,16.0,12.0,4.0,0.75,947.293716995863,7918.447432541233,26.0,13.0,13.0,0.5,2303.321438585175,52781.51435681459,134.0,75.0,59.0,0.5597014925373134,36.914489338737866,1975.078138587718,65.0,32.0,33.0,0.4923076923076923,92.63839314295892,8089.474771273691,,,,,73394.0,73437.0,73496.0,73510.0,73523.0,73549.0,73601.0,73735.0,73779.0,73844.0,0.02567857011053428,-0.21078966994503806,0.042784619422802476,-0.01761823073255414,0.012063537683247834
67,67,74504.79457440229,1595.1961949199003,34.28770442746836,74587.12330450071,-4197.6190004374,6.824482012162013,74616.46302600592,58724.280002592706,10.631813910805883,74745.71245330531,-2162.763979610772,62.42056379187754,74900.37054388174,7833.692843804612,29.486159334017707,0.9940834751274146,95.0,47.0,260.0,95.0,355.0,48.0,1085.0,1081.0,87.0,24.0,63.0,0.2758620689655172,47.18257405202737,1590.6922763144355,14.0,11.0,3.0,0.7857142857142857,979.1589937947904,8821.689141602737,27.0,13.0,14.0,0.4814814814814814,2437.174848754589,59295.51930882156,144.0,53.0,91.0,0.3680555555555556,36.24298441385948,2005.7774268071353,65.0,33.0,32.0,0.5076923076923077,92.80460760611524,7664.7487289537485,,,,,74482.0,74530.0,74577.0,74590.0,74603.0,74630.0,74693.0,74837.0,74867.0,74932.0,0.02957791286255955,-0.23326533296441626,0.04150199625516033,-0.016757715939203895,0.011846853004903185
68,68,75591.79457440229,1736.1198639923564,40.767446413824906,75674.12330450071,-4647.2700294253045,7.0209352642894505,75703.01293749333,58949.79849505333,10.599946512734798,75850.2056713082,-2043.2096035028885,56.136447435942934,75985.67396058036,7848.147860711462,31.004565625878143,0.9938107864960072,95.0,9.0,257.0,95.0,352.0,86.0,1087.0,1086.0,88.0,24.0,64.0,0.2727272727272727,50.23981664452737,1868.881725125627,13.0,10.0,3.0,0.7692307692307693,1038.6574074909036,9343.104621037211,26.0,13.0,13.0,0.5,2469.0218137098677,58709.99782359153,151.0,81.0,70.0,0.5364238410596026,39.7078742841808,1824.349180157546,65.0,34.0,31.0,0.5230769230769231,91.97655835253578,7740.971017412013,,,,,75569.0,75655.0,75664.0,75677.0,75690.0,75716.0,75769.0,75921.0,75952.0,76016.0,0.028937988491760363,-0.2234983981809525,0.041883464858952,-0.019434067956662606,0.011719524145687768
69,69,76652.945252602,1834.5760001527603,35.6715156120968,76737.54796540085,-4803.984528828983,6.784882299045844,76766.35542864348,58951.22264520884,10.59793729273037,76913.47965400862,-2052.7935122505496,58.5061839102349,77048.60937902915,7937.631593517474,29.68018899915118,0.9937560276423802,95.0,48.0,258.0,94.0,352.0,47.0,1062.0,1063.0,48.0,20.0,28.0,0.4166666666666667,53.599101150223824,2220.302356901626,14.0,11.0,3.0,0.7857142857142857,1118.0800387276447,10344.319839843109,26.0,13.0,13.0,0.5,2472.500394367703,59744.29023536931,157.0,84.0,73.0,0.535031847133758,38.88850749247986,1833.7340865128144,64.0,33.0,31.0,0.515625,94.33067321209388,7702.24513074272,,,,,76633.0,76680.0,76728.0,76741.0,76753.0,76779.0,76828.0,76986.0,77016.0,77080.0,0.029216070168671546,-0.23274014144258443,0.041941460811562165,-0.01894418861926596,0.011883982281204901
70,70,77694.79457440229,2085.238414031463,29.36604856473276,77776.54796540085,-4878.700478587749,7.133905162461316,77805.24687698677,58249.05932613095,10.562091848857117,77954.1782976092,-1883.8611061237568,60.8803681198313,78084.87622817536,7819.501760008651,28.7482045841121,0.9947404334320192,94.0,37.0,256.0,94.0,350.0,57.0,1041.0,1039.0,66.0,24.0,42.0,0.3636363636363636,52.12280067683314,1990.8710698926775,15.0,12.0,3.0,0.8,1106.1786737623013,10315.291116285296,26.0,13.0,13.0,0.5,2451.252243558452,58793.22172793819,157.0,89.0,68.0,0.5668789808917197,38.57066473437278,1734.835266106073,62.0,31.0,31.0,0.5,89.6086627768982,7769.940568332252,,,,,77672.0,77729.0,77766.0,77780.0,77792.0,77818.0,77863.0,78022.0,78054.0,78116.0,0.024996086934760776,-0.22673633657512623,0.042082263162983004,-0.02047426140334517,0.011459638417780605
71,71,78697.945252602,2176.0618414614723,19.74808248813126,78783.54796540085,-6411.882176955272,8.375481018376503,78811.6437081653,55725.94193928165,10.598156169560996,78958.32897580891,-1676.3398164185544,62.16905273026896,79090.31066402397,7603.272345210176,28.610791891746462,0.9965185057539953,93.0,51.0,256.0,94.0,350.0,42.0,1004.0,1007.0,45.0,20.0,25.0,0.4444444444444444,57.37221916548244,2046.7904839148869,17.0,13.0,4.0,0.7647058823529411,1165.7338317134693,9549.419193201327,26.0,13.0,13.0,0.5,2374.353104530405,55050.17842040475,160.0,90.0,70.0,0.5625,36.78088582929243,1356.591357011474,62.0,31.0,31.0,0.5,86.95556236105342,7697.255609658422,,,,,78678.0,78720.0,78771.0,78787.0,78799.0,78825.0,78870.0,79027.0,79059.0,79121.0,0.026365160250662035,-0.18180836758092556,0.042607680048144775,-0.02194118726349506,0.011436597087809528
72,72,79638.70701535293,1456.3694445141791,10.540175272456944,79726.972626301,-6151.124677667322,8.528343841947324,79755.34800744984,52428.14228653094,10.44536538089691,79894.81946375758,-1929.4136358203343,86.02129230844187,80030.20965644746,8040.706496662024,28.479041175317743,0.998604523989889,91.0,62.0,252.0,96.0,348.0,29.0,945.0,943.0,29.0,15.0,14.0,0.5172413793103449,58.393550382287735,1333.9560199555856,18.0,13.0,5.0,0.7222222222222222,1021.0409328094272,6665.481182782845,25.0,12.0,13.0,0.48,2269.111827080228,53247.309928934344,166.0,94.0,72.0,0.5662650602409639,28.656183094850316,1745.8004108543214,63.0,30.0,33.0,0.4761904761904761,94.593170905754,7884.073448976975,,,,,79624.0,79653.0,79715.0,79731.0,79743.0,79768.0,79801.0,79967.0,80000.0,80063.0,0.040095286674849774,-0.1659925601112404,0.0432804163588145,-0.01485227561515936,0.011764286004597096
73,73,82164.21923530243,2125.746521032067,28.240533621316132,82251.54796540085,-4328.947153662375,7.03155126504859,82280.84796093311,54778.946898220114,10.397481812897972,82417.2855012149,-1972.2495608483596,61.41001146472672,82557.50675187689,7588.760389937568,29.8446181484352,0.9963447393173838,101.0,56.0,243.0,106.0,349.0,45.0,2520.0,2526.0,47.0,25.0,22.0,0.5319148936170213,57.33493294425719,2050.8553782567437,15.0,12.0,3.0,0.8,965.6460410627384,8496.939249665944,26.0,13.0,13.0,0.5,2323.787710317986,53666.13870047158,149.0,79.0,70.0,0.5302013422818792,47.497101716341646,1559.442697894355,64.0,32.0,32.0,0.5,91.91709024046844,7634.576659338323,,,,,82140.0,82185.0,82241.0,82255.0,82268.0,82294.0,82341.0,82484.0,82526.0,82590.0,0.02697166965909963,-0.2230671816461845,0.04242118262396699,-0.02408270365942475,0.012112266762612152
74,74,83227.52059170186,1734.4859989835204,21.289265998051945,83314.12330450071,-4418.918680541402,6.63340501492663,83343.4717475678,58975.502591778386,10.586952513753255,83500.0002457105,-2438.2359491276534,72.57705367476187,83625.67482270217,7817.314029081951,30.434461088997253,0.9955094762832736,95.0,52.0,262.0,92.0,354.0,43.0,1065.0,1063.0,44.0,20.0,24.0,0.4545454545454545,53.662719907948585,1785.3071494471149,13.0,10.0,3.0,0.7692307692307693,992.6902471888128,8405.46321184935,27.0,13.0,14.0,0.4814814814814814,2445.7791510582765,59625.906162876614,169.0,104.0,65.0,0.6153846153846154,46.32092224869036,2219.447406486694,62.0,30.0,32.0,0.4838709677419355,91.81717928166525,7496.268046661859,,,,,83209.0,83252.0,83304.0,83317.0,83330.0,83357.0,83396.0,83566.0,83596.0,83658.0,0.030938687276459497,-0.2246455114822772,0.041471103145787114,-0.018997719341010848,0.01174536150653373
75,75,84257.21923530243,2042.5214421034784,33.132837735175066,84338.54796540085,-5021.285414631237,7.373818620321672,84367.75807297755,59075.24950205961,10.631396384304248,84526.30160210992,-1981.227232400736,61.1660204933634,84648.74630255756,7667.07719748286,30.38733168029228,0.9946794219843944,95.0,46.0,258.0,95.0,353.0,49.0,1028.0,1024.0,60.0,25.0,35.0,0.4166666666666667,50.23936578322269,1886.5421908435376,14.0,11.0,3.0,0.7857142857142857,1082.489545101566,9555.484130016115,26.0,13.0,13.0,0.5,2461.1374796109767,58112.598389919745,154.0,94.0,60.0,0.6103896103896104,44.65049102318813,1942.4713808392776,64.0,32.0,32.0,0.5,90.90055615253874,7564.398117630815,,,,,84233.0,84282.0,84328.0,84342.0,84355.0,84381.0,84428.0,84586.0,84617.0,84681.0,0.02459673849567228,-0.21558016637480146,0.04166105941753443,-0.02253678441976757,0.011855959423805181
76,76,85276.64389620257,2020.7177680671748,32.44497908211133,85356.12330450071,-5181.682507955107,7.301860414536734,85385.12933484538,58605.043890330366,10.645361123568094,85539.45228030963,-1580.7380389018554,60.09740359106055,85666.20394571607,7750.4434205844045,30.95802339562162,0.9951109531241364,95.0,46.0,255.0,97.0,352.0,49.0,1019.0,1017.0,79.0,27.0,52.0,0.3417721518987341,51.063733568893205,1716.836184172497,14.0,10.0,4.0,0.7142857142857143,1043.6241202595795,8544.18942881738,26.0,13.0,13.0,0.5,2451.431213254023,58899.46922140387,155.0,94.0,61.0,0.6064516129032258,52.9141344472077,1514.2310985584638,64.0,32.0,32.0,0.5,92.74457601579446,7849.729580186543,,,,,85251.0,85300.0,85346.0,85359.0,85372.0,85398.0,85444.0,85601.0,85634.0,85698.0,0.0252700967823606,-0.20140641937389445,0.04182969673807378,-0.033474322212153095,0.011966357404722693
77,77,86278.45151023148,2011.4330312809095,19.523361290517204,86362.54796540085,-5795.15394054996,7.823000539740384,86391.43025611999,57818.30542021846,10.645613599098668,86547.30160210992,-1917.8494131871344,66.30521187897241,86671.89435860136,7714.981168767903,30.22938966527662,0.9960813291116196,93.0,56.0,258.0,95.0,353.0,37.0,1004.0,1006.0,39.0,21.0,18.0,0.5384615384615384,65.31678013697015,1789.4587124848786,16.0,12.0,4.0,0.75,1117.2348701817618,9172.695885367655,27.0,13.0,14.0,0.4814814814814814,2429.7255395089273,59122.78294490662,163.0,100.0,63.0,0.6134969325153374,43.370828988976065,1601.4688888968983,63.0,31.0,32.0,0.492063492063492,93.51107246827164,7716.33884078648,,,,,86258.0,86295.0,86351.0,86366.0,86378.0,86405.0,86449.0,86609.0,86641.0,86704.0,0.03247275903358089,-0.19278778124671117,0.04202346509206542,-0.02261430365218364,0.012120712989790165
78,78,87305.79457440229,1995.609870804588,24.669556915213185,87388.54796540085,-5203.670341443827,7.412459163419109,87417.27264444916,57952.05548743875,10.640383145345442,87571.45228030963,-1907.0883428831744,62.10243199468932,87697.25698381144,7833.802078761603,29.441300790603258,0.9956667329093156,95.0,50.0,258.0,93.0,351.0,45.0,1026.0,1026.0,57.0,24.0,33.0,0.4210526315789473,45.04905146102328,1764.3488328416004,15.0,12.0,3.0,0.8,1116.596855006646,10163.730251525834,26.0,13.0,13.0,0.5,2428.919157131485,58728.10201154128,155.0,92.0,63.0,0.5935483870967742,44.27012239804526,1915.0610397634464,63.0,31.0,32.0,0.492063492063492,95.92141193984838,7829.334559282503,,,,,87283.0,87328.0,87378.0,87392.0,87404.0,87430.0,87476.0,87636.0,87666.0,87729.0,0.022574077288393272,-0.2145787072854487,0.041912562664113945,-0.023213461800682397,0.012244553918448243
79,79,88295.77013573187,1800.4141182488297,10.451665395387622,88385.39728720114,-6428.503929346922,8.43857693003489,88414.01238730439,53299.08779775772,10.610653369558737,88568.45228030963,-1607.902173615009,61.44510223187794,88691.213393617,7713.331581515379,28.585398817126286,0.9980369197433624,92.0,65.0,252.0,97.0,349.0,27.0,993.0,997.0,27.0,14.0,13.0,0.5185185185185185,73.29466836596764,1733.7097332014614,17.0,12.0,5.0,0.7058823529411765,994.8085048760748,6099.625592434872,26.0,13.0,13.0,0.5,2276.517133616659,53857.06156086192,152.0,94.0,58.0,0.618421052631579,45.24167041197786,1501.8491861024415,63.0,31.0,32.0,0.492063492063492,92.5254696272332,7816.613952058374,,,,,88282.0,88309.0,88374.0,88390.0,88401.0,88427.0,88473.0,88626.0,88660.0,88723.0,0.04070989425324969,-0.15474961449967387,0.04271212187073175,-0.0281370789556569,0.011995526012257266
80,80,91571.06855710271,2282.8336948736837,40.14943084943166,91658.12330450072,-3643.038200587069,6.706293006564263,91687.68053911244,52932.920341934725,10.313784995922347,91818.83575780604,-1005.1736270487792,54.49884491365937,91963.72287512846,7901.274109660208,30.1195105811238,0.9946218575712013,105.0,55.0,242.0,105.0,347.0,50.0,3271.0,3274.0,62.0,28.0,34.0,0.4516129032258064,60.15044311085833,2355.200113676272,14.0,10.0,4.0,0.7142857142857143,830.8178046333271,7145.827806837155,26.0,13.0,13.0,0.5,2253.7807020919604,51356.38790087919,132.0,60.0,72.0,0.4545454545454545,30.11780916725746,842.04051785152,67.0,35.0,32.0,0.5223880597014925,90.68788393239228,7978.347683861815,,,,,91544.0,91594.0,91649.0,91661.0,91675.0,91701.0,91759.0,91891.0,91929.0,91996.0,0.026349025444092476,-0.22805629776252206,0.04257805327068761,-0.029962792851702922,0.011477627870360302
81,81,92744.64389620256,1954.6941104005,27.54728456928991,92812.54796540084,-3907.6218422619336,6.759355937764297,92842.61213004774,57137.02230317603,10.455219864988884,93001.30160210992,-2224.525272946289,57.21110469691049,93125.26945561802,7675.055364152921,29.925373612356903,0.9957848538278052,84.0,32.0,261.0,94.0,355.0,52.0,1174.0,1155.0,67.0,30.0,37.0,0.4477611940298507,39.532084319180896,1596.3149512625075,13.0,10.0,3.0,0.7692307692307693,917.860613258528,8181.831265865398,26.0,13.0,13.0,0.5,2394.1848530461143,55245.699387136134,131.0,70.0,61.0,0.5343511450381679,42.11276404310868,2173.2205263222013,64.0,31.0,33.0,0.484375,83.72855990066061,7689.956251436891,,,,,92719.0,92771.0,92803.0,92816.0,92830.0,92856.0,92903.0,93064.0,93094.0,93158.0,0.020224179378675836,-0.2348898256560115,0.04190251358116418,-0.018931124116801836,0.010909179924841044
82,82,93855.09593080172,1787.5722685905532,30.575562615082887,93933.12330450072,-4307.240353460658,6.720342121611704,93962.75023607894,59797.55356824066,10.643816951206947,94105.01380970472,-1949.4797414145737,51.948049324662094,94246.56908532958,7933.236115332573,29.72695160731076,0.992764347770631,85.0,11.0,258.0,96.0,354.0,74.0,1113.0,1120.0,76.0,17.0,59.0,0.2236842105263158,63.34568603334056,2450.270027768712,13.0,10.0,3.0,0.7692307692307693,972.4424022684714,8488.176872567925,26.0,13.0,13.0,0.5,2475.5869538003335,58537.222579533365,124.0,48.0,76.0,0.3870967741935484,42.126564011748115,1749.3867564149969,65.0,34.0,31.0,0.5230769230769231,90.02331288024834,7676.177557916031,,,,,93838.0,93912.0,93923.0,93936.0,93950.0,93976.0,94058.0,94181.0,94213.0,94277.0,0.035436713327001164,-0.22576924491505593,0.04139946880895731,-0.021609131460468733,0.011347615471353512
83,83,94948.39728720114,1380.5125589632603,15.195335319287818,95031.972626301,-4702.785798648407,6.836738829174173,95061.26277176796,59528.08456933613,10.713103010792157,95220.27422841093,-3880.452179686659,141.7067374641244,95338.90608426472,8174.764241914971,26.603926336240125,0.9965188764766596,83.0,56.0,269.0,77.0,346.0,27.0,1095.0,1098.0,29.0,12.0,17.0,0.4137931034482758,60.36279498263064,1063.1302901605743,16.0,12.0,4.0,0.75,1037.0244546483896,7208.431310834643,26.0,13.0,13.0,0.5,2465.846845726295,57847.82650746174,176.0,107.0,69.0,0.6079545454545454,33.76245245613627,4193.143719686249,49.0,22.0,27.0,0.4489795918367347,91.1712504496986,5877.433298950319,,,,,94937.0,94964.0,95020.0,95036.0,95048.0,95074.0,95112.0,95289.0,95317.0,95366.0,0.04372491549657614,-0.22051279795614614,0.041423251958563646,-0.008700649020460947,0.011152768171861232
84,84,95999.36991350216,1996.354974754426,33.33074060807777,96081.54796540084,-4542.9421083006355,6.669610322256509,96111.11352759812,59223.54969297854,10.54228054787895,96266.87694120978,-1836.0649274757384,60.98370987409655,96391.75794678502,8160.574551054535,31.275369938799106,0.9950615737781472,95.0,54.0,253.0,99.0,352.0,41.0,1048.0,1050.0,45.0,22.0,23.0,0.4888888888888889,64.31075160986713,2272.6329594271074,13.0,10.0,3.0,0.7692307692307693,1038.3836601347614,8958.550604016616,26.0,13.0,13.0,0.5,2476.235760760817,59134.843600461274,152.0,94.0,58.0,0.618421052631579,39.1629360128336,1763.6714269886002,66.0,33.0,33.0,0.5,93.481633179978,8169.679736477177,,,,,95978.0,96019.0,96073.0,96085.0,96098.0,96124.0,96170.0,96326.0,96359.0,96425.0,0.03221408638399995,-0.2285707445484456,0.0418116741329741,-0.021329820872225715,0.011455275923911266
85,85,97003.945252602,1902.1145113820864,28.902080881866095,97089.54796540084,-5504.381893022274,7.347836049159856,97117.95637974385,58204.26531878788,10.53780125593641,97257.63033220834,-1651.695947976967,62.87967173663963,97399.50711503669,7938.428123436705,30.07344374213262,0.9953940835408148,95.0,54.0,255.0,96.0,351.0,41.0,1005.0,1007.0,44.0,20.0,24.0,0.4545454545454545,63.53022669771976,2233.6110189745013,15.0,12.0,3.0,0.8,1163.9104324949371,10185.170217091014,26.0,13.0,13.0,0.5,2465.8348740758015,57915.7415328691,159.0,83.0,76.0,0.5220125786163522,37.123020491102395,1373.2441150820214,65.0,34.0,31.0,0.5230769230769231,99.62396644641424,7856.632292250743,,,,,96984.0,97025.0,97079.0,97093.0,97105.0,97131.0,97175.0,97334.0,97367.0,97430.0,0.03339979076841087,-0.21145161348095934,0.042365191976400554,-0.022475698712327456,0.012549583481431715
86,86,97983.09593080172,2066.541605373077,18.371542658908464,98070.972626301,-6082.328503427413,8.053173782213099,98099.38248107478,57564.31556516396,10.58872893943954,98191.46584430388,-1428.7298670397145,68.79506582332952,98381.66802370228,7842.074925344292,28.049248399958305,0.994636777659326,93.0,54.0,258.0,95.0,353.0,39.0,980.0,981.0,41.0,17.0,24.0,0.4146341463414634,63.35974637485847,2268.0448333706536,17.0,13.0,4.0,0.7647058823529411,1112.379224325929,8460.204141258691,25.0,12.0,13.0,0.48,2452.9984873723824,58343.04423446446,164.0,38.0,126.0,0.2317073170731707,45.73474312980411,1233.02376958457,64.0,34.0,30.0,0.53125,87.22554139595516,7618.454480040784,,,,,97966.0,98005.0,98059.0,98075.0,98087.0,98112.0,98153.0,98317.0,98349.0,98412.0,0.030659797126813715,-0.18288706762535098,0.04261317907264161,-0.03201076997470847,0.011122763073081156
87,87,98927.67030862931,1617.61161639358,10.817450528792657,99017.972626301,-6548.030860959996,8.74042335753925,99046.42983655968,54243.97854566285,10.506387135845811,99193.30160210992,-1807.399085943052,81.44361201626144,99322.6360543054,8055.328590281976,27.869473181265,0.9987368769350206,93.0,64.0,256.0,93.0,349.0,29.0,949.0,948.0,29.0,15.0,14.0,0.5172413793103449,66.1003882211874,1505.6442624015235,18.0,13.0,5.0,0.7222222222222222,1065.5984579843432,6866.112427244187,25.0,12.0,13.0,0.48,2330.624570977101,55523.838687894546,163.0,97.0,66.0,0.5950920245398773,35.85159780594872,1786.0737238232523,62.0,30.0,32.0,0.4838709677419355,90.94283827685662,7782.879366671154,,,,,98913.0,98942.0,99006.0,99022.0,99034.0,99059.0,99095.0,99262.0,99293.0,99355.0,0.040862953474923955,-0.16273571102688994,0.042965590531217575,-0.019836016342368753,0.011289773875465602
88,88,99802.0413878238,1487.6183544305716,10.11571761782422,99890.77007142844,-5736.147822534252,8.731798037307861,99918.69206227885,52809.30474271902,10.479470898839237,100036.9613719734,-1884.915673482117,79.02428914130785,100193.0885686526,8114.125820188447,27.850310585040248,0.9985288969188028,90.0,63.0,242.0,104.0,346.0,27.0,873.0,872.0,28.0,14.0,14.0,0.5,63.76056980473033,1310.2698294018105,18.0,14.0,4.0,0.7777777777777778,1066.094786906908,8356.708796015093,26.0,13.0,13.0,0.5,2279.783262521597,51632.16063108454,153.0,69.0,84.0,0.4509803921568627,50.66999537243425,1780.393475296156,63.0,31.0,32.0,0.492063492063492,96.03891669131217,8152.4888930957,,,,,99788.0,99815.0,99878.0,99895.0,99906.0,99932.0,99970.0,100120.0,100162.0,100224.0,0.04286083834259796,-0.1858555288130464,0.04317010560219348,-0.0268818367236708,0.011836015218344459
89,89,100620.33184707804,1749.0152897784783,11.489047038183248,100710.98166373173,-5411.653684076606,8.346241831567617,100739.7962596089,51887.82383606465,10.27757633191812,100866.39239737528,-2225.573532826587,65.72340036961471,101012.80233642108,8001.271233082483,28.33426775468244,0.9986090223681328,94.0,63.0,231.0,115.0,346.0,31.0,817.0,821.0,31.0,15.0,16.0,0.4838709677419355,63.018665951502655,1665.7884952071054,17.0,12.0,5.0,0.7058823529411765,932.8931479905116,6294.213084630293,26.0,13.0,13.0,0.5,2254.380652148814,50834.52523330379,141.0,75.0,66.0,0.5319148936170213,38.15659828509971,2344.901237809257,63.0,31.0,32.0,0.492063492063492,92.96618965622626,8233.174919359742,,,,,100605.0,100636.0,100699.0,100715.0,100727.0,100753.0,100791.0,100930.0,100982.0,101045.0,0.03603094056398117,-0.17238596600064807,0.043447199853116715,-0.017144613611862543,0.011618927411414737
90,90,101442.56590093976,2632.885088494297,22.93876279092607,101533.4893584128,-4665.649158114726,7.500276671741928,101562.58831262878,53960.0948072213,10.362546490639309,101647.61652250358,-2124.115124129413,63.69913502160143,101838.77433290932,7657.908939782817,27.64809587693366,0.9950071798847312,102.0,56.0,243.0,104.0,347.0,46.0,826.0,823.0,46.0,23.0,23.0,0.5,60.04859126137887,2723.527378546034,16.0,11.0,5.0,0.6875,884.6645095348281,5964.632131997498,25.0,13.0,12.0,0.52,2304.2595945905227,51298.735320478445,157.0,37.0,120.0,0.2356687898089172,40.487354795427215,1725.6253596306667,64.0,33.0,31.0,0.515625,91.98022246946888,7746.855515915989,,,,,101420.0,101466.0,101522.0,101538.0,101550.0,101575.0,101612.0,101765.0,101806.0,101869.0,0.022807144726441384,-0.1896123089315827,0.04270303087536739,-0.019060809998244003,0.012011140794797372
91,91,102361.36991350216,1959.0830442318943,22.8095845326022,102448.972626301,-4488.908829180828,6.916885773666838,102479.099788191,57611.76614047835,10.440753295751673,102632.87694120978,-2347.023852018732,66.15060503083293,102758.69566270718,7276.761244225982,28.783251235054113,0.9952409604887974,99.0,54.0,260.0,90.0,350.0,45.0,912.0,916.0,46.0,22.0,24.0,0.4782608695652174,60.801106465633474,1992.675859245487,14.0,10.0,4.0,0.7142857142857143,902.4093820923412,6703.9155629503275,26.0,13.0,13.0,0.5,2412.7897317953566,57091.66834205284,162.0,96.0,66.0,0.5925925925925926,38.24074916320323,2166.499891335634,61.0,30.0,31.0,0.4918032786885246,88.9637709644155,7059.329026540208,,,,,102340.0,102385.0,102439.0,102453.0,102466.0,102492.0,102536.0,102699.0,102729.0,102789.0,0.031035492162851123,-0.2010309000321176,0.041880155625017665,-0.016293293794313782,0.012225737244712697
92,92,103466.36991350216,2076.071876957275,38.21948101296085,103548.12330450072,-4503.382105393854,6.741861587109007,103577.4943084975,60107.93684639052,10.646886499189208,103730.63033220834,-2187.049209221729,54.710164769064235,103862.35971034848,7837.6422443984675,30.63094836308727,0.9928892388776576,94.0,9.0,259.0,96.0,355.0,85.0,1105.0,1099.0,87.0,22.0,65.0,0.2528735632183908,47.881160344476136,2335.163090378732,13.0,10.0,3.0,0.7692307692307693,1008.2707801532372,8840.934855044708,27.0,13.0,14.0,0.4814814814814814,2492.8691990804928,61198.40847456979,144.0,79.0,65.0,0.5486111111111112,40.68044924719637,1984.3538798742368,65.0,33.0,32.0,0.5076923076923077,98.0662740820242,7815.331255357717,,,,,103445.0,103530.0,103539.0,103551.0,103564.0,103591.0,103648.0,103798.0,103830.0,103894.0,0.023063344229994363,-0.22389190092166442,0.041473211856383814,-0.018600609933999923,0.012512216177270885
93,93,104534.09593080172,1704.064771368524,30.57558481036868,104620.54796540084,-4810.246224116149,6.85088618160232,104649.40376474452,59945.83392305261,10.542024047971646,104805.15092391022,-2316.446844704817,68.76546642187456,104931.02268718384,8001.977461019824,30.836883130948856,0.9951346846286812,93.0,54.0,258.0,95.0,353.0,39.0,1069.0,1072.0,41.0,18.0,23.0,0.4390243902439024,66.03192992803805,2289.4890870637855,14.0,11.0,3.0,0.7857142857142857,1124.494481744151,10393.33356150329,27.0,13.0,14.0,0.4814814814814814,2511.7781890518045,60687.05177198895,162.0,100.0,62.0,0.6172839506172839,40.46903831990391,2135.859528380218,63.0,31.0,32.0,0.492063492063492,93.96531078293856,8029.8456588164,,,,,104517.0,104556.0,104610.0,104624.0,104636.0,104663.0,104704.0,104868.0,104900.0,104963.0,0.03874965965936155,-0.2337706698061531,0.04190079651366534,-0.017470307342649535,0.011742761241289852
94,94,105549.52059170186,1945.150271806688,20.16598760745273,105634.54796540084,-6068.074588950251,7.650760245614309,105663.39500373832,59044.283485364314,10.55265612515828,105793.65770590732,-1566.2748239939174,64.88643698698372,105945.54035195569,7610.238061606924,28.283412372994594,0.995541343988148,93.0,52.0,260.0,92.0,352.0,41.0,1015.0,1014.0,43.0,20.0,23.0,0.4651162790697674,50.26598110604932,1827.687606859224,16.0,12.0,4.0,0.75,1148.8479462003534,9003.551251661083,26.0,13.0,13.0,0.5,2509.235975493255,60134.080997682766,163.0,73.0,90.0,0.4478527607361963,45.747452453910746,1489.2098298662995,63.0,33.0,30.0,0.5238095238095238,91.75889909341936,7324.906707777501,,,,,105531.0,105572.0,105624.0,105638.0,105650.0,105676.0,105721.0,105884.0,105913.0,105976.0,0.025841695541271182,-0.1893266025919267,0.042497526049498684,-0.02920780679935669,0.012057296808668322
95,95,106513.26491396043,1286.2678069810966,8.15089536408939,106602.49370875867,-6958.04522702729,9.454720041019655,106629.96324803392,53750.97258752868,10.536626925073088,106770.97880442507,-2086.505282373944,77.76232740152463,106906.11603817504,8077.660612435018,28.71724811829104,0.9982292354226956,87.0,64.0,251.0,98.0,349.0,23.0,968.0,966.0,23.0,11.0,12.0,0.4782608695652174,70.77667597784448,1361.338556137864,18.0,13.0,5.0,0.7222222222222222,1097.15453444202,6973.898775282633,26.0,13.0,13.0,0.5,2335.713741381615,54022.9592484329,158.0,87.0,71.0,0.5506329113924051,49.40853913960537,1853.6142721197384,63.0,30.0,33.0,0.4761904761904761,86.99454361889575,7990.655372967721,,,,,106502.0,106525.0,106589.0,106606.0,106617.0,106643.0,106685.0,106840.0,106876.0,106938.0,0.05502483665820662,-0.1576814318740439,0.04345435308315794,-0.023680045076804344,0.010769769589597942
96,96,107357.11113985188,1713.8120148674695,11.439481855272486,107445.972626301,-5759.339221941836,8.344834090054517,107474.5127036644,51317.39007513382,10.32741093174251,107595.85425360456,-2244.720544655827,60.365686903704535,107748.57638146344,8031.369227775308,27.282298689949965,0.9986304464093052,92.0,62.0,231.0,114.0,345.0,30.0,844.0,845.0,32.0,16.0,16.0,0.5,70.26952985573124,1516.2481044782337,17.0,12.0,5.0,0.7058823529411765,974.8864983952928,6423.649813519458,25.0,13.0,12.0,0.52,2229.782013372615,49697.809480594835,141.0,69.0,72.0,0.4893617021276595,39.47465063073209,2191.7863845273023,61.0,31.0,30.0,0.5081967213114754,98.91233350932391,8346.167378502603,,,,,107342.0,107372.0,107434.0,107450.0,107462.0,107487.0,107527.0,107665.0,107718.0,107779.0,0.04100188891555019,-0.16927054664208463,0.04345080702872827,-0.01758555234178808,0.012315749743798376
97,97,109729.64443303508,2063.406275078278,26.345689668848703,109819.54796540084,-4063.198857367747,6.741857286390202,109849.40393249923,54988.97564982171,10.40995157870962,109979.08236680747,-2296.6460034498778,65.14394947858676,110128.42273730275,7175.985386512173,30.181399748514764,0.995216991080812,103.0,62.0,248.0,101.0,349.0,41.0,2369.0,2375.0,45.0,24.0,21.0,0.5333333333333333,57.62557010498365,2037.7068634553548,15.0,11.0,4.0,0.7333333333333333,919.0635264439908,7604.358760594575,26.0,13.0,13.0,0.5,2320.1848692899252,55034.11237970864,154.0,75.0,79.0,0.487012987012987,47.732050684519045,2125.835480649996,63.0,31.0,32.0,0.492063492063492,94.7131751029911,7240.00600247727,,,,,109707.0,109748.0,109810.0,109823.0,109836.0,109862.0,109905.0,110058.0,110097.0,110159.0,0.027927398884544704,-0.22619211087280763,0.04219363684941543,-0.02078337306351042,0.013198629874722423
98,98,110792.21923530244,1802.5146993430792,40.524111152906436,110873.54796540084,-4022.4479376508393,6.488810125291611,110903.2919937132,60104.9783903614,10.628581018520803,111060.02761940948,-2118.0566542907536,61.70436435551984,111186.30300548836,8037.33488381556,30.610025914409047,0.993640128360016,96.0,48.0,262.0,92.0,354.0,48.0,1060.0,1053.0,51.0,24.0,27.0,0.4705882352941176,60.02549253316624,1929.924869024444,13.0,10.0,3.0,0.7692307692307693,1014.099609763132,9735.583489494227,27.0,13.0,14.0,0.4814814814814814,2480.0790482850475,60425.451762786215,149.0,85.0,64.0,0.5704697986577181,41.36857834608676,1979.898408028493,64.0,32.0,32.0,0.5,98.34592668493636,7991.84106643862,,,,,110768.0,110816.0,110864.0,110877.0,110890.0,110917.0,110966.0,111126.0,111154.0,111218.0,0.03330097255519877,-0.25211006468746966,0.041262456367220986,-0.019531384234827903,0.012236136493823515
99,99,111815.52059170186,1741.706053905993,17.22955494086895,111898.07905927634,-5157.75009939817,7.413654080011367,111926.98108619748,59917.48322817699,10.567365244063032,112085.57558481036,-1958.7683427480388,66.90011627759672,112207.8961749551,7929.255836917613,30.12862807192527,0.9958922150146255,90.0,51.0,260.0,93.0,353.0,39.0,1025.0,1024.0,40.0,19.0,21.0,0.475,55.6399926912968,1604.3337585414538,16.0,12.0,4.0,0.75,1069.291871477022,9064.41642738313,26.0,13.0,13.0,0.5,2512.2309745561192,59523.61492177857,162.0,102.0,60.0,0.6296296296296297,44.523139829156634,1766.772022368104,63.0,31.0,32.0,0.492063492063492,100.87374119448778,7890.792485637835,,,,,111797.0,111836.0,111887.0,111901.0,111914.0,111940.0,111983.0,112147.0,112177.0,112240.0,0.03194568484533723,-0.20731750295575424,0.04192817920921467,-0.022730171229280356,0.012721716043620688
100,100,112833.945252602,1630.5720856455912,29.364371614660303,112916.12330450072,-5563.433663858421,7.724001146253653,112944.4884669468,59144.751031008,10.66079595849683,113097.60295850936,-1923.734882413566,58.70077199111449,113225.39836718832,7955.864376970407,30.62082749257291,0.9951461518660694,91.0,48.0,257.0,95.0,352.0,43.0,1018.0,1018.0,53.0,21.0,32.0,0.3962264150943396,51.64270548317969,1704.8730178145668,15.0,12.0,3.0,0.8,1117.1647326760626,9554.268816527934,27.0,13.0,14.0,0.4814814814814814,2486.5414266695284,60729.89535255636,153.0,91.0,62.0,0.5947712418300654,48.553728390834934,1774.9893779905065,65.0,33.0,32.0,0.5076923076923077,93.79657639781084,8037.761553526481,,,,,112814.0,112857.0,112905.0,112919.0,112931.0,112958.0,113005.0,113162.0,113193.0,113257.0,0.03167152555707639,-0.2008048985887023,0.0420416247143538,-0.025239303416860752,0.011789614799030622
101,101,113870.67126990156,1944.4429157242969,28.027619409504627,113957.54796540084,-4795.983138978222,6.95719826493888,113987.13660588868,59309.49313749035,10.547560859548812,114147.0002457105,-1948.435606839923,64.16234588255763,114267.56588587323,8229.637575208715,31.971093256505306,0.9952789950135584,93.0,49.0,255.0,97.0,352.0,44.0,1038.0,1042.0,45.0,17.0,28.0,0.3777777777777777,75.36079166655192,2596.26937644347,15.0,11.0,4.0,0.7333333333333333,1036.5049802863043,8687.951088015687,26.0,13.0,13.0,0.5,2483.5957237659654,59341.878904515885,153.0,100.0,53.0,0.6535947712418301,39.29177349456504,1853.5846177336716,65.0,33.0,32.0,0.5076923076923077,98.28677844592607,8200.439033982544,,,,,113855.0,113899.0,113948.0,113961.0,113974.0,114000.0,114043.0,114203.0,114235.0,114300.0,0.038757009042088716,-0.21611939622188295,0.04187518038652821,-0.020165805509113306,0.011943026354162794
102,102,114891.67126990156,2080.374926385742,20.043959010056028,114980.54796540084,-5534.869932361339,7.525549093488906,115009.10624438348,58859.277881654074,10.570480339076015,115167.57558481036,-1834.2156774997688,67.69503005789892,115288.4563977271,8232.992748660035,30.18156345372075,0.9963211806490812,93.0,49.0,257.0,94.0,351.0,44.0,1021.0,1022.0,44.0,16.0,28.0,0.3636363636363636,66.53881546147839,2471.0677045664984,16.0,13.0,3.0,0.8125,1155.984420259757,10189.966022842968,26.0,13.0,13.0,0.5,2482.5388641951045,59105.48039882391,161.0,103.0,58.0,0.639751552795031,33.7789160762904,1607.8466548168087,63.0,31.0,32.0,0.492063492063492,100.70667639152298,8321.300416024576,,,,,114876.0,114920.0,114969.0,114984.0,114996.0,115022.0,115065.0,115226.0,115257.0,115320.0,0.03198404990252262,-0.2088548483318342,0.042177528395551216,-0.018416000086933428,0.012232086127843794
103,103,115904.36991350216,1963.8434488066648,29.656697446754585,115987.972626301,-6014.765565895226,7.468464263764204,116016.32033328128,58166.13539911896,10.509231633849126,116167.45228030963,-1757.8635697116383,64.51471297230104,116296.75566834195,7946.501735076355,29.830148329857384,0.9952125273287908,94.0,51.0,257.0,94.0,351.0,43.0,1011.0,1007.0,49.0,22.0,27.0,0.4489795918367347,57.835819228874435,2047.2170187895117,15.0,11.0,4.0,0.7333333333333333,1138.172852339042,8717.23471309962,26.0,13.0,13.0,0.5,2475.5171301260366,59176.524700229595,161.0,95.0,66.0,0.5900621118012422,50.839963668761854,1562.4343609693713,63.0,32.0,31.0,0.5079365079365079,90.72422280933672,7874.463383956226,,,,,115883.0,115926.0,115977.0,115992.0,116003.0,116029.0,116072.0,116234.0,116265.0,116328.0,0.02945032062714497,-0.18922979455636332,0.04255942247391483,-0.028921450188026648,0.011416875731477455
104,104,116866.68631441126,1440.898486159006,10.033139896664608,116957.93044433708,-6734.7277268847265,9.195903495590125,116985.46646145033,54437.88077514555,10.54761715662408,117124.63033220834,-1805.671217414224,66.38770736274583,117262.30573050887,7875.393545101982,27.55684686717255,0.9984956851795156,92.0,64.0,254.0,94.0,348.0,28.0,967.0,969.0,29.0,14.0,15.0,0.4827586206896552,63.89198255168967,1351.0328883506322,18.0,14.0,4.0,0.7777777777777778,1152.7568912500114,8805.614794162542,26.0,12.0,14.0,0.4615384615384615,2355.3580645118714,56303.539550721514,155.0,82.0,73.0,0.5290322580645161,43.49761428071465,1812.0228649989228,63.0,31.0,32.0,0.492063492063492,94.19934474420522,7994.267574976836,,,,,116853.0,116881.0,116945.0,116962.0,116973.0,116999.0,117042.0,117199.0,117232.0,117293.0,0.04434176533976805,-0.17116607203707113,0.043266894871250135,-0.024089443228211032,0.011961223804846108
105,105,117737.24660900132,1630.9809249547704,10.699794482172663,117826.74730824718,-5870.517148690315,8.474662776247424,117854.83016748336,52172.24896249926,10.426512921403392,117974.7267488462,-2160.0209113376764,72.39585221419726,118129.114716386,7943.7372405131555,27.589203647142995,0.998546246319898,92.0,63.0,238.0,108.0,346.0,29.0,868.0,870.0,30.0,15.0,15.0,0.5,65.86716947242229,1506.001061589454,17.0,13.0,4.0,0.7647058823529411,1056.496288018894,7884.500618218791,26.0,13.0,13.0,0.5,2254.2636195469,51321.865014784205,148.0,69.0,79.0,0.4662162162162162,53.85856263000328,1989.6588778883704,62.0,30.0,32.0,0.4838709677419355,96.91921178171408,8122.57609791795,,,,,117723.0,117752.0,117815.0,117831.0,117842.0,117868.0,117907.0,118053.0,118099.0,118161.0,0.04038500295412645,-0.1799664767616927,0.043208097491968106,-0.024934278343004226,0.012200707154237798
106,106,120173.79457440229,2357.848263781769,29.60824571066735,120264.32095375296,-4223.29384798923,6.80201283035386,120293.4151290143,54414.595396620825,10.29334074344892,120439.75363670908,-1608.014318213803,56.70899133441823,120568.82282490222,7966.894023922073,30.818437603851745,0.9960603163081309,103.0,58.0,244.0,103.0,347.0,45.0,2434.0,2439.0,46.0,24.0,22.0,0.5217391304347826,58.85750359645047,2540.349308979353,14.0,10.0,4.0,0.7142857142857143,894.1665615675319,7083.353141935466,25.0,12.0,13.0,0.48,2319.5261986092705,54860.17641306424,92.0,42.0,50.0,0.4565217391304347,41.67086483379764,1899.237847309929,65.0,33.0,32.0,0.5076923076923077,91.41204771966169,8252.423612870549,,,,,120151.0,120196.0,120254.0,120268.0,120281.0,120306.0,120350.0,120498.0,120536.0,120601.0,0.024962379683435825,-0.21172255442117938,0.04262691253518563,-0.025914486184480005,0.01147398816215957
107,107,121319.09593080172,1734.4622852616435,23.061732785459014,121394.54796540084,-4126.250105872809,6.512689713462047,121424.61532552734,59308.11890989403,10.56876155515688,121572.05499310848,-2433.1633734941774,61.972319833610314,121710.09060565,7871.810944853828,29.016137690306707,0.994510668932562,83.0,27.0,262.0,94.0,356.0,56.0,1147.0,1131.0,57.0,17.0,40.0,0.2982456140350877,62.88186903265113,2083.80337934585,13.0,10.0,3.0,0.7692307692307693,974.2759139389856,8628.425773213114,27.0,14.0,13.0,0.5185185185185185,2462.863507390718,57304.83842421688,159.0,84.0,75.0,0.5283018867924528,40.022114097381774,2141.386667162508,62.0,31.0,31.0,0.5,93.31348248788012,7674.723904238232,,,,,121302.0,121358.0,121385.0,121398.0,121411.0,121438.0,121488.0,121647.0,121679.0,121741.0,0.036254388214134854,-0.23611654382082126,0.041526582745483986,-0.01644859302641379,0.011854131551378723
108,108,122386.24660900142,1365.6815241796817,25.47965400864057,122465.12330450072,-4289.284154125011,6.415147376639069,122494.85570598712,60334.11058237874,10.6077044589151,122649.1782976092,-2078.6185432974703,58.620340305997765,122779.59498003428,8014.474837172133,31.17649422398243,0.994209666667512,84.0,7.0,260.0,95.0,355.0,77.0,1068.0,1070.0,78.0,15.0,63.0,0.1923076923076923,70.341858602183,1849.2054233734275,13.0,9.0,4.0,0.6923076923076923,971.0609006628284,8174.571073395541,26.0,13.0,13.0,0.5,2506.65198241566,59386.626992936835,158.0,91.0,67.0,0.5759493670886076,46.78250939460804,1811.6697092706268,66.0,34.0,32.0,0.5151515151515151,97.17190296862216,7754.313164313598,,,,,122372.0,122449.0,122456.0,122468.0,122482.0,122508.0,122558.0,122716.0,122747.0,122811.0,0.051506780575679936,-0.2263922989874564,0.04154618271853262,-0.022506539040296158,0.012124550259728405
109,109,123433.52059170186,1678.0226398427676,31.368518915536317,123514.54796540084,-4747.692691579255,6.898840543488234,123543.94885589756,59900.451575550745,10.527830214908516,123698.60295850936,-1917.831970944315,62.515347690830545,123825.98098207348,8197.163479201705,30.64590335525351,0.995182598607582,90.0,51.0,256.0,96.0,352.0,39.0,1046.0,1049.0,44.0,21.0,23.0,0.4772727272727273,63.23581851151339,1869.1883142186805,14.0,11.0,3.0,0.7857142857142857,1063.01294354813,9282.116353312093,26.0,13.0,13.0,0.5,2514.4963960279224,59332.45458538925,155.0,93.0,62.0,0.6,44.4474648115595,1647.9033854849772,63.0,32.0,31.0,0.5079365079365079,99.07101485578096,8177.462416868912,,,,,123415.0,123454.0,123505.0,123518.0,123531.0,123557.0,123606.0,123761.0,123794.0,123857.0,0.037684723084212175,-0.22390095833994117,0.04197792053130783,-0.023175891050389655,0.012086011838991549
110,110,124438.09593080172,1867.236971484837,17.745173767947232,124525.37549969777,-5809.550948423784,7.617642997826877,124553.43863508274,58508.09356654126,10.5161105319729,124711.57558481036,-2176.9514746234136,69.5343652221936,124833.7760476762,7945.558329616026,31.03516008027346,0.9965128397928582,93.0,54.0,257.0,95.0,352.0,39.0,1005.0,1010.0,39.0,17.0,22.0,0.4358974358974359,60.36669284005479,2092.9000472128287,16.0,12.0,4.0,0.75,1112.4929724446797,8863.330853682211,26.0,12.0,14.0,0.4615384615384615,2492.6086191768004,59723.99678369072,161.0,103.0,58.0,0.639751552795031,41.9294209692733,1965.9581009787476,65.0,32.0,33.0,0.4923076923076923,95.07259891921484,7769.118204549026,,,,,124421.0,124460.0,124514.0,124529.0,124541.0,124567.0,124609.0,124771.0,124803.0,124866.0,0.032329422436430694,-0.19149379742448344,0.04260280018083235,-0.019260613503811145,0.011965502608525849
111,111,125422.36991350216,2311.7239062170083,20.468100743529583,125506.54796540084,-6044.173915919516,7.858664034996782,125534.8215784281,57940.66225604726,10.547960187047542,125683.78101040806,-1787.600182944706,57.83746219784881,125816.16783023656,7714.710207392733,28.86983652438943,0.9961034781816214,94.0,45.0,258.0,95.0,353.0,49.0,983.0,981.0,49.0,21.0,28.0,0.4285714285714285,55.972048116403094,2201.870513324286,16.0,13.0,3.0,0.8125,1183.5535283089907,10094.014938428472,26.0,13.0,13.0,0.5,2470.6362592528794,57626.19409568999,149.0,80.0,69.0,0.5369127516778524,43.24103905547859,1528.5724134745171,64.0,32.0,32.0,0.5,91.35457939775836,7643.961314498004,,,,,125401.0,125450.0,125495.0,125510.0,125522.0,125548.0,125604.0,125753.0,125784.0,125848.0,0.02421225474455462,-0.1958172522454516,0.04264080117577564,-0.024189435349154985,0.011841608685471622
112,112,126339.59443528947,1086.00388442834,7.775859822691792,126428.972626301,-6699.615180627951,9.384596740555825,126456.61111983703,53998.389155960765,10.660590435374916,126526.36991350216,-1945.008294408197,38.21948101296085,126734.07624826553,7534.320585974876,24.773837624464036,0.9940826893923006,88.0,65.0,252.0,95.0,347.0,23.0,922.0,922.0,25.0,13.0,12.0,0.52,64.02747528514003,936.4829923149643,18.0,14.0,4.0,0.7777777777777778,1134.9120044000945,8588.065904025014,26.0,13.0,13.0,0.5,2313.495948181461,53167.91382392799,166.0,23.0,143.0,0.1385542168674698,50.47483804037568,1871.2732984084928,60.0,31.0,29.0,0.5166666666666667,95.30722865686828,7604.374065049766,,,,,126328.0,126351.0,126416.0,126433.0,126444.0,126470.0,126505.0,126668.0,126703.0,126763.0,0.058956948684252046,-0.16939958099111593,0.042843795608411755,-0.025950962875319533,0.012649744269480982
113,113,127180.88267030632,1738.9697784628304,11.235038739604128,127271.30908106123,-5769.640704353048,8.525707191034101,127299.42847374915,52805.0060730164,10.442760329949884,127423.68097304164,-2310.009086101011,63.947914548765894,127574.2818623149,7665.2603660391405,29.09799301855977,0.9986814382149288,94.0,63.0,236.0,112.0,348.0,31.0,842.0,842.0,32.0,16.0,16.0,0.5,67.17182313361413,1531.6284973010218,16.0,12.0,4.0,0.75,1004.3675726888137,7040.274829164213,25.0,12.0,13.0,0.48,2278.493566279392,53863.204083828954,143.0,72.0,71.0,0.5034965034965035,50.18962611039466,2328.825512423352,65.0,32.0,33.0,0.4923076923076923,91.32962471783664,8024.305718876789,,,,,127165.0,127196.0,127259.0,127275.0,127287.0,127312.0,127353.0,127495.0,127542.0,127607.0,0.03862736659690023,-0.17407801007973403,0.043149196179028806,-0.02172702540971737,0.01191474527368589
114,114,128758.18948747394,2082.938755261372,17.628009824781188,128855.87108675954,-4863.220472457761,7.816008307116727,128885.0353055322,51982.2113310002,10.24508752901439,129025.32897580892,-1857.738533691465,74.90290608747507,129158.31846173327,7946.679648531725,30.368530027406052,0.9977618452734835,106.0,65.0,245.0,102.0,347.0,41.0,1577.0,1586.0,42.0,19.0,23.0,0.4523809523809524,61.03682550690187,2141.3683872783404,16.0,12.0,4.0,0.75,904.7489541420184,6403.1349936485685,26.0,13.0,13.0,0.5,2254.9028116178365,51462.50164304063,153.0,88.0,65.0,0.5751633986928104,56.87583231299511,1822.4227463378677,65.0,31.0,34.0,0.4769230769230769,88.9729793107345,8150.501979929425,,,,,128739.0,128780.0,128845.0,128860.0,128872.0,128898.0,128937.0,129090.0,129127.0,129192.0,0.02930322620035116,-0.1860390577120553,0.0433783549002868,-0.030615628239125014,0.011196245884553011
115,115,129628.63976200328,1975.5625943217055,53.50727332327857,129721.21007130276,-4431.610602157199,7.641105925399518,129750.806781557,55814.435164520466,10.484030858432195,129881.16448790445,-1669.1500449624114,55.30463001189973,130030.40741190084,7543.824566661187,30.430543024362063,0.9941901595233412,107.0,55.0,248.0,102.0,350.0,52.0,869.0,866.0,52.0,24.0,28.0,0.4615384615384615,55.62460098692947,2854.8581287161487,14.0,10.0,4.0,0.7142857142857143,892.9616155549811,7385.103383777253,26.0,13.0,13.0,0.5,2353.616320157277,54770.12184190958,130.0,49.0,81.0,0.3769230769230769,57.32566873514279,1332.5558692556765,66.0,34.0,32.0,0.5151515151515151,88.05794264921778,7617.125488208651,,,,,129605.0,129657.0,129712.0,129725.0,129738.0,129764.0,129837.0,129960.0,129996.0,130062.0,0.028156334376247774,-0.20149821266342974,0.0421685951532015,-0.03434422741571669,0.011672851333046208
116,116,130739.79457440229,1855.998565284644,32.01030761073231,130819.54796540084,-4187.143732422772,6.676648673659738,130849.56887148158,59879.561909409575,10.681272518822794,131004.1782976092,-2236.2318749595947,58.03506178181912,131133.22487818083,7956.723204374641,30.261687825735,0.9951061670914648,93.0,9.0,260.0,95.0,355.0,84.0,1107.0,1099.0,86.0,24.0,62.0,0.2790697674418604,42.032003854338264,1882.075724599352,13.0,10.0,3.0,0.7692307692307693,996.2948819924112,9079.240506705391,27.0,14.0,13.0,0.5185185185185185,2461.1578247328016,58007.18161037643,155.0,89.0,66.0,0.5741935483870968,52.762234348908954,2042.9648106245068,64.0,32.0,32.0,0.5,98.01651777685316,7883.8257137272385,,,,,130717.0,130801.0,130810.0,130823.0,130836.0,130863.0,130913.0,131070.0,131102.0,131165.0,0.02264657130696222,-0.23794140962434396,0.04110180078565423,-0.02359425913730985,0.012318703976401148
117,117,131788.945252602,1951.633711327651,18.948609556719163,131873.54796540082,-4609.444424924808,6.634809155317656,131902.77787028774,60184.05451292073,10.616214808689106,132021.10974050645,-2038.5052057110688,75.81740156631894,132185.3138336054,7832.008898350388,27.784811554096414,0.9944149648068606,95.0,55.0,260.0,91.0,351.0,40.0,1050.0,1053.0,42.0,20.0,22.0,0.4761904761904761,57.278751361851754,1827.9969448932736,14.0,11.0,3.0,0.7857142857142857,1090.2959098142755,9597.40709153499,26.0,13.0,13.0,0.5,2504.6790157556784,58417.54391481413,168.0,65.0,103.0,0.3869047619047619,38.26758897728029,1794.958483636125,61.0,31.0,30.0,0.5081967213114754,94.80394402227378,7679.047557517365,,,,,131769.0,131809.0,131864.0,131877.0,131890.0,131916.0,131957.0,132124.0,132154.0,132215.0,0.029349129926069143,-0.2365352110372957,0.041616987024660435,-0.018772377362623334,0.012104677772039022
118,118,132802.0959308017,2021.803313588874,16.895200293076506,132889.54796540082,-5604.425596823183,7.472566511422789,132918.52233378214,58647.67363372093,10.507007027127583,133072.87694120978,-2081.712176018438,66.71765251298152,133198.81962919465,7876.165384204374,29.708958958837332,0.9962191440448362,94.0,55.0,259.0,92.0,351.0,39.0,1014.0,1016.0,39.0,17.0,22.0,0.4358974358974359,58.32212814074047,2075.396087045942,16.0,12.0,4.0,0.75,1107.822846402769,9113.809199683885,26.0,13.0,13.0,0.5,2476.947683636771,56961.60450876397,165.0,99.0,66.0,0.6,44.99543564485364,1745.311993160128,62.0,31.0,31.0,0.5,89.48628572874568,7812.602368142426,,,,,132785.0,132824.0,132879.0,132893.0,132906.0,132932.0,132976.0,133138.0,133168.0,133230.0,0.028846588463253477,-0.1976692931797914,0.04223437231468614,-0.021614628651936706,0.011361656512217247
119,119,133794.945252602,2063.163846218399,19.410615545845125,133879.54796540082,-6149.958256582707,7.715062986298202,133908.0130769897,57777.26572257776,10.50986122732756,134065.1509239102,-2109.136739756687,68.44820649119512,134188.39553027353,7669.7362599126145,30.77331809650179,0.9961897424172044,93.0,54.0,257.0,95.0,352.0,39.0,992.0,989.0,42.0,21.0,21.0,0.5,58.53542883644836,1903.445440125501,16.0,12.0,4.0,0.75,1168.6518786301428,9366.228812361702,26.0,13.0,13.0,0.5,2463.5081265971075,57804.15956392442,161.0,101.0,60.0,0.6273291925465838,49.45247597751189,1977.2831368894256,63.0,31.0,32.0,0.492063492063492,93.0252811423464,7699.556945174168,,,,,133775.0,133814.0,133868.0,133883.0,133895.0,133921.0,133964.0,134125.0,134157.0,134220.0,0.02837168213457149,-0.1900259855226265,0.04263801853181911,-0.02344678514453112,0.012128876142529351
120,120,134753.52059170185,2031.3449195469443,20.242190543088203,134839.84648081288,-6343.169482575471,7.851784197631501,134868.17705885152,57572.59646053078,10.455700399248617,135016.17829760918,-1785.1464075007527,68.72726991302991,135148.1938053928,7572.025486182238,29.902407873440335,0.9958142384211948,93.0,52.0,258.0,93.0,351.0,41.0,959.0,960.0,45.0,21.0,24.0,0.4666666666666667,65.83319554623758,1941.8415063101836,16.0,12.0,4.0,0.75,1147.091292643005,8578.599034889228,26.0,13.0,13.0,0.5,2465.1240869704006,58082.90519265332,159.0,91.0,68.0,0.5723270440251572,50.67174986964613,1696.051893981717,62.0,31.0,31.0,0.5,97.0883512401186,7639.689214825859,,,,,134735.0,134776.0,134828.0,134844.0,134855.0,134881.0,134925.0,135086.0,135117.0,135179.0,0.032408674131481574,-0.1808388213170145,0.04281766393253395,-0.02838520675768425,0.012821978929850363
121,121,135707.945252602,1956.287648764535,16.766160703566737,135793.68210800024,-6020.823771887685,7.730363772687053,135821.8590083836,57197.03504978863,10.408475003928888,135974.66875576443,-2086.220815883614,75.5057150624017,136100.84609202895,7640.024935732515,30.180308233676897,0.9968233960282464,94.0,59.0,255.0,96.0,351.0,35.0,954.0,954.0,38.0,20.0,18.0,0.5263157894736842,61.230911448528815,1571.0686631102028,17.0,13.0,4.0,0.7647058823529411,1155.261673875594,9327.00770010265,26.0,13.0,13.0,0.5,2450.8773653585654,56551.27073444895,164.0,101.0,63.0,0.6158536585365854,41.643114037438984,1875.586635721476,62.0,30.0,32.0,0.4838709677419355,91.58395452206942,7478.81329220782,,,,,135688.0,135723.0,135782.0,135797.0,135809.0,135835.0,135874.0,136037.0,136071.0,136133.0,0.031299544055905223,-0.19187767615284135,0.042849727494181054,-0.01996102891907976,0.011987389477451814
122,122,136680.52059170185,2083.0239214204967,18.55042786684926,136766.97262630097,-6144.743701195311,7.983038984781124,136795.52316912066,57318.97775627294,10.522222049702698,136936.63033220833,-1762.746944876986,63.080311194480416,137075.85296713564,7706.427967535654,27.83368505083913,0.9964424054442856,93.0,53.0,260.0,91.0,351.0,40.0,973.0,973.0,43.0,20.0,23.0,0.4651162790697674,57.91280565882073,1975.10415444953,16.0,12.0,4.0,0.75,1096.974234943365,8135.046064525935,26.0,13.0,13.0,0.5,2434.3093382792276,55864.62466710071,160.0,83.0,77.0,0.51875,50.838598666992006,1656.818394749372,61.0,31.0,30.0,0.5081967213114754,101.49752304370438,7686.590909411099,,,,,136662.0,136702.0,136755.0,136771.0,136783.0,136809.0,136854.0,137015.0,137045.0,137106.0,0.027802275846802418,-0.17852237429039966,0.04246951766359474,-0.028840554121930304,0.013170501751430898
123,123,137610.8952301969,1952.2539813105552,12.175334921948776,137702.54796540082,-6332.290329658523,8.408888884582636,137730.62944380785,54137.63840562179,10.530238420233127,137881.7170947193,-1695.6972859100058,76.10381746567931,138007.21562183648,8110.052732204882,29.222552340014374,0.9982153826749136,95.0,65.0,252.0,96.0,348.0,30.0,933.0,936.0,31.0,15.0,16.0,0.4838709677419355,74.85755100758114,1927.0763384291856,17.0,13.0,4.0,0.7647058823529411,1139.7570931155758,8877.005369401411,26.0,13.0,13.0,0.5,2319.553008827458,53260.50054979823,160.0,101.0,59.0,0.63125,48.89404671241359,1687.1016393714074,62.0,30.0,32.0,0.4838709677419355,97.46848695663569,8094.39612125426,,,,,137596.0,137626.0,137691.0,137706.0,137718.0,137744.0,137779.0,137943.0,137977.0,138039.0,0.038344166140375335,-0.17999128810902748,0.04284547825024059,-0.028834183505916457,0.01201823097519329
124,124,138492.2391299087,1956.5259962578557,15.651870975894186,138580.0514328326,-5338.403313419991,7.891231513089242,138607.99658265163,53189.319551960056,10.487476285578596,138727.57248915604,-1406.89098515778,58.1820850316156,138884.15248825672,8208.44648210547,29.20966805055448,0.9980132872022368,95.0,59.0,224.0,124.0,348.0,36.0,881.0,877.0,38.0,19.0,19.0,0.5,64.47859966174721,1735.8567856912591,16.0,12.0,4.0,0.75,1049.49491851087,8774.558203619934,26.0,13.0,13.0,0.5,2280.4153989853785,53150.06877192289,138.0,67.0,71.0,0.4855072463768116,47.70052814934014,1188.931015683212,65.0,33.0,32.0,0.5076923076923077,96.28355008737805,8581.215619262433,,,,,138473.0,138509.0,138568.0,138583.0,138595.0,138621.0,138662.0,138792.0,138851.0,138916.0,0.032955657008939335,-0.19659341134316105,0.04287355841726206,-0.03390492131413481,0.011729813954111483
125,125,139314.20339919667,1551.7652923003834,10.372981129224982,139404.99871447962,-5245.467714412189,8.511404290161321,139433.68979921378,52200.246783465765,10.389356979306037,139555.4561503869,-2522.443488567244,96.45420347111067,139707.57227815708,7931.384583330168,28.577583179539403,0.9983129412118588,93.0,64.0,244.0,103.0,347.0,29.0,826.0,826.0,29.0,15.0,14.0,0.5172413793103449,71.84442156742502,1239.6245721803175,18.0,13.0,5.0,0.7222222222222222,950.964974169822,6252.023130419059,25.0,13.0,12.0,0.52,2248.5951475677584,50124.66832681539,153.0,72.0,81.0,0.4705882352941176,50.12525765360306,2766.19752264111,60.0,29.0,31.0,0.4833333333333333,92.66058954658392,7783.190768313205,,,,,139299.0,139328.0,139392.0,139409.0,139421.0,139446.0,139483.0,139636.0,139679.0,139739.0,0.046298510428030445,-0.18129269417806107,0.04307633174408655,-0.019871706890874436,0.011682776011307513
126,126,140128.40341783655,2359.267565858458,25.53172802641566,140218.85621569562,-5004.660718032875,7.844520987713554,140248.37653304136,54063.13319716253,10.300454100918556,140384.98246166896,-2113.9337940234427,75.16699342894009,140523.5666160556,7583.589701059006,30.996246180322803,0.9957471083986836,100.0,56.0,244.0,105.0,349.0,44.0,809.0,815.0,44.0,21.0,23.0,0.4772727272727273,58.66416057722583,2574.8436464020674,17.0,12.0,5.0,0.7058823529411765,910.162695407544,6323.811712111217,25.0,12.0,13.0,0.48,2323.532643268564,54240.70616802799,149.0,85.0,64.0,0.5704697986577181,49.51297764847313,2075.7560150424233,64.0,32.0,32.0,0.5,91.5367643269346,7704.589145660724,,,,,140107.0,140151.0,140207.0,140223.0,140236.0,140261.0,140300.0,140451.0,140492.0,140556.0,0.024865412226306734,-0.18186301663328167,0.04297813511464246,-0.02342219883539269,0.01207037404913296
127,127,141068.36991350213,2008.551992403603,25.062566350809792,141156.5430449039,-4523.646985040137,6.923706917812228,141185.89068819082,59472.27526238539,10.517137288427689,141346.69888931105,-2078.8792804196632,72.88063541700942,141467.65142652925,7712.859364479862,30.73950547299609,0.9951989171207932,99.0,55.0,262.0,91.0,353.0,44.0,938.0,937.0,47.0,22.0,25.0,0.4680851063829787,63.188327029947224,2089.2398044941474,15.0,12.0,3.0,0.8,1045.9505183348188,9570.016044753793,26.0,13.0,13.0,0.5,2479.8393350378806,58390.64957479504,170.0,109.0,61.0,0.6411764705882353,45.89710307409629,1851.0169878835195,62.0,31.0,31.0,0.5,97.11005500314074,7481.701139918823,,,,,141047.0,141091.0,141146.0,141160.0,141173.0,141199.0,141237.0,141408.0,141437.0,141499.0,0.03145964220439757,-0.2312184221699471,0.041697401421033446,-0.02207781062921126,0.012590668442674195
128,128,142093.945252602,1887.270097244544,19.251614466713736,142178.68600936083,-5354.078829994912,7.6806915635951585,142207.61140637205,59487.826018239546,10.594218919624282,142365.57558481034,-2136.1269293605105,67.95445817163342,142489.70429321993,7901.000821421239,30.067096829919677,0.9957504938252076,93.0,52.0,263.0,91.0,354.0,41.0,1026.0,1022.0,46.0,22.0,24.0,0.4782608695652174,55.828888730665184,1636.3883720083263,16.0,13.0,3.0,0.8125,1103.2481281524952,9593.60523769267,26.0,13.0,13.0,0.5,2491.340939695447,58002.15653824986,165.0,102.0,63.0,0.6181818181818182,54.904914454121005,2033.092322480244,62.0,31.0,31.0,0.5,94.73451893612808,7678.659032024393,,,,,142074.0,142115.0,142167.0,142182.0,142195.0,142221.0,142263.0,142430.0,142459.0,142521.0,0.0295818223433819,-0.2060575055361192,0.04187984511203314,-0.025703020592768716,0.011990192265172698
129,129,143115.945252602,2054.942145633354,21.323627952988183,143199.97262630097,-5145.134730847024,7.168942277653282,143229.23131961055,59176.36550692673,10.493991350615412,143386.1509239102,-2239.0861393008586,66.13698058918033,143510.3131555335,7819.163610182967,30.076204223431265,0.9955384193306724,94.0,55.0,259.0,92.0,351.0,39.0,1022.0,1021.0,43.0,21.0,22.0,0.4883720930232558,55.14925376656958,1950.4409238078113,15.0,11.0,4.0,0.7333333333333333,1026.1582720034228,8066.831580870262,26.0,13.0,13.0,0.5,2497.674445136359,59503.40937037438,161.0,99.0,62.0,0.6149068322981367,46.89723282568581,2213.525208377442,62.0,30.0,32.0,0.4838709677419355,96.19409308992095,7756.449155263204,,,,,143096.0,143135.0,143190.0,143204.0,143216.0,143242.0,143285.0,143449.0,143480.0,143541.0,0.026837375389744622,-0.1994424491648813,0.042207297182588886,-0.02094480958214908,0.012302350722607533
130,130,144119.36991350213,1880.023218941524,36.027096671784115,144204.54796540082,-6090.827895372344,8.074749615250674,144232.80924281932,58105.56196217756,10.589200251964195,144380.38372320688,-1518.339872237883,52.196513190817086,144515.734940027,7482.824134191079,29.408823694171012,0.9940692941505834,95.0,27.0,260.0,93.0,353.0,68.0,1003.0,1004.0,70.0,21.0,49.0,0.3,59.12220657780886,2192.371222887807,16.0,13.0,3.0,0.8125,1186.6982157323926,10240.84209893786,26.0,13.0,13.0,0.5,2468.4096310090667,57834.650364794994,135.0,62.0,73.0,0.4592592592592592,45.557604276300104,1390.392488228303,64.0,34.0,30.0,0.53125,93.81088157688028,7356.805671807562,,,,,144098.0,144166.0,144193.0,144208.0,144220.0,144246.0,144312.0,144453.0,144483.0,144546.0,0.03144759382870568,-0.19483364759559463,0.042481469030724105,-0.030004879084913116,0.012536828327720892
131,131,145056.4053993282,1608.5059278304525,10.657066965446516,145148.24635435618,-6470.9431821734415,8.8032828789813,145176.09818756723,55081.4356780059,10.574139500568196,145331.60261203314,-1735.468351448442,75.46402821470879,145452.00178482424,7926.836413697531,28.758446297960575,0.998409722885638,93.0,66.0,254.0,94.0,348.0,27.0,943.0,943.0,27.0,13.0,14.0,0.4814814814814814,73.73328090607947,1663.502917116415,17.0,13.0,4.0,0.7647058823529411,1098.8408239135535,7991.540908119812,26.0,13.0,13.0,0.5,2360.146045359807,55790.04700947602,160.0,103.0,57.0,0.64375,51.31289577514167,1700.1465322753377,62.0,30.0,32.0,0.4838709677419355,88.41465301634314,7939.529165819288,,,,,145043.0,145070.0,145136.0,145152.0,145163.0,145189.0,145227.0,145390.0,145422.0,145484.0,0.04583960781887243,-0.16981153952034517,0.04284830299552662,-0.029567174608695877,0.01115383848007297
132,132,145929.58982242283,1709.6328545409106,11.325568460211136,146020.47483458024,-5823.257353775814,8.658868861622965,146048.26265533705,52922.70315555085,10.5168042202314,146167.26076188378,-1741.728400967175,73.17861456290763,146324.06915927638,7733.476742585835,28.518013469949015,0.998260751368154,93.0,65.0,237.0,111.0,348.0,28.0,871.0,872.0,31.0,16.0,15.0,0.5161290322580645,67.14564926238343,1538.9634908996784,17.0,13.0,4.0,0.7647058823529411,1018.606611836882,7475.525229704883,25.0,12.0,13.0,0.48,2278.9950543996083,53565.24451949759,150.0,67.0,83.0,0.4466666666666666,52.114837231820125,1636.670271806503,64.0,32.0,32.0,0.5,87.24373466730064,7865.59902855315,,,,,145915.0,145943.0,146008.0,146024.0,146036.0,146061.0,146101.0,146245.0,146292.0,146356.0,0.039274894070992876,-0.1749204182391862,0.04306271068016248,-0.029921334005279444,0.01128130820991246
133,133,146757.94173989777,1752.305708251159,11.583180519704085,146850.22054315184,-5474.746902374688,8.328728986296708,146878.91078646795,51901.99204129767,10.373183865754092,147008.66612432234,-2320.0625115763896,65.69208855020462,147154.01595324886,7584.556565092073,28.531431289563223,0.9979362702593204,96.0,65.0,242.0,105.0,347.0,31.0,827.0,831.0,31.0,16.0,15.0,0.5161290322580645,69.88727233725662,1646.2196886581542,17.0,12.0,5.0,0.7058823529411765,935.8830213914392,6287.44415513351,26.0,13.0,13.0,0.5,2243.717650492666,51275.06080043113,150.0,77.0,73.0,0.5133333333333333,51.273183105962474,2282.30072131879,61.0,30.0,31.0,0.4918032786885246,97.0305195173448,7776.967115325731,,,,,146742.0,146773.0,146838.0,146854.0,146866.0,146892.0,146933.0,147080.0,147124.0,147185.0,0.03988303639494829,-0.1709454405984498,0.04322989469666929,-0.02209991448511635,0.012793169737032201
134,134,147575.59651444777,1784.715540812251,11.095241227381011,147667.69209737986,-5201.917712007247,8.443046750423441,147696.70357054533,52022.59977417634,10.340803048235932,147835.8233058154,-2305.3212970850395,77.73537493870228,147970.70513703334,7529.652874991934,29.617534607752347,0.997889324081206,96.0,66.0,247.0,99.0,346.0,30.0,820.0,818.0,30.0,16.0,14.0,0.5333333333333333,65.45294387318901,1606.4786762176336,17.0,13.0,4.0,0.7647058823529411,946.368003517139,6790.101936993593,26.0,13.0,13.0,0.5,2249.1986247009295,50644.38101659262,154.0,87.0,67.0,0.564935064935065,57.63955720234542,2346.847301904599,60.0,29.0,31.0,0.4833333333333333,93.7022408733903,7699.721001635587,,,,,147560.0,147590.0,147656.0,147672.0,147684.0,147710.0,147748.0,147903.0,147942.0,148002.0,0.03667416032215441,-0.18192675392244276,0.04323502928466516,-0.025002830310563513,0.012444430364725236
135,135,148413.24159610205,1864.3076852606944,14.733461985195117,148509.19934300883,-5043.180996079231,8.086824156715386,148538.4583358314,53136.681181733795,10.302367016768727,148670.3112077452,-2214.247827525824,82.98186017524142,148813.66771886856,7487.367853691306,29.094227587736707,0.9981231857487268,101.0,66.0,250.0,97.0,347.0,35.0,838.0,842.0,35.0,16.0,19.0,0.4571428571428571,71.96487372564609,1947.129683144992,16.0,11.0,5.0,0.6875,886.6368221423362,5513.702030314119,25.0,12.0,13.0,0.48,2291.568398053,53399.07599731408,160.0,82.0,78.0,0.5125,51.98165314292,2280.423300648151,61.0,30.0,31.0,0.4918032786885246,97.70229150958536,7456.692701927518,,,,,148397.0,148432.0,148498.0,148514.0,148526.0,148551.0,148587.0,148748.0,148784.0,148845.0,0.03860139305040891,-0.17580904251337456,0.043125922565911905,-0.023475986968000653,0.013048950367974467
136,136,153446.20383534994,1370.609267436675,24.731013569945333,153505.47584622234,-3940.457788255564,7.009057600596985,153535.14830969236,56620.64419256312,10.532801490437532,153689.05499310847,-2539.67049850385,60.63336994474552,153820.8600655054,7592.286987845391,28.388186246235268,0.9949278910544492,81.0,10.0,267.0,89.0,356.0,71.0,5027.0,4996.0,73.0,34.0,39.0,0.4657534246575342,53.44665469508012,1127.1599290369572,14.0,10.0,4.0,0.7142857142857143,865.0392500380061,7163.719251835442,26.0,13.0,13.0,0.5,2364.0078900464655,56385.4364350614,153.0,81.0,72.0,0.5294117647058824,55.80606333424478,2374.017925627972,62.0,31.0,31.0,0.5,94.74532715058916,7259.720756162184,,,,,153414.0,153485.0,153495.0,153509.0,153522.0,153548.0,153605.0,153762.0,153791.0,153851.0,0.0389948149081441,-0.21952760225378737,0.041751695406478044,-0.021973741620072682,0.012479155134976907
137,137,154493.52059170185,1667.8922760347248,33.12355021123273,154576.12330450068,-4099.222460067819,6.580026233181289,154605.6868668438,59160.35632630577,10.593413842012398,154760.75363670904,-2152.6194086563237,60.84955521973911,154890.32576242226,7926.248423419252,31.062491012205648,0.993693560131936,92.0,50.0,261.0,93.0,354.0,42.0,1049.0,1071.0,46.0,19.0,27.0,0.4130434782608695,64.57151484222462,2085.6353874056263,13.0,10.0,3.0,0.7692307692307693,958.0566285436356,8479.908690946168,27.0,14.0,13.0,0.5185185185185185,2454.706451083938,57649.55451357209,155.0,89.0,66.0,0.5741935483870968,47.99104496914494,1943.3646674170536,63.0,32.0,31.0,0.5079365079365079,98.1886145763457,7828.194982208485,,,,,154475.0,154517.0,154567.0,154579.0,154592.0,154619.0,154671.0,154828.0,154858.0,154921.0,0.03871443963739554,-0.23371667136303337,0.04149242167414816,-0.022294254514364523,0.012387779101930894
